reading_id,reading_time,wire_id,result_classification,heart_rate,heart_rate_alert,firmware_version,device_app_version,hardware_version,waveform_samples
d88e1a10-5cb9-11ed-8080-808080808080,Sat Nov 05 03:27:59 UTC 2022,e101e3752439,NSR,70,NONE,20001.171.50,2.10.0,Charge 5,[4293  5211  5743  5882  5865  5881  5979  6130  6276  6374  6417  6417  6354  6200  6015  5915  5930  5985  6014  6008  5974  5907  5801  5724  5902  6592  7705  8773  9449  9759  9868  9882  9849  9795  9708  9566  9409  9316  9317  9363  9328  9050  8467  7685  6787  5764  4727  3900  3367  3010  2650  2148  1447  537  -529  -1556  -2317  -2790  -3115  -3406  -3700  -3982  -4202  -4375  -4614  -4991  -5457  -5896  -6214  -6429  -6633  -6843  -6985  -6999  -6861  -6585  -6230  -5831  -5350  -4786  -4228  -3646  -2835  -1799  -848  -195  183  369  442  523  766  1299  2100  2976  3712  4214  4528  4758  4965  5177  5437  5759  6083  6342  6530  6695  6914  7175  7374  7467  7543  7715  8026  8413  8748  8985  9184  9371  9503  9560  9557  9459  9194  8757  8286  7948  7779  7692  7592  7470  7393  7397  7405  7302  7050  6718  6434  6283  6256  6302  6383  6414  6202  5612  4800  4120  3853  4189  5255  7004  9216  11587  13587  14449  13692  11532  8640  5758  3570  2412  2037  1954  1865  1651  1245  666  39  -462  -735  -813  -819  -867  -1000  -1169  -1314  -1461  -1692  -1996  -2269  -2452  -2568  -2661  -2750  -2834  -2913  -2975  -3027  -3148  -3395  -3712  -4003  -4207  -4304  -4299  -4176  -3933  -3655  -3479  -3474  -3611  -3796  -3926  -3979  -4005  -4036  -4058  -4054  -4039  -4042  -4083  -4141  -4165  -4133  -4095  -4129  -4234  -4328  -4354  -4333  -4318  -4337  -4377  -4419  -4491  -4677  -5027  -5459  -5819  -6005  -6022  -5985  -6020  -6139  -6288  -6411  -6468  -6472  -6461  -6434  -6342  -6144  -5907  -5766  -5753  -5804  -5875  -5963  -6099  -6280  -6370  -6243  -5978  -5748  -5635  -5616  -5632  -5639  -5629  -5617  -5606  -5580  -5527  -5441  -5339  -5254  -5202  -5183  -5183  -5156  -5073  -4993  -5001  -5116  -5276  -5349  -5256  -5039  -4728  -4326  -3915  -3653  -3659  -3871  -4098  -4232  -4257  -4190  -4088  -3987  -3852  -3642  -3358  -3054  -2819  -2702  -2668  -2662  -2663  -2665  -2626  -2499  -2293  -2076  -1931  -1905  -1977  -2075  -2148  -2207  -2306  -2462  -2578  -2510  -2257  -1990  -1847  -1818  -1832  -1870  -1947  -2051  -2140  -2199  -2254  -2282  -2133  -1702  -1240  -1127  -1307  -1408  -1073  86  2248  4943  7300  8579  8309  6492  3835  1289  -581  -1575  -1780  -1621  -1495  -1456  -1386  -1272  -1189  -1137  -1068  -990  -940  -924  -928  -943  -960  -970  -970  -970  -986  -1011  -1014  -934  -718  -422  -185  -70  -42  -43  -46  -59  -113  -215  -321  -360  -290  -115  117  336  471  517  534  564  601  622  624  628  668  771  909  1012  1068  1158  1377  1697  1944  2002  1945  1876  1805  1697  1559  1438  1372  1329  1224  1015  751  521  359  230  72  -137  -344  -483  -560  -613  -639  -619  -578  -576  -642  -722  -777  -826  -878  -903  -869  -788  -703  -645  -610  -571  -535  -530  -561  -608  -643  -653  -646  -635  -635  -661  -701  -695  -592  -429  -289  -215  -211  -277  -406  -560  -676  -721  -690  -587  -443  -307  -210  -178  -232  -341  -431  -412  -263  -79  34  75  100  162  273  412  562  703  806  854  830  726  565  386  215  78  0  -30  -46  -63  -77  -83  -87  -112  -180  -277  -351  -366  -315  -230  -201  -298  -479  -663  -815  -909  -901  -677  -62  1022  2582  4562  6658  8222  8530  7305  4972  2361  312  -618  -579  -298  -261  -420  -558  -530  -348  -145  -4  65  83  73  65  95  188  302  332  193  -94  -352  -367  -164  42  150  227  321  386  377  325  298  322  367  408  447  491  549  644  752  821  850  875  915  955  987  1040  1172  1408  1703  1950  2061  2047  1993  1962  1966  1980  1991  2011  2066  2144  2188  2157  2083  1999  1873  1676  1417  1149  932  773  635  517  439  377  279  123  -54  -210  -317  -359  -351  -332  -319  -304  -279  -248  -224  -216  -228  -269  -328  -385  -424  -442  -437  -417  -392  -354  -282  -197  -145  -146  -182  -219  -237  -238  -236  -235  -234  -232  -233  -239  -254  -271  -284  -293  -313  -342  -345  -302  -245  -214  -220  -246  -255  -193  -32  182  352  432  449  441  428  416  410  420  456  514  579  644  679  590  274  -212  -650  -873  -887  -804  -727  -688  -661  -628  -592  -570  -568  -583  -609  -635  -647  -622  -577  -619  -872  -1304  -1577  -1129  421  2944  5755  7923  8712  7839  5595  2799  432  -866  -1066  -675  -346  -334  -489  -667  -818  -907  -915  -855  -776  -716  -658  -590  -534  -517  -543  -597  -625  -589  -511  -432  -356  -238  -25  233  366  253  -34  -287  -349  -250  -95  85  314  544  681  677  563  429  368  390  464  577  696  777  825  887  1051  1392  1802  2043  2046  1957  1901  1885  1881  1875  1864  1837  1789  1727  1636  1471  1229  977  743  505  269  86  -43  -179  -348  -506  -613  -657  -651  -637  -680  -824  -1025  -1189  -1273  -1300  -1291  -1233  -1135  -1049  -1006  -998  -1001  -1004  -1008  -1015  -1021  -1020  -1033  -1082  -1140  -1140  -1026  -812  -595  -469  -450  -514  -642  -784  -846  -769  -596  -438  -360  -349  -367  -395  -429  -457  -466  -460  -453  -458  -476  -497  -521  -543  -544  -514  -482  -478  -485  -475  -455  -444  -438  -420  -385  -350  -330  -326  -325  -321  -315  -307  -299  -290  -289  -297  -282  -194  -62  -2  -39  -88  -82  -23  41  82  111  143  169  181  190  206  234  280  339  390  438  510  597  643  609  504  359  204  75  0  -27  -39  -79  -168  -280  -359  -389  -402  -430  -482  -544  -569  -530  -468  -426  -398  -373  -389  -531  -827  -1111  -1040  -286  1299  3558  6058  8254  9577  9547  8042  5501  2769  613  -558  -798  -579  -326  -126  -12  -48  -193  -368  -524  -623  -661  -667  -661  -634  -575  -498  -442  -423  -425  -433  -447  -462  -463  -422  -345  -307  -385  -558  -704  -712  -581  -404  -248  -117  -5  74  113  119  139  241  447  669  778  735  624  554  556  607  704  855  1032  1193  1314  1393  1433  1447  1465  1504  1559  1607  1631  1603  1477  1249  971  693  452  287  203  157  78  -106  -397  -673  -823  -851  -833  -818  -821  -835  -843  -831  -806  -780  -760  -748  -751  -796  -894  -988  -991  -904  -812  -766  -756  -754  -744  -718  -675  -619  -539  -456  -433  -531  -765  -1024  -1114  -995  -804  -645  -538  -480  -467  -488  -539  -606  -658  -683  -686  -677  -687  -747  -841  -914  -942  -946  -944  -922  -853  -743  -623  -520  -461  -467  -522  -574  -598  -616  -649  -686  -703  -687  -656  -644  -662  -688  -696  -686  -671  -638  -566  -480  -458  -548  -695  -802  -832  -815  -779  -739  -706  -679  -649  -625  -629  -651  -654  -618  -551  -464  -376  -318  -304  -307  -273  -164  -17  82  104  92  127  257  434  525  437  200  -100  -381  -573  -652  -656  -639  -624  -614  -608  -606  -607  -607  -607  -609  -616  -632  -653  -652  -584  -479  -538  -957  -1597  -1982  -1591  -166  2114  4771  7251  8985  9492  8627  6661  4150  1749  24  -799  -935  -716  -371  -134  -138  -240  -283  -271  -254  -252  -268  -290  -300  -321  -384  -458  -498  -512  -519  -502  -433  -330  -250  -221  -224  -237  -256  -280  -301  -308  -284  -210  -89  49  166  234  269  313  378  438  473  487  486  503  609  847  1171  1470  1654  1712  1689  1634  1597  1594  1606  1619  1647  1686  1710  1708  1686  1638  1537  1381  1207  1038  842  581  284  42  -77  -87  -81  -154  -297  -422  -478  -486  -480  -477  -479  -480  -474  -451  -407  -355  -316  -301  -308  -343  -417  -533  -662  -746  -745  -656  -522  -412  -368  -396  -489  -612  -717  -797  -875  -932  -943  -941  -952  -951  -911  -840  -755  -669  -583  -490  -403  -358  -370  -403  -421  -420  -402  -367  -319  -280  -271  -283  -287  -272  -255  -261  -293  -325  -330  -306  -270  -243  -230  -226  -237  -284  -370  -466  -541  -586  -593  -542  -426  -309  -283  -358  -460  -525  -556  -583  -612  -631  -643  -657  -675  -695  -705  -683  -611  -501  -402  -345  -324  -317  -310  -290  -237  -138  -15  91  169  231  260  222  107  -71  -264  -407  -489  -551  -618  -670  -677  -647  -626  -665  -759  -824  -808  -747  -662  -559  -530  -679  -969  -1221  -1317  -1276  -1099  -638  370  2116  4470  6940  8795  9318  8179  5716  2868  657  -403  -458  -58  260  287  113  -93  -271  -471  -675  -763  -676  -500  -368  -321  -324  -341  -373  -426  -476  -494  -483  -459  -422  -367  -299  -228  -179  -159  -159  -168  -171  -137  -32  117  222  229  183  127  49  -55  -125  -57  216  605  915  1061  1107  1116  1111  1100  1091  1080  1062  1053  1106  1270  1499  1679  1748  1728  1649  1522  1375  1223  1013  682  273  -81  -301  -396  -423  -445  -504  -592  -678  -767  -860  -899  -842  -753  -712  -713  -719  -714  -711  -740  -828  -942  -1007  -977  -888  -808  -768  -756  -763  -784  -826  -921  -1052  -1117  -1038  -874  -747  -699  -681  -637  -575  -542  -553  -588  -634  -682  -722  -758  -794  -823  -831  -809  -759  -704  -655  -585  -475  -360  -291  -282  -304  -332  -364  -405  -459  -529  -594  -595  -493  -304  -114  -24  -44  -107  -182  -281  -408  -560  -716  -794  -737  -614  -516  -463  -441  -438  -440  -442  -444  -448  -456  -455  -424  -362  -302  -241  -95  156  411  554  549  452  356  299  232  93  -98  -281  -452  -638  -806  -913  -976  -1041  -1115  -1151  -1075  -858  -586  -398  -354  -413  -527  -683  -887  -1115  -1283  -1244  -802  192  1763  3828  6035  7717  8255  7349  5163  2413  49  -1260  -1432  -919  -291  103  133  -138  -472  -661  -694  -653  -599  -543  -470  -387  -335  -347  -398  -416  -343  -202  -70  -10  -18  -48  -68  -73  -55  -3  71  140  198  253  299  320  321  324  340  368  400  436  484  546  617  691  759  823  935  1159  1448  1672  1777  1811  1817  1808  1803  1789  1737  1671  1623  1583  1532  1468  1398  1318  1202  1026  782  480  181  -41  -201  -340  -454  -513  -511  -489  -510  -619  -812  -1018  -1150  -1197  -1192  -1137  -1007  -834  -701  -647  -638  -627  -608  -604  -614  -619  -617  -612  -610  -610  -604  -589  -577  -579  -597  -608  -584  -536  -496  -475  -437  -344  -210  -98  -46  -54  -114  -208  -305  -384  -446  -508  -557  -552  -489  -411  -354  -326  -315  -308  -313  -363  -473  -592  -627  -570  -506  -487  -497  -500  -457  -333  -144  38  169  260  335  386  383  309  211  149  132  126  107  79  43  -17  -95  -165  -231  -320  -422  -523  -623  -697  -702  -618  -490  -401  -402  -473  -558  -630  -702  -760  -796  -873  -1056  -1262  -1249  -737  445  2253  4404  6385  7561  7494  6150  3937  1606  -95  -820  -784  -501  -333  -327  -352  -338  -328  -365  -438  -511  -559  -571  -521  -380  -193  -76  -102  -238  -376  -427  -398  -349  -312  -265  -172  -41  62  94  58  -7  -56  -74  -95  -142  -174  -154  -80  31  176  343  491  581  626  671  761  913  1106  1296  1454  1576  1659  1702  1699  1653  1590  1539  1504  1495  1524  1569  1589  1550  1420  1156  743  266  -137  -405  -569  -674  -758  -857  -964  -1033  -1055  -1078  -1152  -1261  -1342  -1367  -1370  -1379  -1380  -1352  -1314  -1304  -1335  -1376  -1391  -1382  -1373  -1378  -1391  -1391  -1330  -1171  -954  -810  -830  -941  -1000  -983  -954  -945  -947  -939  -911  -873  -849  -844  -830  -771  -672  -576  -535  -557  -601  -630  -643  -645  -638  -627  -619  -613  -611  -611  -608  -597  -584  -578  -589  -616  -663  -742  -834  -892  -896  -868  -822  -773  -738  -725  -726  -732  -736  -730  -704  -677  -688  -729  -743  -721  -704  -700  -678  -603  -480  -360  -276  -213  -132  2  201  415  560  569  413  124  -169  -344  -393  -392  -393  -393  -380  -369  -397  -478  -581  -652  -678  -693  -724  -772  -839  -937  -1049  -1141  -1209  -1287  -1397  -1445  -1206  -471  841  2704  4936  7131  8746  9227  8196  5840  2983  588  -686  -790  -325  36  93  -21  -195  -409  -625  -750  -744  -665  -582  -519  -476  -440  -398  -352  -312  -276  -238  -211  -206  -221  -243  -256  -250  -238  -230  -215  -178  -134  -112  -108  -68  47  204  319  363  367  360  361  411  554  802  1093  1326  1447  1473  1438  1379  1326  1312  1393  1602  1869  2061  2122  2100  2047  1979  1887  1738  1504  1214  958  815  767  730  625  439  226  61  -29  -100  -238  -462  -678  -774  -731  -622  -535  -499  -488  -481  -472  -465  -454  -432  -402  -380  -372  -365  -360  -391  -495  -650  -778  -847  -887  -916  -923  -895  -822  -723  -647  -620  -624  -628  -617  -597  -569  -528  -482  -451  -440  -440  -446  -464  -501  -545  -575  -585  -588  -591  -577  -525  -443  -386  -382  -402  -419  -421  -410  -410  -431  -456  -473  -478  -464  -437  -409  -388  -361  -325  -307  -329  -366  -385  -384  -387  -407  -438  -464  -476  -481  -475  -440  -365  -275  -210  -185  -193  -220  -269  -328  -373  -376  -320  -206  -46  144  336  481  556  589  602  554  361  15  -349  -589  -696  -755  -816  -859  -860  -822  -783  -782  -823  -876  -914  -926  -908  -874  -899  -1088  -1412  -1674  -1609  -915  570  2704  5168  7473  8935  9020  7608  5121  2440  395  -626  -753  -533  -473  -656  -831  -800  -662  -587  -586  -598  -597  -592  -601  -627  -658  -682  -700  -715  -711  -667  -577  -472  -400  -387  -419  -479  -543  -580  -572  -528  -475  -438  -402  -332  -229  -127  -42  23  61  84  121  196  314  467  626  756  832  853  840  842  931  1141  1362  1414  1297  1183  1181  1281  1417  1522  1565  1530  1386  1128  821  554  384  285  177  17  -167  -339  -474  -555  -581  -580  -622  -786  -1036  -1230  -1297  -1280  -1238  -1188  -1130  -1063  -982  -897  -839  -822  -834  -858  -878  -881  -874  -871  -875  -878  -878  -883  -898  -915  -913  -877  -821  -779  -766  -769  -775  -778  -779  -778  -783  -796  -816  -829  -823  -790  -743  -700  -671  -655  -645  -629  -594  -533  -453  -379  -322  -275  -240  -237  -273  -323  -353  -357  -362  -402  -481  -573  -661  -767  -882  -936  -871  -716  -553  -446  -402  -396  -399  -402  -414  -451  -504  -536  -518  -454  -379  -328  -313  -338  -412  -515  -604  -660  -674  -627  -506  -350  -234  -198  -216  -216  -112  129  423  641  738  742  646  430  144  -98  -233  -290  -352  -480  -641  -742  -735  -658  -571  -507  -478  -486  -541  -666  -835  -935  -833  -529  -282  -410  -869  -1250  -1118  -185  1610  4021  6496  8335  8964  8150  6066  3357  958  -452  -810  -509  -101  12  -235  -624  -893  -947  -850  -712  -618  -588  -605  -653  -717  -759  -723  -566  -332  -135  -46  -42  -73  -107  -140  -175  -216  -240  -209  -104  55  218  331  386  399  392  397  429  473  518  569  636  696  719  736  802  925  1107  1335  1527  1616  1618  1588  1569  1568  1570  1582  1629  1700  1767  1820  1864  1877  1820  1631  1260  749  267  -21  -101  -77  -40  -45  -141  -339  -576  -756  -834  -836  -814  -800  -803  -812  -813  -809  -817  -863  -938  -984  -962  -903  -854  -828  -818  -813  -791  -750  -722  -734  -752  -725  -653  -560  -456  -361  -346  -454  -628  -752  -780  -758  -728  -687  -626  -566  -532  -535  -574  -628  -655  -619  -522  -410  -333  -310  -336  -407  -498  -564  -586  -583  -574  -567  -568  -592  -657  -725  -716  -620  -513  -439  -394  -376  -395  -445  -503  -534  -518  -460  -358  -199  -18  110  162  188  235  283  282  237  161  49  -60  -119  -152  -221  -356  -525  -642  -656  -590  -511  -479  -490  -499  -493  -487  -490  -493  -499  -539  -659  -856  -1039  -1111  -1059  -871  -421  492  1983  3899  5786  7104  7439  6606  4837  2737  908  -279  -755  -756  -604  -484  -408  -354  -338  -369  -444  -551  -656  -691  -622  -494  -389  -345  -344  -362  -372  -348  -279  -189  -124  -97  -86  -72  -44  -8  14  14  0  -35  -84  -95  -37  60  148  205  241  293  407  585  755  855  902  931  944  940  951  1050  1284  1581  1792  1861  1850  1828  1817  1815  1824  1851  1881  1844  1638  1253  845  598  529  507  406  184  -94  -327  -454  -489  -476  -450  -438  -462  -531  -618  -679  -700  -709  -750  -851  -972  -1012  -926  -805  -783  -863  -945  -986  -1009  -1025  -1024  -1001  -963  -920  -881  -853  -827  -773  -677  -548  -421  -351  -363  -407  -426  -417  -408  -411  -416  -418  -418  -424  -434  -442  -436  -414  -378  -346  -344  -384  -459  -560  -675  -774  -810  -754  -641  -537  -482  -468  -476  -487  -490  -475  -444  -415  -392  -361  -334  -344  -406  -502  -598  -674  -730  -769  -783  -777  -768  -753  -716  -636  -516  -383  -258  -157  -103  -107  -165  -249  -304  -265  -97  138  323  407  425  404  337  236  142  65  -21  -125  -237  -353  -482  -630  -792  -938  -1002  -906  -642  -361  -267  -385  -566  -686  -724  -711  -712  -836  -1172  -1603  -1781  -1348  -105  1858  4125  6261  7962  8840  8521  6970  4545  1937  -66  -1060  -1219  -998  -774  -699  -693  -646  -578  -539  -525  -523  -529  -540  -532  -488  -434  -430  -489  -573  -652  -717  -756  -767  -743  -677  -580  -469  -346  -224  -144  -121  -127  -128  -110  -76  -32  22  90  162  234  295  327  336  362  447  592  778  990  1184  1298  1324  1315  1320  1358  1432  1539  1665  1760  1766  1687  1577  1444  1263  1061  909  830  776  676  492  239  -57  -389  -697  -880  -913  -856  -781  -731  -712  -700  -679  -646  -627  -642  -682  -727  -769  -796  -798  -772  -726  -673  -629  -609  -616  -642  -681  -724  -735  -701  -674  -700  -750  -770  -746  -703  -671  -655  -644  -631  -621  -618  -620  -622  -625  -625  -620  -610  -600  -590  -571  -540  -504  -479  -468  -464  -458  -445  -438  -451  -493  -565  -662  -757  -795  -735  -600  -466  -391  -373  -379  -390  -401  -408  -411  -409  -403  -400  -403  -416  -456  -533  -603  -603  -510  -360  -229  -163  -150  -161  -177  -199  -225  -252  -275  -284  -276  -255  -239  -256  -346  -506  -661  -696  -560  -329  -126  0  77  131  165  172  164  197  298  419  492  511  508  505  498  447  319  140  -4  -66  -77  -107  -196  -315  -406  -444  -443  -424  -410  -421  -464  -507  -502  -441  -352  -241  -129  -151  -470  -1005  -1446  -1407  -460  1537  4176  6814  8824  9590  8805  6782  4232  1853  168  -635  -831  -809  -736  -655  -606  -604  -640  -691  -735  -759  -769  -767  -747  -700  -617  -514  -428  -386  -376  -380  -396  -423  -446  -441  -415  -390  -371  -324  -223  -88  32  110  142  147  149  158  179  222  299  397  484  540  572  598  647  762  963  1191  1350  1424  1475  1549  1648  1752  1845  1909  1924  1879  1787  1665  1512  1333  1164  1037  956  902  832  666  358  -6  -273  -381  -389  -385  -432  -551  -707  -832  -881  -872  -842  -806  -775  -754  -729  -689  -636  -579  -543  -560  -640  -754  -839  -837  -757  -670  -622  -608  -596  -559  -503  -459  -442  -442  -444  -443  -447  -466  -494  -514  -518  -511  -505  -527  -596  -689  -735  -680  -551  -435  -374  -331  -294  -306  -383  -468  -485  -426  -340  -260  -231  -316  -517  -747  -899  -946  -927  -879  -807  -703  -568  -440  -395  -468  -594  -684  -715  -711  -683  -605  -448  -259  -159  -214  -362  -493  -548  -549  -539  -545  -570  -594  -587  -528  -406  -260  -164  -143  -156  -178  -217  -286  -384  -488  -550  -540  -469  -366  -268  -200  -160  -135  -101  -28  85  226  385  525  608  627  590  489  343  192  46  -90  -206  -305  -400  -481  -532  -551  -549  -535  -516  -495  -475  -470  -488  -511  -496  -438  -450  -690  -1123  -1501  -1505  -845  651  2903  5432  7477  8331  7646  5663  3097  783  -668  -1156  -1023  -736  -592  -595  -594  -539  -486  -456  -432  -409  -395  -398  -429  -501  -597  -671  -696  -669  -591  -470  -343  -251  -200  -177  -184  -192  -159  -106  -74  -56  -27  15  71  159  277  393  474  513  522  516  495  464  456  527  682  841  932  984  1089  1281  1521  1746  1906  1995  2067  2150  2219  2236  2183  2073  1943  1826  1725  1589  1343  1023  764  620  506  322  82  -111  -219  -293  -391  -523  -649  -718  -721  -707  -730  -803  -902  -986  -1028  -1038  -1037  -1017  -955  -850  -745  -677  -645  -627  -611  -601  -596  -589  -586  -599  -633  -674  -706  -721  -718  -685  -611  -519  -453  -427  -428  -456  -528  -631  -711  -735  -714  -681  -664  -661  -640  -593  -548  -536  -563  -601  -610  -582  -504  -369  -213  -103  -66  -105  -210  -350  -474  -552  -599  -627  -632  -601  -536  -473  -441  -423  -377  -270  -130  -36  -64  -238  -483  -656  -688  -636  -563  -492  -433  -395  -357  -282  -134  90  329  508  597  615  563  427  251  124  65  15  -69  -181  -305  -446  -587  -689  -746  -778  -794  -783  -748  -729  -789  -901  -941  -867  -772  -717  -664  -576  -509  -570  -801  -1002  -716  396  2267  4549  6688  8013  8080  6879  4774  2428  534  -526  -792  -625  -442  -425  -490  -516  -501  -468  -444  -481  -573  -651  -697  -742  -790  -815  -777  -651  -480  -353  -299  -280  -264  -253  -251  -256  -260  -243  -188  -114  -68  -78  -128  -171  -165  -98  27  179  286  318  301  270  244  247  316  490  776  1097  1322  1410  1470  1625  1862  2061  2146  2119  2010  1872  1769  1731  1732  1724  1645  1428  1071  678  391  265  252  257  174  -71  -424  -724  -881  -929  -934  -930  -928  -914  -874  -823  -787  -776  -782  -800  -827  -875  -959  -1062  -1139  -1173  -1180  -1170  -1135  -1064  -976  -907  -859  -806  -736  -649  -565  -506  -477  -475  -529  -674  -856  -934  -824  -604  -420  -335  -315  -320  -351  -422  -515  -584  -607  -590  -544  -487  -439  -389  -317  -248  -241  -317  -410  -425  -371  -328  -325  -326  -298  -250  -212  -212  -256  -329  -407  -472  -514  -530  -519  -480  -419  -355  -315  -310  -328  -349  -357  -352  -347  -347  -340  -306  -253  -243  -310  -402  -452  -433  -344  -221  -132  -118  -166  -235  -283  -299  -293  -281  -266  -257  -264  -294  -340  -373  -352  -252  -100  38  126  175  203  221  230  233  229  212  183  143  103  64  22  -19  -40  -49  -107  -235  -419  -621  -763  -803  -771  -713  -672  -634  -568  -520  -531  -552  -547  -528  -594  -854  -1134  -976  -43  1668  3879  6142  7937  8711  8104  6265  3793  1440  -110  -601  -406  -133  -81  -215  -399  -540  -612  -617  -561  -475  -407  -377  -377  -405  -467  -547  -607  -630  -627  -606  -556  -471  -375  -312  -305  -333  -351  -319  -237  -143  -74  -38  -27  -28  -37  -46  -21  77  254  458  622  684  650  607  636  736  881  1043  1176  1262  1319  1364  1414  1485  1578  1697  1833  1953  1999  1927  1741  1516  1339  1216  1079  868  603  351  151  10  -75  -120  -170  -286  -470  -645  -742  -770  -778  -787  -787  -773  -750  -731  -724  -735  -766  -803  -809  -773  -746  -768  -816  -853  -888  -934  -984  -1026  -1055  -1072  -1060  -992  -873  -759  -689  -663  -662  -645  -582  -504  -462  -464  -483  -501  -514  -526  -530  -519  -495  -475  -465  -467  -477  -498  -525  -544  -548  -529  -481  -420  -376  -358  -345  -327  -310  -302  -303  -308  -307  -290  -251  -201  -164  -150  -158  -192  -248  -301  -321  -314  -301  -305  -330  -347  -328  -284  -241  -201  -151  -87  -27  -9  -62  -181  -337  -467  -512  -480  -411  -320  -235  -190  -180  -184  -199  -230  -273  -309  -328  -315  -255  -173  -145  -225  -369  -485  -532  -525  -482  -418  -339  -230  -91  35  126  203  281  335  351  343  325  306  289  288  306  310  250  107  -100  -323  -491  -569  -583  -573  -563  -559  -574  -621  -689  -749  -784  -799  -802  -794  -788  -839  -1003  -1245  -1397  -1130  -122  1627  3866  6237  8164  9031  8582  6970  4626  2188  312  -639  -803  -582  -268  -11  47  -125  -376  -534  -572  -548  -527  -533  -542  -525  -488  -461  -458  -469  -479  -489  -509  -544  -591  -637  -652  -615  -538  -439  -319  -177  -40  53  82  47  -48  -167  -237  -207  -74  93  202  240  308  493  747  944  1041  1083  1123  1198  1312  1424  1491  1519  1530  1522  1484  1429  1390  1379  1385  1386  1359  1289  1161  977  768  568  393  233  51  -157  -348  -485  -572  -620  -638  -638  -628  -618  -622  -650  -691  -723  -747  -777  -812  -837  -844  -842  -838  -832  -820  -801  -779  -763  -763  -782  -808  -813  -786  -744  -706  -667  -616  -574  -579  -631  -681  -696  -680  -655  -638  -631  -627  -625  -625  -626  -615  -584  -550  -548  -584  -634  -676  -694  -651  -512  -318  -167  -114  -168  -324  -528  -678  -731  -732  -730  -741  -751  -722  -621  -462  -307  -192  -112  -67  -64  -104  -174  -244  -307  -383  -463  -518  -541  -549  -555  -565  -569  -550  -483  -373  -264  -191  -155  -139  -141  -177  -261  -360  -417  -411  -376  -340  -304  -274  -259  -238  -156  11  216  383  479  524  554  589  597  550  461  339  170  -23  -189  -309  -411  -503  -562  -580  -583  -598  -626  -650  -661  -653  -619  -561  -489  -417  -407  -572  -878  -1049  -759  212  1927  4113  6159  7451  7621  6505  4329  1850  -118  -1180  -1334  -871  -313  -78  -132  -220  -248  -259  -297  -382  -494  -592  -664  -684  -597  -388  -144  16  50  -26  -181  -353  -464  -479  -400  -250  -87  29  76  56  -39  -209  -357  -327  -101  189  431  583  649  664  662  657  649  649  678  747  851  970  1070  1127  1157  1214  1365  1627  1915  2101  2153  2128  2095  2083  2075  2045  2009  1979  1886  1622  1206  779  433  168  -5  -59  -21  17  -15  -117  -239  -367  -534  -727  -866  -905  -870  -808  -756  -734  -743  -792  -879  -971  -1014  -982  -899  -812  -745  -704  -684  -683  -716  -805  -933  -1027  -1026  -920  -746  -573  -467  -456  -507  -561  -596  -627  -661  -685  -689  -677  -656  -632  -600  -569  -557  -585  -665  -759  -785  -711  -614  -578  -577  -537  -451  -379  -351  -357  -393  -479  -599  -710  -792  -849  -868  -847  -824  -832  -864  -892  -895  -847  -711  -471  -195  4  79  47  -67  -211  -303  -300  -223  -123  -48  -10  9  45  117  208  261  243  179  103  -10  -211  -451  -622  -688  -704  -720  -746  -771  -803  -860  -920  -931  -862  -738  -625  -530  -443  -512  -835  -1169  -1180  -693  384  2037  4101  6239  7839  8224  7138  4928  2366  317  -733  -919  -677  -364  -204  -254  -409  -574  -724  -836  -891  -876  -746  -485  -177  41  114  83  16  -53  -129  -210  -289  -366  -424  -419  -353  -278  -231  -215  -215  -219  -226  -231  -214  -127  59  285  440  489  478  453  438  455  532  655  781  892  999  1101  1191  1273  1366  1495  1646  1775  1868  1937  1976  1962  1875  1698  1454  1214  1039  918  813  721  672  647  548  288  -60  -322  -431  -477  -562  -693  -810  -868  -877  -877  -896  -935  -968  -981  -980  -976  -968  -955  -941  -939  -946  -956  -969  -986  -994  -972  -904  -808  -734  -709  -731  -793  -872  -933  -971  -1007  -1051  -1079  -1045  -908  -680  -446  -308  -294  -356  -428  -480  -509  -504  -468  -423  -387  -382  -407  -453  -525  -583  -582  -550  -529  -528  -541  -559  -563  -537  -473  -390  -328  -319  -349  -382  -399  -407  -413  -416  -416  -443  -540  -691  -814  -844  -779  -651  -488  -310  -154  -57  -24  -35  -75  -137  -224  -336  -410  -349  -165  20  144  232  308  366  403  426  440  438  400  318  198  45  -129  -273  -337  -328  -301  -321  -403  -499  -566  -606  -641  -679  -707  -723  -739  -760  -778  -787  -831  -1003  -1230  -1119  -336  1122  3118  5398  7437  8621  8530  7098  4749  2257  331  -676  -907  -800  -626  -422  -265  -250  -321  -377  -408  -461  -540  -601  -601  -532  -423  -320  -251  -214  -201  -210  -253  -318  -376  -404  -403  -384  -360  -334  -289  -201  -81  24  85  113  136  162  186  200  206  213  231  264  303  336  378  462  594  772  994  1217  1377  1481  1592  1736  1874  1956  1984  1984  1943  1816  1597  1362  1184  1061  947  822  700  588  475  372  304  242  100  -193  -595  -913  -1000  -922  -833  -786  -753  -725  -709  -707  -708  -707  -705  -712  -726  -741  -758  -784  -808  -813  -807  -812  -844  -909  -993  -1054  -1053  -975  -842  -717  -650  -637  -649  -668  -686  -700  -705  -695  -667  -624  -581  -548  -532  -534  -546  -555  -553  -563  -614  -683  -722  -716  -681  -658  -668  -679  -629  -485  -291  -138  -81  -108  -180  -268  -360  -446  -524  -599  -669  -717  -727  -692  -616  -511  -407  -341  -321  -322  -322  -324  -340  -375  -421  -479  -550  -608  -611  -558  -484  -404  -330  -298  -333  -416  -504  -569  -605  -613  -584  -489  -309  -90  66  113  101  96  126  184  247  287  293  277  255  243  241  238  214  154  63  -46  -164  -276  -351  -379  -369  -338  -310  -329  -423  -565  -685  -740  -748  -760  -812  -918  -1087  -1319  -1526  -1496  -899  523  2674  5143  7394  8848  9090  8086  6174  3880  1746  237  -446  -504  -331  -198  -189  -294  -462  -636  -782  -899  -993  -1054  -1066  -1016  -891  -714  -556  -476  -464  -471  -467  -439  -381  -311  -264  -265  -311  -375  -422  -439  -437  -421  -391  -352  -319  -285  -219  -96  84  296  488  600  626  610  605  648  753  909  1080  1222  1318  1390  1471  1545  1589  1630  1690  1766  1841  1876  1852  1765  1610  1435  1313  1230  1108  895  616  337  88  -130  -302  -424  -528  -646  -770  -869  -921  -935  -936  -960  -1028  -1131  -1227  -1275  -1241  -1111  -935  -805  -764  -794  -867  -951  -1012  -1038  -1034  -990  -893  -781  -724  -736  -776  -802  -779  -712  -645  -608  -600  -623  -683  -767  -840  -876  -879  -868  -852  -826  -786  -734  -678  -615  -554  -524  -536  -566  -598  -636  -672  -687  -679  -660  -645  -623  -540  -356  -123  52  128  128  52  -123  -357  -544  -633  -648  -609  -516  -386  -288  -305  -419  -529  -579  -592  -597  -576  -490  -350  -220  -159  -168  -189  -170  -122  -75  -28  11  33  35  36  58  113  192  278  350  388  394  386  363  294  155  -20  -163  -241  -288  -347  -430  -517  -588  -637  -656  -647  -629  -618  -612  -608  -608  -621  -656  -723  -864  -1090  -1246  -1049  -274  1176  3201  5337  6917  7520  7038  5505  3285  1103  -480  -1307  -1447  -1125  -693  -408  -310  -342  -449  -553  -604  -610  -584  -530  -465  -414  -392  -399  -433  -484  -530  -542  -486  -346  -163  -17  64  101  95  30  -96  -244  -336  -328  -260  -192  -144  -87  1  126  285  446  545  564  565  610  710  834  960  1109  1283  1435  1534  1585  1610  1651  1746  1874  1980  2040  2081  2113  2095  1957  1699  1415  1208  1097  1029  925  734  452  112  -193  -371  -427  -442  -458  -461  -442  -430  -458  -539  -658  -777  -851  -878  -902  -952  -1015  -1059  -1067  -1051  -1026  -995  -962  -945  -963  -1016  -1050  -994  -836  -640  -475  -384  -364  -393  -451  -517  -564  -592  -613  -627  -619  -575  -489  -383  -303  -274  -282  -319  -384  -474  -577  -660  -697  -699  -691  -676  -649  -617  -590  -552  -473  -367  -286  -242  -211  -194  -226  -340  -528  -735  -894  -962  -891  -662  -369  -164  -102  -132  -197  -263  -316  -355  -369  -323  -187  2  171  269  308  317  319  316  292  227  120  -4  -115  -203  -272  -321  -350  -374  -421  -510  -617  -692  -703  -655  -581  -531  -534  -584  -667  -769  -847  -866  -871  -972  -1150  -1179  -761  362  2262  4593  6730  8080  8248  7134  5051  2660  686  -411  -654  -476  -308  -323  -496  -686  -761  -712  -609  -536  -528  -564  -594  -599  -592  -570  -517  -456  -411  -394  -424  -497  -559  -567  -525  -465  -422  -410  -424  -436  -381  -210  28  201  235  162  53  -28  -66  -76  -40  85  308  546  710  798  868  960  1089  1273  1486  1644  1684  1658  1701  1851  1996  2026  1942  1820  1731  1661  1535  1346  1166  1034  913  734  476  211  12  -126  -237  -313  -361  -440  -594  -782  -906  -915  -838  -744  -670  -634  -673  -783  -887  -935  -920  -868  -816  -784  -756  -709  -657  -653  -736  -868  -964  -985  -952  -899  -843  -786  -708  -591  -463  -381  -365  -389  -434  -490  -550  -606  -643  -646  -621  -603  -628  -694  -771  -828  -858  -868  -841  -756  -641  -559  -534  -540  -547  -539  -508  -452  -380  -323  -306  -319  -342  -385  -472  -583  -661  -673  -648  -645  -693  -736  -702  -594  -438  -261  -121  -62  -96  -224  -403  -549  -617  -637  -649  -654  -629  -564  -498  -492  -569  -676  -742  -751  -715  -621  -466  -283  -114  22  132  236  333  398  412  380  310  199  37  -153  -308  -390  -417  -423  -426  -427  -426  -426  -436  -453  -463  -481  -555  -672  -757  -775  -741  -663  -599  -674  -951  -1349  -1563  -1073  408  2643  5154  7411  8892  9234  8306  6286  3747  1455  -29  -593  -553  -382  -338  -395  -492  -590  -652  -670  -659  -629  -598  -591  -632  -710  -770  -779  -741  -661  -550  -433  -344  -301  -290  -294  -297  -284  -248  -208  -175  -139  -87  -19  34  40  6  -45  -92  -83  3  117  209  279  377  547  765  947  1033  1042  1059  1177  1406  1644  1781  1814  1811  1820  1841  1844  1806  1740  1685  1654  1614  1525  1389  1226  1004  689  350  107  -31  -151  -295  -445  -571  -651  -685  -683  -646  -574  -509  -511  -585  -688  -785  -847  -848  -787  -699  -640  -650  -722  -815  -887  -896  -808  -687  -608  -547  -514  -578  -715  -836  -898  -915  -912  -905  -894  -864  -801  -718  -653  -615  -582  -533  -468  -403  -368  -391  -466  -556  -627  -662  -644  -568  -465  -391  -379  -418  -479  -531  -564  -577  -557  -484  -367  -242  -143  -94  -135  -288  -499  -656  -707  -679  -616  -549  -503  -491  -495  -492  -479  -454  -403  -325  -255  -226  -242  -274  -295  -293  -277  -284  -333  -394  -426  -432  -436  -451  -467  -464  -432  -384  -353  -352  -349  -339  -349  -379  -396  -381  -323  -220  -78  69  178  231  244  235  214  190  177  185  207  230  251  258  195  10  -245  -445  -543  -595  -643  -670  -662  -639  -618  -598  -574  -544  -504  -460  -433  -461  -605  -922  -1373  -1705  -1559  -728  823  3008  5463  7589  8831  8734  7131  4553  1953  86  -692  -591  -245  -93  -183  -431  -714  -911  -975  -933  -855  -803  -788  -780  -743  -683  -644  -631  -583  -472  -344  -249  -208  -213  -237  -256  -267  -280  -293  -292  -263  -217  -185  -180  -192  -204  -197  -147  -45  92  223  314  371  417  482  585  705  816  930  1072  1216  1323  1400  1481  1560  1612  1659  1738  1830  1895  1930  1941  1902  1788  1631  1491  1357  1147  838  499  198  -51  -273  -459  -561  -565  -519  -477  -459  -458  -481  -542  -628  -694  -719  -714  -699  -695  -719  -768  -799  -753  -635  -520  -461  -446  -450  -474  -546  -658  -747  -776  -793  -840  -904  -957  -963  -900  -766  -592  -443  -366  -353  -365  -379  -394  -411  -424  -425  -416  -421  -481  -605  -741  -806  -761  -633  -495  -408  -370  -350  -336  -333  -348  -380  -418  -466  -545  -618  -601  -513  -467  -499  -549  -579  -603  -624  -623  -574  -470  -352  -267  -219  -179  -138  -110  -97  -61  39  195  342  440  498  519  459  281  43  -128  -190  -177  -131  -99  -114  -165  -227  -285  -352  -455  -584  -684  -727  -734  -729  -717  -695  -680  -701  -782  -918  -1057  -1176  -1248  -1080  -442  696  2303  4244  6040  7116  7061  5685  3344  913  -814  -1473  -1202  -625  -319  -364  -550  -703  -762  -744  -676  -595  -556  -576  -624  -663  -674  -662  -637  -601  -566  -561  -596  -643  -650  -582  -444  -289  -186  -160  -189  -242  -296  -339  -370  -386  -356  -224  10  255  412  474  497  516  529  546  607  736  897  1039  1157  1279  1420  1583  1744  1856  1903  1901  1869  1830  1798  1769  1725  1636  1499  1352  1236  1158  1111  1065  977  813  576  293  3  -243  -415  -529  -636  -751  -830  -850  -840  -833  -843  -864  -879  -883  -882  -879  -878  -882  -893  -909  -928  -959  -1006  -1051  -1051  -977  -852  -723  -619  -553  -527  -525  -528  -529  -537  -559  -591  -616  -629  -638  -653  -672  -683  -690  -712  -756  -795  -805  -792  -760  -713  -677  -663  -660  -657  -652  -647  -641  -627  -599  -560  -514  -470  -449  -470  -530  -608  -659  -633  -545  -459  -407  -387  -398  -435  -465  -459  -427  -408  -442  -543  -675  -780  -834  -841  -804  -710  -542  -348  -217  -178  -197  -239  -300  -382  -460  -492  -434  -264  -25  203  375  479  519  504  450  380  320  259  162  -2  -221  -418  -524  -545  -533  -523  -518  -510  -498  -488  -491  -513  -561  -637  -721  -789  -845  -910  -999  -1076  -1089  -1105  -1090  -636  641  2710  5220  7535  8879  8775  7287  4968  2570  714  -305  -604  -575  -525  -497  -429  -358  -363  -448  -560  -642  -672  -649  -568  -449  -342  -288  -285  -293  -264  -174  -59  11  11  -47  -125  -178  -197  -203  -212  -222  -204  -124  8  151  270  350  389  399  400  413  466  568  694  799  863  897  904  902  942  1081  1300  1534  1767  1994  2161  2252  2302  2331  2330  2278  2172  2039  1901  1745  1552  1329  1109  944  847  766  631  428  215  62  -13  -48  -75  -87  -76  -80  -124  -195  -278  -362  -424  -448  -433  -383  -311  -252  -236  -258  -288  -308  -304  -274  -225  -148  -41  43  43  -44  -166  -264  -319  -348  -367  -366  -325  -255  -190  -164  -185  -224  -255  -275  -281  -278  -289  -325  -360  -374  -367  -354  -342  -335  -327  -317  -310  -308  -317  -352  -415  -481  -527  -566  -595  -592  -545  -476  -416  -375  -342  -331  -367  -430  -472  -471  -446  -421  -402  -391  -404  -473  -612  -783  -913  -958  -926  -863  -811  -785  -775  -761  -718  -631  -524  -455  -442  -454  -459  -461  -464  -455  -412  -331  -233  -130  -28  53  109  161  228  298  329  275  130  -67  -272  -442  -542  -580  -601  -632  -668  -698  -719  -726  -706  -662  -608  -559  -529  -536  -621  -795  -1013  -1230  -1392  -1331  -794  441  2456  5038  7592  9275  9439  7989  5408  2569  382  -688  -826  -555  -316  -291  -409  -541  -663  -782  -837  -783  -689  -638  -630  -635  -642  -664  -716  -793  -857  -873  -863  -870  -889  -898  -900  -907  -917  -902  -815  -643  -439  -268  -158  -105  -98  -115  -141  -171  -194  -185  -112  32  227  415  540  611  691  817  986  1157  1278  1342  1387  1446  1522  1603  1672  1712  1716  1686  1620  1513  1379  1266  1197  1112  927  645  348  98  -88  -200  -241  -262  -317  -411  -508  -579  -636  -715  -827  -951  -1055  -1116  -1135  -1139  -1120  -1034  -876  -695  -549  -473  -473  -532  -622  -709  -774  -806  -766  -665  -586  -565  -575  -591  -612  -644  -693  -746  -780  -783  -758  -714  -657  -595  -551  -541  -561  -606  -655  -670  -650  -635  -641  -650  -647  -661  -728  -805  -822  -756  -645  -552  -507  -493  -480  -442  -387  -389  -501  -653  -737  -738  -700  -645  -594  -568  -562  -565  -572  -576  -558  -499  -418  -355  -321  -283  -214  -119  -21  69  142  182  188  172  130  57  -27  -101  -183  -312  -483  -624  -659  -614  -568  -552  -544  -528  -520  -545  -597  -642  -651  -629  -634  -735  -946  -1233  -1470  -1362  -625  826  2890  5161  6914  7519  6832  5114  2862  737  -745  -1487  -1628  -1370  -984  -723  -663  -724  -802  -838  -833  -832  -859  -891  -905  -910  -918  -927  -915  -865  -786  -708  -649  -614  -597  -591  -582  -565  -547  -547  -572  -588  -534  -385  -195  -57  -6  -4  -16  -28  -40  -39  21  186  436  670  809  859  873  893  980  1176  1424  1603  1669  1683  1713  1797  1946  2111  2182  2091  1885  1688  1571  1464  1255  952  677  494  354  214  69  -62  -165  -278  -475  -735  -947  -1052  -1084  -1094  -1095  -1063  -966  -828  -729  -734  -851  -1028  -1177  -1243  -1216  -1108  -970  -869  -831  -839  -866  -894  -922  -949  -971  -972  -931  -832  -691  -563  -503  -517  -579  -642  -671  -642  -548  -423  -327  -279  -258  -243  -222  -194  -175  -187  -237  -295  -322  -321  -317  -320  -324  -311  -269  -199  -126  -72  -50  -76  -164  -282  -371  -398  -374  -316  -251  -206  -190  -193  -205  -227  -248  -237  -177  -93  -37  -21  -21  -17  -7  35  144  295  415  471  489  486  461  398  280  117  -52  -216  -382  -529  -624  -653  -623  -536  -373  -168  -14  17  -89  -313  -577  -783  -884  -905  -935  -1036  -1090  -828  3  1590  3898  6437  8373  8998  8094  5962  3328  1087  -212  -617  -484  -227  -178  -386  -630  -744  -759  -748  -719  -630  -471  -308  -223  -230  -280  -324  -348  -361  -373  -395  -430  -451  -430  -369  -292  -222  -179  -166  -171  -195  -239  -267  -215  -73  80  145  108  53  65  149  253  337  413  517  666  863  1085  1273  1384  1446  1521  1625  1724  1793  1821  1802  1766  1747  1751  1761  1749  1679  1531  1299  994  667  388  197  75  -42  -208  -410  -573  -632  -594  -533  -510  -523  -535  -532  -530  -561  -653  -777  -866  -890  -858  -787  -717  -684  -678  -669  -627  -541  -445  -372  -328  -334  -397  -479  -554  -630  -703  -751  -751  -699  -621  -569  -571  -606  -644  -672  -696  -720  -727  -693  -627  -560  -516  -494  -477  -452  -422  -406  -417  -444  -467  -477  -479  -482  -484  -480  -465  -443  -424  -408  -375  -303  -202  -123  -102  -136  -212  -311  -417  -515  -556  -505  -420  -373  -369  -383  -401  -419  -432  -437  -433  -423  -405  -377  -346  -331  -330  -306  -222  -100  -10  7  -22  -60  -87  -101  -98  -49  62  205  311  350  325  245  123  -2  -104  -185  -251  -272  -238  -226  -316  -486  -650  -740  -752  -720  -680  -645  -611  -596  -627  -676  -692  -747  -957  -1192  -1056  -159  1631  4115  6747  8721  9339  8400  6253  3618  1297  -148  -658  -624  -456  -314  -283  -405  -591  -746  -886  -1027  -1109  -1074  -939  -782  -708  -758  -856  -921  -951  -963  -938  -821  -605  -371  -215  -150  -149  -209  -325  -437  -466  -404  -318  -265  -259  -287  -295  -228  -80  108  292  426  492  520  557  624  703  777  887  1080  1312  1472  1522  1507  1478  1466  1504  1618  1775  1890  1904  1814  1657  1490  1349  1234  1108  907  616  299  23  -202  -388  -532  -653  -770  -861  -877  -795  -663  -583  -609  -701  -792  -855  -892  -910  -916  -916  -912  -893  -852  -807  -764  -714  -670  -667  -715  -791  -852  -880  -877  -837  -750  -636  -541  -487  -463  -463  -496  -567  -639  -667  -636  -565  -503  -472  -439  -377  -320  -321  -412  -565  -685  -702  -635  -542  -475  -444  -413  -368  -346  -368  -415  -467  -514  -532  -499  -430  -364  -327  -317  -328  -357  -399  -438  -455  -448  -434  -431  -433  -414  -352  -266  -199  -172  -168  -171  -181  -198  -214  -226  -238  -253  -268  -281  -289  -297  -307  -328  -372  -426  -452  -439  -418  -388  -291  -79  181  368  436  443  450  467  480  465  400  294  199  153  128  36  -189  -495  -730  -825  -830  -811  -780  -725  -651  -573  -487  -394  -323  -301  -348  -473  -699  -1069  -1469  -1479  -726  776  2822  5109  7080  8160  8012  6546  4131  1611  -173  -875  -723  -252  65  66  -118  -300  -430  -538  -639  -732  -812  -858  -867  -854  -835  -802  -730  -618  -498  -401  -346  -332  -344  -366  -384  -393  -388  -363  -323  -288  -262  -224  -150  -38  73  126  118  97  107  159  238  333  457  630  843  1054  1218  1321  1366  1369  1356  1360  1411  1519  1667  1829  1967  2023  1963  1829  1685  1569  1489  1416  1299  1122  928  751  578  376  144  -81  -264  -391  -472  -534  -607  -715  -855  -982  -1058  -1082  -1086  -1095  -1114  -1116  -1083  -1043  -1032  -1042  -1042  -1031  -1060  -1140  -1208  -1202  -1131  -1048  -978  -913  -862  -843  -844  -836  -803  -756  -719  -686  -631  -566  -548  -608  -685  -689  -609  -524  -496  -522  -544  -530  -507  -475  -430  -427  -467  -488  -462  -387  -294  -257  -301  -386  -472  -543  -603  -660  -719  -769  -781  -711  -543  -348  -227  -206  -231  -251  -263  -274  -255  -155  26  222  365  432  425  362  271  174  82  11  -26  -44  -75  -158  -299  -458  -583  -644  -652  -649  -635  -586  -519  -459  -398  -345  -331  -363  -407  -414  -471  -707  -973  -926  -319  993  2922  5031  6798  7734  7420  5804  3373  946  -730  -1361  -1189  -737  -396  -262  -277  -350  -403  -420  -422  -427  -443  -476  -520  -545  -526  -477  -420  -358  -295  -231  -165  -108  -66  -29  16  55  51  9  -24  -16  16  42  47  42  56  108  193  296  419  546  637  671  674  678  699  750  856  1007  1167  1342  1547  1749  1905  2020  2098  2137  2145  2135  2098  2013  1875  1710  1562  1454  1373  1248  993  624  261  -14  -207  -335  -409  -434  -421  -373  -303  -239  -212  -267  -437  -664  -829  -883  -868  -826  -778  -740  -718  -708  -678  -598  -493  -441  -494  -616  -728  -782  -780  -735  -657  -581  -560  -625  -747  -858  -912  -914  -886  -834  -757  -650  -527  -420  -349  -311  -298  -302  -315  -337  -367  -399  -430  -472  -536  -611  -668  -688  -672  -637  -602  -577  -556  -538  -522  -504  -471  -429  -394  -371]
