reading_id,reading_time,wire_id,result_classification,heart_rate,heart_rate_alert,firmware_version,device_app_version,hardware_version,waveform_samples
d8f2a020-54d5-11ed-8080-808080808080,Wed Oct 26 02:28:16 UTC 2022,e101e3752439,NSR,76,NONE,20001.171.50,2.10.0,Charge 5,[-18822  -21260  -22689  -23015  -22587  -21609  -20618  -20816  -23009  -26526  -29616  -30691  -29241  -25978  -22262  -19512  -19241  -22568  -28903  -32768  -32768  -32768  -32768  -32768  -32768  -32768  -32768  -32768  -32768  -32768  -32768  -32768  -32768  -32768  -32768  -32768  -32768  -32768  -32768  -32768  -32768  -32768  -32768  -32768  -15145  6227  21482  30059  32767  32767  32767  32767  32767  32767  32767  32767  32767  32767  32767  32767  32767  32767  32767  32767  32767  32767  32767  32767  32767  32767  32767  32767  32767  32767  32767  32767  32767  32767  32767  32767  32767  32767  32767  32767  32767  32767  32767  32767  32767  32767  32767  32767  32767  32005  30984  30233  29717  29331  29004  28581  27931  27148  26374  25548  24566  23586  22883  22413  21897  21246  20589  20063  19706  19372  18724  17578  16230  15148  14411  13845  13397  13048  12683  12168  11435  10603  9936  9538  9291  9133  9155  9357  9626  9932  10288  10585  10535  9744  8040  5827  3879  2718  2281  2203  2232  2259  2153  1794  1255  768  450  211  -86  -478  -904  -1300  -1611  -1788  -1831  -1800  -1773  -1854  -2123  -2501  -2795  -2902  -2867  -2787  -2782  -2981  -3409  -3895  -4232  -4402  -4493  -4528  -4493  -4422  -4406  -4529  -4785  -5059  -5231  -5276  -5206  -5015  -4759  -4589  -4652  -4982  -5430  -5754  -5866  -5860  -5837  -5839  -5868  -5908  -5947  -5989  -6037  -6086  -6133  -6174  -6190  -6179  -6172  -6202  -6309  -6531  -6808  -7002  -7065  -7057  -7038  -7014  -6972  -6919  -6864  -6792  -6700  -6662  -6720  -6780  -6728  -6589  -6469  -6418  -6414  -6421  -6431  -6444  -6441  -6374  -6196  -5949  -5745  -5650  -5637  -5637  -5578  -5403  -5081  -4647  -4253  -4073  -4138  -4327  -4531  -4752  -5004  -5212  -5302  -5242  -5018  -4696  -4416  -4276  -4280  -4382  -4525  -4661  -4768  -4852  -4895  -4825  -4564  -4090  -3409  -2442  -1142  235  1255  1668  1351  174  -1620  -3381  -4602  -5193  -5314  -5160  -4823  -4365  -3926  -3634  -3482  -3364  -3234  -3154  -3181  -3285  -3389  -3432  -3410  -3371  -3351  -3332  -3251  -3064  -2824  -2652  -2595  -2603  -2627  -2656  -2695  -2736  -2760  -2756  -2740  -2761  -2880  -3109  -3364  -3527  -3536  -3402  -3177  -2920  -2700  -2619  -2768  -3130  -3532  -3776  -3806  -3689  -3534  -3429  -3402  -3425  -3464  -3499  -3514  -3487  -3399  -3276  -3173  -3114  -3095  -3128  -3224  -3324  -3323  -3180  -2956  -2735  -2587  -2530  -2516  -2495  -2469  -2474  -2521  -2576  -2616  -2637  -2614  -2490  -2242  -1944  -1698  -1543  -1457  -1387  -1294  -1192  -1128  -1114  -1125  -1117  -1040  -867  -633  -420  -286  -230  -216  -206  -164  -57  116  294  361  231  -69  -395  -607  -676  -617  -408  -76  237  406  441  431  425  418  437  650  1356  2714  4434  5901  6723  6956  6776  6193  5228  4069  2995  2271  1968  1915  1943  2099  2577  3404  4267  4782  4850  4621  4294  4045  4009  4323  5027  5851  6369  6432  6202  5849  5461  5171  5136  5378  5780  6167  6396  6447  6423  6438  6545  6706  6852  6967  7073  7170  7256  7327  7374  7438  7640  8097  8756  9406  9895  10209  10370  10443  10578  10919  11474  12125  12731  13189  13479  13649  13762  13843  13882  13884  13863  13764  13443  12758  11691  10422  9316  8677  8442  8309  8159  7999  7571  6515  5060  3955  3610  3939  4726  5620  6209  6384  6340  6288  6363  6638  7043  7359  7449  7421  7395  7303  7123  7005  6948  6487  4994  2519  -40  -1959  -3306  -4545  -6033  -7672  -8943  -9516  -9574  -9444  -9278  -9104  -8903  -8616  -8185  -7370  -5733  -3349  -1035  515  1306  1724  2037  2236  2301  2410  2815  3555  4310  4647  4371  3548  2241  482  -1422  -2958  -4074  -5131  -5877  -5650  -4427  -2852  -2189  -3868  -7863  -12552  -16504  -19137  -20435  -21075  -21898  -23106  -24297  -24996  -25161  -25128  -25213  -25651  -26601  -27983  -29511  -30934  -32095  -32768  -32768  -31781  -29500  -26733  -24600  -23560  -23338  -23368  -22936  -21550  -19628  -18220  -17817  -18064  -18335  -17876  -16033  -13088  -10194  -8083  -6431  -4496  -2070  252  1756  2327  2383  2338  2363  2517  2854  3372  3938  4315  4281  3639  2314  584  -1051  -2307  -3168  -3712  -4045  -4302  -4555  -4774  -5009  -5405  -5920  -6302  -6382  -6174  -5802  -5522  -5821  -7195  -9487  -11770  -13222  -13765  -13797  -13695  -13605  -13554  -13630  -13995  -14685  -15464  -16009  -16179  -16079  -15943  -15939  -15938  -15426  -13913  -11547  -8978  -6666  -4721  -3072  -1476  367  2406  4075  4927  5136  5165  5262  5349  5356  5497  5906  6384  6793  7164  7648  8667  10658  13403  15883  17061  16520  14387  11308  8324  6080  4410  2946  1643  797  913  2226  4298  6469  8350  9710  10438  10666  10643  10523  10332  10048  9665  9199  8650  8064  7570  7263  7140  7173  7305  7445  7548  7643  7745  7819  7842  7833  7820  7830  7889  7992  8105  8223  8400  8664  8931  9088  9110  9051  8966  8874  8759  8627  8529  8494  8501  8519  8536  8563  8604  8630  8571  8367  8069  7812  7655  7563  7505  7467  7426  7337  7169  6977  6850  6787  6703  6535  6274  5944  5638  5460  5417  5434  5461  5487  5496  5445  5344  5323  5588  6271  7210  7996  8294  7918  6829  5401  4271  3677  3371  3058  2521  1661  654  -223  -882  -1387  -1903  -2685  -3790  -4902  -5680  -6091  -6261  -6300  -6281  -6279  -6397  -6697  -7099  -7436  -7633  -7729  -7684  -7175  -5884  -4197  -3048  -2680  -2397  -1615  -182  1858  4155  6160  7541  8153  7722  6114  3891  2029  1124  1205  1973  3049  4156  5038  5493  5573  5469  5274  4965  4543  4070  3582  3089  2627  2268  2072  2018  2030  2044  2045  2045  2087  2223  2434  2596  2504  1977  1100  262  -220  -375  -382  -309  -119  185  501  704  778  809  856  914  964  981  934  819  683  592  557  548  543  540  556  707  1179  2043  3165  4308  5253  5884  6230  6419  6573  6702  6715  6516  6122  5731  5611  5864  6314  6678  6852  6899  6836  6559  6024  5416  4994  4822  4813  4989  5585  6869  8732  10522  11583  11876  11809  11697  11632  11647  11791  12053  12326  12529  12699  12910  13137  13315  13502  13865  14433  15011  15421  15772  16360  17255  18241  19271  20653  22554  24582  25876  25098  20815  13382  5580  69  -2324  -2045  -619  82  -197  -169  890  1944  343  -6138  -16100  -24997  -28427  -23817  -12661  -1276  4644  4742  2270  360  267  1745  3839  5469  6001  5011  1817  -3781  -10425  -15958  -19414  -21144  -21578  -21030  -20124  -19613  -19797  -20364  -20829  -21025  -21100  -21230  -21462  -21710  -21883  -22057  -22397  -22884  -23369  -23843  -24325  -24653  -24599  -23965  -22686  -21169  -20084  -19587  -19291  -18854  -18135  -17157  -16144  -15305  -14608  -13959  -13393  -12926  -12482  -12071  -11809  -11721  -11708  -11639  -11420  -11045  -10634  -10272  -9901  -9484  -9202  -9505  -10838  -12989  -15033  -16258  -16701  -16745  -16689  -16663  -16666  -16630  -16494  -16294  -16052  -15590  -14616  -12937  -10601  -7905  -5050  -1894  1556  4840  7597  9913  11853  13248  13986  14137  14137  14852  16792  19286  20629  19135  14523  8416  3200  393  115  1598  3795  5855  7462  8607  9190  9063  8247  7130  6349  6304  6947  7862  8498  8552  8096  7462  7038  6963  7059  6936  6144  4616  2974  2014  2086  3065  4412  5439  5893  5966  5737  5021  3794  2496  1619  1168  871  631  534  641  890  1144  1303  1371  1384  1334  1195  991  788  598  384  70  -405  -937  -1297  -1394  -1305  -1074  -563  597  2922  6507  10526  13893  16265  17918  19134  20008  20512  20710  20849  21201  21884  22712  23266  23203  22486  21472  20649  20168  19855  19540  19322  19567  20294  21011  21439  21745  22090  22437  22815  23425  24337  25409  26495  27367  27779  27605  26466  23734  19275  13529  7100  806  -4646  -9102  -12516  -14628  -15389  -15184  -14495  -13648  -12925  -12545  -12502  -12617  -12675  -12408  -11634  -10581  -9721  -9185  -8787  -8514  -8553  -8924  -9383  -9716  -9948  -10217  -10571  -10977  -11372  -11697  -11952  -12145  -12214  -12077  -11739  -11357  -11122  -11123  -11321  -11585  -11742  -11708  -11626  -11928  -13128  -15183  -17262  -18552  -19036  -19215  -19514  -20056  -20573  -20619  -20103  -19265  -18190  -16737  -14877  -13045  -11895  -11586  -11737  -11996  -12248  -12458  -12584  -12603  -12535  -12430  -12365  -12431  -12671  -12994  -13221  -13284  -13265  -13251  -13304  -13544  -14068  -14767  -15399  -15851  -16171  -16451  -16737  -17031  -17427  -18077  -18914  -19696  -20345  -20899  -21327  -21612  -21681  -21171  -19742  -17839  -16463  -16044  -16224  -16546  -16765  -16703  -16163  -15144  -14028  -13227  -12787  -12493  -12043  -11070  -9492  -7855  -6904  -7000  -8080  -9623  -10831  -11347  -11502  -11810  -12481  -13220  -13434  -12753  -11287  -9554  -8193  -7640  -8339  -10645  -13992  -17188  -19438  -20389  -20177  -19745  -19955  -20648  -21295  -21752  -22137  -22509  -22439  -20546  -15238  -6832  2159  9442  14241  16844  18223  19403  20763  22150  23403  24485  25338  25889  26146  26220  26215  26278  26777  28024  29642  30798  31167  31065  30818  30527  30239  30031  29943  29964  30068  30228  30440  30676  30853  30931  30950  30951  30952  30950  30935  30907  30902  31009  31329  31909  32618  32767  32767  32767  32767  32767  32767  32767  32767  32739  32767  32767  32675  31912  30776  29902  29988  31489  32767  32767  32767  32767  32767  32767  32767  32767  32767  32767  32767  32767  32767  31972  24800  17912  13402  11925  12270  12859  13000  12878  12901  13031  12601  10858  7909  4895  2852  1807  975  -506  -2686  -4678  -5719  -5871  -5521  -4882  -4093  -3355  -2823  -2633  -3280  -5520  -9240  -13033  -15599  -16843  -17359  -17654  -18020  -18601  -19272  -19746  -19922  -19960  -20028  -20140  -20229  -20279  -20295  -20192  -19836  -19264  -18712  -18282  -17834  -17299  -16841  -16575  -16412  -16211  -15940  -15686  -15531  -15396  -15085  -14516  -13807  -13130  -12541  -11966  -11394  -10976  -10806  -10801  -10835  -10854  -10853  -10846  -10858  -10960  -11229  -11605  -11914  -12053  -12013  -11758  -11273  -10684  -10149  -9651  -9048  -8328  -7702  -7370  -7348  -7574  -7974  -8383  -8637  -8729  -8764  -8846  -9038  -9304  -9526  -9608  -9467  -9033  -8470  -8162  -8205  -8117  -7314  -5632  -3459  -1583  -727  -1139  -2663  -4975  -7532  -9577  -10511  -10182  -8875  -7233  -5975  -5350  -4989  -4448  -3670  -2880  -2287  -1940  -1763  -1682  -1681  -1725  -1745  -1723  -1662  -1491  -1137  -699  -375  -222  -148  -28  231  607  965  1198  1264  1147  863  481  123  -90  -92  132  525  945  1294  1572  1750  1753  1590  1339  948  199  -944  -2102  -2846  -3154  -3231  -3169  -2965  -2656  -2330  -2051  -1812  -1596  -1445  -1386  -1427  -1604  -1940  -2364  -2732  -2936  -2977  -2903  -2741  -2521  -2312  -2183  -2167  -2239  -2353  -2509  -2727  -2964  -3153  -3291  -3428  -3556  -3602  -3516  -3299  -2962  -2526  -2007  -1433  -926  -635  -555  -555  -524  -417  -212  82  379  564  609  568  504  509  748  1361  2315  3391  4330  4963  5250  5298  5259  5210  5152  5096  5092  5188  5390  5630  5789  5790  5633  5400  5204  5110  5118  5211  5356  5468  5449  5300  5112  4955  4856  4880  5156  5737  6436  6950  7015  6341  4697  2242  -379  -2370  -3301  -3336  -2907  -2394  -2044  -1907  -1893  -1936  -2048  -2263  -2527  -2725  -2818  -2866  -2922  -3005  -3113  -3234  -3347  -3404  -3335  -3125  -2861  -2665  -2593  -2621  -2700  -2786  -2805  -2598  -2013  -1176  -458  -55  116  171  115  -109  -481  -845  -1058  -1121  -1075  -879  -457  132  684  1069  1359  1648  1902  2041  2071  2077  2135  2251  2394  2543  2683  2787  2849  2881  2851  2649  2197  1626  1196  998  881  604  50  -596  -1020  -1124  -1039  -909  -803  -727  -632  -416  -11  455  764  870  918  1028  1182  1295  1339  1353  1356  1311  1165  951  799  791  892  1029  1203  1481  1860  2209  2401  2441  2398  2326  2274  2305  2454  2690  2916  3063  3124  3068  2751  2053  1122  322  -106  -254  -375  -640  -1050  -1486  -1828  -2037  -2158  -2259  -2365  -2445  -2489  -2525  -2559  -2516  -2265  -1784  -1274  -984  -958  -1032  -929  -378  616  1694  2485  2848  2692  1823  257  -1504  -2816  -3406  -3420  -3112  -2651  -2165  -1765  -1507  -1318  -1053  -708  -453  -419  -594  -859  -1063  -1139  -1137  -1137  -1185  -1263  -1315  -1318  -1319  -1375  -1471  -1552  -1590  -1621  -1679  -1730  -1624  -1183  -438  340  957  1432  1846  2263  2705  3128  3502  3861  4211  4455  4505  4392  4182  3871  3503  3251  3281  3626  4118  4486  4573  4363  3914  3405  3047  2878  2769  2620  2428  2211  2021  1927  1924  1956  1993  2017  1954  1702  1263  793  448  244  121  54  39  62  105  176  324  592  911  1137  1212  1180  1078  903  648  315  -29  -276  -381  -393  -378  -357  -327  -320  -439  -811  -1479  -2310  -3027  -3369  -3148  -2307  -1183  -361  -60  -66  -172  -324  -511  -783  -1245  -1843  -2339  -2604  -2698  -2719  -2724  -2723  -2670  -2518  -2310  -2146  -2056  -1988  -1885  -1707  -1426  -983  -266  758  1946  3015  3691  3855  3415  2232  455  -1344  -2637  -3309  -3544  -3560  -3450  -3182  -2776  -2381  -2107  -1922  -1758  -1595  -1441  -1315  -1238  -1206  -1204  -1248  -1381  -1587  -1777  -1876  -1886  -1835  -1695  -1433  -1128  -914  -777  -590  -321  -33  251  516  685  724  704  730  871  1096  1311  1469  1608  1778  2022  2349  2688  2900  2859  2520  1997  1505  1179  1002  858  599  185  -237  -498  -574  -558  -535  -541  -589  -691  -824  -936  -994  -1012  -1023  -1022  -948  -751  -500  -339  -295  -214  62  489  856  1042  1103  1129  1142  1084  899  635  422  341  428  720  1156  1541  1733  1763  1781  1927  2183  2397  2503  2546  2453  1947  852  -498  -1495  -1882  -1869  -1739  -1630  -1576  -1568  -1573  -1466  -1029  -183  789  1497  1817  1887  1829  1627  1254  836  569  529  651  832  976  1020  887  521  35  -332  -459  -342  63  741  1367  1514  1191  908  1240  2369  4006  5580  6415  6055  4514  2082  -792  -3361  -4891  -5213  -4683  -3860  -3331  -3328  -3591  -3785  -3774  -3560  -3225  -2881  -2587  -2343  -2148  -1986  -1825  -1621  -1385  -1188  -1080  -1041  -1031  -1037  -1056  -1078  -1056  -927  -673  -375  -147  -27  49  170  341  492  571  573  490  306  60  -166  -327  -427  -478  -477  -426  -329  -180  41  391  910  1467  1843  1985  2020  2035  2011  1943  1878  1845  1825  1806  1798  1810  1835  1853  1863  1876  1890  1885  1850  1818  1804  1756  1580  1249  868  590  485  575  892  1356  1756  1938  1896  1678  1386  1189  1255  1645  2203  2644  2858  2950  2998  2963  2805  2576  2355  2119  1758  1231  597  -30  -496  -707  -723  -664  -593  -497  -334  -124  57  193  311  409  455  381  95  -369  -806  -1035  -1038  -890  -670  -437  -214  -21  124  244  356  435  494  593  754  936  1079  1112  959  613  182  -174  -370  -412  -343  -203  -45  80  156  131  -172  -893  -1811  -2477  -2730  -2743  -2664  -2524  -2331  -2114  -1891  -1746  -1837  -2178  -2494  -2324  -1317  340  1937  2827  2711  1575  -253  -2247  -3937  -4883  -4741  -3702  -2507  -1776  -1613  -1814  -2138  -2407  -2505  -2384  -2124  -1885  -1769  -1766  -1813  -1841  -1772  -1589  -1397  -1299  -1249  -1073  -630  44  803  1554  2234  2713  2875  2667  2113  1421  904  674  588  487  356  253  194  149  103  82  164  421  784  1043  1019  685  214  -125  -196  -45  219  497  746  937  1007  919  730  544  399  217  -111  -543  -894  -1037  -948  -659  -308  -92  -81  -207  -456  -913  -1524  -2049  -2300  -2261  -2030  -1756  -1519  -1292  -1025  -750  -565  -532  -656  -892  -1132  -1274  -1344  -1458  -1670  -1901  -2037  -2024  -1864  -1620  -1412  -1316  -1310  -1336  -1353  -1319  -1207  -1055  -956  -910  -725  -200  532  1086  1268  1151  855  510  253  118  72  126  357  835  1487  2081  2384  2261  1688  894  287  65  144  412  794  1158  1380  1465  1513  1570  1619  1660  1726  1818  1916  2033  2204  2432  2666  2837  2921  2903  2674  2147  1490  1030  885  921  987  1026  1028  970  821  596  385  264  235  235  148  -131  -562  -987  -1318  -1568  -1747  -1877  -1996  -2121  -2217  -2128  -1650  -984  -794  -1347  -2028  -1945  -559  2024  4999  7216  7864  6874  4775  2347  329  -876  -1230  -845  -24  760  1200  1319  1236  974  602  282  68  -125  -408  -861  -1439  -1942  -2249  -2458  -2692  -2926  -3068  -3071  -2931  -2679  -2406  -2189  -2015  -1828  -1591  -1297  -1004  -815  -757  -761  -756  -708  -609  -492  -415  -405  -456  -532  -582  -586  -570  -544  -467  -290  -33  213  380  463  495  503  478  386  214  -7  -224  -386  -493  -633  -899  -1249  -1544  -1731  -1851  -1924  -1959  -2022  -2184  -2404  -2570  -2663  -2765  -2905  -3016  -3039  -2955  -2786  -2586  -2378  -2105  -1714  -1270  -889  -602  -385  -210  -7  307  702  1052  1288  1423  1487  1511  1549  1658  1868  2178  2535  2869  3160  3392  3482  3340  2990  2586  2301  2179  2164  2221  2372  2631  2943  3227  3473  3693  3838  3827  3602  3180  2662  2199  1922  1892  2121  2567  3062  3413  3560  3552  3466  3367  3290  3217  3086  2841  2507  2096  1525  793  77  -484  -885  -1162  -1337  -1371  -1146  -597  91  603  813  849  863  860  654  14  -1001  -1961  -2378  -1943  -584  1439  3582  5264  6070  5796  4547  2804  1126  -197  -1029  -1216  -828  -246  170  328  332  327  386  482  550  572  613  751  995  1253  1413  1466  1475  1459  1305  837  54  -780  -1406  -1783  -2013  -2167  -2255  -2280  -2245  -2148  -2013  -1899  -1830  -1747  -1578  -1350  -1159  -1058  -1060  -1168  -1333  -1475  -1550  -1562  -1547  -1536  -1528  -1503  -1454  -1408  -1395  -1415  -1453  -1513  -1650  -1883  -2135  -2318  -2458  -2629  -2890  -3275  -3707  -4016  -4145  -4171  -4159  -4123  -4087  -4088  -4141  -4240  -4448  -4856  -5379  -5749  -5778  -5489  -5068  -4750  -4621  -4558  -4334  -3809  -3132  -2611  -2355  -2248  -2191  -2166  -2139  -1997  -1629  -1087  -599  -342  -288  -314  -367  -477  -678  -907  -1012  -920  -721  -532  -311  69  551  914  1074  1162  1317  1532  1698  1764  1768  1755  1745  1767  1841  1958  2096  2243  2400  2546  2652  2696  2642  2457  2185  1948  1835  1850  1977  2211  2500  2729  2838  2839  2738  2547  2327  2142  1953  1670  1317  1044  933  933  968  1013  1055  1018  755  173  -642  -1416  -1881  -2001  -1897  -1645  -1319  -1119  -1208  -1557  -1997  -2154  -1531  80  2341  4424  5508  5212  3658  1465  -679  -2537  -3993  -4764  -4675  -3844  -2770  -2071  -1902  -1983  -2069  -2113  -2146  -2187  -2200  -2073  -1627  -731  520  1727  2452  2644  2584  2497  2431  2369  2301  2234  2203  2229  2282  2338  2408  2510  2635  2745  2807  2831  2864  2990  3288  3690  4024  4233  4360  4392  4280  4056  3842  3729  3721  3795  3976  4286  4637  4861  4879  4741  4543  4373  4247  4091  3839  3523  3207  2905  2645  2491  2453  2462  2445  2370  2240  2081  1921  1748  1530  1278  1044  840  631  420  275  221  213  213  176  -11  -446  -1015  -1458  -1653  -1682  -1661  -1648  -1665  -1743  -1982  -2493  -3163  -3660  -3722  -3276  -2446  -1563  -969  -792  -981  -1420  -1925  -2288  -2405  -2332  -2214  -2150  -2137  -2171  -2331  -2681  -3105  -3391  -3442  -3309  -3090  -2872  -2710  -2640  -2674  -2804  -2998  -3231  -3482  -3711  -3840  -3787  -3522  -3161  -2901  -2839  -2924  -3064  -3200  -3307  -3334  -3252  -3133  -3093  -3183  -3367  -3567  -3732  -3872  -4037  -4255  -4514  -4770  -4974  -5084  -5117  -5123  -5127  -5098  -4982  -4779  -4552  -4335  -4109  -3853  -3583  -3324  -3076  -2835  -2625  -2488  -2410  -2310  -2120  -1841  -1516  -1168  -778  -359  -42  -2  -208  -274  409  2300  5330  8781  11607  12994  12673  10896  8317  5785  4138  3856  4675  5832  6751  7283  7499  7535  7519  7516  7514  7453  7270  6972  6649  6402  6280  6279  6349  6442  6565  6709  6786  6697  6422  6019  5564  5152  4890  4780  4697  4436  3829  3002  2338  2051  2047  2208  2539  3064  3652  4036  4025  3628  3062  2626  2447  2471  2628  2878  3147  3332  3399  3404  3415  3454  3497  3495  3410  3230  2921  2437  1880  1465  1264  1180  1121  1113  1244  1507  1736  1756  1517  1103  672  361  240  316  539  835  1122  1317  1394  1350  1149  794  416  204  318  811  1482  1980  2158  2106  1887  1518  1116  853  771  797  852  832  568  -34  -807  -1407  -1630  -1527  -1284  -1085  -1014  -1049  -1198  -1567  -2221  -2998  -3589  -3831  -3869  -4010  -4441  -5039  -5542  -5870  -6125  -6373  -6560  -6596  -6451  -6201  -5954  -5759  -5615  -5508  -5414  -5321  -5245  -5206  -5236  -5399  -5731  -6161  -6515  -6614  -6375  -6007  -5986  -6456  -6972  -7103  -6827  -6453  -6526  -7483  -9142  -10800  -11814  -11928  -11315  -10559  -10286  -10553  -10906  -11025  -10969  -10887  -10827  -10783  -10765  -10778  -10781  -10734  -10648  -10576  -10550  -10534  -10482  -10407  -10345  -10339  -10465  -10817  -11439  -12214  -12872  -13219  -13283  -13168  -12894  -12445  -11846  -11131  -10273  -9238  -8180  -7388  -7023  -7094  -7640  -8619  -9704  -10484  -10819  -10858  -10773  -10646  -10527  -10401  -10031  -9039  -7268  -5002  -2720  -744  788  1858  2561  3044  3426  3767  4078  4346  4554  4697  4814  4947  5073  5134  5141  5203  5431  5792  6154  6528  7070  7768  8384  8772  9002  9167  9284  9369  9469  9613  9809  10045  10275  10455  10612  10790  10968  11082  11097  11018  10889  10771  10678  10569  10396  10191  10037  9950  9863  9736  9604  9510  9438  9327  9121  8837  8548  8317  8138  7968  7799  7670  7591  7514  7390  7233  7097  6986  6865  6719  6539  6315  6085  5918  5838  5821  5836  5851  5807  5646  5385  5141  5013  4995  5022  5015  4866  4492  3982  3554  3280  3065  2876  2774  2734  2589  2209  1697  1300  1139  1149  1218  1271  1293  1297  1290  1251  1156  1017  884  806  795  824  829  737  532  290  116  40  22  19  19  21  22  11  -21  -66  -100  -115  -125  -133  -133  -130  -154  -244  -394  -550  -677  -759  -793  -792  -806  -889  -1042  -1199  -1293  -1321  -1319  -1314  -1305  -1277  -1226  -1175  -1198  -1384  -1746  -2183  -2527  -2510  -1819  -351  1606  3450  4536  4444  3081  788  -1658  -3506  -4451  -4567  -4099  -3416  -2922  -2748  -2670  -2508  -2340  -2269  -2298  -2383  -2479  -2549  -2571  -2514  -2346  -2119  -1951  -1899  -1940  -2051  -2223  -2415  -2534  -2474  -2193  -1808  -1530  -1441  -1460  -1493  -1509  -1513  -1515  -1515  -1494  -1441  -1378  -1350  -1373  -1417  -1446  -1454  -1464  -1504  -1592  -1700  -1772  -1799  -1891  -2186  -2650  -3064  -3278  -3328  -3341  -3459  -3774  -4239  -4680  -4980  -5190  -5416  -5653  -5821  -5920  -6081  -6447  -6963  -7394  -7599  -7641  -7624  -7595  -7573  -7569  -7584  -7596  -7590  -7576  -7568  -7567  -7569  -7571  -7574  -7575  -7542  -7352  -6873  -6208  -5678  -5449  -5419  -5451  -5484  -5479  -5376  -5149  -4878  -4692  -4636  -4671  -4754  -4847  -4912  -4938  -4938  -4920  -4875  -4805  -4736  -4699  -4700  -4717  -4731  -4737  -4737  -4729  -4710  -4687  -4672  -4653  -4587  -4430  -4178  -3883  -3618  -3439  -3340  -3247  -3109  -2935  -2740  -2546  -2391  -2290  -2214  -2144  -2090  -2057  -2034  -2011  -1987  -1937  -1749  -1311  -713  -234  -34  -35  -102  -153  -97  173  645  1113  1382  1460  1461  1454  1478  1592  1852  2249  2693  3053  3257  3321  3341  3478  3878  4539  5264  5865  6411  7205  8520  10358  12321  13678  13820  12713  10819  8814  7447  7194  7928  9164  10406  11255  11612  11749  12029  12575  13220  13744  14127  14516  15057  15776  16541  17165  17586  17867  18105  18433  19002  19858  20810  21559  21978  22195  22454  22911  23545  24260  24990  25651  26157  26534  26920  27445  28122  28827  29438  29994  30588  31224  31869  32492  32767  32767  32767  32767  32767  32767  32767  32767  32767  32767  32767  32767  32767  32767  32767  32767  32767  32767  32767  32767  32767  32767  32767  32767  32767  32767  32767  32767  32767  32767  32767  32767  32767  32767  32767  32767  32767  32767  29347  18876  9177  719  -6722  -13659  -20491  -26962  -32147  -32768  -32768  -32768  -32768  -32768  -32768  -32768  -32768  -32768  -32768  -32768  -32768  -32768  -32768  -32768  -32768  -32768  -32768  -32768  -32768  -32768  -32768  -32768  -32768  -32768  -32768  -32768  -32768  -32768  -32768  -32768  -32768  -32768  -32768  -32768  -32768  -32768  -32768  -32768  -32768  -32768  -32768  -32723  -32070  -31690  -31485  -31204  -30734  -30158  -29556  -28902  -28181  -27456  -26848  -26440  -26168  -25854  -25343  -24544  -23509  -22533  -21951  -21780  -21758  -21593  -21046  -20025  -18765  -17725  -17182  -17027  -16994  -16876  -16536  -15983  -15442  -15125  -15016  -14985  -14950  -14838  -14481  -13716  -12601  -11364  -10287  -9717  -9721  -9798  -9280  -7745  -5196  -2271  3  807  -142  -2431  -5028  -6885  -7475  -6961  -6045  -5451  -5417  -5695  -5920  -5848  -5359  -4558  -3774  -3238  -2911  -2665  -2408  -2079  -1683  -1294  -993  -798  -591  -157  534  1242  1723  1948  2026  2057  2090  2141  2183  2150  2011  1796  1578  1437  1403  1459  1574  1704  1820  1950  2119  2287  2391  2418  2420  2448  2502  2540  2522  2454  2376  2325  2308  2307  2318  2362  2462  2601  2737  2839  2912  2952  2925  2825  2712  2634  2584  2551  2567  2691  2933  3200  3398  3573  3850  4260  4680  4954  5049  5053  5106  5306  5618  5899  6057  6114  6159  6266  6416  6525  6559  6557  6549  6524  6462  6379  6315  6288  6277  6254  6205  6141  6094  6093  6146  6235  6328  6398  6436  6470  6544  6684  6849  6963  7001  6998  6991  6998  7023  7056  7047  6916  6629  6261  5907  5598  5349  5174  5040  4924  4846  4799  4716  4533  4237  3920  3712  3654  3679  3714  3702  3593  3374  3093  2789  2456  2101  1799  1606  1506  1502  1625  1829  2010  2130  2233  2361  2525  2709  2873  2990  3061  3081  2989  2706  2287  1928  1733  1610  1385  980  504  145  -6  26  215  527  879  1129  1133  880  577  611  1340  2797  4698  6546  7689  7649  6433  4371  1994  -11  -1174  -1456  -1089  -484  -49  91  36  -89  -201  -265  -286  -256  -157  -9  133  236  287  284  245  217  253  380  568  756  903  1011  1085  1126  1130  1105  1065  1027  995  946  851  707  538  377  267  258  335  433  525  626  756  938  1200  1547  1941  2295  2529  2621  2605  2524  2425  2341  2284  2252  2245  2250  2245  2214  2159  2083  1959  1749  1462  1170  948  786  601  351  83  -127  -222  -147  115  460  728  962  1379  2013  2607  2938  3025  3003  2941  2834  2678  2501  2331  2191  2052  1781  1262  621  125  -150  -350  -613  -979  -1396  -1752  -1956  -2009  -1963  -1830  -1615  -1370  -1179  -1060  -929  -714  -453  -233  -98  -40  -42  -94  -193  -353  -570  -799  -1003  -1174  -1286  -1288  -1174  -1001  -838  -726  -658  -610  -582  -590  -643  -746  -915  -1172  -1473  -1708  -1805  -1758  -1577  -1314  -1070  -918  -859  -860  -877  -873  -821  -721  -616  -543  -500  -474  -466  -490  -570  -736  -949  -1099  -1115  -1014  -871  -773  -750  -766  -763  -691  -521  -248  55  153  -164  -724  -1029  -746  50  1177  2577  4121  5422  5905  5108  3081  522  -1590  -2581  -2425  -1683  -1066  -887  -965  -1043  -1056  -1039  -1019  -1000  -976  -928  -838  -723  -641  -627  -672  -740  -807  -879  -956  -1021  -1068  -1128  -1242  -1420  -1615  -1776  -1894  -1967  -1948  -1812  -1609  -1423  -1315  -1281  -1283  -1289  -1293  -1303  -1308  -1258  -1089  -801  -492  -284  -199  -153  -58  89  229  309  318  246  81  -151  -419  -718  -1012  -1219  -1289  -1246  -1165  -1107  -1083  -1069  -1047  -1029  -1032  -1068  -1134  -1217  -1316  -1430  -1534  -1595  -1567  -1385  -1039  -651  -383  -282  -274  -274  -236  -132  58  326  609  822  893  793  569  333  185  147  186  259  330  381  437  539  684  816  881  840  658  359  31  -266  -528  -770  -1012  -1225  -1338  -1320  -1209  -1078  -979  -910  -862  -852  -885  -938  -1000  -1093  -1251  -1465  -1659  -1762  -1782  -1768  -1749  -1724  -1680  -1604  -1512  -1423  -1312  -1087  -643  16  754  1388  1805  2045  2241  2458  2712  3090  3655  4295  4850  5272  5557  5692  5722  5724  5730  5689  5507  5243  5218  5567  5877  5706  5059  4145  3161  2332  1845  1684  1575  1111  82  -1314  -2516  -2793  -1691  520  2977  4773  5455  5226  4562  3614  2357  1061  142  -250  -268  -105  135  375  545  645  702  658  358  -277  -1027  -1529  -1685  -1680  -1680  -1720  -1781  -1839  -1866  -1789  -1527  -1132  -785  -611  -624  -855  -1313  -1831  -2158  -2179  -1955  -1648  -1436  -1379  -1416  -1457  -1392  -1118  -679  -282  -81  -48  -92  -166  -245  -297  -301  -264  -208  -157  -139  -194  -360  -584  -745  -779  -725  -685  -833  -1307  -1966  -2464  -2647  -2641  -2596  -2573  -2600  -2694  -2829  -2923  -2891  -2702  -2437  -2249  -2230  -2362  -2547  -2677  -2717  -2706  -2684  -2659  -2614  -2544  -2475  -2433  -2400  -2326  -2196  -2044  -1900  -1735  -1482  -1176  -954  -879  -894  -919  -912  -859  -779  -717  -695  -666  -543  -281  28  212  204  95  4  -41  -82  -139  -176  -123  51  259  352  311  241  207  208  256  388  584  757  860  931  1004  1068  1112  1152  1197  1230  1233  1203  1155  1109  1088  1130  1277  1501  1695  1785  1793  1770  1753  1769  1847  1979  2105  2173  2184  2166  2137  2083  1977  1832  1708  1654  1672  1714  1696  1569  1396  1247  1000  460  -260  -794  -1018  -1119  -1238  -1353  -1449  -1564  -1709  -1847  -1958  -2045  -2082  -2013  -1921  -2133  -2831  -3582  -3641  -2636  -799  1314  3165  4363  4740  4350  3276  1638  -183  -1611  -2270  -2214  -1755  -1268  -1015  -920  -756  -518  -308  -131  39  185  282  337  394  480  591  717  840  924  966  999  1038  1069  1086  1114  1172  1234  1222  1085  904  821  863  933  963  972  1016  1131  1319  1550  1779  1963  2075  2123  2134  2128  2090  2014  1939  1895  1875  1876  1909  1969  2042  2107  2154  2193  2206  2097  1778  1347  1031  911  876  820  679  408  65  -199  -314  -330  -322  -347  -459  -664  -898  -1092  -1203  -1225  -1189  -1144  -1104  -1051  -973  -895  -867  -925  -1064  -1266  -1512  -1738  -1845  -1787  -1583  -1250  -809  -376  -104  -27  -90  -282  -613  -984  -1229  -1283  -1215  -1120  -1058  -1036  -1035  -1047  -1093  -1168  -1203  -1149  -1063  -1009  -941  -755  -449  -135  90  200  203  134  16  -165  -405  -640  -843  -1073  -1367  -1661  -1855  -1881  -1662  -1169  -578  -179  -69  -146  -307  -505  -691  -818  -880  -895  -873  -800  -649  -432  -226  -121  -193  -493  -938  -1316  -1497  -1529  -1508  -1487  -1484  -1510  -1563  -1615  -1645  -1661  -1682  -1685  -1588  -1324  -975  -728  -672  -756  -883  -967  -956  -844  -681  -551  -518  -626  -890  -1211  -1428  -1490  -1468  -1445  -1471  -1566  -1699  -1789  -1767  -1671  -1723  -2100  -2630  -2830  -2239  -738  1354  3429  4846  5244  4661  3395  1737  -34  -1551  -2530  -2910  -2785  -2385  -1988  -1733  -1572  -1392  -1149  -908  -756  -707  -701  -616  -284  355  1118  1718  2016  2042  1818  1322  656  77  -236  -325  -312  -257  -161  -29  109  213  238  145  -75  -362  -599  -695  -622  -406  -68  429  1109  1881  2603  3164  3491  3610  3633  3647  3657  3645  3625  3596  3509  3317  3020  2654  2257  1893  1643  1486  1303  1037  752  506  273  1  -279  -465  -512  -466  -396  -351  -372  -487  -663  -814  -884  -895  -887  -872  -838  -783  -736  -734  -784  -836  -810  -673  -457  -232  -73  1  40  107  263  539  865  1100  1196  1264  1458  1836  2279  2576  2623  2465  2218  1995  1830  1683  1522  1310  1010  679  453  371  343  297  231  141  0  -171  -299  -372  -444  -512  -518  -457  -395  -374  -379  -370  -310  -200  -83  -25  -86  -232  -318  -262  -135  -23  53  116  165  161  66  -108  -300  -421  -405  -242  -6  183  263  238  138  4  -128  -259  -414  -609  -825  -1020  -1154  -1196  -1082  -755  -311  29  162  134  12  -125  -178  -142  -15  450  1510  3053  4612  5647  5856  5241  3946  2218  383  -1307  -2604  -3130  -2709  -1732  -924  -725  -1046  -1603  -2188  -2625  -2781  -2675  -2442  -2188  -1853  -1316  -676  -219  -61  -77  -120  -134  -106  16  336  882  1471  1847  1970  2001  2061  2156  2290  2506  2793  3060  3236  3331  3394  3485  3638  3822  3944  3896  3614  3153  2635  2125  1683  1404  1287  1237  1181  1075  840  396  -212  -791  -1166  -1342  -1435  -1538  -1687  -1850  -1958  -2000  -2045  -2153  -2263  -2244  -2076  -1867  -1729  -1707  -1804  -2021  -2380  -2858  -3319  -3586  -3569  -3300  -2931  -2664  -2573  -2584  -2610  -2624  -2623  -2589  -2496  -2347  -2171  -1972  -1737  -1415  -897  -138  662  1184  1301  1104  714  242  -214  -576  -793  -876  -891  -865  -737  -454  -130  18  -47  -170  -234  -247  -250  -249  -205  -75  110  260  294  159  -157  -538  -801  -901  -959  -1098  -1311  -1493  -1574  -1572  -1522  -1390  -1150  -883  -714  -676  -713  -751  -696  -454  -57  316  531  636  749  893  1006  1023  904  646  336  99  -22  -82  -128  -159  -174  -196  -236  -284  -330  -397  -538  -801  -1179  -1597  -1972  -2266  -2460  -2519  -2435  -2286  -2148  -1982  -1704  -1345  -1046  -1052  -1479  -2003  -2054  -1234  477  2611  4379  5106  4495  2704  363  -1725  -3048  -3525  -3357  -2916  -2578  -2442  -2350  -2174  -1886  -1490  -1081  -787  -566  -245  219  695  1052  1255  1356  1451  1595  1773  1954  2117  2269  2466  2764  3122  3416  3562  3552  3398  3136  2877  2730  2714  2781  2867  2926  2948  2945  2918  2858  2784  2697  2512  2156  1732  1438  1329  1318  1334  1367  1442  1571  1715  1809  1839  1841  1846  1862  1885  1921  1980  2044  2079  2060  1982  1865  1733  1596  1467  1372  1354  1485  1804  2211  2527  2675  2645  2337  1662  839  272  98  137  201  235  252  260  220  70  -185  -456  -647  -727  -724  -690  -686  -800  -1097  -1492  -1790  -1899  -1881  -1808  -1714  -1634  -1603  -1626  -1670  -1707  -1741  -1804  -1907  -2033  -2149  -2226  -2261  -2259  -2187  -1983  -1637  -1240  -922  -738  -662  -638  -619  -605  -646  -793  -1039  -1306  -1496  -1575  -1572  -1534  -1494  -1468  -1464  -1479  -1507  -1506  -1387  -1093  -725  -465  -372  -373  -413  -480  -542  -545  -487  -396  -254  -17  344  825  1346  1764  1982  2004  1890  1698  1469  1231  1017  881  838  858  924  1024  1104  1098  994  857  757  716  713  728  770  851  945  986  905  645  256  -52  -133  0  445  1524  3266  5084  6274  6374  5147  2979  826  -705  -1597  -1956  -1968  -1885  -1775  -1623  -1506  -1474  -1488  -1492  -1445  -1316  -1102  -849  -631  -517  -537  -639  -704  -629  -411  -135  85  197  217  166  39  -132  -259  -267  -146  35  173  217  190  115  -37  -309  -631  -861  -947  -925  -795  -545  -243  39  331  642  835  767  513  288  194  192  246  370  541  658  574  213  -291  -656  -715  -510  -191  85  252  322  303  162  -99  -380  -559  -631  -663  -659  -569  -414  -307  -338  -500  -722  -924  -1062  -1141  -1172  -1120  -945  -712  -582  -636  -801  -985  -1185  -1389  -1522  -1527  -1411  -1196  -812  -148  661  1260  1483  1429  1186  807  460  341  360  203  -225  -694  -1008  -1229  -1523  -2028  -2799  -3645  -4239  -4401  -4128  -3551  -2825  -2091  -1577  -1389  -1361  -1303  -1124  -789  -380  -40  171  293  360  393  406  410  390  322  201  47  -107  -214  -247  -279  -409  -608  -747  -748  -625  -472  -383  -356  -329  -289  -248  -192  -105  -15  10  -68  -215  -363  -502  -670  -880  -1089  -1245  -1328  -1337  -1249  -1036  -762  -523  -326  -134  16  79  69  5  -115  -179  24  625  1664  3104  4714  6053  6582  5967  4335  2124  -44  -1531  -2059  -1826  -1254  -723  -426  -365  -421  -492  -571  -665  -733  -741  -695  -597  -448  -296  -217  -271  -467  -732  -948  -1057  -1076  -1029  -925  -792  -668  -581  -550  -561  -565  -538  -478  -365  -215  -85  0  83  275  651  1115  1461  1610  1662  1730  1831  1919  1962  1971  1966  1949  1898  1789  1654  1590  1657  1794  1872  1812  1648  1461  1298  1157  1042  978  967  958  893  748  543  334  185  114  80  57  57  78  99  107  116  124  89  -37  -236  -412  -499  -508  -483  -453  -412  -343  -260  -207  -210  -243  -270  -278  -276  -280  -299  -324  -322  -259  -136  15  155  249  288  290  281  273  266  242  182  103  43  1  -55  -129  -185  -205  -203  -192  -173  -150  -136  -137  -111  -2  160  270  273  215  161  133  116  107  126  197  324  469  567  598  591  572  546  518  500  501  511  502  439  307  137  -31  -185  -319  -435  -527  -603  -697  -836  -985  -1094  -1146  -1170  -1259  -1499  -1869  -2262  -2449  -2046  -799  1079  3017  4407  4835  4217  2775  880  -1018  -2461  -3132  -3042  -2486  -1841  -1377  -1122  -937  -747  -600  -548  -567  -592  -586  -561  -543  -535  -533  -539  -552  -560  -519  -387  -190  1  159  277  314  240  101  -26  -113  -175  -222  -254  -271  -272  -249  -158  81  489  944  1297  1523  1677  1788  1857  1894  1913  1923  1931  1943  1967  2012  2078  2152  2211  2212  2092  1793  1314  783  385  174  73  34  48  84  104  97  62  3  -82  -181  -256  -288  -301  -321  -360  -422  -491  -537  -535  -479  -382  -282  -204  -152  -122  -94  -58  -34  -50  -102  -180  -269  -341  -383  -409  -445  -508  -576  -616  -635  -666  -717  -764  -796  -829  -883  -941  -966  -944  -900  -870  -869  -884  -899  -916  -938  -952  -941  -896  -817  -726  -661  -635  -633  -637  -643  -666  -727  -823  -925  -991  -990  -932  -865  -818  -776  -704  -588  -450  -341  -295  -303  -339  -383  -430  -485  -539  -574  -579  -561  -521  -432  -256  -35  123  162  118  47  -14  -75  -174  -353  -618  -878  -968  -802  -501  -272  -186  -167  -146  -124  -135  -231  -438  -703  -980  -1155  -880  147  1814  3699  5294  6107  5799  4378  2233  -90  -1979  -2811  -2438  -1437  -600  -349  -632  -1113  -1460  -1544  -1400  -1082  -666  -290  -77  -30  -63  -106  -126  -92  21  179  293  301  207  65  -29  15  237  541  761  847  870  891  914  952  1039  1173  1302  1382  1405  1402  1453  1618  1848  2017  2070  2052  2029  2055  2159  2310  2420  2412  2258  2007  1738  1453  1091  679  350  194  173  194  201  164  51  -158  -401  -568  -637  -676  -736  -809  -882  -943  -975  -951  -861  -743  -656  -597  -516  -405  -312  -267  -258  -261  -263  -265  -269  -274  -260  -199  -79  79  256  419  519  509  362  106  -150  -309  -366  -382  -394  -400  -392  -385  -430  -577  -800  -991  -1078  -1063  -977  -866  -789  -796  -903  -1071  -1224  -1326  -1403  -1476  -1532  -1550  -1543  -1547  -1614  -1761  -1933  -2048  -2090  -2095  -2064  -1935  -1671  -1338  -1052  -865  -762  -725  -743  -803  -874  -922  -943  -956  -964  -933  -824  -654  -503  -427  -415  -436  -491  -592  -722  -843  -932  -963  -902  -759  -583  -412  -253  -107  27  162  307  449  579  687  750  758  727  676  620  578  553  526  489  452  425  385  265  -6  -406  -793  -1040  -1134  -1101  -907  -578  -395  -622  -1128  -1522  -1385  -389  1380  3356  4903  5627  5355  4171  2389  438  -1195  -2127  -2223  -1658  -981  -729  -910  -1168  -1292  -1315  -1313  -1300  -1256  -1177  -1060  -902  -731  -606  -539  -505  -486  -477  -461  -428  -366  -249  -75  94  197  249  313  398  480  582  752  968  1168  1310  1348  1270  1159  1100  1095  1120  1196  1362  1579  1749  1833  1864  1868  1864  1898  2017  2201  2362  2428  2357  2118  1776  1480  1299  1144  922  658  435  285  167  19  -172  -318  -270  -3  315  516  579  568  512  405  277  189  158  159  177  207  229  185  12  -278  -581  -809  -965  -1086  -1174  -1220  -1233  -1234  -1238  -1242  -1242  -1231  -1176  -985  -556  51  585  850  882  823  761  722  701  699  749  905  1178  1488  1723  1852  1915  1950  1974  1988  1988  1973  1917  1782  1570  1341  1160  1057  1030  1059  1111  1100  886  409  -166  -614  -893  -1073  -1147  -1092  -963  -840  -750  -699  -715  -793  -873  -906  -890  -854  -825  -812  -820  -857  -929  -1011  -1073  -1097  -1095  -1097  -1130  -1198  -1275  -1327  -1325  -1243  -1074  -867  -697  -607  -584  -597  -621  -641  -643  -626  -596  -557  -490  -367  -211  -88  -25  -1  -12  -69  -169  -273  -336  -349  -342  -335  -324  -297  -260  -234  -236  -266  -303  -337  -403  -556  -782  -1021  -1318  -1743  -2119  -2091  -1422  -71  1682  3163  3671  2905  1105  -1115  -3106  -4321  -4496  -3924  -3143  -2422  -1848  -1475  -1230  -1012  -839  -755  -737  -752  -801  -883  -978  -1063  -1139  -1220  -1297  -1339  -1323  -1255  -1151  -1025  -886  -753  -663  -633  -626  -563  -394  -177  -28  -16  -125  -291  -427  -470  -348  19  616  1267  1754  2008  2130  2230  2318  2376  2463  2664  2943  3165  3259  3269  3262  3265  3272  3243  3125  2897  2594  2298  2080  1953  1838  1637  1370  1154  1026  878  566  71  -440  -753  -777  -509  -27  462  759  869  956  1154  1429  1631  1671  1572  1409  1253  1146  1099  1096  1105  1094  1043  967  908  894  939  1041  1162  1249  1277  1247  1170  1077  1016  1008  1039  1066  992  718  288  -101  -313  -345  -180  233  778  1171  1186  768  72  -563  -887  -925  -828  -712  -647  -712  -959  -1305  -1552  -1540  -1257  -853  -562  -513  -694  -1008  -1312  -1500  -1561  -1527  -1421  -1284  -1191  -1209  -1354  -1562  -1717  -1747  -1633  -1396  -1102  -846  -689  -635  -666  -766  -906  -1043  -1147  -1180  -1071  -783  -422  -173  -98  -125  -177  -228  -269  -286  -268  -238  -267  -420  -667  -904  -1036  -1026  -903  -752  -674  -728  -877  -1033  -1174  -1310  -1404  -1388  -1217  -850  -197  873  2352  3842  4702  4544  3420  1649  -331  -2106  -3384  -4005  -3931  -3224  -2106  -1017  -357  -158  -171  -183  -140  -88  -106  -218  -373  -508  -596  -635  -642  -627  -586  -518  -445  -402  -431  -565  -768  -959  -1119  -1287  -1436  -1465  -1338  -1106  -845  -632  -527  -521  -556  -550  -406  -91  280  550  676  718  714  657  591  619  752  878  922  923  953  1026  1093  1122  1128  1132  1126  1070  931  723  506  332  147  -178  -652  -1100  -1389  -1541  -1620  -1644  -1595  -1451  -1228  -989  -829  -832  -986  -1190  -1355  -1448  -1462  -1373  -1157  -854  -581  -416  -325  -209  13  354  744  1073  1289  1446  1612  1774  1867  1840  1693  1497  1345  1242  1123  987  887  840  832  885  1055  1323  1566  1684  1694  1660  1604  1500  1348  1201  1109  1074  1071  1078  1093  1128  1191  1268  1325  1325  1244  1092  932  831  781  714  565  333  75  -143  -281  -336  -339  -332  -335  -334  -290  -175  -19  110  178  199  200  199  195  175  132  93  53  -108  -539  -1130  -1563  -1674  -1556  -1365  -1169  -919  -561  -145  208  404  431  320  104  -144  -337  -431  -447  -391  -249  -58  93  181  272  400  491  455  304  126  -28  -173  -309  -406  -456  -482  -499  -501  -467  -406  -430  -662  -997  -1079  -555  757  2710  4672  5890  6032  5212  3726  1955  276  -1040  -1768  -1745  -1108  -321  87  -122  -757  -1426  -1851  -2000  -2002  -1959  -1889  -1808  -1729  -1600  -1328  -920  -496  -164  41  145  198  242  286  296  238  129  14  -77  -130  -131  -69  49  188  303  375  407  412  419  450  502  560  619  682  747  799  828  838  839  836  832  832  851  904  983  1050  1060  974  781  536  301  90  -106  -306  -517  -712  -848  -922  -973  -1029  -1083  -1133  -1186  -1269  -1429  -1682  -1963  -2185  -2316  -2379  -2395  -2333  -2130  -1816  -1531  -1372  -1306  -1272  -1262  -1265  -1236  -1160  -1088  -1062  -1069  -1063  -1006  -887  -741  -618  -551  -523  -500  -493  -605  -934  -1405  -1796  -1954  -1851  -1481  -919  -385  -66  38  5  -142  -375  -612  -780  -866  -897  -906  -911  -915  -916  -905  -879  -848  -804  -673  -383  0  305  463  525  556  577  582  568  553  577  666  795  925  1062  1220  1374  1500  1608  1694  1725  1681  1596  1525  1473  1406  1306  1192  1095  1031  984  936  889  829  748  670  605  529  453  420  432  452  449  411  341  256  165  91  90  199  369  503  575  625  667  649  525  345  216  195  267  400  567  745  881  925  906  864  733  393  -99  -501  -696  -767  -731  -405  526  2255  4551  6768  8186  8389  7444  5698  3540  1462  15  -448  24  989  1865  2227  2028  1581  1125  634  86  -431  -807  -980  -996  -959  -948  -997  -1130  -1323  -1501  -1609  -1648  -1604  -1440  -1188  -952  -802  -734  -715  -723  -752  -798  -845  -877  -894  -924  -998  -1122  -1280  -1425  -1464  -1311  -990  -646  -427  -369  -457  -668  -920  -1096  -1163  -1175  -1147  -1001  -657  -209  104  134  -86  -391  -601  -673  -702  -792  -990  -1280  -1611  -1962  -2318  -2588  -2691  -2677  -2693  -2917  -3466  -4253  -4968  -5196  -4689  -3666  -2733  -2473  -3125  -4379  -5447  -5523  -4250  -1955  395  1795  1916  1208  386  -100  -238  -217  -170  -135  -132  -181  -272  -371  -446  -459  -327  12  455  772  850  756  612  517  544  719  973  1149  1078  691  139  -296  -464  -317  233  1137  2039  2590  2789  2835  2848  2838  2754  2465  1844  1035  394  94  26  51  134  286  453  524  451  266  68  -56  -135  -230  -336  -432  -509  -529  -396  -52  387  680  636  223  -362  -785  -809  -411  239  864  1297  1554  1709  1803  1841  1834  1806  1771  1705  1556  1319  1036  741  473  301  245  280  419  653  766  383  -629  -1937  -2920  -3034  -2083  -248  1985  3898  4765  4287  2718  614  -1343  -2647  -3275  -3437  -3263  -2943  -2696  -2558  -2384  -2049  -1609  -1208  -887  -602  -327  -59  174  328  393  399  344  190  -50  -300  -489  -632  -779  -922  -984  -936  -830  -701  -466  -60  393  684  742  635  450  269  153  108  106  127  166  225  322  509  843  1290  1703  1961  2096  2190  2262  2304  2330  2345  2312  2184  1977  1812  1889  2409  3359  4467  5445  6077  6244  6044  5814  5977  6651  7424  7702  7043  5354  3139  1219  7  -565  -701  -686  -842  -1241  -1689  -2047  -2309  -2449  -2418  -2217  -1943  -1733  -1630  -1586  -1566  -1558  -1552  -1546  -1542  -1541  -1534  -1509  -1473  -1446  -1441  -1453  -1477  -1516  -1583  -1739  -2059  -2507  -2905  -3127  -3213  -3255  -3289  -3313  -3321  -3283  -3155  -2957  -2779  -2684  -2665  -2712  -2832  -2985  -3096  -3141  -3171  -3232  -3334  -3475  -3668  -3915  -4159  -4303  -4283  -4110  -3879  -3713  -3630  -3550  -3405  -3142  -2693  -2085  -1477  -981  -563  -211  4  70  52  31  78  245  506  750  868  789  492  97  -185  -266  -224  -181  -259  -540  -936  -1224  -1242  -984  -587  -243  -28  99  180  228  300  471  715  898  882  592  102  -356  -602  -665  -702  -840  -1101  -1402  -1637  -1715  -1525  -1070  -575  -154  396  1325  2754  4620  6502  7801  8119  7322  5571  3441  1645  620  431  843  1434  1791  1758  1502  1251  1085  997  971  978  984  959  893  814  760  734  714  696  700  721  727  698  635  553  480  427  332  98  -242  -509  -539  -304  76  416  614  715  802  907  994  1029  1020  983  926  853  774  721  715  747  796  853  935  1045  1155  1244  1313  1356  1361  1328  1281  1211  1026  622  95  -297  -431  -411  -393  -431  -486  -523  -549  -561  -490  -254  107  421  574  585  504  385  297  289  393  648  1016  1347  1523  1528  1386  1120  780  465  270  191]
