reading_id,reading_time,wire_id,result_classification,heart_rate,heart_rate_alert,firmware_version,device_app_version,hardware_version,waveform_samples
42a6c470-5098-11ed-8080-808080808080,Thu Oct 20 16:57:20 UTC 2022,e101e3752439,NSR,73,NONE,20001.171.50,2.10.0,Charge 5,[-9561  -9978  -10239  -10267  -9999  -9498  -9081  -8898  -8744  -8625  -8876  -9571  -10127  -9936  -9258  -8673  -8415  -8784  -9818  -10796  -11195  -11252  -11131  -10726  -10143  -9798  -10003  -10453  -10591  -10294  -9739  -9169  -8832  -8742  -8635  -8255  -7653  -7096  -6710  -6345  -5754  -4889  -3963  -3164  -2534  -2031  -1501  -828  -99  524  936  1158  1413  1965  2782  3558  4110  4568  5182  6016  6856  7430  7688  7820  8062  8521  9156  9790  10213  10365  10342  10267  10245  10403  10835  11410  11827  11961  11928  11873  11882  12008  12264  12603  12923  13116  13158  13116  13084  13170  13449  13820  14044  13999  13787  13580  13459  13441  13565  13837  14112  14194  14098  13989  13920  13829  13671  13434  13113  12729  12342  12036  11855  11753  11639  11471  11273  11065  10877  10831  11036  11374  11608  11652  11678  12126  13401  15336  17099  17732  16780  14579  12021  9919  8559  7846  7635  7759  7972  8104  8165  8236  8333  8415  8461  8484  8497  8491  8445  8372  8317  8298  8299  8298  8278  8224  8084  7820  7519  7300  7127  6928  6746  6630  6524  6339  6091  5895  5813  5770  5678  5613  5761  6100  6346  6248  5806  5269  4927  4864  4958  5066  5148  5239  5347  5410  5339  5115  4857  4701  4661  4676  4713  4775  4829  4768  4507  4132  3827  3634  3469  3265  2950  2440  1815  1310  1042  897  690  310  -212  -719  -1068  -1289  -1490  -1660  -1696  -1550  -1316  -1239  -1479  -1888  -2193  -2300  -2295  -2281  -2291  -2307  -2298  -2257  -2196  -2125  -2046  -1957  -1863  -1791  -1789  -1889  -2037  -2110  -2086  -2069  -2067  -1998  -1880  -1781  -1715  -1684  -1719  -1841  -2009  -2135  -2188  -2188  -2130  -1986  -1795  -1650  -1598  -1625  -1718  -1861  -2028  -2203  -2377  -2515  -2540  -2400  -2157  -1946  -1862  -1924  -2104  -2339  -2537  -2612  -2542  -2385  -2240  -2203  -2334  -2615  -2961  -3264  -3439  -3484  -3469  -3460  -3483  -3528  -3568  -3587  -3576  -3499  -3294  -3063  -3102  -3416  -3543  -3067  -1840  -78  1569  2512  2565  1750  222  -1640  -3392  -4740  -5431  -5239  -4427  -3621  -3117  -2880  -2877  -3031  -3240  -3436  -3539  -3496  -3321  -3056  -2748  -2454  -2232  -2112  -2076  -2070  -2057  -2048  -2062  -2076  -2058  -2023  -2004  -2007  -2016  -2008  -1955  -1840  -1686  -1527  -1355  -1151  -931  -750  -701  -789  -826  -631  -285  -18  79  100  166  325  559  797  958  1014  991  916  811  707  624  583  621  751  892  932  892  871  825  586  96  -534  -1150  -1618  -1851  -1896  -1886  -1905  -1941  -1945  -1920  -1921  -2000  -2157  -2295  -2283  -2159  -2103  -2206  -2416  -2565  -2459  -2171  -1984  -1991  -2067  -2104  -2087  -2065  -2097  -2200  -2310  -2321  -2226  -2144  -2138  -2164  -2178  -2178  -2176  -2195  -2253  -2333  -2389  -2402  -2396  -2408  -2461  -2543  -2603  -2592  -2493  -2350  -2241  -2198  -2197  -2211  -2224  -2230  -2235  -2240  -2244  -2248  -2253  -2248  -2196  -2057  -1865  -1728  -1737  -1904  -2144  -2311  -2308  -2134  -1884  -1668  -1479  -1251  -1019  -915  -1016  -1256  -1501  -1658  -1714  -1701  -1662  -1631  -1600  -1529  -1441  -1428  -1551  -1794  -2071  -2289  -2402  -2342  -1982  -1425  -1141  -1389  -1733  -1516  -420  1432  3472  4927  5296  4582  3095  1171  -755  -2134  -2672  -2481  -2008  -1742  -1660  -1424  -1056  -805  -729  -760  -847  -962  -1073  -1156  -1182  -1108  -927  -704  -546  -515  -570  -635  -684  -734  -756  -677  -469  -197  1  15  -109  -199  -159  -48  35  77  145  291  495  692  829  895  911  900  876  858  905  1099  1444  1804  2024  2075  2039  2007  2032  2106  2206  2333  2474  2578  2610  2575  2457  2190  1745  1268  984  944  1004  1016  941  825  712  616  512  350  138  30  122  269  321  296  288  363  497  594  603  547  479  434  401  340  250  185  199  299  452  605  725  799  842  848  741  454  91  -134  -170  -127  -70  -7  32  31  16  31  62  34  -68  -163  -191  -166  -128  -85  -30  21  42  22  -23  -79  -165  -301  -411  -380  -181  92  301  389  392  325  171  -28  -174  -230  -235  -215  -151  -51  16  1  -61  -69  41  212  354  435  465  464  457  455  441  394  335  317  349  378  342  225  74  -49  -133  -188  -192  -139  -82  -44  -22  -34  -78  -129  -182  -292  -552  -920  -1156  -1127  -932  -555  252  1696  3643  5531  6617  6441  5116  3154  1116  -522  -1447  -1666  -1459  -1125  -833  -633  -538  -518  -493  -410  -281  -153  -71  -51  -93  -190  -298  -369  -397  -402  -398  -383  -334  -220  -59  87  162  160  144  182  247  278  281  318  414  517  574  590  589  567  516  443  371  335  417  714  1175  1587  1809  1896  1948  1998  2055  2131  2207  2265  2310  2363  2442  2537  2592  2579  2549  2512  2413  2242  2023  1773  1537  1367  1259  1156  1004  812  640  497  318  103  -67  -152  -179  -180  -152  -60  120  336  489  552  580  604  595  522  412  323  265  202  128  95  132  186  189  135  67  24  16  28  37  12  -56  -113  -83  27  118  91  -75  -307  -480  -551  -552  -482  -307  -71  99  110  -41  -279  -503  -683  -828  -900  -847  -685  -493  -336  -238  -192  -184  -217  -310  -439  -549  -607  -627  -631  -629  -607  -535  -395  -228  -102  -44  -32  -52  -110  -211  -327  -413  -481  -594  -777  -933  -903  -671  -396  -228  -188  -234  -327  -427  -497  -531  -541  -528  -474  -388  -322  -321  -390  -494  -585  -645  -682  -702  -679  -609  -566  -616  -705  -754  -763  -775  -801  -805  -764  -743  -849  -1056  -1128  -953  -787  -793  -724  -263  740  2317  4182  5615  5976  5166  3402  1081  -1086  -2385  -2644  -2207  -1512  -927  -664  -687  -834  -1006  -1188  -1367  -1482  -1472  -1323  -1066  -766  -520  -445  -589  -855  -1075  -1168  -1141  -1020  -859  -731  -633  -499  -324  -188  -138  -146  -162  -168  -180  -225  -303  -395  -476  -509  -431  -186  189  546  751  801  759  659  525  433  514  877  1434  1915  2131  2091  1879  1610  1417  1366  1453  1647  1862  1961  1883  1693  1483  1259  973  610  224  -96  -312  -450  -545  -629  -719  -798  -858  -920  -979  -1007  -986  -930  -905  -962  -1053  -1110  -1134  -1152  -1174  -1206  -1249  -1283  -1259  -1152  -1036  -1009  -1052  -1083  -1080  -1058  -1034  -998  -896  -676  -373  -102  47  48  -85  -317  -571  -720  -693  -536  -363  -256  -205  -138  -84  -145  -326  -530  -653  -667  -619  -549  -477  -410  -322  -185  -23  106  201  296  374  392  328  181  11  -94  -125  -147  -205  -272  -265  -138  74  287  400  381  296  214  151  108  82  74  104  205  360  490  533  489  404  338  294  239  195  179  157  122  94  76  56  20  -31  -77  -84  -34  35  60  61  100  155  164  113  30  -75  -227  -405  -533  -581  -578  -550  -487  -414  -458  -736  -1167  -1494  -1360  -479  1077  2970  4793  6064  6277  5280  3438  1231  -839  -2102  -2240  -1696  -1067  -615  -419  -449  -591  -773  -934  -998  -944  -835  -744  -664  -547  -408  -302  -262  -289  -348  -375  -344  -270  -178  -106  -61  -4  80  160  210  229  228  211  179  130  75  21  -8  44  208  417  583  689  751  786  811  841  860  847  833  874  997  1197  1451  1709  1910  2034  2091  2089  2065  2054  2053  2028  1952  1851  1778  1711  1521  1113  605  218  2  -128  -225  -317  -445  -591  -696  -735  -732  -709  -668  -618  -612  -705  -868  -996  -1033  -1006  -956  -890  -777  -619  -471  -391  -369  -360  -353  -374  -421  -468  -508  -557  -619  -689  -777  -869  -919  -902  -833  -723  -584  -480  -490  -633  -838  -981  -1002  -930  -849  -824  -845  -863  -853  -821  -786  -769  -783  -831  -899  -955  -977  -961  -903  -820  -728  -638  -563  -511  -470  -431  -361  -243  -141  -109  -134  -183  -227  -242  -223  -184  -148  -121  -111  -151  -249  -361  -469  -568  -630  -649  -663  -710  -778  -796  -676  -379  1  278  347  255  109  -13  -114  -218  -313  -383  -430  -456  -444  -376  -259  -137  -55  -23  -20  -23  -16  0  29  90  195  340  509  665  769  802  743  571  345  173  80  8  -77  -162  -224  -231  -159  -52  51  159  250  275  201  35  -132  -192  -151  -70  18  26  -203  -646  -943  -603  704  2846  5150  6805  7238  6233  4100  1594  -494  -1610  -1602  -951  -415  -333  -511  -570  -389  -202  -215  -369  -506  -571  -608  -649  -660  -591  -441  -276  -187  -213  -325  -475  -621  -711  -705  -586  -382  -175  -44  -10  -71  -220  -400  -527  -566  -532  -445  -343  -299  -352  -456  -530  -539  -501  -425  -296  -143  -48  -44  -74  -45  107  372  635  785  810  793  824  948  1113  1223  1225  1131  1002  905  850  785  650  438  187  -61  -277  -438  -551  -670  -848  -1049  -1191  -1245  -1245  -1218  -1165  -1086  -1000  -910  -811  -719  -662  -634  -600  -547  -511  -558  -685  -768  -712  -592  -521  -510  -516  -508  -484  -458  -438  -417  -378  -306  -214  -150  -164  -280  -459  -610  -676  -671  -639  -616  -607  -598  -591  -576  -505  -361  -163  10  11  -172  -365  -450  -460  -454  -421  -324  -185  -109  -161  -282  -375  -418  -459  -523  -561  -514  -389  -231  -115  -121  -235  -346  -384  -366  -333  -308  -280  -233  -180  -138  -115  -115  -117  -119  -187  -343  -487  -503  -359  -133  50  137  154  144  129  113  98  85  68  21  -81  -207  -269  -229  -141  -73  -39  -46  -153  -402  -697  -862  -781  -379  455  1813  3521  5078  5935  5749  4487  2560  673  -668  -1364  -1532  -1359  -1000  -583  -258  -97  -51  -53  -101  -209  -317  -313  -185  -34  73  157  262  403  545  641  677  680  682  690  688  667  636  598  552  510  498  567  730  915  1081  1263  1426  1499  1495  1466  1448  1467  1548  1693  1860  1999  2074  2108  2164  2280  2441  2593  2684  2712  2723  2761  2814  2845  2861  2894  2938  2967  2983  2995  2972  2792  2341  1727  1237  1010  936  824  563  192  -150  -375  -499  -569  -614  -644  -654  -639  -623  -626  -646  -672  -687  -681  -655  -607  -535  -465  -452  -531  -681  -825  -902  -903  -840  -723  -570  -413  -298  -257  -282  -346  -423  -488  -538  -625  -798  -993  -1049  -870  -564  -332  -252  -256  -276  -307  -372  -477  -598  -683  -686  -626  -572  -550  -513  -407  -255  -142  -128  -207  -324  -402  -394  -312  -211  -147  -127  -125  -133  -189  -316  -471  -606  -672  -576  -326  -61  154  357  566  758  883  922  906  868  802  673  446  144  -151  -364  -463  -471  -430  -377  -308  -192  -44  55  19  -183  -459  -632  -627  -571  -725  -1198  -1572  -1131  398  2687  5025  6391  6037  4173  1751  -330  -1663  -2202  -2261  -2330  -2487  -2452  -2154  -1807  -1615  -1603  -1684  -1806  -1997  -2270  -2545  -2703  -2692  -2533  -2317  -2165  -2122  -2133  -2109  -1998  -1839  -1721  -1683  -1690  -1699  -1690  -1671  -1659  -1637  -1574  -1492  -1457  -1518  -1657  -1769  -1774  -1687  -1570  -1481  -1443  -1447  -1472  -1486  -1423  -1231  -965  -750  -610  -436  -130  254  555  689  727  775  862  952  1010  1031  1019  971  888  786  674  555  440  279  -23  -440  -851  -1207  -1481  -1604  -1563  -1459  -1381  -1310  -1186  -1033  -928  -889  -860  -793  -703  -653  -679  -750  -817  -852  -834  -719  -493  -244  -81  2  67  71  -58  -277  -485  -636  -713  -723  -697  -681  -695  -665  -494  -234  -19  108  208  317  412  452  407  268  87  -85  -247  -388  -509  -635  -749  -804  -764  -610  -325  90  540  852  947  852  597  252  -49  -219  -264  -219  -98  108  366  577  673  640  491  279  95  8  49  208  411  561  620  609  555  462  353  266  217  189  159  108  55  55  165  398  675  855  848  641  309  -14  -201  -169  75  411  672  755  682  542  407  317  276  252  210  198  331  616  891  1029  1058  1052  1021  937  797  631  473  373  369  418  433  365  215  -25  -388  -808  -1093  -1081  -759  -290  83  213  29  -515  -1162  -1268  -428  1146  3050  4955  6460  7151  6902  5922  4501  2916  1457  272  -588  -934  -649  -24  505  754  770  629  368  89  -50  9  172  301  350  359  361  369  382  398  419  460  548  672  748  713  612  519  535  720  947  1051  1026  956  910  907  917  927  934  898  797  688  657  749  956  1211  1440  1604  1719  1807  1875  1934  2012  2111  2202  2251  2266  2283  2323  2396  2493  2581  2609  2518  2266  1885  1494  1185  933  659  369  168  103  114  132  129  94  -6  -198  -448  -682  -847  -931  -955  -960  -971  -973  -926  -806  -657  -572  -602  -703  -802  -864  -881  -828  -678  -478  -333  -284  -285  -295  -315  -366  -437  -492  -522  -554  -602  -659  -718  -764  -765  -722  -722  -821  -918  -895  -798  -733  -722  -732  -740  -747  -766  -797  -829  -858  -889  -955  -1054  -1093  -1037  -979  -977  -998  -1009  -1011  -1010  -1009  -1007  -1000  -991  -1006  -1093  -1292  -1603  -1939  -2160  -2182  -2013  -1744  -1527  -1438  -1437  -1503  -1612  -1693  -1725  -1801  -2021  -2336  -2580  -2658  -2590  -2410  -2177  -1983  -1874  -1836  -1840  -1876  -1964  -2164  -2494  -2837  -2994  -2857  -2489  -2055  -1711  -1525  -1469  -1479  -1523  -1597  -1688  -1720  -1600  -1367  -1175  -1097  -1078  -1077  -1151  -1428  -1961  -2583  -3000  -3037  -2675  -2036  -1397  -1006  -893  -957  -1133  -1422  -1781  -2105  -2376  -2593  -2579  -2122  -1048  799  3216  5387  6497  6361  5235  3513  1593  -208  -1560  -2177  -2046  -1431  -751  -337  -182  -108  -55  -71  -166  -289  -381  -422  -442  -453  -397  -186  176  529  713  751  753  756  710  550  261  -53  -214  -122  180  580  945  1165  1230  1214  1161  1070  978  959  1042  1176  1285  1361  1488  1704  1910  2032  2091  2122  2137  2143  2148  2182  2281  2433  2596  2756  2922  3081  3210  3300  3353  3340  3193  2883  2509  2211  1975  1668  1281  950  757  665  608  529  405  271  171  113  79  21  -108  -284  -419  -467  -445  -371  -259  -140  -62  -42  -56  -68  -42  45  165  239  222  118  -58  -299  -535  -672  -665  -542  -381  -255  -160  -65  -17  -80  -214  -351  -474  -569  -616  -637  -675  -752  -833  -825  -694  -545  -476  -457  -426  -377  -346  -366  -433  -531  -635  -706  -732  -734  -729  -710  -674  -631  -585  -526  -476  -460  -459  -445  -413  -385  -399  -444  -467  -474  -509  -555  -546  -448  -300  -169  -64  57  184  238  167  32  -38  39  239  450  581  610  518  279  -27  -247  -336  -401  -516  -581  -446  -197  -111  -260  -443  -466  -303  -69  95  188  332  518  458  -25  -594  -707  -15  1527  3449  5016  5843  5943  5391  4209  2578  941  -290  -881  -811  -391  -24  145  174  175  227  323  415  467  479  474  481  515  565  604  626  638  639  625  624  677  808  991  1149  1232  1270  1327  1436  1565  1654  1682  1672  1647  1621  1599  1576  1553  1582  1754  2094  2474  2720  2798  2782  2746  2729  2767  2872  2988  3024  2979  2922  2891  2883  2918  3034  3214  3363  3390  3312  3219  3138  2989  2660  2174  1693  1349  1149  991  783  555  401  344  304  173  -96  -421  -656  -754  -769  -753  -746  -804  -975  -1216  -1412  -1508  -1582  -1739  -1968  -2160  -2260  -2295  -2304  -2310  -2323  -2339  -2355  -2373  -2388  -2396  -2400  -2403  -2386  -2296  -2088  -1842  -1704  -1680  -1662  -1595  -1480  -1332  -1197  -1115  -1090  -1104  -1125  -1141  -1156  -1166  -1148  -1078  -955  -807  -695  -661  -682  -700  -684  -650  -649  -696  -750  -811  -904  -954  -860  -640  -441  -410  -533  -670  -736  -747  -740  -732  -730  -739  -764  -792  -803  -772  -702  -654  -667  -705  -742  -776  -809  -861  -917  -948  -974  -1018  -1077  -1144  -1175  -1117  -985  -851  -771  -751  -760  -773  -779  -762  -708  -633  -575  -554  -557  -563  -554  -522  -495  -539  -666  -794  -872  -932  -1018  -1142  -1281  -1386  -1423  -1407  -1375  -1354  -1342  -1343  -1406  -1573  -1780  -1862  -1811  -1901  -2272  -2532  -2166  -1065  660  2882  5012  6071  5641  4096  2013  17  -1237  -1573  -1483  -1470  -1554  -1525  -1286  -980  -807  -781  -798  -812  -862  -997  -1183  -1325  -1386  -1415  -1459  -1520  -1562  -1524  -1372  -1157  -995  -938  -936  -914  -844  -766  -698  -610  -514  -448  -401  -369  -364  -366  -356  -346  -393  -557  -790  -906  -776  -464  -110  222  530  806  1033  1199  1305  1366  1426  1539  1700  1837  1915  1976  2099  2326  2606  2823  2928  2955  2908  2694  2235  1662  1240  1060  976  836  644  500  444  425  397  385  432  532  655  787  932  1078  1192  1248  1263  1285  1362  1527  1748  1906  1864  1556  1065  583  279  271  605  1114  1502  1642  1633  1608  1623  1646  1601  1472  1349  1299  1300  1300  1270  1225  1194  1187  1175  1125  1036  937  873  873  929  1007  1074  1109  1070  923  705  506  387  349  371  418  425  348  208  51  -117  -294  -416  -386  -203  3  121  146  124  83  30  -33  -135  -321  -600  -892  -1086  -1147  -1102  -978  -791  -563  -356  -272  -367  -577  -780  -918  -1037  -1206  -1391  -1474  -1431  -1350  -1302  -1290  -1296  -1311  -1314  -1268  -1182  -1121  -1098  -1060  -988  -914  -873  -870  -882  -888  -877  -849  -811  -772  -741  -730  -773  -940  -1255  -1599  -1811  -1870  -1877  -1910  -1959  -1980  -1972  -1961  -1956  -1954  -1946  -1919  -1870  -1804  -1785  -1949  -2286  -2560  -2571  -2112  -903  1013  3168  4891  5474  4654  2895  866  -923  -2078  -2490  -2351  -2015  -1841  -1896  -1962  -1895  -1708  -1474  -1289  -1194  -1156  -1164  -1246  -1396  -1538  -1564  -1436  -1241  -1093  -999  -882  -709  -535  -425  -387  -374  -346  -293  -211  -73  127  329  470  559  623  634  565  494  576  920  1497  2085  2433  2503  2467  2499  2638  2807  2947  3052  3118  3147  3165  3191  3241  3332  3464  3620  3770  3881  3934  3939  3920  3886  3802  3603  3282  2930  2632  2395  2201  2020  1797  1512  1232  1047  970  922  813  649  514  464  482  514  527  524  510  476  409  325  265  239  221  190  124  -1  -165  -280  -254  -60  213  413  444  316  97  -115  -257  -320  -323  -310  -321  -357  -397  -430  -462  -498  -542  -618  -748  -886  -946  -929  -935  -1025  -1147  -1246  -1317  -1364  -1385  -1373  -1308  -1205  -1114  -1063  -1042  -1031  -989  -856  -614  -365  -267  -337  -450  -540  -643  -779  -924  -1069  -1185  -1169  -939  -604  -415  -527  -873  -1286  -1626  -1823  -1882  -1832  -1670  -1449  -1306  -1321  -1431  -1503  -1422  -1154  -790  -492  -353  -360  -473  -655  -856  -1037  -1174  -1243  -1259  -1264  -1266  -1214  -1046  -791  -549  -374  -262  -228  -304  -486  -703  -882  -1021  -1157  -1293  -1398  -1475  -1546  -1572  -1506  -1393  -1305  -1252  -1208  -1122  -1007  -988  -1111  -1165  -850  13  1384  2927  4111  4505  4066  3114  1910  511  -910  -2035  -2617  -2489  -1681  -653  -20  11  -319  -770  -1181  -1340  -1122  -685  -326  -183  -181  -207  -215  -225  -277  -396  -567  -734  -846  -897  -888  -765  -474  -110  148  239  227  186  168  212  338  534  731  817  739  569  429  379  423  552  723  871  992  1134  1306  1491  1714  1962  2137  2182  2127  2023  1912  1837  1833  1935  2152  2402  2560  2563  2425  2217  2021  1860  1702  1526  1322  1054  696  320  39  -133  -251  -325  -349  -347  -341  -330  -305  -271  -246  -238  -240  -247  -255  -261  -251  -200  -107  -20  -24  -158  -318  -368  -297  -191  -104  -44  -7  19  43  68  75  45  -13  -87  -175  -252  -291  -289  -266  -241  -227  -214  -181  -118  -26  87  215  346  469  566  592  491  248  -86  -414  -628  -691  -613  -406  -143  43  100  82  60  79  159  272  360  401  408  374  288  201  200  290  393  459  505  559  609  611  542  420  276  131  -12  -142  -227  -255  -249  -225  -191  -162  -158  -184  -223  -265  -312  -367  -477  -703  -1034  -1307  -1119  -34  1934  4216  5987  6566  5744  3862  1598  -354  -1545  -1879  -1557  -956  -476  -318  -376  -457  -491  -506  -530  -561  -587  -595  -575  -525  -456  -369  -261  -171  -140  -171  -253  -359  -445  -475  -429  -332  -248  -198  -159  -140  -165  -227  -307  -391  -434  -401  -325  -240  -139  -24  76  144  182  212  249  281  319  422  630  911  1183  1387  1529  1644  1763  1903  2053  2192  2253  2097  1717  1300  1006  858  794  727  606  431  215  -27  -297  -578  -818  -983  -1094  -1185  -1275  -1369  -1456  -1518  -1550  -1563  -1575  -1594  -1617  -1645  -1677  -1700  -1699  -1664  -1601  -1534  -1486  -1471  -1519  -1667  -1879  -2060  -2142  -2118  -2016  -1895  -1804  -1746  -1679  -1558  -1389  -1228  -1122  -1084  -1096  -1129  -1183  -1231  -1196  -1069  -944  -881  -864  -854  -828  -772  -677  -567  -492  -475  -494  -520  -529  -517  -505  -493  -450  -371  -285  -223  -180  -133  -80  -33  -8  -38  -121  -191  -205  -186  -177  -140  69  546  1128  1514  1602  1526  1427  1334  1238  1160  1142  1213  1357  1506  1561  1440  1167  894  772  817  938  1038  1077  1043  916  718  528  402  334  332  428  639  939  1133  898  159  -712  -1133  -678  710  2740  4848  6388  6979  6560  5229  3322  1427  85  -508  -537  -325  -74  141  273  312  302  284  268  249  229  218  226  238  216  124  -7  -102  -96  20  204  391  539  623  618  525  383  245  140  96  134  216  296  355  386  412  489  650  841  985  1072  1141  1203  1231  1191  1078  930  844  952  1338  1867  2251  2360  2284  2153  2028  1925  1877  1914  2005  2094  2088  1927  1714  1556  1383  1084  700  370  174  92  53  -16  -165  -388  -620  -781  -846  -845  -824  -806  -793  -789  -818  -912  -1049  -1144  -1095  -861  -538  -308  -242  -266  -273  -189  -6  196  321  328  222  41  -142  -270  -344  -384  -394  -376  -347  -317  -306  -356  -494  -675  -806  -857  -865  -860  -823  -742  -648  -553  -447  -398  -467  -586  -644  -589  -436  -276  -194  -184  -196  -196  -190  -231  -379  -617  -831  -927  -934  -937  -987  -1058  -1071  -1029  -1082  -1321  -1669  -2008  -2262  -2393  -2416  -2390  -2359  -2338  -2317  -2318  -2418  -2626  -2852  -3022  -3080  -3011  -2882  -2766  -2679  -2631  -2651  -2755  -2916  -3072  -3167  -3118  -2861  -2492  -2206  -2091  -2118  -2254  -2490  -2769  -2997  -3134  -3211  -3247  -3227  -3125  -2946  -2795  -2799  -2900  -3007  -3148  -3136  -2499  -1014  942  2701  3719  3626  2319  215  -1921  -3486  -4253  -4322  -4017  -3657  -3337  -2998  -2614  -2213  -1797  -1363  -983  -760  -679  -569  -288  102  396  486  431  387  571  1135  1899  2462  2654  2595  2417  2185  1981  1898  1958  2076  2166  2213  2243  2286  2344  2386  2388  2350  2292  2238  2194  2176  2276  2593  3057  3439  3616  3664  3697  3764  3838  3854  3802  3728  3692  3759  3919  4075  4165  4187  4106  3878  3555  3286  3144  3011  2733  2308  1849  1436  1097  863  737  677  637  604  584  580  569  517  419  315  239  197  176  149  75  -65  -230  -333  -327  -223  -52  129  242  245  143  -37  -237  -371  -398  -340  -240  -136  -51  -1  7  1  12  37  56  74  98  112  84  -11  -144  -243  -277  -272  -258  -252  -271  -319  -366  -388  -410  -450  -508  -581  -655  -691  -626  -416  -130  78  136  84  -10  -105  -174  -201  -203  -241  -369  -558  -728  -850  -941  -996  -1013  -1013  -1016  -1018  -985  -892  -754  -623  -533  -489  -500  -589  -767  -1008  -1237  -1362  -1367  -1319  -1272  -1218  -1143  -1052  -944  -810  -685  -630  -650  -693  -724  -739  -742  -734  -711  -682  -667  -682  -716  -744  -759  -775  -809  -888  -1026  -1182  -1300  -1377  -1423  -1436  -1428  -1418  -1424  -1459  -1493  -1493  -1556  -1804  -2068  -1925  -1074  424  2237  3963  5193  5609  5131  3818  1866  -213  -1718  -2219  -1905  -1303  -724  -296  -141  -206  -316  -391  -438  -450  -389  -228  -22  124  178  188  181  133  48  2  58  177  275  332  389  474  566  628  652  649  609  515  383  261  190  174  193  249  389  628  874  1014  1053  1097  1243  1479  1697  1816  1844  1830  1820  1853  1976  2199  2453  2653  2778  2843  2855  2798  2653  2444  2251  2112  1964  1711  1329  930  670  585  574  522  405  287  219  155  14  -186  -321  -322  -258  -223  -250  -317  -350  -298  -198  -120  -61  14  59  -8  -199  -461  -733  -944  -1042  -1009  -853  -625  -410  -266  -197  -173  -157  -137  -127  -158  -254  -389  -492  -536  -545  -552  -554  -511  -389  -266  -286  -446  -572  -513  -279  -10  152  163  52  -114  -252  -313  -317  -311  -320  -332  -300  -184  -26  91  148  188  219  186  51  -134  -270  -302  -248  -154  -61  -5  4  -17  -46  -65  -62  -35  2  28  31  16  -1  -11  -19  -47  -110  -175  -203  -216  -264  -343  -410  -407  -306  -163  -25  112  224  290  358  437  477  439  308  133  17  36  175  347  458  489  479  466  458  452  451  475  544  625  629  495  283  119  51  29  0  -40  -56  -22  53  133  190  215  172  -2  -270  -422  -372  -329  -470  -646  -485  415  2225  4554  6525  7390  6942  5447  3413  1370  -217  -979  -913  -486  -150  -41  -71  -64  17  15  -119  -263  -338  -367  -360  -251  41  459  798  922  864  736  629  583  584  601  602  538  382  186  52  29  98  203  287  327  336  321  294  273  245  194  137  104  123  199  308  435  587  760  944  1146  1332  1437  1452  1443  1485  1593  1714  1795  1831  1841  1847  1839  1776  1632  1446  1294  1219  1179  1053  727  259  -145  -369  -478  -590  -739  -889  -1014  -1104  -1149  -1156  -1149  -1152  -1172  -1200  -1222  -1232  -1242  -1255  -1264  -1265  -1263  -1266  -1287  -1331  -1397  -1461  -1469  -1416  -1392  -1439  -1498  -1531  -1542  -1532  -1494  -1402  -1250  -1082  -965  -919  -922  -947  -976  -1007  -1041  -1064  -1061  -1042  -1031  -1040  -1062  -1087  -1109  -1131  -1152  -1181  -1237  -1314  -1366  -1336  -1204  -1031  -917  -886  -883  -877  -866  -845  -811  -779  -765  -768  -782  -819  -899  -1001  -1064  -1032  -910  -776  -721  -753  -853  -1030  -1240  -1392  -1444  -1415  -1374  -1356  -1271  -1073  -873  -761  -705  -662  -634  -653  -735  -847  -929  -958  -959  -952  -931  -886  -838  -841  -912  -991  -992  -914  -827  -780  -745  -680  -594  -526  -503  -535  -632  -772  -883  -902  -845  -773  -725  -706  -703  -704  -706  -717  -744  -776  -804  -837  -889  -961  -1066  -1205  -1329  -1385  -1372  -1345  -1401  -1551  -1606  -1455  -1317  -1410  -1652  -1670  -967  638  2759  4658  5598  5241  3753  1616  -518  -2047  -2639  -2392  -1748  -1097  -743  -847  -1167  -1357  -1359  -1269  -1162  -1072  -987  -910  -881  -891  -866  -790  -720  -679  -641  -591  -553  -538  -515  -447  -365  -336  -344  -327  -284  -236  -176  -109  -58  -24  9  40  54  74  181  445  802  1092  1226  1228  1144  1005  902  996  1354  1827  2203  2396  2453  2453  2444  2455  2505  2596  2698  2762  2730  2588  2400  2234  2090  1950  1813  1663  1504  1370  1256  1096  823  466  149  -24  -62  -39  1  39  11  -169  -457  -668  -711  -654  -562  -418  -188  77  262  293  192  26  -115  -184  -193  -174  -148  -116  -58  60  254  489  689  783  753  630  445  252  125  88  109  156  200  199  121  -1  -102  -148  -158  -133  -42  137  382  607  692  591  388  206  76  -41  -159  -241  -264  -234  -160  -47  98  244  311  251  121  0  -86  -131  -132  -102  -62  -34  -24  -28  -39  -52  -46  15  150  340  530  647  652  559  425  308  211  98  -24  -118  -169  -205  -248  -293  -330  -357  -365  -323  -199  -29  103  177  219  183  -70  -504  -723  -310  846  2633  4624  5988  6027  4743  2716  647  -903  -1617  -1538  -1038  -548  -297  -230  -174  -97  -79  -143  -222  -274  -333  -400  -439  -439  -408  -361  -324  -310  -313  -320  -323  -322  -296  -189  31  306  505  528  373  140  -27  -74  -43  25  119  237  382  540  655  690  681  700  804  984  1169  1298  1378  1458  1558  1666  1780  1915  2092  2308  2534  2739  2886  2915  2798  2587  2366  2168  2003  1886  1807  1719  1581  1364  1069  743  441  150  -171  -480  -676  -744  -761  -791  -841  -882  -877  -798  -651  -498  -397  -351  -347  -431  -659  -974  -1210  -1256  -1128  -935  -808  -793  -813  -791  -735  -709  -733  -753  -727  -702  -742  -841  -931  -962  -926  -834  -693  -526  -376  -281  -254  -304  -428  -579  -683  -727  -767  -844  -941  -993  -932  -745  -540  -448  -465  -505  -542  -597  -667  -717  -724  -698  -678  -749  -989  -1339  -1585  -1489  -958  -214  317  397  99  -327  -627  -725  -711  -679  -651  -611  -564  -560  -566  -448  -198  21  118  148  184  194  54  -305  -772  -1115  -1207  -1105  -919  -729  -574  -443  -342  -304  -310  -344  -445  -581  -627  -540  -377  -220  -114  -44  15  55  59  25  -26  -65  -75  -60  -50  -99  -251  -459  -611  -662  -660  -657  -655  -616  -531  -483  -538  -642  -705  -723  -775  -903  -1007  -953  -646  32  1193  2814  4591  5932  6266  5346  3486  1470  -49  -906  -1188  -1111  -981  -943  -918  -831  -696  -563  -462  -412  -409  -426  -425  -356  -201  -46  2  -5  -9  -111  -353  -569  -591  -408  -141  55  129  125  64  -74  -259  -398  -439  -380  -240  -61  107  262  417  554  635  654  643  638  659  709  768  800  790  751  730  816  1079  1435  1702  1800  1792  1758  1736  1746  1777  1771  1678  1520  1361  1224  1088  934  747  511  266  99  29  -23  -134  -315  -528  -703  -829  -951  -1077  -1181  -1243  -1250  -1219  -1180  -1134  -1045  -897  -733  -617  -546  -459  -346  -262  -257  -331  -438  -518  -543  -530  -517  -561  -692  -834  -854  -742  -615  -556  -555  -572  -576  -550  -486  -409  -359  -344  -324  -260  -163  -88  -75  -105  -140  -183  -264  -371  -452  -492  -526  -583  -650  -691  -666  -553  -347  -96  112  217  242  242  234  174  25  -139  -186  -97  8  33  -33  -150  -293  -483  -697  -856  -922  -897  -740  -425  -72  119  72  -123  -314  -396  -362  -286  -235  -221  -233  -254  -266  -269  -290  -360  -477  -594  -645  -586  -424  -220  -46  64  113  107  40  -87  -238  -352  -392  -363  -298  -229  -159  -64  77  238  351  361  282  193  145  103  5  -148  -294  -370  -313  -135  14  0  -164  -383  -573  -679  -702  -693  -686  -687  -684  -658  -590  -499  -443  -463  -630  -962  -1150  -748  390  2094  3981  5430  5846  5145  3698  1890  129  -1101  -1624  -1633  -1313  -803  -345  -124  -114  -214  -381  -592  -791  -911  -951  -956  -959  -947  -888  -773  -642  -541  -473  -400  -274  -110  21  90  121  125  52  -139  -387  -567  -634  -630  -580  -448  -205  79  278  340  316  288  334  508  757  947  1010  1003  992  992  993  1017  1098  1238  1397  1549  1732  2000  2288  2437  2412  2337  2304  2285  2176  1890  1471  1080  819  666  571  512  447  313  110  -90  -226  -283  -290  -307  -383  -497  -584  -616  -618  -613  -607  -614  -641  -675  -706  -744  -809  -897  -972  -1003  -992  -960  -918  -879  -861  -854  -827  -770  -708  -646  -553  -439  -361  -355  -399  -442  -465  -487  -525  -574  -623  -658  -669  -638  -551  -434  -342  -279  -211  -146  -134  -178  -225  -230  -199  -173  -182  -228  -303  -392  -465  -509  -522  -521  -533  -562  -590  -590  -521  -392  -279  -226  -215  -217  -222  -228  -220  -182  -129  -115  -209  -408  -575  -573  -444  -286  -127  11  94  114  69  -47  -197  -308  -369  -420  -472  -483  -363  -48  342  589  591  404  153  -41  -169  -305  -482  -641  -705  -657  -545  -434  -359  -330  -370  -534  -819  -1108  -1279  -1300  -1190  -987  -793  -736  -834  -993  -1088  -996  -530  563  2349  4419  6010  6450  5517  3469  998  -1068  -2256  -2484  -1912  -1038  -442  -264  -267  -269  -253  -266  -328  -409  -475  -508  -474  -372  -256  -154  -66  -4  37  93  171  239  265  226  109  -45  -154  -156  -46  125  287  406  481  507  471  391  361  469  664  812  850  820  788  819  966  1225  1531  1793  1949  2014  2054  2108  2167  2207  2229  2265  2335  2422  2486  2498  2467  2413  2360  2313  2245  2117  1911  1629  1317  1056  850  580  151  -342  -698  -821  -739  -503  -225  -74  -138  -360  -627  -847  -969  -1002  -987  -947  -875  -768  -659  -591  -588  -644  -724  -760  -726  -692  -719  -754  -717  -616  -512  -451  -446  -472  -484  -472  -465  -510  -628  -753  -777  -692  -593  -546  -545  -549  -514  -425  -322  -279  -327  -408  -445  -423  -388  -381  -405  -439  -480  -569  -729  -889  -935  -856  -732  -628  -557  -518  -504  -504  -508  -511  -509  -498  -474  -434  -368  -286  -223  -228  -333  -500  -644  -732  -789  -829  -837  -778  -618  -378  -154  -37  -47  -149  -303  -457  -553  -582  -583  -593  -615  -646  -676  -665  -568  -406  -243  -108  15  131  194  180  140  120  91  -16  -217  -433  -578  -622  -593  -547  -524  -536  -587  -656  -708  -710  -649  -541  -427  -342  -305  -359  -573  -941  -1244  -1125  -364  1056  2935  4718  5725  5624  4506  2735  903  -414  -1027  -1059  -756  -451  -369  -461  -584  -667  -699  -698  -678  -633  -568  -504  -447  -387  -314  -232  -199  -279  -445  -600  -661  -611  -501  -396  -313  -252  -216  -171  -90  -18  0  3  51  141  180  128  106  218  386  505  574  637  709  776  817  836  855  898  973  1071  1162  1225  1267  1311  1369  1453  1569  1693  1785  1825  1833  1835  1846  1853  1808  1664  1439  1159  789  369  61  -65  -111  -196  -351  -516  -629  -688  -738  -787  -810  -800  -774  -738  -706  -701  -744  -821  -863  -819  -716  -602  -497  -430  -416  -441  -494  -562  -605  -564  -400  -166  4  13  -156  -428  -668  -793  -821  -816  -815  -816  -792  -718  -607  -493  -376  -260  -169  -89  3  50  -38  -261  -520  -709  -791  -787  -714  -569  -382  -228  -153  -136  -109  -39  26  -8  -160  -338  -447  -475  -464  -438  -396  -343  -298  -265  -235  -212  -199  -193  -187  -179  -174  -169  -143  -73  24  95  109  74  23  -13  -28  -29  -27  -25  -22  -14  0  13  27  30  13  -40  -146  -274  -334  -241  -10  247  420  484  478  427  332  217  128  96  107  133  159  197  254  305  326  317  292  265  220  120  -24  -147  -207  -227  -256  -302  -303  -197  -28  79  9  -246  -526  -629  -416  312  1688  3482  5174  6209  6235  5214  3350  1140  -661  -1564  -1592  -989  -209  177  99  -62  -135  -183  -233  -285  -341  -394  -424  -400  -306  -177  -77  -31  -20  -27  -41  -44  -8  95  250  392  471  485  439  339  200  64  -27  -64  -57  2  129  282  387  434  482  573  675  738  766  820  948  1145  1380  1608  1777  1850  1816  1675  1479  1334  1343  1564  1957  2369  2642  2709  2604  2433  2311  2260  2181  1955  1571  1142  742  374  59  -166  -319  -460  -605  -707  -743  -744  -742  -740  -723  -668  -573  -471  -407  -403  -477  -639  -866  -1054  -1075  -929  -760  -681  -685  -710  -726  -746  -769  -754  -684  -622  -641  -733  -838  -908  -952  -1003  -1050  -1048  -963  -820  -701  -679  -743  -794  -765  -693  -628  -569  -506  -467  -494  -612  -779  -906  -930  -836  -650  -460  -380  -463  -654  -834  -924  -943  -954  -992  -1030  -1000  -887  -750  -632  -534  -469  -448  -468  -531  -621  -717  -799  -835  -802  -746  -726  -762  -843  -940  -1007  -1028  -1022  -1015  -1008  -972  -873  -727  -600  -533  -515  -521  -534  -548  -564  -599  -665  -747  -812  -848  -852  -809  -720  -607  -486  -379  -314  -294  -294  -296  -301  -327  -375  -430  -496  -561  -565  -506  -455  -441  -449  -458  -459  -457  -478  -542  -629  -692  -711  -711  -723  -749  -750  -738  -860  -1180  -1542  -1774  -1675  -962  415  2176  3929  5196  5501  4744  3221  1293  -596  -1880  -2275  -2044  -1611  -1218  -958  -828  -769  -739  -722  -708  -688  -670  -668  -675  -660  -577  -429  -291  -225  -226  -247  -250  -247  -269  -289  -258  -184  -109  -65  -58  -73  -95  -105  -78  16  170  325  432  498  550  571  562  588  679  786  882  993  1130  1244  1324  1417  1531  1654  1812  2001  2162  2263  2315  2337  2344  2352  2350  2302  2176  1993  1787  1552  1292  1045  845  700  597  516  433  279  -4  -343  -577  -669  -714  -782  -866  -937  -972  -943  -840  -712  -624  -594  -599  -624  -676  -745  -807  -850  -876  -880  -880  -900  -929  -918  -822  -667  -540  -488  -486  -498  -517  -552  -601  -645  -666  -653  -600  -525  -459  -417  -397  -417  -518  -694  -865  -902  -739  -465  -249  -183  -226  -278  -294  -326  -404  -473  -477  -422  -377  -415  -528  -623  -612  -474  -276  -112  -4  75  140  179  166  56  -140  -313  -342  -232  -137  -159  -234  -274  -282  -278  -244  -150  -19  79  89  2  -156  -330  -445  -462  -446  -498  -637  -808  -993  -1252  -1560  -1647  -1199  -166  1333  3093  4701  5647  5556  4333  2319  156  -1575  -2462  -2410  -1834  -1238  -760  -390  -154  -17  63  81  35  -62  -179  -263  -300  -312  -314  -298  -236  -111  35  137  179  196  197  165  110  91  145  240  316  352  367  372  367  363  388  462  564  636  654  645  657  723  832  937  1033  1155  1293  1406  1541  1818  2241  2652  2910  2999  2974  2903  2843  2813  2785  2716  2592  2450  2336  2272  2252  2230  2085  1690  1110  614  380  334  303  180  -8  -171  -261  -300  -312  -307  -293  -287  -320  -414  -539  -630  -659  -647  -616  -583  -566  -563  -554  -512  -444  -396  -400  -445  -509  -576  -622  -637  -632  -614  -583  -542  -505  -490  -504  -527  -539  -541  -546  -548  -516  -420  -288  -189  -151  -153  -180  -241  -340  -459  -593  -751  -904  -1001  -1026  -990  -895  -738  -519  -258  -22  108  108  -2  -181  -377  -548  -678  -761  -786  -741  -623  -451  -267  -115  -16  31  38  14  -29  -82  -166  -315  -472  -528  -452  -305  -162  -58  22  96  125  40  -165  -390  -514  -539  -556  -614  -693  -755  -777  -738  -617  -500  -583  -933  -1314  -1316  -573  985  2972  4742  5780  5839  4865  3033  812  -1144  -2241  -2255  -1486  -551  -37  -116  -463  -721  -822  -835  -805  -748  -682  -641  -627  -603  -531  -426  -321  -199  -21  206  401  420  185  -171  -392  -355  -175  -27  34  57  88  131  184  253  327  376  392  390  385  384  399  446  526  614  675  695  700  737  813  906  1071  1408  1853  2188  2308  2297  2258  2224  2191  2156  2129  2091  1989  1768  1428  1054  776  629  502  272  -47  -333  -495  -546  -540  -514  -489  -488  -523  -591  -691  -835  -1004  -1143  -1217  -1224  -1174  -1088  -993  -878  -719  -543  -426  -411  -482  -582  -657  -689  -694  -683  -654  -611  -594  -649  -764  -876  -920  -874  -778  -694  -655  -650  -660  -673  -691  -723  -755  -761  -745  -694  -564  -374  -173  15  160  214  156  2  -230  -485  -625  -599  -512  -464  -457  -462  -468  -477  -497  -516  -520  -509  -492  -492  -578  -806  -1111  -1335  -1415  -1404  -1355  -1276  -1187  -1135  -1120  -1057  -864  -589  -380  -301  -295  -302  -319  -359  -430  -511  -564  -580  -577  -575  -576  -570  -546  -508  -476  -462  -471  -505  -564  -632  -706  -785  -860  -907  -917  -937  -1007  -1095  -1126  -899  -84  1430  3336  5084  6081  5924  4655  2695  598  -1148  -2191  -2358  -1818  -995  -346  -159  -346  -583  -694  -717  -724  -722  -696  -667  -675  -735  -823  -894  -918  -876  -749  -582  -460  -419  -424  -441  -468  -505  -522  -457  -268  -42  64  27  -44  -83  -90  -74  -32  42  144  253  360  452  504  507  485  496  614  865  1182  1466  1657  1744  1774  1858  2081  2386  2606  2643  2517  2276  1996  1788  1698  1666  1597  1425  1151  851  621  493  410  268  1  -326  -557  -628  -612  -605  -677  -849  -1027  -1092  -1106  -1191  -1307  -1344  -1278  -1155  -1030  -930  -827  -697  -575  -512  -535  -642  -788  -908  -983  -1031  -1058  -1062  -1046  -1002  -934  -846  -739  -630  -557  -533  -549  -603  -685  -763  -796  -759  -659  -541  -456  -420  -408  -395  -370  -339  -332  -363  -400  -403  -372  -345  -347  -363  -368  -364  -365  -374  -379  -358  -297  -218  -163  -150  -158  -163  -156  -132  -93  -54  -49  -138  -364  -656  -879  -955  -883  -682  -428  -240  -169  -165  -172  -178  -221  -338  -496  -614  -654  -636  -586  -523  -460  -390  -314  -261  -243  -242  -221  -160  -123  -254  -544  -664  -199  1038  2919  4934  6314  6498  5474  3653  1575  -193  -1156  -1240  -851  -420  -142  -52  -85  -148  -191  -211  -218  -217  -206  -176  -110  -18  56  80  63  39  53  129  222  268  263  245  230  216  217  278  436  657  859  992  1049  1031  956  864  791  745  764  883  1030  1121  1192  1320  1503  1673  1808  1947  2119  2300  2440  2512  2537  2563  2612  2678  2762  2873  2992  3067  3030  2842  2565  2335  2218  2172  2123  2017  1808  1484  1124  861  733  662  561  419  298  252  295  408  539  613  568  376  108  -96  -174  -146  -13  215  453  595  629  611  594  604  653  726  787  809  768  644  478  350  299  296  261  124  -109  -361  -569  -717  -814  -889  -963  -1006  -978  -889  -775  -670  -595  -515  -378  -212  -96  -58  -65  -90  -129  -175  -188  -107  112  425  718  918  1003  945  768  579  480  496  578  649  673  656  579  410  186  -6  -162  -316  -433  -467  -480  -543  -633  -713  -793  -874  -939  -1010  -1157  -1449  -1802  -1991  -1816  -1079  366  2327  4182  5152  4770  3089  582  -1967  -3749  -4392  -4037  -3204  -2570  -2427  -2524  -2579  -2556  -2511  -2477  -2457  -2438  -2423  -2430  -2468  -2506  -2505  -2468  -2428  -2393  -2338  -2266  -2238  -2315  -2473  -2622  -2685  -2651  -2568  -2495  -2468  -2513  -2653  -2848  -2993  -2991  -2808  -2490  -2154  -1874  -1636  -1420  -1244  -1130  -1040  -843  -433  108  584  883  1007  1024  1031  1105  1265  1501  1791  2070  2252  2310  2258  2098  1851  1597  1413  1290  1137  877  567  341  237  162  38  -113  -242  -346  -442  -523  -572  -584  -578  -606  -719  -900  -1062  -1148  -1174  -1179  -1163  -1092  -937  -739  -583  -522  -548  -635  -771  -930  -1054  -1117  -1146  -1168  -1177  -1118  -938  -685  -485  -398  -380  -388  -434  -530  -635  -698  -720  -733  -752  -764  -758  -740  -739  -756  -757  -721  -666  -615  -577  -557  -545  -534  -518  -488  -415  -264  -71  68  109  84  42  10  0  25  108  225  316  316  189  -41  -276  -424  -477  -464  -405  -325  -262  -259  -337  -474  -619  -730  -679  -286  311  617  364  -139  -318  270  1781  3915  5865  6827  6509  5064  2944  835  -632  -1223  -1132  -690  -199  101  173  158  148  143  138  135  120  48  -123  -347  -481  -442  -272  -53  149  290  348  354  355  369  382  383  384  385  373  353  348  400  519  641  709  724  709  694  708  756  839  960  1087  1165  1195  1257  1430  1682  1885  1965  1975  2024  2184  2407  2571  2626  2622  2610  2596  2561  2496  2425  2382  2350  2258  2026  1608  1063  586  319  211  140  70  26  23  35  11  -95  -268  -424  -501  -517  -522  -541  -563  -571  -565  -567  -595  -617  -524  -258  24  118  51  -16  -39  -84  -217  -397  -502  -457  -305  -141  -30  11  1  -29  -68  -126  -231  -369  -476  -507  -448  -296  -101  41  89  79  59  45  31  -1  -47  -72  -69  -94  -170  -242  -268  -256  -234  -212  -192  -171  -158  -156  -160  -153  -118  -58  3  39  45  37  21  2  -4  3  16  24  19  0  -19  -22  14  100  223  389  577  713  734  620  389  109  -118  -236  -260  -246  -232  -225  -216  -195  -169  -169  -234  -368  -491  -487  -337  -120  64  117  -68  -559  -1131  -1204  -314  1427  3399  4928  5680  5672  5117  4249  3100  1686  309  -649  -1057  -965  -499  53  366  326  16  -379  -665  -775  -777  -746  -705  -663  -650  -715  -896  -1169  -1437  -1595  -1631  -1610  -1591  -1592  -1587  -1521  -1367  -1224  -1245  -1422  -1593  -1659  -1654  -1634  -1611  -1566  -1488  -1368  -1156  -820  -455  -223  -169  -198  -183  -29  256  554  771  942  1124  1302  1421  1463  1466  1470  1475  1471  1466  1469  1477  1480  1455  1390  1294  1194  1078  885  577  219  -65  -225  -303  -369  -448  -528  -589  -621  -621  -594  -553  -525  -555  -681  -877  -1064  -1185  -1230  -1221  -1206  -1252  -1405  -1612  -1749  -1759  -1696  -1639  -1617  -1616  -1619  -1629  -1655  -1692  -1698  -1597  -1361  -1079  -891  -836  -849  -868  -880  -893  -912  -934  -960  -987  -994  -952  -875  -841  -895  -972  -1003  -1004  -1004  -976  -856  -636  -408  -277  -254  -283  -322  -349  -361  -366  -386  -444  -540  -626  -630  -524  -345  -167  -55  -24  -37  -65  -98  -131  -160  -182  -189  -179  -156  -124  -89  -73  -77  -58  2  67  97  89  62  32  0  -35  -52  -12  104  262  394  463  481  450  362  236  133  93  99  97  33  -87  -206  -280  -303  -285  -257  -248  -269  -314  -360  -401  -453  -518  -568  -549  -422  -242  -98  114  746  2019  3626  4926  5571  5573  4892  3474  1721  367  -254  -423  -511  -614  -673  -662  -609  -518  -356  -128  91  240  303  310  298  286  283  300  345  401  436  445  446  444  411  323  207  126  101  97  77  41  0]
