reading_id,reading_time,wire_id,result_classification,heart_rate,heart_rate_alert,firmware_version,device_app_version,hardware_version,waveform_samples
089c4310-58ca-11ed-8080-808080808080,Mon Oct 31 03:13:46 UTC 2022,e101e3752439,NSR,75,NONE,20001.171.50,2.10.0,Charge 5,[-847  -873  -929  -998  -1044  -1032  -923  -702  -398  -89  108  154  111  -11  -275  -632  -917  -1052  -1122  -1228  -1360  -1422  -1339  -1137  -925  -774  -661  -553  -470  -437  -448  -485  -503  -372  26  480  563  214  -122  218  1719  4256  7040  9079  9836  9297  7744  5786  4045  2677  1636  1137  1311  1747  1984  2010  1977  1910  1819  1739  1702  1721  1800  1966  2246  2562  2747  2706  2485  2203  1964  1818  1804  1933  2128  2268  2311  2299  2277  2268  2304  2415  2572  2707  2803  2883  2952  3000  3021  3017  2991  2958  2932  2909  2881  2856  2842  2840  2916  3162  3518  3798  3919  3952  3952  3853  3548  3079  2640  2346  2184  2128  2139  2139  2042  1792  1437  1107  883  760  704  687  692  699  682  623  535  465  446  466  475  403  212  -39  -228  -291  -273  -256  -279  -279  -187  -51  48  101  110  51  -59  -132  -129  -123  -113  -26  102  170  126  -31  -240  -390  -428  -369  -273  -233  -270  -275  -202  -149  -184  -335  -636  -992  -1220  -1246  -1126  -963  -851  -811  -804  -804  -823  -898  -1088  -1417  -1802  -2130  -2343  -2412  -2336  -2188  -2033  -1894  -1784  -1707  -1654  -1609  -1556  -1511  -1497  -1508  -1524  -1535  -1536  -1531  -1516  -1487  -1463  -1476  -1540  -1628  -1696  -1754  -1865  -2050  -2240  -2358  -2400  -2402  -2392  -2377  -2372  -2404  -2490  -2577  -2626  -2728  -2894  -2844  -2317  -1280  225  2023  3727  4947  5400  4859  3291  1061  -1211  -2922  -3609  -3189  -2197  -1387  -1055  -1059  -1214  -1420  -1660  -1934  -2190  -2372  -2457  -2435  -2250  -1887  -1525  -1379  -1399  -1391  -1284  -1145  -1057  -1029  -996  -905  -785  -684  -599  -508  -424  -372  -355  -352  -355  -368  -375  -318  -141  118  362  561  738  892  1018  1121  1198  1255  1305  1341  1352  1347  1357  1412  1468  1465  1391  1203  903  614  418  285  174  91  55  50  8  -134  -351  -551  -679  -719  -679  -606  -550  -525  -513  -485  -436  -380  -317  -248  -216  -293  -514  -796  -993  -1053  -1040  -1025  -1027  -1048  -1106  -1219  -1339  -1392  -1341  -1194  -1023  -911  -851  -797  -753  -735  -723  -684  -603  -465  -296  -168  -147  -262  -510  -800  -1007  -1079  -1014  -837  -640  -515  -472  -466  -475  -516  -600  -677  -679  -612  -511  -382  -281  -324  -571  -918  -1163  -1202  -1101  -983  -894  -792  -639  -451  -277  -142  -55  -65  -173  -311  -421  -452  -437  -461  -509  -530  -530  -520  -465  -323  -127  24  77  25  -124  -317  -454  -496  -479  -452  -457  -553  -772  -1034  -1189  -1174  -1063  -937  -799  -646  -522  -471  -535  -790  -1199  -1508  -1469  -989  41  1727  3869  5950  7319  7385  6066  3912  1617  -241  -1293  -1580  -1367  -882  -409  -211  -276  -439  -672  -994  -1234  -1140  -747  -345  -98  46  150  203  205  188  174  170  177  203  246  289  312  309  275  213  138  86  91  183  362  593  819  1007  1154  1278  1408  1577  1783  1980  2113  2172  2187  2181  2152  2087  1990  1887  1802  1749  1732  1739  1727  1652  1506  1334  1172  1014  866  768  730  692  594  447  292  124  -81  -314  -545  -742  -855  -853  -739  -567  -406  -293  -227  -197  -192  -198  -207  -222  -252  -298  -346  -382  -381  -307  -176  -49  27  54  54  55  76  117  145  94  -65  -267  -399  -419  -374  -317  -255  -154  0  160  255  268  228  180  155  148  114  20  -90  -142  -159  -233  -364  -479  -510  -449  -352  -262  -156  -33  57  87  72  40  7  -30  -95  -155  -129  -10  94  109  69  27  -20  -98  -224  -368  -478  -569  -706  -881  -1013  -1064  -1059  -1049  -1072  -1100  -1050  -845  -597  -601  -870  -927  -321  997  2785  4516  5566  5595  4610  2850  787  -1017  -2107  -2346  -2046  -1638  -1342  -1187  -1095  -1015  -956  -886  -779  -700  -730  -831  -887  -846  -739  -626  -530  -420  -288  -199  -249  -463  -690  -692  -455  -188  -15  91  173  242  323  423  493  463  331  248  408  759  1074  1315  1630  2024  2327  2452  2454  2372  2177  1892  1629  1493  1488  1562  1658  1729  1757  1744  1685  1583  1459  1324  1144  897  645  462  290  12  -342  -634  -815  -924  -951  -848  -639  -430  -310  -271  -253  -231  -213  -215  -254  -355  -523  -717  -876  -970  -1005  -961  -796  -542  -316  -203  -179  -167  -128  -123  -243  -461  -608  -550  -297  2  193  235  189  113  34  -38  -105  -185  -298  -418  -493  -510  -504  -496  -461  -354  -184  -31  37  54  107  174  133  -27  -188  -281  -314  -300  -243  -170  -118  -101  -100  -86  -3  198  470  673  740  713  655  608  583  560  517  452  382  293  156  13  -77  -123  -143  -140  -131  -162  -282  -473  -649  -744  -741  -626  -429  -327  -498  -872  -1143  -962  -84  1468  3335  4977  6000  6208  5487  4011  2237  561  -699  -1332  -1490  -1487  -1377  -1145  -926  -796  -720  -675  -650  -644  -656  -666  -665  -681  -731  -787  -793  -712  -570  -438  -345  -275  -231  -238  -299  -384  -440  -398  -203  143  515  740  732  530  276  125  143  296  504  685  816  921  1034  1170  1316  1452  1580  1712  1859  2005  2095  2078  1942  1751  1604  1528  1458  1336  1148  913  704  585  511  339  -24  -475  -795  -906  -900  -863  -804  -697  -550  -421  -338  -278  -258  -327  -472  -617  -707  -744  -755  -759  -762  -763  -753  -723  -681  -646  -623  -611  -620  -643  -651  -619  -561  -542  -600  -679  -697  -632  -528  -459  -448  -457  -465  -495  -571  -665  -713  -696  -650  -611  -569  -497  -399  -337  -388  -580  -807  -895  -799  -624  -465  -358  -320  -350  -433  -548  -660  -731  -753  -750  -738  -716  -687  -686  -761  -899  -1031  -1115  -1150  -1130  -1061  -964  -840  -652  -389  -129  13  -5  -141  -282  -333  -295  -214  -106  -6  35  8  -48  -86  -85  -62  -45  -54  -102  -188  -304  -450  -626  -807  -934  -954  -845  -654  -475  -341  -192  -24  -24  -409  -1091  -1629  -1553  -638  1074  3304  5476  6882  7155  6373  4778  2797  962  -463  -1409  -1784  -1676  -1364  -1081  -914  -818  -718  -618  -561  -548  -536  -489  -399  -314  -285  -286  -272  -264  -281  -293  -262  -163  -20  79  78  8  -40  -18  29  68  172  428  799  1127  1292  1281  1144  954  805  766  856  1065  1349  1637  1848  1943  1951  1926  1912  1951  2074  2240  2349  2346  2247  2105  1932  1667  1288  901  612  382  167  16  -22  26  112  192  229  159  -78  -426  -753  -1030  -1264  -1371  -1290  -1108  -964  -892  -828  -742  -668  -633  -635  -661  -713  -792  -891  -1004  -1116  -1197  -1226  -1221  -1215  -1248  -1319  -1357  -1311  -1234  -1194  -1187  -1183  -1164  -1104  -977  -816  -699  -657  -655  -671  -720  -804  -856  -813  -718  -655  -651  -690  -730  -734  -716  -701  -688  -661  -626  -602  -593  -578  -539  -480  -406  -320  -257  -245  -275  -339  -429  -521  -590  -628  -649  -670  -691  -692  -642  -535  -414  -337  -313  -309  -302  -295  -307  -344  -394  -456  -533  -607  -665  -715  -743  -679  -461  -154  76  159  155  133  116  92  45  -32  -144  -305  -510  -699  -801  -787  -665  -477  -293  -162  -104  -114  -170  -225  -227  -207  -297  -598  -990  -1117  -604  761  2906  5297  7062  7607  6924  5301  3224  1316  -89  -999  -1409  -1319  -960  -618  -350  -139  -27  -11  -51  -135  -241  -331  -387  -403  -372  -300  -203  -100  -1  74  106  93  50  -17  -99  -152  -122  6  177  304  363  380  399  456  566  709  863  1012  1136  1228  1317  1442  1584  1689  1746  1802  1917  2121  2362  2535  2600  2601  2574  2510  2395  2234  2042  1849  1682  1519  1350  1221  1168  1170  1166  1069  830  496  193  23  -24  -18  -7  -20  -79  -179  -304  -410  -440  -383  -260  -117  -15  23  10  -61  -196  -359  -485  -545  -561  -565  -559  -520  -437  -359  -336  -352  -377  -406  -420  -362  -193  31  202  264  242  171  75  -13  -74  -120  -184  -286  -421  -576  -725  -835  -864  -770  -559  -320  -158  -111  -159  -266  -387  -485  -565  -640  -703  -754  -798  -826  -829  -819  -816  -831  -860  -875  -856  -818  -780  -745  -716  -691  -659  -616  -596  -648  -754  -827  -792  -677  -602  -625  -655  -647  -686  -797  -896  -929  -918  -887  -806  -626  -392  -219  -152  -152  -189  -272  -405  -563  -709  -813  -861  -873  -888  -945  -1070  -1238  -1379  -1461  -1537  -1595  -1442  -813  467  2313  4311  5868  6418  5692  3925  1702  -330  -1701  -2238  -2111  -1766  -1558  -1461  -1308  -1098  -916  -777  -666  -606  -611  -663  -743  -830  -907  -951  -932  -814  -619  -438  -340  -321  -358  -442  -549  -630  -655  -617  -516  -365  -174  51  277  443  534  571  580  579  576  591  670  867  1182  1524  1779  1899  1920  1905  1892  1881  1870  1877  1945  2084  2173  2047  1741  1470  1347  1280  1135  894  637  422  247  110  22  -36  -101  -181  -255  -318  -398  -527  -698  -875  -1008  -1058  -1044  -1023  -1013  -970  -848  -682  -572  -566  -617  -663  -686  -702  -715  -687  -573  -383  -202  -95  -54  -57  -136  -332  -591  -788  -865  -844  -748  -599  -426  -264  -188  -264  -461  -675  -783  -740  -620  -507  -420  -363  -340  -345  -374  -430  -521  -654  -784  -808  -681  -510  -417  -386  -316  -161  13  91  15  -147  -279  -326  -285  -164  0  160  316  456  487  338  83  -125  -225  -266  -299  -342  -404  -472  -520  -545  -568  -588  -571  -484  -418  -588  -961  -1216  -1095  -364  1096  2977  4748  5955  6279  5582  3990  1896  -137  -1561  -2086  -1846  -1211  -592  -286  -270  -334  -372  -403  -453  -512  -589  -716  -864  -953  -930  -789  -596  -449  -392  -407  -459  -513  -553  -576  -558  -492  -403  -277  -94  97  212  234  200  147  92  59  75  174  373  630  856  1026  1212  1451  1677  1819  1873  1879  1873  1864  1842  1807  1773  1710  1548  1266  968  771  665  553  404  272  193  146  71  -81  -281  -442  -531  -576  -605  -648  -740  -858  -914  -838  -659  -482  -384  -356  -353  -364  -428  -576  -760  -887  -928  -923  -905  -877  -842  -829  -860  -892  -849  -698  -490  -314  -217  -193  -210  -232  -254  -314  -434  -578  -676  -701  -671  -607  -534  -485  -477  -521  -661  -936  -1259  -1433  -1368  -1158  -938  -753  -609  -536  -530  -552  -587  -647  -741  -831  -852  -808  -763  -758  -777  -792  -800  -808  -797  -739  -640  -533  -449  -379  -308  -253  -233  -237  -221  -143  -16  65  48  -7  -33  -14  36  88  105  73  26  19  45  35  -35  -129  -209  -259  -287  -320  -370  -403  -365  -239  -87  -85  -346  -741  -1049  -990  -146  1594  3752  5681  6870  6949  5933  4296  2527  869  -404  -1013  -1059  -926  -852  -843  -852  -832  -674  -273  258  646  752  652  480  327  211  142  160  257  353  384  365  354  376  398  387  351  299  223  142  126  226  409  589  698  732  739  754  799  950  1287  1720  2034  2141  2131  2093  2051  2003  1955  1938  2022  2263  2592  2838  2906  2809  2582  2233  1766  1283  968  877  899  911  870  800  753  742  723  645  512  393  325  283  253  241  241  245  247  246  245  238  214  171  134  134  158  172  177  204  265  333  376  397  391  345  255  145  58  19  13  15  13  1  -4  26  94  163  215  269  318  340  344  362  416  491  543  553  536  513  477  399  288  198  199  295  368  307  152  -17  -171  -278  -322  -329  -327  -318  -289  -248  -212  -163  -60  81  194  239  208  88  -101  -282  -383  -415  -431  -458  -472  -418  -251  -24  137  183  165  129  60  -86  -334  -635  -857  -871  -672  -387  -159  -44  -14  -11  -6  -25  -131  -367  -682  -946  -1070  -1080  -1053  -1033  -1028  -1029  -1047  -1103  -1187  -1253  -1270  -1237  -1171  -1093  -1024  -1046  -1337  -1892  -2293  -2026  -894  961  3075  4811  5834  6102  5515  4103  2170  116  -1509  -2239  -2127  -1647  -1270  -1162  -1222  -1333  -1464  -1590  -1655  -1648  -1619  -1608  -1615  -1611  -1549  -1401  -1217  -1096  -1080  -1141  -1242  -1335  -1378  -1353  -1277  -1208  -1186  -1197  -1204  -1169  -1056  -850  -597  -399  -311  -301  -319  -358  -443  -577  -668  -575  -315  -61  81  140  163  184  240  346  497  668  790  772  626  472  382  302  130  -157  -507  -828  -1027  -1075  -1042  -1014  -1027  -1074  -1138  -1225  -1336  -1428  -1462  -1441  -1385  -1335  -1350  -1481  -1695  -1854  -1840  -1701  -1577  -1527  -1507  -1469  -1434  -1481  -1652  -1864  -1978  -1938  -1806  -1677  -1578  -1464  -1282  -1069  -963  -1075  -1354  -1603  -1650  -1523  -1367  -1245  -1139  -1059  -1038  -1068  -1112  -1137  -1137  -1130  -1105  -1033  -934  -858  -819  -797  -771  -724  -666  -624  -621  -668  -768  -908  -1053  -1152  -1163  -1052  -814  -528  -302  -175  -118  -95  -82  -85  -147  -296  -494  -655  -729  -722  -670  -605  -547  -513  -510  -545  -654  -830  -972  -966  -790  -537  -336  -225  -157  -76  65  261  411  398  196  -84  -282  -322  -215  20  325  577  709  743  727  690  653  603  522  433  354  260  148  60  31  48  67  59  36  23  13  -23  -106  -170  -77  93  19  -319  -458  70  1459  3623  5990  7667  8186  7639  6241  4376  2556  1122  158  -372  -490  -362  -251  -168  -8  185  340  440  489  498  482  445  390  322  267  276  349  433  508  592  700  810  877  879  850  819  784  744  726  762  852  964  1059  1109  1107  1087  1127  1264  1438  1553  1579  1573  1637  1847  2165  2461  2647  2735  2771  2788  2776  2684  2483  2233  1993  1769  1605  1538  1500  1374  1112  796  549  386  232  63  -77  -161  -190  -189  -212  -307  -452  -540  -475  -299  -173  -181  -259  -335  -415  -519  -659  -826  -959  -1001  -937  -811  -742  -804  -920  -987  -996  -979  -952  -913  -869  -828  -793  -764  -748  -771  -874  -999  -996  -856  -721  -677  -700  -736  -750  -749  -759  -803  -870  -920  -906  -809  -665  -539  -445  -370  -322  -306  -311  -322  -326  -307  -248  -164  -95  -63  -65  -110  -217  -382  -567  -737  -874  -962  -990  -942  -798  -585  -377  -205  -68  3  -8  -73  -149  -218  -278  -331  -361  -333  -224  -73  34  49  -12  -96  -154  -178  -197  -230  -271  -322  -399  -481  -529  -536  -525  -519  -544  -612  -731  -954  -1243  -1311  -836  234  1741  3527  5331  6609  6825  5780  3647  1019  -1209  -2357  -2386  -1830  -1273  -967  -876  -846  -770  -663  -575  -544  -583  -650  -698  -720  -738  -773  -818  -814  -695  -462  -190  -4  -8  -165  -319  -381  -382  -376  -380  -367  -288  -130  54  199  290  368  499  706  931  1104  1199  1230  1223  1189  1146  1158  1331  1711  2160  2449  2507  2453  2410  2381  2269  2006  1675  1426  1287  1178  1049  910  772  632  483  302  52  -225  -411  -447  -381  -308  -294  -336  -384  -427  -496  -595  -685  -739  -756  -740  -697  -637  -577  -527  -480  -438  -423  -431  -412  -327  -209  -150  -207  -305  -343  -320  -266  -216  -216  -249  -272  -284  -298  -326  -365  -389  -375  -330  -260  -170  -90  -48  -37  -31  -18  -30  -135  -353  -577  -697  -737  -739  -690  -582  -422  -240  -103  -48  -47  -59  -75  -103  -158  -232  -290  -301  -267  -225  -228  -274  -317  -340  -339  -281  -162  -59  -31  -47  -61  -62  -63  -84  -133  -193  -236  -262  -297  -349  -410  -483  -562  -618  -635  -629  -620  -614  -613  -617  -619  -596  -518  -411  -394  -537  -734  -861  -778  -99  1494  3760  5995  7420  7483  6134  3910  1566  -345  -1491  -1806  -1606  -1245  -898  -658  -517  -430  -413  -469  -549  -609  -642  -659  -665  -648  -583  -443  -263  -139  -128  -203  -302  -382  -454  -555  -654  -648  -474  -211  -33  -42  -171  -239  -136  42  150  162  145  177  298  456  549  582  669  887  1192  1476  1668  1751  1755  1732  1711  1684  1642  1601  1579  1561  1496  1342  1123  891  673  484  351  233  44  -196  -372  -431  -418  -392  -381  -414  -513  -640  -719  -737  -766  -860  -992  -1108  -1171  -1189  -1186  -1172  -1136  -1080  -1038  -1027  -1021  -998  -967  -946  -939  -938  -942  -957  -979  -980  -933  -862  -812  -786  -767  -745  -717  -690  -657  -597  -515  -464  -507  -659  -856  -991  -1011  -938  -812  -686  -607  -575  -565  -544  -499  -488  -578  -735  -883  -985  -1037  -1040  -1001  -925  -801  -653  -593  -703  -889  -1006  -1000  -892  -741  -601  -472  -350  -268  -253  -292  -364  -469  -622  -770  -819  -764  -675  -587  -515  -470  -444  -430  -426  -423  -421  -427  -449  -470  -426  -262  -29  157  250  270  242  174  55  -100  -234  -316  -368  -384  -343  -277  -235  -230  -254  -298  -378  -505  -574  -422  -182  -265  -709  -1117  -1200  -802  190  1693  3478  5310  6807  7462  6937  5268  2925  626  -1008  -1667  -1497  -1000  -594  -382  -301  -292  -333  -402  -456  -469  -454  -442  -447  -460  -468  -470  -475  -487  -500  -505  -498  -487  -488  -520  -571  -598  -558  -444  -300  -192  -144  -134  -120  -40  143  360  498  547  555  549  553  584  645  734  871  1100  1375  1574  1662  1720  1795  1841  1813  1740  1640  1501  1376  1340  1382  1408  1265  841  277  -113  -217  -185  -160  -131  -33  146  336  445  467  469  466  388  181  -92  -310  -434  -501  -515  -447  -318  -200  -125  -61  -1  25  0  -82  -181  -213  -137  -17  49  45  23  20  22  10  -3  13  84  185  261  290  290  285  287  308  354  414  441  384  240  62  -83  -177  -244  -319  -388  -385  -277  -96  80  194  244  277  327  397  464  503  508  484  435  360  272  199  167  181  236  320  396  410  365  309  277  291  347  413  463  490  500  492  446  339  198  101  81  90  90  90  99  109  110  101  88  73  54  38  37  43  33  0  -22  -6  27  45  52  81  132  130  -25  -310  -585  -758  -833  -848  -845  -848  -862  -888  -931  -982  -1008  -979  -911  -890  -963  -1022  -1019  -1113  -1323  -1258  -441  1195  3279  5327  6769  7065  6187  4519  2463  538  -713  -1145  -1055  -880  -835  -848  -834  -792  -729  -648  -562  -506  -505  -538  -580  -612  -630  -656  -714  -797  -870  -889  -837  -760  -718  -700  -675  -646  -632  -647  -647  -555  -376  -159  14  51  17  23  20  17  138  379  664  951  1194  1381  1539  1654  1648  1490  1303  1244  1309  1402  1470  1510  1546  1604  1651  1576  1281  836  441  227  175  175  126  5  -167  -382  -638  -922  -1169  -1279  -1248  -1180  -1147  -1140  -1121  -1079  -1052  -1072  -1122  -1189  -1272  -1355  -1433  -1528  -1610  -1586  -1398  -1107  -863  -757  -765  -825  -891  -932  -953  -984  -1046  -1122  -1157  -1120  -1041  -952  -870  -845  -903  -949  -864  -646  -416  -299  -324  -432  -569  -705  -794  -790  -685  -524  -387  -320  -307  -308  -303  -302  -334  -422  -552  -687  -793  -828  -757  -613  -467  -376  -354  -367  -377  -373  -347  -294  -243  -224  -246  -294  -332  -343  -354  -375  -375  -342  -308  -303  -321  -322  -286  -247  -232  -225  -206  -177  -148  -124  -119  -157  -241  -335  -413  -477  -506  -474  -390  -265  -114  25  117  144  126  106  101  83  3  -168  -411  -626  -700  -635  -539  -485  -473  -486  -513  -554  -596  -586  -454  -255  -215  -469  -890  -1167  -813  487  2528  4779  6571  7257  6648  5054  2915  761  -862  -1682  -1719  -1234  -707  -480  -484  -519  -528  -542  -587  -652  -701  -718  -715  -700  -672  -618  -532  -440  -377  -339  -298  -257  -250  -297  -386  -472  -521  -534  -529  -507  -457  -369  -252  -138  -37  111  363  653  857  938  947  942  952  991  1101  1338  1653  1901  2023  2081  2141  2201  2219  2173  2043  1804  1513  1295  1199  1178  1178  1162  1103  968  740  455  188  -13  -183  -355  -512  -648  -754  -788  -749  -699  -679  -684  -697  -712  -727  -741  -751  -755  -735  -677  -601  -564  -607  -709  -806  -847  -821  -767  -745  -759  -747  -673  -586  -529  -494  -455  -404  -347  -299  -269  -253  -236  -216  -190  -153  -120  -119  -154  -200  -240  -288  -355  -396  -389  -382  -397  -403  -383  -362  -419  -589  -776  -857  -805  -690  -588  -521  -471  -432  -416  -423  -424  -411  -411  -443  -476  -477  -450  -394  -301  -193  -121  -97  -86  -57  -23  -1  28  60  35  -53  -155  -272  -434  -606  -718  -752  -747  -733  -715  -685  -649  -624  -638  -739  -948  -1183  -1307  -1303  -1238  -1013  -342  939  2760  4829  6546  7214  6469  4477  1884  -479  -1932  -2170  -1509  -695  -218  -112  -263  -499  -641  -627  -495  -341  -268  -291  -337  -360  -367  -374  -381  -375  -328  -216  -77  19  50  59  93  148  191  211  221  233  255  305  400  539  685  786  827  855  944  1134  1391  1623  1767  1841  1917  2048  2239  2444  2605  2693  2725  2732  2734  2715  2624  2418  2134  1886  1748  1685  1604  1416  1072  606  137  -193  -334  -350  -337  -339  -352  -351  -327  -304  -303  -314  -330  -379  -498  -659  -779  -810  -762  -668  -580  -540  -561  -645  -774  -896  -965  -966  -904  -794  -663  -547  -464  -413  -388  -383  -387  -386  -379  -367  -359  -357  -359  -361  -354  -332  -301  -276  -263  -257  -256  -279  -358  -494  -611  -617  -522  -428  -418  -506  -643  -751  -798  -811  -823  -830  -805  -740  -658  -591  -563  -602  -753  -1015  -1323  -1580  -1671  -1514  -1159  -793  -585  -561  -645  -757  -839  -876  -870  -824  -766  -732  -724  -716  -680  -620  -559  -513  -465  -389  -287  -204  -172  -189  -225  -253  -283  -351  -483  -649  -774  -819  -805  -772  -740  -713  -699  -716  -786  -875  -907  -932  -1042  -973  -282  1135  3049  5029  6421  6696  5835  4194  2233  442  -812  -1405  -1401  -1074  -812  -768  -840  -891  -833  -670  -501  -399  -358  -345  -344  -371  -447  -550  -626  -657  -666  -663  -614  -482  -304  -170  -110  -79  -44  -14  -9  -38  -86  -124  -140  -145  -119  2  253  575  847  984  979  899  850  947  1235  1601  1851  1914  1883  1862  1880  1911  1922  1928  1951  1966  1912  1765  1581  1443  1378  1360  1348  1270  1063  777  532  352  165  -39  -183  -211  -143  -38  43  75  77  75  82  82  33  -86  -217  -267  -229  -157  -110  -118  -155  -176  -180  -190  -206  -213  -210  -209  -234  -300  -388  -455  -477  -464  -419  -331  -215  -122  -81  -81  -101  -128  -147  -155  -164  -185  -207  -199  -154  -96  -68  -85  -120  -141  -148  -145  -136  -139  -182  -253  -299  -282  -211  -127  -81  -74  -64  -24  40  105  144  160  175  182  150  79  0  -53  -75  -68  -37  4  40  54  30  -23  -92  -178  -247  -234  -111  63  184  190  110  13  -69  -147  -202  -213  -198  -194  -221  -270  -327  -393  -444  -455  -445  -484  -639  -893  -1148  -1328  -1415  -1432  -1415  -1400  -1404  -1422  -1446  -1475  -1507  -1523  -1497  -1459  -1498  -1591  -1481  -831  532  2446  4466  6085  6777  6261  4772  2755  618  -1129  -2105  -2350  -2133  -1738  -1380  -1148  -1065  -1101  -1167  -1188  -1121  -981  -847  -782  -805  -897  -980  -992  -972  -956  -931  -882  -821  -783  -780  -788  -809  -833  -772  -592  -384  -235  -158  -110  -45  36  94  100  73  47  58  164  403  704  935  1067  1169  1265  1350  1409  1418  1425  1517  1655  1716  1642  1479  1331  1249  1184  1057  851  640  510  453  377  197  -88  -385  -585  -661  -668  -663  -666  -671  -670  -668  -688  -748  -834  -897  -903  -864  -818  -750  -627  -512  -507  -633  -812  -941  -984  -961  -889  -792  -711  -674  -672  -685  -704  -714  -690  -610  -494  -411  -427  -568  -778  -952  -1039  -1056  -997  -813  -521  -250  -121  -147  -278  -441  -561  -592  -543  -457  -352  -223  -99  -10  19  -52  -225  -398  -474  -461  -436  -445  -468  -476  -465  -447  -433  -415  -366  -260  -119  -16  -15  -130  -315  -480  -569  -592  -569  -485  -316  -98  68  134  131  106  75  27  -34  -81  -76  -9  89  167  180  102  -38  -123  -66  55  140  190  234  268  283  287  293  301  289  216  99  44  95  155  151  90  -36  -226  -427  -583  -668  -676  -618  -496  -330  -183  -158  -331  -667  -958  -1001  -852  -563  163  1636  3636  5567  6890  7202  6379  4765  2878  1021  -534  -1453  -1680  -1476  -1086  -703  -506  -497  -538  -548  -525  -497  -485  -491  -507  -525  -554  -604  -658  -697  -729  -763  -806  -854  -870  -829  -769  -720  -657  -549  -369  -98  196  377  396  330  272  253  258  264  254  225  214  339  714  1248  1702  1972  2125  2216  2242  2218  2188  2148  2072  1990  1945  1909  1816  1616  1316  1002  778  680  671  688  690  671  642  603  524  383  214  76  -3  -45  -85  -148  -217  -247  -213  -127  -35  26  57  55  -28  -246  -521  -648  -499  -184  50  56  -125  -372  -586  -725  -818  -905  -969  -952  -814  -593  -402  -310  -296  -308  -319  -327  -336  -347  -355  -358  -349  -320  -282  -254  -242  -237  -235  -255  -325  -445  -562  -611  -578  -524  -510  -548  -612  -667  -702  -733  -762  -768  -723  -621  -502  -412  -347  -281  -209  -144  -103  -94  -113  -169  -269  -394  -504  -553  -513  -405  -302  -253  -241  -219  -158  -89  -100  -241  -433  -577  -635  -585  -455  -343  -294  -250  -131  44  129  16  -194  -347  -409  -426  -442  -470  -492  -480  -435  -391  -396  -491  -672  -864  -973  -946  -782  -560  -453  -617  -897  -815  -20  1503  3516  5394  6343  6048  4771  2931  981  -558  -1434  -1755  -1680  -1350  -994  -794  -745  -756  -787  -840  -899  -924  -909  -887  -879  -870  -816  -679  -483  -303  -191  -144  -142  -174  -236  -313  -373  -403  -408  -369  -256  -64  147  300  366  384  409  446  446  379  316  383  639  1011  1342  1539  1624  1677  1764  1879  1968  2008  2031  2064  2085  2086  2095  2117  2107  1997  1748  1433  1188  1016  805  540  300  106  -58  -166  -200  -189  -164  -140  -131  -153  -203  -251  -303  -417  -618  -829  -952  -974  -957  -944  -941  -938  -926  -903  -868  -823  -783  -773  -773  -734  -665  -628  -655  -712  -703  -544  -271  -25  102  124  81  -10  -122  -208  -253  -273  -283  -297  -330  -378  -412  -402  -336  -240  -163  -135  -176  -301  -472  -610  -675  -666  -592  -495  -427  -400  -394  -393  -391  -391  -391  -388  -376  -370  -413  -541  -713  -827  -846  -818  -802  -807  -808  -774  -695  -581  -470  -425  -474  -563  -616  -617  -598  -571  -510  -396  -250  -119  -40  -36  -123  -282  -432  -493  -465  -424  -426  -459  -510  -602  -724  -826  -898  -991  -1133  -1280  -1355  -1300  -1124  -955  -900  -867  -698  -166  1082  3035  5058  6486  6946  6176  4294  1945  -190  -1628  -2126  -1877  -1334  -867  -639  -614  -659  -685  -684  -673  -658  -634  -606  -598  -608  -616  -615  -586  -494  -343  -213  -186  -256  -361  -474  -578  -618  -543  -372  -177  -25  62  84  70  83  150  233  304  371  443  500  520  556  727  1044  1384  1638  1801  1905  1934  1869  1770  1713  1709  1732  1756  1777  1804  1837  1854  1807  1653  1392  1085  787  524  308  135  -2  -118  -230  -309  -307  -255  -243  -293  -348  -370  -369  -360  -355  -368  -410  -467  -515  -546  -569  -590  -608  -628  -649  -657  -641  -611  -600  -645  -757  -896  -981  -934  -730  -462  -283  -236  -248  -265  -293  -358  -447  -512  -533  -527  -522  -535  -568  -606  -617  -584  -524  -474  -462  -507  -607  -700  -723  -690  -633  -543  -426  -334  -296  -295  -303  -310  -325  -364  -419  -465  -490  -508  -523  -510  -440  -331  -266  -296  -364  -379  -317  -224  -159  -138  -135  -137  -171  -270  -407  -507  -519  -450  -347  -255  -193  -173  -215  -288  -335  -349  -367  -410  -458  -483  -489  -487  -484  -480  -478  -488  -522  -573  -618  -649  -666  -641  -544  -398  -276  -216  -204  -212  -218  -202  -157  -110  -108  -168  -271  -376  -444  -463  -453  -443  -460  -520  -602  -664  -682  -667  -640  -634  -679  -766  -821  -736  -389  463  2053  4097  5837  6694  6508  5402  3775  2090  588  -607  -1321  -1456  -1194  -917  -852  -890  -872  -800  -713  -592  -450  -346  -307  -313  -346  -403  -466  -509  -524  -514  -477  -416  -349  -314  -330  -348  -307  -208  -108  -49  -31  -24  12  109  243  346  388  407  446  501  551  604  688  827  1026  1256  1471  1636  1748  1805  1791  1724  1670  1678  1744  1813  1843  1832  1751  1550  1283  1055  855  623  384  218  154  152  151  112  41  -22  -55  -61  -60  -57  -46  -16  23  42  27  -1  -9  12  29  -15  -142  -302  -412  -446  -438  -424  -413  -414  -455  -548  -638  -625  -494  -341  -248  -216  -215  -223  -234  -248  -261  -272  -282  -327  -456  -656  -852  -981  -1022  -982  -885  -741  -542  -333  -212  -206  -274  -384  -503  -585  -621  -641  -663  -674  -655  -609  -569  -555  -563  -625  -762  -899  -961  -940  -851  -717  -550  -353  -221  -316  -636  -988  -1197  -1201  -1018  -719  -416  -228  -197  -276  -388  -469  -495  -459  -358  -231  -176  -268  -487  -715  -828  -803  -729  -682  -660  -629  -574  -510  -463  -430  -393  -352  -311  -265  -231  -239  -292  -361  -408  -415  -385  -334  -272  -201  -140  -107  -96  -109  -182  -325  -476  -561  -578  -563  -535  -512  -535  -616  -667  -608  -491  -407  -373  -382  -458  -618  -821  -1056  -1345  -1494  -1157  -110  1664  3888  5981  7280  7343  6191  4190  1834  -247  -1468  -1675  -1194  -569  -228  -227  -375  -496  -529  -506  -466  -429  -404  -388  -380  -375  -374  -381  -410  -466  -502  -464  -393  -355  -336  -311  -294  -291  -301  -312  -296  -246  -153  -19  119  228  310  374  429  489  542  580  651  813  1036  1223  1334  1391  1417  1429  1468  1584  1775  1964  2078  2112  2085  2030  1989  1944  1811  1547  1228  967  796  659  513  383  299  245  203  174  135  27  -174  -401  -556  -623  -649  -663  -670  -661  -637  -618  -621  -643  -668  -695  -746  -821  -878  -879  -828  -770  -751  -767  -783  -778  -747  -677  -549  -377  -231  -156  -135  -133  -130  -126  -141  -200  -302  -408  -478  -502  -488  -465  -450  -444  -443  -442  -429  -400  -373  -381  -448  -556  -647  -687  -688  -656  -569  -411  -224  -95  -69  -127  -227  -332  -420  -487  -535  -543  -479  -347  -176  -13  88  118  114  107  94  62  18  -15  -28  -35  -49  -50  23  217  475  656  640  389  -13  -401  -665  -789  -813  -796  -765  -731  -713  -712  -715  -714  -722  -788  -974  -1237  -1403  -1318  -867  75  1535  3356  5164  6438  6763  5979  4259  2061  -61  -1637  -2426  -2459  -1993  -1361  -830  -570  -558  -618  -646  -636  -609  -585  -577  -578  -575  -567  -576  -610  -658  -704  -739  -762  -780  -785  -751  -650  -511  -402  -337  -272  -178  -56  87  212  263  255  248  241  207  189  256  405  571  740  979  1320  1669  1902  2002  2033  2075  2170  2296  2389  2414  2346  2165  1921  1715  1567  1430  1278  1109  945  820  723  579  346  69  -163  -294  -335  -350  -385  -423  -429  -431  -507  -676  -854  -941  -943  -938  -976  -1034  -1063  -1035  -940  -786  -634  -560  -587  -674  -735  -727  -703  -712  -726  -717  -680  -610  -527  -464  -430  -420  -426  -426  -422  -461  -593  -783  -931  -989  -989  -977  -969  -966  -961  -951  -919  -843  -736  -659  -654  -714  -812  -918  -1022  -1104  -1095  -988  -873  -814  -797  -791  -788  -790  -781  -700  -509  -301  -255  -436  -683  -798  -768  -703  -669  -643  -579  -467  -336  -220  -142  -107  -98  -98  -97  -78  -23  67  177  271  312  284  209  127  56  -22  -143  -287  -390  -428  -427  -420  -422  -429  -423  -372  -268  -150  -78  -82  -170  -343  -555  -717  -789  -811  -851  -965  -1008  -585  564  2356  4450  6162  6715  5915  4261  2417  858  -202  -784  -1026  -1011  -774  -464  -267  -206  -199  -208  -252  -333  -406  -449  -496  -574  -598  -478  -275  -105  2  61  81  75  66  91  174  290  377  406  400  391  396  425  467  504  522  517  497  489  504  520  548  660  906  1239  1579  1897  2167  2327  2370  2359  2340  2313  2258  2183  2142  2175  2214  2176  2087  1983  1837  1651  1478  1340  1217  1093  950  743  478  243  86  -5  -33  -11  15  23  18  11  16  49  109  164  194  211  216  160  -10  -253  -440  -520  -553  -596  -636  -607  -461  -258  -114  -74  -89  -101  -107  -131  -175  -220  -241  -201  -107  -22  16  24  28  49  91  136  161  145  65  -59  -168  -223  -220  -169  -103  -51  -13  18  42  46  21  -31  -90  -130  -130  -85  -32  -12  -21  -32  -33  -27  -21  -16  -11  -18  -39  -40  15  102  147  109  25  -39  -60  -67  -91  -143  -198  -225  -224  -214  -206  -203  -219  -265  -326  -371  -388  -389  -388  -375  -336  -259  -132  33  180  252  252  204  120  8  -106  -183  -207  -200  -193  -189  -177  -151  -132  -150  -220  -308  -354  -329  -265  -215  -198  -196  -190  -175  -167  -197  -273  -359  -415  -440  -487  -691  -1067  -1284  -877  371  2259  4237  5727  6375  6125  5147  3629  1741  -171  -1627  -2275  -2089  -1373  -635  -294  -345  -507  -638  -746  -821  -851  -851  -837  -823  -817  -807  -779  -734  -706  -741  -863  -1021  -1137  -1198  -1240  -1272  -1294  -1311  -1302  -1205  -984  -714  -523  -452  -448  -460  -469  -459  -400  -274  -115  10  78  141  273  488  732  927  1029  1057  1071  1106  1157  1199  1231  1264  1278  1249  1201  1164  1117  1006  802  535  271  50  -151  -352  -514  -609  -648  -647  -624  -602  -614  -648  -655  -621  -581  -556  -534  -528  -613  -868  -1225  -1504  -1608  -1560  -1393  -1164  -976  -904  -951  -1079  -1229  -1341  -1392  -1410  -1438  -1500  -1576  -1630  -1652  -1658  -1654  -1617  -1521  -1397  -1332  -1395  -1579  -1813  -2002  -2068  -1995  -1842  -1700  -1620  -1594  -1606  -1649  -1702  -1717  -1645  -1493  -1315  -1138  -985  -889  -861  -903  -1017  -1165  -1270  -1303  -1298  -1297  -1310  -1323  -1326  -1330  -1346  -1362  -1341  -1258  -1146  -1064  -1003  -909  -783  -691  -676  -713  -744  -727  -652  -536  -422  -346  -269  -122  66  167  94  -99  -293  -415  -469  -490  -514  -565  -627  -659  -642  -598  -554  -493  -390  -284  -217  -153  -124  -303  -715  -1041  -829  185  1957  4114  5969  6846  6518  5178  3233  1258  -200  -926  -1084  -963  -773  -660  -644  -570  -357  -121  37  152  262  350  406  462  558  683  780  793  690  504  363  352  407  472  557  647  700  710  691  658  631  632  680  810  1020  1232  1375  1451  1478  1460  1427  1432  1522  1726  2020  2343  2639  2874  3059  3251  3450  3538  3400  3065  2710  2487  2393  2341  2289  2234  2183  2123  1988  1701  1285  895  674  616  618  604  536  406  232  21  -192  -336  -401  -447  -505  -557  -586  -595  -585  -545  -472  -415  -446  -555  -651  -666  -601  -502  -421  -365  -323  -295  -286  -287  -288  -291  -313  -372  -447  -483  -449  -377  -321  -300  -299  -297  -292  -287  -276  -248  -194  -125  -63  -41  -71  -124  -169  -210  -252  -288  -321  -366  -426  -476  -501  -505  -498  -504  -550  -620  -667  -662  -609  -536  -458  -362  -251  -154  -95  -81  -144  -340  -665  -1018  -1274  -1376  -1356  -1277  -1198  -1157  -1155  -1161  -1139  -1054  -915  -825  -897  -1084  -1225  -1163  -705  291  1827  3666  5218  5899  5443  3928  1861  -75  -1414  -2006  -2009  -1777  -1556  -1348  -1129  -966  -887  -844  -758  -610  -510  -552  -669  -746  -764  -754  -705  -566  -343  -123  9  41  -7  -114  -234  -314  -323  -238  -67  123  249  292  288  273  272  293  331  381  452  559  705  883  1080  1272  1452  1633  1792  1885  1920  1943  1957  1900  1761  1634  1596  1621  1652  1659  1631  1529  1273  844  373  36  -117  -162  -179  -211  -299  -460  -639  -747  -773  -763  -757  -773  -818  -897  -1010  -1146  -1267  -1326  -1282  -1115  -885  -722  -716  -864  -1077  -1225  -1225  -1081  -876  -723  -668  -672  -667  -601  -471  -332  -241  -210  -223  -275  -372  -490  -583  -636  -661  -657  -618  -556  -508  -503  -528  -540  -514  -460  -412  -407  -428  -405  -332  -290  -336  -443  -534  -541  -472  -389  -329  -317  -365  -432  -474  -496  -517  -538  -532  -461  -310  -127  21  111  156  174  190  205  196  136  29  -76  -132  -141  -133  -125  -120  -116  -116  -115  -106  -87  -61  -39  -29  -53  -132  -250  -352  -402  -404  -387  -404  -536  -770  -843  -451  410  1630  3176  4810  6086  6655  6284  4964  3038  967  -801  -1871  -2123  -1788  -1199  -634  -269  -119  -113  -202  -353  -510  -622  -684  -746  -848  -952  -959  -819  -619  -487  -443  -442  -460  -481  -499  -521  -547  -563  -543  -454  -289  -106  11  23  -74  -256  -441  -521  -429  -179  130  394  600  800  1009  1187  1318  1427  1541  1655  1736  1772  1783  1776  1718  1567  1363  1218  1182  1198  1164  998  714  426  231  140  106  40  -133  -373  -557  -634  -666  -724  -806  -848  -823  -786  -775  -750  -683  -609  -577  -589  -608  -602  -563  -512  -472  -458  -483  -561  -671  -755  -779  -758  -720  -684  -662  -660  -689  -756  -860  -970  -1014  -930  -730  -522  -425  -463  -579  -698  -774  -795  -772  -713  -636  -566  -504  -446  -403  -392  -400  -398  -362  -302  -249  -227  -238  -278  -348  -450  -576  -682  -713  -652  -553  -476  -429  -397  -379  -377  -380  -365  -314  -243  -189  -164  -155  -153  -178  -251  -359  -473  -590  -710  -791  -797  -736  -620  -462  -322  -263  -272  -303  -332  -364  -401  -419  -381  -270  -122  -2  40  -25  -210  -447  -624  -689  -660  -557  -408  -255  -139  -87  -92  -116  -129  -133  -144  -153  -132  -69  16  89  137  164  178  185  185  178  162  152  167  209  215  87  -170  -417  -556  -589  -548  -462  -339  -190  -75  -102  -363  -735  -798  -158  1222  3083  4988  6434  7033  6658  5469  3822  2079  458  -839  -1605  -1757  -1318  -494  199  350  126  -70  -123  -108  -76  -43  -23  -51  -142  -248  -309  -318  -275  -180  -74  1  37  44  40  36  38  55  94  146  201  256  318  402  526  678  798  836  825  829  854  908  1036  1242  1451  1593  1675  1723  1743  1747  1763  1801  1823  1795  1748  1727  1741  1773  1791  1752  1638  1484  1339  1197  1019  830  710  671  625  485  263  49  -91  -173  -230  -270  -286  -279  -254  -216  -176  -168  -226  -358  -523  -661  -749  -783  -765  -727  -706  -720  -772  -862  -1015  -1254  -1506  -1618  -1521  -1303  -1116  -1025  -1002  -998  -988  -968  -948  -937  -934  -932  -929  -928  -931  -934  -932  -931  -934  -942  -946  -944  -938  -931  -923  -907  -882  -863  -861  -864  -862  -852  -816  -733  -620  -528  -508  -572  -704  -853  -950  -955  -877  -765  -688  -694  -790  -929  -1037  -1067  -994  -811  -573  -386  -321  -365  -449  -514  -557  -605  -665  -708  -699  -630  -535  -465  -440  -434  -420  -388  -353  -318  -274  -222  -175  -129  -84  -60  -94  -194  -327  -443  -504  -507  -454  -301  -55  158  250  259  258  293  384  506  598  635  619  543  395  188  -18  -147  -180  -158  -127  -99  -55  8  30  -37  -147  -218  -224  -178  -96  -5  -17  -280  -711  -1037  -993  -211  1522  3775  5749  6841  6803  5804  4299  2645  1001  -448  -1450  -1841  -1648  -1137  -721  -605  -661  -711  -718  -707  -689  -651  -588  -519  -459  -411  -373  -349  -332  -300  -261  -239  -226  -160  11  232  379  393  292  95  -154  -353  -423  -392  -344  -315  -268  -148  24  161  200  163  110  83  130  357  828  1396  1804  1976  2016  2012  1989  1949  1867  1701  1470  1281  1202  1198  1192  1143  1065  1002  946  832  605  285  -42  -288  -414  -458  -479  -499  -513  -515  -508  -503  -503  -506  -499  -467  -412  -357  -336  -371  -446  -522  -577  -637  -721  -808  -865  -875  -832  -732  -608  -517  -485  -515  -611  -746  -857  -903  -904  -892  -861  -790  -705  -671  -704  -735  -690  -585  -484  -411  -366  -342  -316  -268  -211  -187  -220  -288  -343  -361  -352  -333  -299  -243  -188  -163  -172  -207  -252  -295  -348  -431  -542  -638  -638  -493  -271  -106  -47  -44  -44  -35  -22  -13  -4  7  22  32  32  34  51  81  95  49  -84  -260  -385  -426  -421  -399  -362  -313  -268  -231  -193  -151  -109  -74  -58  -94  -213  -382  -517  -559  -480  -279  -51  76  96  80  70  66  58  34  -14  -82  -133  -116  -6  152  269  294  237  111  -90  -340  -556  -685  -741  -753  -738  -717  -713  -705  -610  -417  -361  -648  -1047  -1054  -344  1062  2903  4757  6130  6674  6338  5241  3532  1522  -295  -1487  -1823  -1418  -787  -445  -490  -673  -740  -678  -627  -655  -692  -696  -698  -711  -716  -702  -681  -666  -648  -605  -532  -444  -350  -268  -233  -246  -246  -197  -133  -85  -56  -21  41  116  164  173  161  153  182  269  379  451  499  615  860  1197  1524  1754  1859  1859  1803  1743  1696  1651  1612  1601  1610  1599  1523  1380  1230  1138  1098  1047  915  679  400  166  -1  -136  -254  -345  -401  -431  -446  -441  -399  -336  -321  -425  -646  -881  -1019  -1030  -944  -813  -702  -648  -641  -653  -672  -688  -699  -719  -764  -827  -876  -899  -903  -871  -766  -589  -410  -287  -218  -185  -168  -144  -124  -152  -246  -367  -452  -480  -472  -446  -407  -355  -301  -261  -241  -243  -262  -280  -284  -281  -296  -347  -426  -504  -589  -712  -855  -949  -947  -849  -702  -574  -498  -467  -459  -460  -464  -465  -453  -426  -396  -370  -348  -329  -328  -358  -399  -423  -420  -386  -302  -150  32  164  210  208  187  133  8  -175  -342  -425  -437  -439  -482  -570  -673  -762  -813  -809  -733  -583  -382  -181  -85  -243  -672  -1088  -1063  -323  1151  3101  5033  6409  6829  6128  4489  2383  302  -1294  -2048  -1967  -1451  -996  -821  -795  -759  -690  -604  -502  -388  -297  -290  -361  -436  -465  -462  -453  -461  -497  -545  -581  -596  -603  -607  -584  -486  -281  -18  199  304  275  117  -86  -206  -184  -43  175  401  554  618  630  633  681  827  1052  1279  1464  1597  1679  1733  1787  1837  1865  1872  1870  1870  1878  1889  1871  1763  1500  1102  715  486  419  405  334  150  -134  -440  -643  -692  -646  -591  -556  -527  -500  -495  -533  -622  -737  -802  -780  -734  -720  -724  -710  -671  -628  -603  -582  -537  -469  -412  -400  -455  -567  -654  -662  -646  -652  -657  -632  -580  -531  -522  -571  -646  -655  -552  -403  -293  -246  -237  -239  -243  -265  -327  -435  -559  -646  -666  -619  -531  -464  -460  -494  -536  -581  -612  -606  -560  -499  -461  -443  -412  -362  -290  -186  -87  -43  -68  -132  -187  -210  -218  -228  -240  -251  -266  -286  -291  -276  -265  -276  -284  -250  -151  -2  162  310  408  460  497  492  372  135  -104  -247  -294  -305  -307  -254  -96  107  188  41  -244  -495  -632  -639  -440  -8  373  309  -272  -999  -1199  -313  1623  4011  6018  6976  6742  5591  3900  2100  598  -401  -865  -882  -686  -506  -403  -352  -332  -341  -389  -478  -552  -535  -424  -282  -146  -36  13  -11  -76  -127  -148  -167  -173  -110  27  182  296  351  362  362  377  404  414  383  343  336  342  344  373  460  612  801  972  1084  1145  1240  1459  1763  2017  2158  2218  2252  2281  2282  2228  2116  1967  1842  1783  1769  1764  1737  1645  1447  1143  802  532  373  259  102  -84  -220  -273  -287  -297  -300  -288  -279  -318  -420  -532  -592  -626  -687  -717  -630  -452  -283  -182  -144  -150  -198  -272  -307  -255  -170  -147  -231  -376  -469  -465  -463  -527  -600  -628  -631  -648  -701  -779  -830  -810  -720  -609  -533  -503  -482  -439  -375  -315  -287  -309  -384  -494  -613  -713  -782  -829  -867  -867  -764  -514  -199  14  28  -134  -381  -588  -684  -684  -632  -568  -528  -530  -557  -587  -615  -635  -639  -616  -548  -426  -282  -182  -179  -268  -383  -441  -433  -413  -419  -452  -487  -505  -509  -507  -504  -499  -489  -474  -478  -523  -569  -545  -496  -498  -505  -469  -417  -378  -354  -319  -245  -131  17  190  317  299  134  -73  -258  -447  -651  -818  -897  -900  -878  -866  -871  -880  -886  -889  -909  -950  -987  -1016  -1132  -1376  -1496  -1055  210  2138  4201  5820  6615  6516  5675  4227  2430  715  -652  -1485  -1597  -1194  -762  -574  -631  -771  -763  -492  -74  266  445  528  571  587  563  481  353  235  167  139  120  108  119  164  226  279  319  355  381  391  415  503  697  953  1161  1262  1279  1255  1227  1223  1245  1280  1344  1465  1622  1764  1893  2052  2266  2507  2700  2807  2840  2808  2709  2576  2474  2432  2391  2236  1925  1564  1298  1131  979  822  698  617  558  494  407  309  212  77  -106  -259  -331  -362  -402  -457  -531  -656  -834  -991  -1032  -938  -783  -668  -625  -618  -624  -656  -734  -828  -868  -830  -784  -800  -867  -931  -964  -987  -1043  -1122  -1185  -1206  -1165  -1099  -1114  -1259  -1467  -1638  -1725  -1749  -1754  -1766  -1806  -1895  -2011  -2098  -2134  -2139  -2136  -2137  -2145  -2152  -2132  -2060  -1957  -1868  -1788  -1665  -1486]
