reading_id,reading_time,wire_id,result_classification,heart_rate,heart_rate_alert,firmware_version,device_app_version,hardware_version,waveform_samples
bf426ff0-cb83-11ed-8080-808080808080,Sun Mar 26 03:10:22 UTC 2023,e12964476439,NSR,73,NONE,20001.188.58,2.13.0,Charge 5,[10319  10822  11127  11238  11256  11237  11187  11121  11058  10950  10710  10374  10105  9991  9970  9948  9890  9811  9715  9580  9378  9109  8845  8672  8611  8623  8664  8687  8601  8323  7922  7586  7409  7345  7332  7298  7141  6818  6406  6048  5831  5738  5698  5657  5594  5490  5289  4959  4597  4351  4227  4114  3968  3856  3816  3808  3770  3648  3387  2964  2446  1993  1734  1639  1558  1368  1054  716  472  323  176  -17  -225  -414  -596  -766  -880  -935  -996  -1165  -1515  -1977  -2353  -2520  -2522  -2471  -2438  -2429  -2423  -2415  -2435  -2533  -2735  -3032  -3367  -3633  -3746  -3721  -3627  -3534  -3492  -3547  -3707  -3933  -4156  -4323  -4407  -4395  -4292  -4138  -4011  -3950  -3935  -3934  -3949  -4004  -4109  -4241  -4362  -4435  -4471  -4501  -4535  -4576  -4633  -4679  -4646  -4490  -4265  -4088  -4008  -3989  -3991  -4008  -4045  -4099  -4160  -4206  -4227  -4232  -4227  -4221  -4225  -4239  -4275  -4372  -4564  -4821  -5057  -5206  -5277  -5291  -5196  -4924  -4577  -4452  -4711  -5074  -5039  -4324  -2950  -1188  399  1204  991  -70  -1645  -3326  -4661  -5327  -5309  -4880  -4392  -4077  -3949  -3874  -3788  -3739  -3768  -3853  -3924  -3927  -3883  -3860  -3898  -3948  -3914  -3743  -3474  -3217  -3032  -2906  -2845  -2856  -2899  -2932  -2945  -2940  -2912  -2853  -2754  -2607  -2448  -2338  -2277  -2207  -2113  -2041  -2020  -2032  -2043  -2015  -1920  -1784  -1666  -1569  -1453  -1352  -1369  -1508  -1654  -1727  -1737  -1697  -1595  -1435  -1257  -1099  -981  -909  -878  -873  -869  -850  -826  -824  -849  -867  -846  -795  -743  -707  -684  -667  -664  -721  -886  -1130  -1340  -1416  -1367  -1293  -1297  -1389  -1467  -1430  -1339  -1331  -1399  -1443  -1428  -1380  -1329  -1278  -1226  -1179  -1131  -1075  -1025  -1008  -1031  -1074  -1118  -1156  -1175  -1168  -1156  -1144  -1117  -1084  -1059  -1046  -1038  -1028  -1003  -972  -944  -912  -861  -803  -753  -724  -735  -785  -846  -871  -798  -638  -494  -419  -391  -381  -395  -457  -578  -717  -812  -845  -830  -772  -674  -545  -401  -264  -176  -152  -158  -149  -109  -61  -32  -18  0  26  46  36  -20  -108  -181  -231  -285  -346  -386  -400  -401  -411  -452  -507  -515  -461  -431  -502  -665  -859  -974  -827  -191  1079  2847  4675  5943  6089  4982  3012  831  -929  -1874  -2027  -1749  -1428  -1213  -1047  -872  -671  -423  -138  102  200  107  -99  -272  -345  -356  -353  -357  -376  -393  -343  -147  169  455  594  610  586  568  554  543  561  637  751  840  875  880  882  886  891  914  986  1091  1166  1181  1151  1088  1009  934  870  836  846  881  930  1015  1149  1298  1404  1440  1415  1330  1171  978  835  786  835  978  1168  1313  1355  1302  1226  1217  1270  1308  1306  1288  1232  1060  733  354  94  5  13  53  116  206  291  323  305  259  185  95  0  -110  -226  -321  -386  -398  -322  -187  -82  -58  -88  -124  -147  -173  -232  -325  -414  -488  -561  -604  -587  -543  -513  -488  -439  -353  -265  -215  -206  -218  -237  -271  -318  -369  -411  -428  -415  -388  -375  -395  -450  -510  -519  -443  -298  -146  -50  -23  -54  -141  -260  -361  -411  -398  -299  -106  120  309  428  454  345  107  -169  -375  -449  -346  -38  392  749  916  941  925  933  984  1047  1061  989  815  547  264  90  61  119  198  264  301  294  235  167  182  263  222  -33  -258  -7  997  2715  4704  6195  6579  5771  4093  2084  326  -790  -1254  -1285  -1057  -673  -288  -48  45  89  146  212  257  267  257  253  273  295  277  223  179  168  171  151  88  17  -3  50  157  269  326  327  320  319  314  298  271  243  244  309  442  596  704  738  724  713  718  691  612  526  483  488  515  526  518  510  523  560  607  655  695  684  592  477  423  458  558  656  709  737  764  780  763  695  568  389  188  9  -112  -180  -226  -265  -285  -278  -251  -240  -283  -371  -454  -505  -516  -493  -459  -439  -444  -469  -499  -528  -559  -577  -556  -498  -434  -395  -378  -367  -361  -372  -398  -417  -429  -460  -522  -585  -627  -668  -710  -730  -720  -694  -674  -671  -666  -644  -607  -561  -488  -354  -185  -56  -16  -72  -216  -383  -486  -502  -462  -375  -184  150  513  700  629  404  179  29  -48  -69  -51  -19  47  216  480  742  936  1064  1130  1138  1107  1061  1000  893  726  541  401  332  317  317  291  227  151  101  80  66  57  101  206  186  -224  -992  -1659  -1630  -610  1152  3120  4821  5870  5937  4940  3150  1038  -859  -2011  -2191  -1692  -1052  -636  -509  -542  -595  -644  -730  -846  -937  -988  -1035  -1096  -1142  -1138  -1075  -974  -884  -836  -818  -786  -709  -607  -532  -514  -540  -582  -624  -662  -676  -625  -487  -313  -188  -152  -190  -270  -337  -347  -324  -307  -291  -240  -139  -28  44  69  61  21  -58  -158  -212  -167  -31  146  284  314  280  280  322  361  380  399  447  524  607  659  649  571  446  299  169  99  85  91  85  61  39  27  -23  -160  -334  -456  -504  -503  -480  -467  -484  -521  -551  -563  -565  -573  -587  -579  -517  -408  -295  -208  -144  -109  -103  -118  -143  -186  -263  -359  -413  -379  -285  -242  -306  -363  -266  -34  187  287  230  23  -249  -433  -437  -307  -162  -50  64  162  150  0  -191  -289  -267  -200  -138  -87  -44  -11  15  48  81  100  104  96  80  72  82  94  94  90  118  210  339  425  412  301  145  11  -73  -136  -228  -362  -483  -545  -566  -588  -637  -704  -764  -812  -846  -822  -700  -519  -377  -318  -195  264  1253  2717  4200  4983  4612  3179  1120  -940  -2307  -2661  -2285  -1583  -817  -286  -142  -214  -291  -322  -332  -347  -370  -398  -447  -545  -683  -809  -875  -841  -664  -375  -128  -70  -174  -294  -347  -349  -336  -325  -326  -354  -413  -467  -456  -372  -235  -43  161  256  168  -19  -156  -184  -147  -99  -37  52  142  202  272  421  628  778  802  722  606  545  579  660  716  722  696  666  627  557  469  417  429  479  524  545  557  578  612  638  628  557  427  272  144  92  133  226  306  338  330  310  302  313  326  308  246  187  197  252  259  171  27  -105  -180  -198  -194  -185  -169  -142  -106  -69  -45  -65  -150  -261  -310  -256  -148  -63  -27  -6  24  70  130  186  203  162  34  -185  -383  -468  -514  -581  -615  -555  -425  -338  -392  -533  -644  -685  -686  -660  -565  -367  -127  44  98  42  -89  -215  -255  -225  -192  -181  -183  -185  -184  -185  -199  -233  -279  -313  -321  -318  -347  -433  -545  -624  -687  -832  -1056  -1149  -988  -771  -664  -517  -40  934  2364  3964  5203  5584  4919  3280  1057  -1002  -2222  -2422  -1869  -963  -115  288  201  -31  -117  -40  67  85  3  -99  -179  -239  -288  -327  -351  -324  -211  -36  126  226  267  271  255  231  208  196  196  207  223  244  269  296  316  336  374  424  462  474  469  460  464  501  578  673  747  789  821  846  856  848  831  815  807  804  804  824  902  1047  1194  1278  1297  1280  1255  1245  1242  1189  1036  830  679  595  480  279  66  -55  -76  -58  -70  -154  -291  -428  -527  -598  -676  -765  -821  -806  -739  -703  -753  -799  -730  -590  -486  -448  -459  -499  -564  -638  -695  -727  -744  -754  -757  -756  -756  -759  -763  -759  -733  -677  -601  -542  -563  -700  -916  -1113  -1211  -1202  -1113  -992  -885  -804  -743  -705  -694  -699  -710  -720  -721  -712  -710  -754  -874  -1015  -1075  -1032  -947  -857  -768  -692  -647  -664  -753  -858  -904  -875  -799  -712  -648  -616  -605  -605  -596  -529  -367  -157  -8  35  16  -3  26  138  296  411  424  343  209  39  -201  -511  -794  -951  -979  -959  -955  -978  -1023  -1108  -1250  -1436  -1668  -1859  -1661  -801  657  2565  4561  5859  5802  4386  2096  -300  -1985  -2600  -2362  -1776  -1282  -960  -695  -495  -415  -424  -462  -493  -532  -616  -733  -823  -851  -833  -800  -775  -763  -751  -722  -659  -553  -428  -331  -275  -231  -187  -155  -143  -145  -155  -170  -171  -119  12  186  319  374  382  398  453  542  654  776  885  958  987  989  983  982  987  994  998  996  995  1000  1005  999  989  1006  1083  1214  1353  1446  1474  1450  1410  1373  1331  1273  1180  1042  906  802  693  552  372  162  -16  -113  -144  -153  -166  -176  -157  -97  -31  8  44  87  93  50  -5  -44  -60  -88  -169  -281  -365  -396  -376  -304  -183  -49  38  68  72  80  96  103  69  -31  -174  -311  -437  -555  -624  -597  -487  -381  -354  -375  -364  -311  -224  -89  66  165  153  36  -147  -337  -457  -484  -452  -407  -376  -367  -378  -413  -462  -499  -488  -410  -278  -128  25  141  121  -56  -293  -483  -582  -604  -585  -542  -484  -434  -422  -444  -440  -347  -191  -60  -5  -4  -19  -31  -37  -38  -36  -30  -27  -44  -97  -180  -293  -470  -703  -906  -1020  -1068  -1056  -948  -770  -628  -619  -774  -1006  -1136  -1017  -578  355  1967  3937  5464  5899  5057  3206  1005  -813  -1849  -2093  -1748  -1129  -557  -262  -273  -397  -451  -419  -383  -376  -355  -296  -247  -238  -235  -177  -49  106  249  365  442  465  446  427  443  486  535  585  627  629  565  467  398  384  394  403  423  487  612  764  881  934  930  882  821  777  756  748  747  771  841  945  1047  1133  1179  1153  1079  1020  1004  1012  1010  991  983  997  1018  1020  970  841  654  467  327  245  222  236  258  272  286  300  272  135  -116  -392  -596  -708  -755  -761  -737  -679  -602  -537  -498  -490  -542  -678  -852  -966  -978  -930  -868  -797  -719  -662  -658  -728  -866  -1012  -1093  -1108  -1092  -1063  -1010  -909  -775  -681  -690  -819  -1009  -1140  -1094  -829  -456  -175  -80  -138  -300  -497  -649  -736  -777  -771  -714  -620  -503  -392  -317  -270  -226  -185  -180  -231  -315  -377  -372  -306  -228  -172  -142  -135  -167  -253  -360  -395  -287  -74  128  244  275  260  230  208  202  186  116  -6  -125  -191  -205  -200  -195  -197  -202  -199  -175  -136  -141  -261  -472  -630  -510  158  1443  2992  4287  4938  4717  3712  2304  833  -449  -1254  -1425  -1095  -565  -146  -11  -80  -167  -205  -220  -230  -223  -176  -70  69  166  146  -9  -225  -382  -434  -424  -397  -361  -301  -207  -99  -9  49  83  105  145  226  324  367  328  254  200  160  92  -3  -82  -110  -77  19  147  245  288  297  299  333  443  605  734  771  746  718  702  666  580  475  424  469  571  647  660  632  587  527  453  380  323  278  221  153  104  93  107  115  72  -54  -224  -348  -390  -384  -368  -361  -375  -417  -481  -543  -573  -523  -358  -138  -7  -37  -172  -311  -400  -440  -454  -453  -414  -310  -173  -93  -114  -189  -233  -210  -147  -107  -138  -245  -408  -604  -785  -869  -815  -676  -543  -458  -412  -393  -387  -366  -315  -272  -299  -386  -466  -497  -493  -482  -481  -503  -546  -563  -494  -368  -281  -273  -304  -321  -301  -264  -260  -313  -397  -461  -491  -491  -440  -289  -50  176  309  359  374  373  327  205  46  -73  -164  -298  -470  -600  -651  -649  -613  -532  -420  -319  -245  -234  -395  -794  -1314  -1687  -1623  -917  439  2180  3846  4955  5138  4315  2764  962  -616  -1593  -1847  -1636  -1300  -1009  -772  -528  -320  -240  -261  -305  -338  -353  -357  -357  -353  -338  -313  -292  -289  -303  -318  -323  -322  -318  -301  -253  -171  -88  -42  -41  -77  -131  -185  -221  -201  -90  83  236  321  354  358  309  191  64  29  154  416  689  852  899  884  829  745  671  664  747  887  1014  1083  1101  1096  1084  1050  962  826  680  566  512  515  541  558  548  506  417  265  76  -86  -187  -237  -257  -264  -288  -367  -497  -625  -706  -741  -743  -709  -632  -542  -494  -513  -569  -619  -649  -669  -682  -683  -664  -620  -557  -491  -446  -442  -485  -548  -611  -691  -783  -824  -762  -630  -527  -524  -607  -705  -760  -778  -802  -837  -817  -676  -462  -302  -264  -303  -348  -364  -354  -348  -379  -476  -637  -782  -826  -789  -738  -687  -615  -518  -417  -337  -292  -281  -295  -330  -376  -416  -430  -397  -300  -172  -78  -45  -40  -28  1  35  68  109  153  182  192  191  196  221  266  296  251  118  -60  -245  -402  -489  -490  -447  -440  -523  -649  -704  -627  -450  -255  -120  -133  -369  -794  -1189  -1144  -279  1370  3318  4978  5818  5492  4140  2281  419  -1006  -1657  -1618  -1280  -905  -606  -453  -398  -356  -305  -257  -228  -219  -206  -167  -94  -20  0  -52  -124  -160  -150  -118  -80  -30  31  75  83  73  66  65  65  63  59  63  87  129  147  121  93  120  189  252  295  334  349  312  264  268  343  451  536  584  627  685  725  711  667  639  650  693  758  847  954  1028  1031  981  923  873  808  704  576  457  350  261  226  239  231  152  21  -98  -158  -169  -185  -246  -335  -392  -382  -338  -311  -306  -300  -311  -358  -445  -575  -724  -828  -836  -748  -613  -488  -410  -400  -454  -542  -646  -751  -827  -852  -808  -679  -506  -370  -320  -358  -475  -637  -768  -816  -789  -727  -665  -613  -572  -547  -537  -533  -531  -548  -606  -702  -798  -867  -907  -918  -882  -785  -654  -549  -493  -455  -412  -382  -402  -488  -600  -669  -681  -671  -663  -655  -645  -637  -627  -608  -574  -533  -501  -476  -449  -439  -470  -505  -471  -354  -213  -89  3  51  54  30  1  -15  -21  -32  -68  -123  -165  -174  -160  -156  -196  -283  -353  -348  -299  -260  -231  -195  -189  -327  -683  -1069  -1026  -177  1439  3432  5250  6272  6112  4930  3197  1382  -75  -923  -1178  -976  -523  -126  -19  -144  -282  -305  -211  -42  153  322  424  455  455  456  458  420  304  148  57  101  250  411  512  555  588  653  738  802  835  859  878  874  853  850  878  922  970  1018  1063  1118  1215  1359  1510  1629  1695  1709  1675  1613  1566  1586  1694  1837  1934  1968  1973  1971  1968  1976  1999  2017  1998  1980  2031  2122  2180  2198  2207  2203  2131  1931  1645  1399  1265  1215  1200  1188  1159  1106  1036  977  941  907  855  807  799  825  842  848  868  887  869  798  680  537  418  361  359  376  385  386  385  389  404  418  392  295  158  49  -3  -18  -22  -29  -37  -40  -32  -9  18  23  -38  -194  -391  -522  -545  -503  -466  -470  -510  -561  -570  -506  -429  -398  -390  -369  -344  -355  -427  -514  -554  -558  -628  -853  -1171  -1398  -1422  -1281  -1111  -1025  -1028  -1050  -1060  -1072  -1115  -1203  -1304  -1358  -1355  -1345  -1350  -1345  -1328  -1322  -1333  -1349  -1369  -1396  -1391  -1257  -932  -520  -242  -248  -544  -997  -1407  -1657  -1756  -1763  -1743  -1731  -1746  -1790  -1839  -1865  -1896  -1995  -2134  -2221  -2241  -2195  -1992  -1529  -721  494  2037  3574  4568  4505  3141  815  -1565  -3132  -3532  -3021  -2233  -1696  -1539  -1613  -1718  -1783  -1846  -1922  -1976  -1980  -1935  -1869  -1812  -1759  -1680  -1579  -1487  -1420  -1369  -1334  -1318  -1313  -1311  -1307  -1303  -1298  -1285  -1253  -1194  -1110  -1011  -913  -830  -776  -754  -754  -766  -786  -800  -762  -622  -400  -204  -110  -102  -124  -126  -62  84  263  387  436  446  441  414  372  360  432  598  800  952  1014  1009  989  970  924  820  666  501  368  296  266  227  158  80  7  -79  -181  -264  -301  -304  -296  -288  -280  -267  -253  -263  -322  -415  -483  -489  -446  -384  -318  -257  -209  -183  -171  -166  -200  -300  -414  -475  -472  -428  -385  -383  -427  -487  -524  -527  -509  -460  -352  -204  -97  -86  -173  -309  -420  -466  -458  -428  -409  -424  -457  -473  -470  -466  -464  -456  -426  -356  -265  -193  -168  -172  -171  -150  -126  -113  -105  -74  -1  86  120  58  -65  -188  -285  -347  -363  -340  -294  -218  -110  0  64  60  15  -26  -38  7  129  287  401  439  434  419  399  366  308  197  12  -209  -374  -441  -447  -439  -423  -388  -343  -329  -358  -378  -337  -330  -493  -723  -759  -425  409  1833  3614  5164  5899  5506  4013  1821  -375  -1833  -2183  -1646  -791  -174  2  -79  -178  -214  -201  -161  -101  -31  34  89  142  198  241  261  257  238  217  198  179  167  172  205  273  364  441  470  445  393  353  354  394  444  478  517  611  769  943  1090  1202  1270  1289  1271  1225  1152  1127  1220  1378  1500  1541  1495  1400  1320  1285  1276  1277  1288  1328  1418  1541  1608  1564  1467  1368  1230  1034  837  734  777  910  1022  1075  1098  1082  961  674  292  -10  -151  -182  -171  -119  3  166  287  320  288  232  170  85  -25  -133  -218  -272  -297  -302  -292  -260  -202  -124  -38  23  34  -13  -113  -238  -339  -392  -409  -410  -399  -372  -335  -303  -285  -282  -287  -290  -286  -283  -289  -298  -297  -282  -269  -271  -277  -272  -251  -218  -175  -127  -89  -102  -217  -424  -629  -745  -770  -743  -674  -537  -325  -103  41  82  56  16  -6  -10  -9  -16  -35  -67  -98  -106  -79  -32  3  16  9  -16  -57  -128  -258  -448  -650  -794  -836  -805  -747  -663  -555  -465  -463  -553  -696  -870  -915  -470  681  2371  4113  5253  5246  3992  1894  -353  -2014  -2625  -2238  -1353  -532  -59  76  -3  -208  -470  -691  -802  -815  -788  -766  -766  -789  -802  -743  -605  -458  -346  -267  -232  -250  -314  -394  -454  -480  -485  -467  -407  -298  -169  -83  -89  -144  -149  -83  -13  12  20  66  175  306  394  421  422  427  433  426  424  508  749  1078  1324  1406  1369  1266  1151  1088  1104  1167  1227  1264  1284  1276  1203  1037  824  648  520  402  281  177  98  32  -39  -123  -214  -305  -388  -456  -487  -481  -479  -517  -587  -631  -574  -431  -305  -260  -267  -282  -297  -337  -431  -554  -638  -656  -629  -585  -550  -536  -536  -543  -552  -557  -537  -475  -394  -343  -338  -354  -369  -379  -391  -418  -459  -497  -505  -471  -421  -388  -378  -379  -383  -390  -406  -418  -388  -282  -135  -23  27  47  56  36  -49  -200  -348  -423  -416  -369  -332  -321  -326  -332  -322  -286  -233  -191  -175  -178  -175  -128  -22  97  167  182  201  274  382  466  503  498  421  229  -24  -209  -267  -247  -223  -256  -383  -563  -700  -728  -641  -480  -354  -380  -559  -725  -563  186  1520  3200  4815  5787  5630  4314  2241  60  -1517  -2059  -1710  -1051  -567  -359  -317  -331  -321  -250  -140  -62  -76  -190  -332  -400  -369  -297  -242  -222  -225  -223  -186  -107  -18  37  55  55  51  36  11  0  14  21  -1  -17  26  139  287  420  508  562  598  610  586  538  505  515  561  611  655  720  841  1026  1220  1336  1343  1278  1196  1142  1121  1101  1070  1040  1023  1011  989  937  838  693  537  423  368  334  264  153  45  -36  -120  -221  -334  -468  -614  -717  -752  -738  -693  -619  -536  -482  -468  -470  -454  -417  -395  -424  -485  -539  -569  -578  -574  -556  -524  -490  -479  -490  -508  -525  -546  -589  -675  -776  -820  -761  -629  -489  -387  -335  -323  -345  -398  -467  -516  -518  -470  -398  -342  -340  -421  -569  -686  -682  -588  -491  -429  -394  -365  -323  -275  -267  -345  -500  -655  -741  -761  -755  -741  -702  -619  -513  -432  -398  -397  -428  -487  -546  -576  -576  -560  -516  -417  -283  -170  -96  -44  -22  -38  -62  -64  -58  -70  -100  -129  -145  -160  -192  -238  -275  -297  -331  -408  -524  -630  -691  -702  -669  -652  -747  -963  -1197  -1267  -880  218  1977  4027  5807  6641  6071  4241  1766  -606  -2096  -2296  -1591  -745  -256  -183  -302  -396  -418  -409  -401  -400  -405  -409  -394  -350  -284  -222  -181  -165  -181  -227  -286  -323  -302  -220  -107  -33  -36  -67  -77  -70  -68  -78  -98  -127  -163  -199  -211  -138  93  463  807  986  1019  1004  1008  1032  1062  1079  1063  1010  932  827  709  631  631  711  874  1109  1357  1530  1587  1552  1482  1409  1314  1172  982  789  651  572  492  362  211  107  68  55  16  -74  -191  -279  -322  -339  -344  -345  -352  -371  -404  -451  -522  -599  -621  -545  -406  -276  -198  -166  -169  -204  -257  -286  -260  -205  -171  -188  -273  -412  -544  -615  -608  -539  -448  -383  -359  -362  -381  -417  -460  -479  -451  -388  -325  -291  -285  -291  -298  -299  -285  -246  -177  -94  -29  -4  -46  -182  -384  -560  -649  -652  -593  -503  -417  -362  -350  -373  -390  -359  -278  -188  -126  -99  -105  -147  -220  -299  -364  -422  -478  -523  -550  -565  -583  -608  -633  -647  -628  -570  -532  -574  -652  -673  -603  -479  -365  -288  -226  -177  -152  -138  -112  -66  -6  44  69  69  60  56  61  75  81  33  -113  -321  -484  -544  -535  -507  -484  -470  -461  -474  -562  -751  -969  -1097  -1041  -694  71  1312  2930  4621  5839  5979  4764  2477  -71  -1918  -2525  -2048  -1095  -300  4  -119  -378  -560  -640  -633  -537  -394  -288  -277  -367  -500  -602  -652  -665  -642  -557  -417  -274  -174  -123  -106  -117  -142  -156  -130  -65  3  33  15  -7  8  75  179  290  373  422  463  534  651  776  843  822  765  731  736  773  858  1022  1227  1374  1426  1437  1457  1466  1415  1315  1234  1209  1216  1212  1164  1075  984  927  908  893  839  724  556  362  180  36  -73  -175  -263  -290  -243  -167  -109  -111  -211  -403  -605  -731  -768  -766  -769  -763  -709  -599  -474  -362  -275  -196  -98  -6  30  0  -78  -151  -167  -119  -64  -104  -278  -502  -662  -713  -682  -637  -608  -567  -499  -439  -415  -416  -423  -426  -421  -407  -393  -409  -473  -559  -604  -572  -497  -440  -422  -426  -428  -421  -413  -408  -406  -411  -435  -485  -555  -633  -674  -642  -544  -406  -271  -201  -210  -244  -258  -247  -223  -198  -173  -144  -107  -39  74  196  237  140  -44  -206  -286  -301  -266  -166  -14  141  262  338  372  370  308  158  -38  -188  -251  -258  -247  -231  -223  -232  -258  -286  -312  -323  -267  -125  -91  -404  -949  -1311  -1119  -161  1463  3230  4518  5011  4677  3610  2063  425  -911  -1675  -1791  -1431  -960  -664  -543  -481  -408  -306  -206  -151  -141  -148  -148  -132  -108  -90  -84  -84  -84  -84  -92  -110  -129  -129  -112  -95  -91  -96  -95  -69  -6  71  115  102  54  24  57  166  316  450  531  560  559  556  567  593  620  634  635  645  701  832  1022  1211  1362  1448  1442  1368  1292  1231  1176  1145  1144  1148  1136  1111  1069  952  687  327  29  -138  -228  -292  -346  -382  -389  -385  -405  -455  -515  -570  -619  -660  -673  -649  -618  -631  -711  -820  -881  -858  -764  -635  -521  -461  -447  -449  -454  -464  -490  -527  -568  -620  -685  -742  -764  -750  -723  -714  -739  -787  -813  -786  -734  -686  -626  -540  -445  -364  -323  -360  -497  -688  -834  -884  -837  -702  -534  -432  -450  -549  -647  -695  -695  -675  -658  -638  -603  -565  -540  -523  -508  -496  -490  -489  -491  -494  -496  -495  -490  -484  -483  -496  -537  -599  -649  -665  -648  -605  -542  -466  -388  -320  -246  -141  -28  60  128  176  194  181  148  116  74  -28  -209  -404  -536  -598  -638  -668  -653  -586  -519  -500  -534  -593  -669  -803  -1009  -1201  -1237  -960  -233  941  2479  4143  5383  5651  4791  3040  952  -759  -1616  -1691  -1369  -920  -513  -312  -321  -406  -457  -449  -434  -465  -514  -511  -426  -302  -212  -186  -193  -205  -215  -220  -203  -138  -40  26  27  0  -21  -50  -92  -128  -136  -101  -26  81  201  299  377  475  599  708  767  800  853  927  980  998  1010  1046  1107  1178  1263  1358  1438  1488  1518  1538  1551  1559  1545  1491  1415  1361  1342  1320  1255  1170  1120  1121  1135  1082  889  588  308  121  -1  -89  -133  -143  -147  -170  -217  -273  -316  -338  -346  -352  -365  -382  -397  -405  -407  -406  -403  -398  -395  -409  -441  -474  -488  -462  -385  -279  -201  -173  -179  -203  -235  -267  -293  -309  -313  -312  -316  -329  -346  -354  -330  -260  -166  -96  -73  -79  -93  -101  -82  -10  97  167  156  112  89  82  66  25  -13  0  73  168  236  247  234  259  310  331  313  279  246  237  250  263  266  262  261  275  292  284  236  161  90  42  27  48  91  125  125  95  63  47  40  35  40  84  188  331  460  534  561  567  567  564  558  550  530  480  410  353  319  278  192  78  -6  -29  -8  28  58  61  9  -99  -182  -173  -192  -408  -766  -981  -710  295  2004  3968  5505  6054  5383  3660  1410  -627  -1771  -1844  -1269  -598  -164  -96  -299  -561  -773  -937  -1056  -1105  -1063  -923  -702  -468  -313  -267  -285  -326  -367  -393  -397  -388  -377  -394  -470  -609  -772  -883  -881  -782  -665  -588  -569  -579  -547  -446  -339  -286  -274  -246  -159  -35  55  85  79  67  62  65  73  96  153  263  432  631  788  859  870  856  807  690  513  348  256  231  234  226  174  64  -66  -157  -191  -216  -273  -351  -424  -529  -735  -995  -1170  -1188  -1116  -1044  -1014  -1010  -1000  -960  -899  -881  -952  -1051  -1114  -1174  -1239  -1251  -1182  -1070  -990  -979  -995  -993  -980  -975  -983  -997  -1007  -1011  -1012  -1008  -999  -982  -950  -896  -826  -763  -713  -660  -598  -543  -514  -519  -563  -642  -732  -805  -841  -826  -766  -694  -630  -573  -510  -440  -377  -337  -324  -329  -339  -342  -336  -336  -362  -406  -441  -456  -464  -468  -451  -405  -358  -331  -308  -276  -253  -250  -272  -310  -370  -460  -525  -512  -461  -421  -392  -372  -366  -367  -368  -367  -363  -360  -357  -353  -348  -341  -335  -333  -321  -282  -234  -213  -217  -178  -11  272  548  701  723  658  544  406  256  124  48  5  -59  -161  -278  -381  -440  -454  -445  -440  -452  -461  -419  -319  -252  -371  -657  -718  -47  1520  3720  5905  7174  6887  5141  2628  223  -1328  -1716  -1248  -588  -236  -253  -396  -423  -268  -26  144  152  5  -199  -346  -399  -397  -367  -296  -185  -72  3  39  49  36  -2  -53  -89  -96  -80  -59  -32  25  130  248  327  362  403  518  733  951  1043  1019  969  919  870  844  852  899  995  1146  1326  1482  1578  1630  1668  1693  1693  1660  1608  1560  1516  1443  1337  1223  1131  1080  1066  1063  1048  1011  949  846  670  392  49  -229  -333  -292  -201  -115  -84  -146  -275  -388  -408  -340  -230  -95  36  93  34  -90  -182  -194  -164  -134  -115  -109  -140  -233  -359  -455  -493  -493  -458  -373  -262  -194  -217  -300  -371  -394  -385  -368  -355  -357  -395  -472  -563  -630  -659  -666  -659  -652  -661  -664  -645  -618  -586  -537  -454  -345  -249  -197  -190  -215  -262  -322  -386  -439  -459  -430  -355  -269  -208  -184  -179  -179  -193  -241  -321  -412  -483  -508  -477  -413  -350  -293  -234  -195  -193  -199  -187  -169  -183  -272  -448  -637  -719  -647  -497  -377  -311  -259  -208  -159  -101  -40  23  101  163  172  132  69  -1  -77  -150  -194  -203  -196  -196  -221  -298  -442  -613  -745  -818  -860  -893  -915  -930  -943  -940  -897  -872  -995  -1264  -1403  -1024  106  1880  3874  5470  6078  5480  3888  1756  -301  -1710  -2286  -2213  -1759  -1179  -728  -512  -442  -434  -467  -527  -594  -652  -691  -694  -647  -564  -488  -447  -420  -364  -274  -185  -123  -94  -81  -59  -25  13  45  61  61  62  77  102  116  112  111  160  288  457  585  637  660  728  860  996  1048  989  884  811  788  789  794  820  917  1101  1295  1390  1372  1301  1229  1189  1201  1243  1269  1224  1071  852  672  581  549  523  448  313  165  55  -16  -74  -137  -209  -253  -231  -178  -146  -149  -178  -216  -243  -253  -252  -243  -220  -176  -121  -81  -79  -128  -223  -328  -400  -425  -406  -349  -273  -213  -183  -178  -185  -188  -184  -170  -142  -110  -96  -111  -147  -185  -212  -244  -290  -348  -414  -475  -509  -495  -426  -328  -250  -211  -208  -240  -296  -334  -312  -250  -216  -243  -308  -374  -421  -451  -469  -482  -500  -517  -527  -532  -532  -517  -477  -425  -389  -374  -347  -280  -201  -172  -215  -291  -361  -407  -421  -377  -248  -70  78  165  210  236  263  313  395  492  568  567  421  116  -228  -459  -553  -581  -573  -503  -391  -317  -336  -417  -495  -551  -633  -759  -792  -541  45  967  2236  3634  4649  4796  3921  2243  186  -1694  -2794  -2901  -2347  -1563  -880  -493  -328  -222  -137  -99  -110  -151  -194  -229  -274  -336  -400  -444  -460  -445  -382  -265  -134  -34  16  32  36  41  50  59  60  57  63  96  156  226  292  347  376  371  342  321  338  394  469  535  597  693  830  980  1117  1228  1307  1383  1479  1575  1626  1620  1574  1506  1415  1303  1200  1129  1067  992  911  825  719  601  478  339  192  62  -31  -88  -127  -172  -244  -336  -415  -464  -481  -464  -413  -336  -271  -277  -371  -489  -548  -521  -463  -430  -423  -410  -377  -341  -337  -371  -424  -470  -495  -481  -423  -346  -290  -270  -269  -275  -293  -330  -377  -420  -465  -530  -638  -801  -986  -1101  -1026  -689  -202  187  346  312  119  -228  -617  -831  -771  -557  -373  -285  -245  -193  -136  -121  -150  -171  -153  -123  -140  -223  -316  -338  -286  -221  -178  -158  -154  -159  -164  -158  -138  -108  -82  -70  -70  -75  -89  -117  -145  -149  -100  -9  49  17  -58  -114  -149  -181  -207  -233  -280  -361  -463  -555  -621  -663  -680  -635  -476  -228  -50  -134  -541  -1088  -1394  -1094  -52  1533  3185  4370  4692  3999  2467  571  -1176  -2405  -2915  -2745  -2144  -1457  -997  -841  -822  -799  -752  -695  -657  -679  -728  -742  -706  -649  -618  -620  -598  -526  -445  -385  -343  -315  -300  -294  -298  -309  -311  -274  -188  -92  -4  96  199  264  289  289  284  306  389  515  615  664  695  734  768  787  803  856  983  1168  1375  1578  1708  1690  1538  1333  1168  1089  1079  1102  1133  1157  1182  1230  1254  1172  971  709  478  340  271  208  133  35  -124  -308  -424  -428  -346  -255  -221  -236  -252  -249  -244  -277  -379  -507  -551  -446  -258  -114  -62  -61  -71  -100  -173  -278  -369  -413  -412  -379  -329  -278  -242  -229  -233  -249  -272  -317  -413  -542  -654  -718  -751  -800  -864  -876  -815  -741  -704  -701  -707  -707  -703  -706  -719  -731  -729  -713  -697  -689  -691  -695  -695  -711  -769  -845  -864  -774  -616  -506  -507  -562  -607  -640  -684  -750  -840  -929  -979  -970  -903  -782  -620  -436  -275  -212  -276  -405  -498  -509  -451  -342  -199  -63  34  106  170  188  123  21  -54  -103  -170  -300  -471  -611  -681  -697  -694  -698  -714  -715  -642  -488  -374  -404  -582  -908  -1270  -1293  -587  910  2852  4609  5554  5340  4025  2103  230  -1163  -1901  -1980  -1618  -1142  -835  -814  -941  -1010  -951  -781  -570  -417  -363  -379  -450  -570  -708  -807  -821  -727  -551  -374  -272  -245  -262  -311  -397  -509  -623  -707  -726  -665  -506  -250  11  130  51  -117  -201  -116  64  211  275  290  283  252  191  128  136  272  528  826  1057  1159  1165  1144  1151  1213  1309  1375  1333  1143  880  690  637  674  734  777  784  737  632  500  381  273  163  46  -105  -308  -505  -639  -724  -784  -797  -740  -644  -572  -548  -552  -559  -559  -546  -502  -392  -229  -125  -162  -250  -271  -230  -175  -116  -64  -41  -51  -86  -129  -163  -176  -158  -101  -19  47  76  77  70  62  57  71  118  187  240  251  227  197  207  269  332  351  334  322  333  345  335  308  284  277  299  391  558  687  673  581  531  540  560  566  554  533  517  529  606  760  948  1098  1171  1191  1200  1199  1133  940  655  404  275  274  391  621  915  1184  1364  1459  1503  1510  1495  1502  1564  1670  1780  1853  1873  1837  1733  1584  1439  1321  1221  1132  1057  998  932  816  635  444  310  237  209  193  138  54  7  29  231  827  1887  3202  4481  5449  5707  4915  3232  1283  -322  -1200  -1291  -975  -677  -504  -380  -236  -87  2  13  -21  -63  -108  -170  -236  -278  -299  -312  -286  -164  69  340  538  614  568  411  197  13  -94  -100  12  192  346  422  429  413  439  554  732  904  1032  1110  1139  1126  1077  984  864  784  809  946  1147  1333  1461  1544  1614  1676  1717  1731  1715  1672  1612  1553  1488  1385  1223  999  746  532  396  310  224  129  28  -109  -332  -616  -855  -995  -1063  -1096  -1115  -1140  -1175  -1207  -1235  -1269  -1306  -1332  -1343  -1344  -1343  -1340  -1335  -1331  -1342  -1390  -1476  -1577  -1669  -1741  -1790  -1803  -1773  -1748  -1775  -1844  -1907  -1942  -1957  -1948  -1894  -1795  -1682  -1625  -1685  -1830  -1950  -1990  -1991  -2020  -2096  -2160  -2132  -2037  -1948  -1920  -1997  -2129  -2191  -2160  -2101  -2053  -2019  -2004  -2033  -2151  -2349  -2537  -2626  -2610  -2549  -2495  -2453  -2403  -2344  -2297  -2273  -2268  -2268  -2268  -2264  -2255  -2254  -2279  -2327  -2347  -2294  -2186  -2090  -2049  -2062  -2100  -2142  -2201  -2295  -2422  -2550  -2626  -2592  -2398  -2037  -1630  -1362  -1301  -1375  -1481  -1554  -1577  -1554  -1485  -1379  -1272  -1193  -1153  -1143  -1141  -1141  -1159  -1223  -1321  -1408  -1449  -1453  -1447  -1447  -1458  -1476  -1501  -1530  -1567  -1599  -1614  -1580  -1425  -1161  -906  -638  -111  873  2324  4029  5418  5792  4884  2956  574  -1511  -2637  -2660  -1981  -1109  -394  6  117  37  -164  -399  -547  -553  -468  -364  -284  -242  -231  -223  -172  -48  114  238  288  279  242  208  186  173  181  209  247  305  394  504  592  597  528  464  454  471  475  458  462  559  798  1133  1440  1626  1695  1700  1685  1671  1679  1724  1797  1871  1934  1983  2007  1997  1973  1988  2065  2126  2085  1946  1734  1467  1201  1004  910  896  900  875  795  659  508  410  388  400  383  292  150  29  -37  -58  -43  12  131  308  475  564  566  505  415  331  278  260  269  290  301  289  268  257  255  247  223  211  264  385  493  533  528  515  510  514  536  580  641  696  718  695  664  679  757  901  1086  1240  1312  1324  1316  1296  1249  1174  1092  1035  1045  1099  1127  1120  1105  1080  1047  1008  952  883  827  800  802  828  872  912  927  917  897  879  878  914  985  1046  1019  879  674  513  522  735  1056  1351  1521  1552  1498  1415  1343  1301  1295  1316  1342  1358  1372  1383  1381  1336  1219  1043  844  650  481  347  231  127  58  38  55  79  87  75  57  36  -53  -304  -614  -648  -125  997  2539  4064  4982  4919  3882  2143  197  -1386  -2224  -2281  -1885  -1437  -1082  -840  -770  -832  -907  -930  -904  -868  -857  -859  -821  -693  -491  -290  -155  -140  -262  -440  -564  -606  -602  -594  -599  -601  -566  -472  -321  -138  29  140  197  236  268  281  277  284  332  423  526  602  602  513  424  425  497  577  643  713  791  854  895  927  958  972  957  919  874  838  821  818  813  784  720  639  529  305  -49  -386  -576  -653  -719  -832  -954  -998  -962  -905  -850  -814  -816  -858  -925  -977  -989  -980  -955  -897  -800  -667  -531  -446  -423  -441  -477  -507  -511  -474  -390  -286  -190  -123  -133  -261  -463  -633  -714  -707  -655  -615  -614  -629  -590  -451  -281  -207  -250  -312  -330  -317  -303  -297  -297  -313  -348  -382  -382  -347  -312  -295  -289  -289  -313  -377  -465  -527  -542  -530  -509  -483  -457  -450  -486  -553  -580  -499  -349  -269  -342  -505  -639  -693  -702  -705  -714  -718  -711  -696  -683  -680  -679  -662  -616  -557  -517  -502  -465  -355  -184  -22  70  83  44  -2  -39  -83  -164  -297  -462  -608  -688  -692  -661  -636  -636  -649  -641  -559  -402  -302  -416  -763  -1246  -1626  -1472  -481  1184  3037  4533  5223  4896  3650  1855  7  -1383  -1979  -1869  -1437  -1043  -848  -797  -768  -726  -700  -691  -702  -767  -860  -894  -854  -800  -784  -806  -805  -700  -465  -182  -8  -39  -252  -528  -727  -794  -744  -584  -338  -81  123  254  297  261  200  161  159  203  299  438  578  669  721  785  873  948  988  1007  1023  1058  1131  1259  1444  1633  1751  1781  1755  1706  1660  1629  1580  1460  1273  1086  949  853  738  530  245  1  -112  -123  -112  -136  -201  -279  -335  -358  -361  -370  -416  -516  -638  -717  -735  -719  -686  -627  -538  -461  -463  -541  -628  -678  -694  -691  -663  -602  -526  -473  -463  -493  -550  -610  -650  -667  -668  -658  -632  -581  -516  -464  -444  -472  -563  -687  -786  -827  -812  -750  -661  -580  -524  -477  -422  -375  -373  -417  -480  -523  -512  -467  -447  -449  -435  -409  -395  -381  -330  -229  -113  -30  5  0  -54  -166  -298  -388  -416  -412  -401  -385  -366  -367  -421  -510  -575  -591  -582  -571  -568  -572  -589  -608  -594  -492  -296  -91  25  27  -39  -118  -204  -329  -456  -480  -338  -83  157  300  334  287  202  122  67  39  24  13  -8  -62  -157  -264  -339  -369  -370  -361  -353  -349  -346  -338  -316  -273  -251  -346  -590  -902  -1152  -1046  -156  1570  3640  5389  6245  5885  4414  2351  345  -1130  -1792  -1656  -1184  -852  -748  -744  -742  -722  -708  -708  -713  -709  -663  -540  -378  -274  -275  -334  -381  -386  -363  -336  -317  -307  -303  -306  -321  -343  -355  -344  -299  -215  -101  15  106  165  202  227  241  255  290  361  459  560  644  720  813  923  1030  1122  1213  1312  1381  1417  1482  1591  1684  1719  1718  1714  1717  1713  1671  1573  1427  1257  1093  932  754  585  471  400  303  139  -65  -240  -332  -355  -367  -415  -493  -555  -578  -586  -615  -689  -792  -864  -846  -722  -547  -406  -324  -275  -245  -228  -211  -192  -176  -185  -258  -426  -626  -724  -651  -486  -358  -316  -326  -340  -333  -295  -239  -199  -189  -198  -216  -241  -271  -296  -312  -322  -330  -344  -375  -443  -558  -709  -845  -924  -945  -915  -820  -663  -469  -284  -168  -149  -203  -308  -437  -529  -560  -558  -551  -541  -512  -475  -471  -499  -479  -388  -288  -237  -256  -330  -415  -475  -498  -460  -339  -173  -55  -36  -104  -203  -280  -319  -334  -325  -265  -147  -51  -103  -287  -456  -524  -526  -507  -469  -398  -293  -186  -131  -148  -187  -197  -174  -131  -75  -4  82  176  264  340  396  413  342  135  -147  -360  -438  -438  -425  -419  -396  -338  -259  -185  -147  -201  -364  -564  -736  -951  -1281  -1562  -1501  -990  -100  1079  2485  3995  5300  5936  5519  3985  1760  -334  -1569  -1751  -1253  -716  -562  -728  -923  -985  -914  -766  -606  -484  -419  -403  -400  -356  -252  -157  -144  -190  -229  -244  -245  -221  -158  -70  0  21  5  -14  5  87  204  306  379  438  485  517  549  584  603  595  593  622  679  756  838  909  972  1047  1170  1327  1455  1519  1541  1549  1565  1606  1669  1722  1744  1740  1722  1694  1641  1560  1473  1397  1291  1098  843  612  429  250  72  -46  -87  -94  -113  -149  -195  -250  -299  -326  -341  -367  -404  -416  -371  -301  -265  -288  -348  -405  -440  -461  -484  -515  -553  -589  -601  -579  -546  -531  -536  -551  -565  -578  -592  -597  -580  -538  -493  -466  -460  -465  -480  -510  -556  -607  -644  -658  -651  -617  -548  -449  -346  -275  -253  -281  -358  -460  -546  -603  -639  -644  -614  -566  -525  -503  -497  -500  -502  -490  -459  -418  -388  -376  -372  -372  -385  -424  -478  -518  -534  -539  -544  -556  -575  -585  -547  -437  -313  -274  -331  -404  -438  -443  -442  -432  -396  -339  -296  -302  -365  -453  -515  -526  -491  -421  -339  -283  -263  -265  -281  -315  -360  -395  -409  -413  -412  -399  -364  -319  -293  -300  -311  -258  -74  198  429  536  533  446  289  111  -28  -129  -226  -328  -407  -458  -504  -553  -588  -598  -583  -551  -505  -468  -510  -685  -934  -1067  -814  68  1635  3619  5408  6278  5796  4096  1824  -270  -1623  -1995  -1636  -1038  -553  -335  -336  -396  -410  -369  -306  -253  -223  -212  -223  -262  -324  -352  -291  -157  -10  98  142  126  62  -38  -137  -194  -201  -177  -142  -110  -82  -64  -55  -35  27  153  319  466  563  621  660  689  705  706  707  758  914  1137  1312  1380  1373  1342  1315  1299  1289  1290  1310  1339  1380  1455  1554  1628  1645  1615  1554  1437  1213  920  674  514  376  211  46  -68  -123  -161  -225  -314  -398  -452  -486  -524  -572  -619  -654  -672  -661  -600  -483  -354  -268  -248  -289  -380  -488  -563  -570  -511  -413  -314  -248  -238  -286  -380  -470  -496  -468  -434  -399  -360  -340  -359  -423  -504  -542  -501  -411  -334  -304  -309  -313  -303  -291  -291  -304  -315  -308  -271  -212  -182  -226  -300  -327  -266  -123  26  104  90  4  -113  -212  -287  -356  -431  -523  -613  -651  -618  -549  -489  -452  -431  -429  -451  -484  -498  -475  -432  -399  -388  -391  -390  -379  -357  -320  -254  -171  -106  -81  -103  -181  -305  -437  -548  -626  -658  -615  -476  -291  -157  -113  -120  -134  -138  -132  -120  -112  -131  -194  -282  -350  -371  -342  -266  -173  -110  -89  -92  -98  -95  -76  -44  -12  5  8  4  -4  -15  -26  -37  -52  -82  -151  -256  -351  -410  -449  -467  -468  -473  -485  -486  -458  -399  -369  -477  -703  -732  -153  1140  2904  4667  5776  5700  4411  2332  103  -1613  -2438  -2428  -1926  -1337  -937  -718  -506  -262  -96  -68  -154  -297  -423  -498  -542  -562  -544  -502  -468  -451  -423  -344  -210  -52  80  155  173  164  154  147  141  143  174  251  358  464  549  614  673  731  784  837  892  932  951  952  943  943  1001  1161  1385  1566  1652  1684  1720  1777  1837  1876  1895  1911  1926  1908  1810  1624  1421  1276  1186  1107  1018  914  778  592  381  213  110  28  -52  -106  -123  -144  -229  -381  -538  -633  -660  -643  -600  -547  -506  -491  -517  -597  -709  -793  -791  -678  -485  -304  -214  -224  -299  -387  -447  -473  -471  -446  -417  -404  -400  -391  -372  -352  -336  -320  -299  -286  -315  -412  -549  -659  -732  -813  -907  -949  -886  -747  -610  -518  -459  -415  -396  -416  -463  -519  -558  -558  -522  -477  -448  -481  -596  -746  -864  -904  -842  -693  -523  -412  -379  -390  -408  -420  -426  -441  -482  -537  -578  -591  -592  -597  -612  -633  -649  -654  -667  -724  -822  -898  -878  -734  -517  -325  -210  -162  -161  -196  -259  -338  -413  -463  -477  -447  -358  -219  -57  109  245  289  238  174  156  156  122  61  10  -24  -79  -180  -297  -377  -402  -393  -372  -348  -327  -320  -336  -363  -347  -265  -223  -356  -585  -572  30  1273  2867  4332  5157  5024  3962  2299  508  -962  -1834  -2041  -1726  -1184  -692  -386  -272  -273  -314  -369  -429  -471  -484  -469  -429  -378  -329  -278  -224  -173  -115  -39  34  101  180  260  300  273  180  62  -32  -82  -67  7  96  192  328  483  596  662  722  774  761  665  557  558  751  1058  1301  1406  1436  1473  1550  1644  1716  1758  1782  1796  1803  1805  1795  1732  1573  1353  1171  1071  1015  960  901  835  718  505  224  -40  -218  -297  -316  -315  -311  -300  -281  -270  -310  -455  -697  -954  -1147  -1249  -1257  -1134  -847  -491  -251  -229  -393  -621  -779  -824  -801  -761  -729  -711  -703  -699  -693  -677  -656  -641  -634  -631  -631  -635  -641  -659  -695  -750  -814  -873  -916  -950  -984  -1011  -1025  -1033  -1046  -1072  -1099  -1083  -960  -718  -461  -335  -394  -567  -748  -884  -972  -1009  -997  -966  -941  -916  -888  -868  -871  -899  -938  -974  -1015  -1066  -1094  -1078  -1050  -1059  -1110  -1162  -1177  -1157  -1121  -1086  -1051  -1013  -981  -984  -1024  -1068  -1087  -1073  -1044  -1012  -971  -926  -898  -891  -901  -929  -987  -1070  -1143  -1176  -1173  -1156  -1139  -1122  -1107  -1103  -1119  -1150  -1186  -1222  -1240  -1212  -1143  -1070  -1025  -1010  -1012  -1008  -974  -891  -751  -551  -337  -204  -197  -291  -439  -589  -688  -729  -751  -782  -824  -885  -985  -1103  -1189  -1234  -1268  -1317  -1391  -1465  -1452  -1260  -1010  -964  -1123  -1196  -863  103  1721  3664  5302  5934  5239  3494  1323  -603  -1739  -1930  -1521  -1036  -769  -724  -786  -864  -936  -992  -993  -903  -753  -621  -563  -566  -586  -566  -458  -273  -93  7  14  -43  -121  -178  -202  -202  -172  -93  13  101  159  221  306  405  508  606  687  763  852  962  1095  1234  1335  1383  1399  1417  1473  1603  1799  2017  2220  2398  2549  2667  2734  2750  2746  2753  2783  2834  2902  2974  3023  3032  2997  2918  2810  2693  2561  2397  2220  2087  2013]
