reading_id,reading_time,wire_id,result_classification,heart_rate,heart_rate_alert,firmware_version,device_app_version,hardware_version,waveform_samples
a7416e90-66f4-11ed-8080-808080808080,Fri Nov 18 03:54:08 UTC 2022,e101e3752439,NSR,86,NONE,20001.171.50,2.10.0,Charge 5,[1975  2726  3261  3551  3671  3700  3706  3721  3759  3847  3988  4136  4236  4286  4302  4274  4175  4012  3829  3666  3529  3412  3307  3214  3149  3121  3114  3108  3102  3087  3034  2925  2772  2624  2532  2492  2446  2363  2257  2163  2111  2113  2163  2234  2294  2328  2347  2365  2381  2388  2363  2290  2194  2138  2162  2241  2332  2407  2482  2595  2752  2915  3049  3144  3208  3264  3334  3418  3495  3554  3601  3637  3642  3566  3376  3127  2915  2764  2639  2533  2466  2440  2431  2378  2171  1775  1339  1064  973  943  878  764  632  494  341  192  88  45  24  -26  -121  -232  -324  -378  -397  -395  -377  -333  -273  -229  -229  -264  -305  -335  -370  -425  -512  -617  -706  -789  -930  -1156  -1417  -1646  -1801  -1889  -1988  -2193  -2472  -2678  -2728  -2653  -2529  -2433  -2458  -2678  -3037  -3375  -3616  -3705  -3393  -2420  -865  919  2455  3122  2515  822  -1390  -3512  -5044  -5728  -5695  -5343  -5045  -4971  -5080  -5248  -5399  -5487  -5492  -5430  -5341  -5271  -5225  -5176  -5123  -5106  -5143  -5183  -5153  -5051  -4947  -4896  -4901  -4928  -4957  -4992  -5017  -4980  -4854  -4688  -4563  -4490  -4414  -4322  -4263  -4242  -4190  -4038  -3824  -3663  -3598  -3582  -3565  -3517  -3408  -3223  -2969  -2672  -2387  -2170  -2023  -1930  -1901  -1949  -2041  -2113  -2146  -2188  -2300  -2476  -2651  -2775  -2841  -2870  -2890  -2917  -2949  -2981  -3009  -3030  -3037  -3026  -3003  -2982  -2968  -2945  -2904  -2844  -2763  -2667  -2577  -2488  -2381  -2273  -2186  -2114  -2032  -1918  -1788  -1693  -1654  -1637  -1610  -1580  -1552  -1511  -1454  -1384  -1313  -1265  -1243  -1228  -1209  -1213  -1278  -1372  -1417  -1396  -1344  -1275  -1206  -1168  -1163  -1170  -1173  -1177  -1209  -1313  -1511  -1745  -1913  -1973  -1952  -1868  -1752  -1660  -1625  -1625  -1628  -1632  -1659  -1705  -1741  -1749  -1732  -1708  -1692  -1688  -1689  -1684  -1658  -1613  -1557  -1507  -1499  -1628  -1966  -2406  -2726  -2847  -2849  -2800  -2708  -2593  -2508  -2476  -2475  -2492  -2578  -2830  -3214  -3521  -3579  -3204  -2097  -222  1966  3902  5139  5321  4388  2700  716  -1155  -2400  -2649  -2122  -1309  -534  -57  30  -64  -152  -191  -184  -180  -231  -353  -508  -626  -685  -707  -719  -762  -871  -1015  -1123  -1185  -1258  -1359  -1434  -1420  -1305  -1143  -1016  -952  -928  -918  -901  -869  -827  -788  -773  -778  -766  -697  -555  -371  -209  -120  -128  -205  -272  -254  -120  74  231  308  340  369  413  434  362  170  -68  -232  -277  -253  -232  -284  -470  -786  -1119  -1328  -1382  -1340  -1250  -1136  -1027  -936  -827  -647  -430  -271  -194  -134  -59  -4  28  110  317  664  1144  1750  2394  2921  3301  3683  4146  4558  4772  4814  4814  4860  4945  4999  4978  4904  4835  4808  4810  4795  4745  4676  4615  4595  4636  4727  4854  4987  5077  5116  5150  5198  5212  5164  5125  5177  5300  5414  5491  5549  5597  5617  5582  5498  5424  5401  5421  5468  5552  5687  5869  6067  6241  6354  6391  6372  6342  6343  6367  6365  6310  6187  5970  5635  5239  4930  4800  4800  4832  4821  4725  4553  4383  4276  4184  3994  3662  3239  2833  2644  2885  3596  4695  6079  7611  9056  9973  9880  8625  6497  4118  2171  1135  1024  1405  1867  2229  2410  2431  2392  2353  2296  2189  2037  1871  1699  1526  1393  1331  1313  1287  1218  1116  1035  1001  991  980  972  970  971  972  976  982  982  973  993  1092  1251  1393  1472  1493  1483  1473  1462  1447  1458  1537  1690  1866  1992  2039  2033  2003  1959  1907  1854  1813  1784  1752  1707  1639  1497  1207  767  322  25  -137  -261  -408  -626  -918  -1189  -1348  -1398  -1404  -1418  -1453  -1504  -1578  -1666  -1734  -1765  -1759  -1726  -1702  -1768  -2004  -2397  -2829  -3174  -3377  -3455  -3454  -3410  -3357  -3360  -3462  -3605  -3697  -3733  -3757  -3784  -3792  -3757  -3665  -3518  -3371  -3305  -3340  -3411  -3460  -3483  -3495  -3503  -3502  -3477  -3448  -3458  -3533  -3646  -3725  -3704  -3569  -3386  -3263  -3245  -3288  -3325  -3329  -3322  -3318  -3293  -3224  -3143  -3125  -3214  -3390  -3557  -3586  -3466  -3309  -3181  -3056  -2919  -2796  -2697  -2609  -2546  -2528  -2547  -2569  -2563  -2552  -2597  -2690  -2761  -2778  -2766  -2757  -2757  -2754  -2742  -2710  -2643  -2558  -2489  -2437  -2381  -2310  -2227  -2186  -2338  -2802  -3418  -3736  -3277  -1854  282  2616  4588  5682  5598  4380  2297  -174  -2256  -3295  -3258  -2585  -1810  -1341  -1264  -1383  -1505  -1589  -1648  -1670  -1643  -1580  -1500  -1403  -1300  -1226  -1197  -1200  -1213  -1217  -1183  -1073  -876  -635  -416  -250  -162  -169  -203  -178  -106  -25  67  160  213  210  173  128  111  201  475  862  1168  1297  1308  1290  1284  1299  1335  1380  1416  1448  1487  1518  1533  1549  1582  1583  1461  1216  958  764  618  481  334  150  -117  -463  -763  -893  -851  -739  -653  -604  -547  -479  -437  -436  -450  -462  -486  -531  -571  -575  -553  -529  -506  -482  -463  -455  -453  -460  -485  -519  -513  -429  -302  -205  -172  -184  -206  -225  -242  -240  -186  -85  -8  4  -17  -49  -128  -284  -470  -598  -635  -610  -538  -414  -274  -180  -154  -163  -175  -169  -132  -72  -32  -33  -45  -49  -59  -112  -263  -495  -687  -746  -712  -677  -680  -688  -637  -476  -255  -83  5  62  127  194  233  232  211  165  91  38  41  84  150  205  186  44  -203  -469  -651  -702  -678  -671  -690  -691  -666  -656  -655  -626  -641  -775  -841  -521  387  1923  3841  5573  6571  6557  5518  3709  1569  -324  -1379  -1477  -1037  -516  -191  -151  -309  -511  -641  -660  -572  -423  -301  -251  -251  -263  -268  -270  -279  -290  -284  -238  -147  -35  78  182  266  321  348  354  350  352  376  430  490  523  516  500  544  715  992  1277  1494  1623  1681  1723  1804  1912  1983  1987  1957  1943  1958  1984  2001  1999  1966  1892  1779  1628  1417  1147  867  641  512  474  442  249  -231  -874  -1371  -1589  -1666  -1745  -1817  -1821  -1777  -1747  -1744  -1746  -1723  -1662  -1582  -1523  -1500  -1491  -1456  -1373  -1268  -1221  -1275  -1361  -1381  -1305  -1184  -1086  -1035  -996  -913  -737  -505  -323  -259  -320  -492  -704  -852  -895  -872  -825  -771  -719  -684  -670  -672  -684  -712  -760  -788  -739  -606  -453  -352  -326  -344  -362  -364  -362  -372  -410  -476  -560  -641  -697  -714  -670  -552  -398  -283  -223  -179  -139  -101  -56  -16  2  22  88  219  406  604  747  769  634  389  174  74  59  63  41  -19  -111  -217  -291  -297  -228  -76  134  325  397  253  -116  -496  -530  89  1495  3503  5577  7035  7338  6312  4288  1996  148  -850  -919  -391  122  250  108  -22  -29  57  172  259  301  311  310  308  305  292  269  250  226  179  123  92  97  127  143  113  23  -103  -218  -308  -413  -530  -598  -518  -259  24  174  239  299  323  305  303  381  565  815  1066  1270  1397  1443  1440  1424  1417  1447  1554  1736  1905  1945  1804  1542  1260  1007  791  631  545  522  537  550  489  297  32  -179  -304  -416  -557  -688  -760  -767  -735  -700  -716  -855  -1141  -1465  -1667  -1719  -1711  -1720  -1751  -1744  -1647  -1508  -1413  -1383  -1386  -1412  -1473  -1567  -1671  -1761  -1806  -1789  -1727  -1642  -1553  -1492  -1469  -1468  -1473  -1481  -1501  -1532  -1541  -1499  -1426  -1359  -1311  -1278  -1261  -1258  -1263  -1272  -1271  -1236  -1161  -1098  -1092  -1068  -939  -764  -612  -457  -310  -229  -224  -261  -304  -338  -339  -268  -130  1  59  51  20  -25  -125  -288  -441  -501  -478  -447  -451  -477  -498  -506  -500  -451  -320  -162  -146  -355  -676  -848  -550  423  2012  3890  5574  6570  6546  5442  3545  1407  -339  -1265  -1377  -1017  -586  -306  -154  -87  -117  -194  -262  -304  -321  -334  -361  -413  -488  -569  -639  -689  -715  -705  -637  -494  -301  -139  -62  -50  -57  -64  -72  -81  -83  -60  3  136  357  638  889  1035  1097  1183  1391  1723  2061  2282  2369  2387  2409  2474  2575  2684  2783  2872  2943  2983  2993  2988  2977  2948  2875  2722  2486  2238  2082  2027  1980  1871  1732  1609  1492  1398  1360  1369  1399  1432  1455  1462  1456  1450  1457  1472  1486  1493  1503  1541  1628  1746  1833  1862  1857  1853  1867  1893  1903  1887  1878  1919  2054  2309  2606  2788  2780  2634  2463  2344  2265  2204  2156  2100  2018  1924  1842  1788  1756  1714  1635  1537  1449  1355  1219  1054  913  825  784  771  760  730  696  675  650  577  385  38  -358  -630  -751  -872  -1147  -1597  -2091  -2479  -2742  -2934  -3067  -3127  -3146  -3177  -3256  -3358  -3429  -3486  -3614  -3848  -4128  -4340  -4325  -3907  -2962  -1523  121  1498  2141  1757  434  -1390  -3211  -4566  -5128  -4908  -4295  -3777  -3548  -3511  -3542  -3593  -3641  -3670  -3675  -3669  -3662  -3651  -3628  -3601  -3603  -3655  -3739  -3806  -3831  -3813  -3753  -3664  -3563  -3464  -3381  -3328  -3304  -3306  -3303  -3260  -3205  -3169  -3098  -2894  -2552  -2193  -1922  -1736  -1575  -1369  -1059  -660  -283  -54  22  43  68  106  201  415  705  932  1026  1025  981  899  769  606  434  255  71  -94  -221  -300  -346  -413  -553  -759  -976  -1157  -1273  -1323  -1348  -1377  -1386  -1304  -1091  -818  -608  -520  -512  -524  -532  -548  -589  -645  -686  -704  -717  -731  -704  -563  -297  -23  125  144  119  100  85  65  47  38  24  -13  -68  -120  -161  -201  -234  -247  -249  -241  -209  -139  -50  34  133  274  431  544  580  544  470  406  397  450  529  612  701  738  631  378  87  -134  -286  -420  -541  -605  -589  -519  -424  -308  -179  -55  10  -96  -408  -703  -688  -199  850  2357  3971  5314  6055  5946  4949  3297  1488  20  -857  -1097  -849  -467  -226  -150  -150  -147  -113  -34  116  336  553  667  587  276  -147  -450  -502  -349  -122  60  180  284  383  451  479  490  502  529  591  692  795  880  954  1004  1019  1046  1161  1377  1611  1777  1876  1938  1973  1994  2028  2073  2093  2058  1988  1945  1984  2101  2234  2324  2346  2267  2050  1750  1484  1276  1063  846  687  600  553  530  513  466  359  186  -19  -180  -244  -234  -194  -132  -49  35  98  129  140  147  150  120  31  -89  -178  -210  -212  -208  -186  -122  -10  138  307  450  527  564  608  636  582  437  277  164  95  42  -13  -97  -206  -291  -318  -304  -283  -288  -310  -300  -188  76  449  781  914  774  468  222  153  215  318  407  474  530  547  477  313  114  -36  -88  -54  6  43  37  -11  -84  -152  -160  -77  0  -58  -283  -598  -750  -346  843  2666  4627  6114  6660  6113  4633  2617  652  -710  -1286  -1274  -974  -646  -459  -390  -339  -284  -243  -218  -207  -216  -264  -352  -446  -503  -511  -485  -443  -400  -362  -319  -261  -207  -194  -222  -254  -250  -167  9  217  367  433  456  463  457  449  461  531  663  814  930  999  1043  1091  1151  1230  1349  1527  1758  1981  2094  2054  1933  1834  1779  1718  1615  1472  1320  1194  1095  985  856  730  550  225  -192  -518  -655  -665  -647  -655  -693  -743  -777  -790  -790  -787  -781  -776  -781  -809  -868  -946  -1016  -1057  -1075  -1076  -1029  -887  -651  -403  -238  -193  -290  -552  -894  -1140  -1198  -1111  -969  -837  -740  -674  -648  -677  -767  -900  -1023  -1056  -965  -811  -694  -649  -643  -641  -637  -625  -604  -572  -531  -493  -472  -472  -488  -512  -541  -584  -640  -667  -637  -585  -550  -529  -505  -490  -527  -659  -871  -1073  -1200  -1272  -1316  -1336  -1334  -1308  -1239  -1094  -877  -699  -688  -898  -1285  -1547  -1196  49  2029  4180  5801  6421  5857  4213  1960  -226  -1786  -2452  -2314  -1704  -1014  -568  -477  -601  -763  -887  -958  -980  -974  -932  -845  -738  -662  -633  -622  -607  -577  -535  -506  -492  -464  -418  -381  -370  -375  -365  -325  -282  -260  -213  -68  132  283  394  521  660  803  939  1036  1104  1198  1330  1466  1595  1712  1791  1814  1795  1747  1681  1599  1477  1290  1074  909  823  770  716  655  564  406  202  13  -156  -363  -671  -1082  -1478  -1702  -1718  -1630  -1551  -1517  -1516  -1525  -1522  -1493  -1443  -1398  -1371  -1356  -1357  -1385  -1445  -1519  -1571  -1570  -1508  -1401  -1283  -1183  -1119  -1099  -1127  -1200  -1291  -1353  -1369  -1367  -1382  -1426  -1466  -1473  -1469  -1490  -1526  -1526  -1461  -1355  -1287  -1335  -1479  -1612  -1673  -1675  -1646  -1593  -1508  -1398  -1307  -1291  -1344  -1404  -1423  -1395  -1329  -1226  -1097  -979  -914  -901  -909  -913  -901  -873  -835  -793  -753  -724  -699  -676  -679  -733  -814  -868  -862  -804  -748  -734  -750  -773  -795  -813  -817  -806  -787  -774  -778  -790  -802  -779  -548  190  1614  3517  5361  6497  6455  5189  3103  874  -823  -1644  -1733  -1482  -1188  -979  -874  -824  -780  -736  -709  -703  -687  -614  -504  -421  -377  -338  -298  -279  -293  -320  -347  -397  -480  -549  -534  -408  -226  -90  -39  -31  -17  25  94  160  193  188  172  206  351  598  836  967  1006  1037  1125  1279  1459  1613  1721  1809  1891  1950  1969  1940  1854  1736  1646  1616  1615  1556  1358  1059  805  674  619  568  479  334  167  52  22  31  -8  -158  -374  -545  -627  -649  -630  -539  -344  -101  64  84  -21  -173  -285  -324  -291  -185  -35  87  142  145  132  122  116  111  111  112  112  110  100  77  48  28  22  19  8  -7  -21  -36  -60  -88  -115  -140  -146  -126  -111  -130  -164  -185  -195  -199  -192  -166  -130  -92  -38  31  57  -2  -73  -46  65  174  244  282  297  280  208  77  -74  -182  -196  -101  81  292  448  517  516  446  287  60  -156  -294  -352  -370  -384  -403  -407  -368  -275  -183  -178  -271  -399  -530  -637  -682  -698  -704  -591  -232  485  1726  3460  5217  6403  6663  5855  4096  1877  -135  -1407  -1761  -1453  -971  -659  -581  -631  -700  -744  -762  -773  -791  -818  -853  -889  -890  -833  -756  -681  -581  -455  -337  -253  -204  -192  -223  -288  -357  -396  -378  -294  -177  -81  -33  -22  -21  22  155  349  512  599  651  742  896  1068  1208  1297  1344  1377  1432  1529  1668  1846  2035  2177  2232  2218  2163  2058  1868  1603  1342  1161  1084  1066  1023  884  645  370  126  -45  -123  -126  -104  -81  -48  -17  -62  -246  -501  -681  -739  -736  -722  -684  -582  -426  -291  -225  -215  -250  -306  -346  -366  -382  -395  -395  -376  -343  -312  -295  -292  -298  -306  -303  -263  -177  -78  -16  -7  -37  -122  -298  -525  -689  -721  -641  -521  -433  -404  -408  -415  -417  -416  -423  -452  -505  -555  -591  -638  -690  -713  -709  -699  -674  -595  -467  -398  -465  -579  -632  -625  -605  -598  -594  -558  -463  -331  -209  -119  -59  -32  -37  -53  -77  -134  -227  -328  -420  -514  -618  -700  -714  -672  -625  -598  -586  -622  -781  -1060  -1276  -1194  -715  161  1464  3120  4765  5886  6055  5042  3074  904  -745  -1578  -1637  -1284  -997  -955  -1019  -1042  -1020  -992  -964  -930  -891  -841  -760  -665  -595  -562  -541  -525  -520  -521  -521  -513  -491  -458  -426  -406  -394  -379  -347  -301  -255  -202  -127  -30  64  121  130  109  96  157  353  658  951  1135  1218  1267  1334  1423  1508  1584  1683  1806  1907  1952  1933  1840  1675  1465  1249  1078  988  967  959  906  765  533  256  -21  -283  -503  -657  -770  -865  -929  -943  -917  -886  -881  -887  -869  -839  -820  -803  -784  -758  -708  -641  -588  -569  -576  -586  -586  -574  -561  -549  -520  -474  -449  -467  -511  -534  -524  -529  -583  -648  -656  -594  -527  -498  -477  -440  -423  -471  -588  -717  -826  -943  -1051  -1098  -1060  -942  -797  -700  -669  -673  -689  -718  -766  -810  -811  -745  -642  -561  -523  -504  -471  -407  -334  -285  -268  -269  -272  -273  -270  -269  -277  -305  -355  -421  -514  -646  -769  -795  -705  -565  -440  -363  -363  -473  -658  -782  -792  -830  -962  -952  -431  811  2682  4728  6232  6596  5754  4133  2249  528  -675  -1242  -1311  -1029  -563  -232  -233  -430  -609  -692  -687  -649  -615  -562  -479  -403  -354  -311  -261  -223  -213  -225  -250  -287  -326  -357  -368  -344  -293  -235  -175  -126  -95  -56  13  97  173  244  326  413  476  504  518  541  583  649  747  902  1124  1377  1603  1753  1816  1834  1851  1872  1884  1884  1871  1837  1773  1671  1484  1148  730  412  272  243  233  179  71  -59  -175  -265  -335  -360  -322  -267  -255  -299  -375  -444  -472  -457  -420  -381  -338  -292  -269  -303  -406  -556  -694  -756  -722  -626  -517  -417  -330  -274  -272  -338  -474  -634  -733  -719  -612  -510  -495  -540  -575  -578  -572  -587  -644  -727  -785  -782  -717  -633  -578  -558  -546  -534  -537  -560  -588  -601  -595  -569  -512  -440  -390  -373  -373  -369  -351  -321  -289  -258  -215  -152  -83  -37  -32  -70  -152  -273  -406  -512  -569  -579  -554  -520  -513  -557  -643  -703  -698  -664  -626  -633  -805  -1132  -1364  -1134  -118  1718  3929  5802  6804  6683  5506  3715  1796  41  -1256  -1869  -1854  -1424  -825  -414  -382  -538  -640  -661  -664  -674  -656  -591  -543  -578  -671  -773  -866  -917  -864  -666  -393  -195  -153  -231  -353  -435  -413  -257  -13  214  374  478  541  568  571  560  552  561  606  713  879  1060  1207  1321  1449  1617  1785  1899  1950  1963  1964  1964  1957  1944  1928  1906  1863  1764  1583  1328  1056  838  675  516  344  181  54  -22  -75  -168  -337  -525  -652  -697  -697  -683  -661  -622  -560  -485  -433  -456  -595  -827  -1044  -1150  -1140  -1069  -987  -913  -862  -869  -935  -1004  -1035  -1039  -1029  -1005  -973  -963  -989  -1019  -1037  -1053  -1053  -1034  -1017  -1003  -986  -966  -952  -946  -945  -941  -938  -945  -959  -971  -974  -967  -950  -928  -898  -861  -846  -875  -926  -970  -985  -951  -873  -778  -695  -639  -612  -603  -602  -605  -613  -635  -673  -706  -712  -718  -763  -826  -872  -914  -976  -1052  -1113  -1113  -1038  -932  -840  -776  -753  -763  -821  -975  -1125  -945  13  1909  4302  6406  7445  6959  5154  2769  548  -957  -1487  -1271  -810  -454  -321  -377  -490  -570  -627  -705  -801  -865  -846  -726  -534  -344  -218  -156  -135  -135  -141  -143  -136  -119  -98  -87  -93  -110  -134  -181  -251  -294  -267  -195  -108  -18  47  74  90  145  284  502  727  895  1011  1137  1324  1537  1691  1772  1847  1955  2050  2044  1933  1809  1732  1678  1608  1477  1259  995  746  545  425  388  361  246  -6  -336  -608  -745  -768  -746  -723  -705  -686  -666  -650  -644  -649  -647  -608  -533  -453  -395  -375  -390  -420  -447  -473  -503  -531  -536  -513  -504  -557  -656  -732  -735  -642  -470  -316  -269  -306  -360  -420  -506  -610  -694  -716  -667  -553  -372  -167  -39  -47  -159  -315  -458  -547  -577  -573  -535  -444  -315  -199  -131  -111  -117  -126  -105  -29  90  198  246  236  214  217  238  218  115  -35  -160  -268  -435  -695  -956  -1049  -885  -566  -290  -162  -143  -185  -295  -456  -583  -699  -903  -992  -490  891  3026  5344  6971  7184  5860  3534  1091  -682  -1455  -1429  -1098  -872  -828  -799  -699  -602  -551  -514  -470  -448  -496  -643  -873  -1073  -1090  -935  -766  -677  -655  -662  -671  -676  -683  -699  -711  -663  -495  -232  21  161  153  44  -82  -174  -206  -157  -42  104  253  398  548  693  804  896  1023  1218  1461  1669  1776  1795  1782  1773  1765  1731  1641  1513  1393  1289  1178  1045  889  738  634  575  494  333  85  -185  -393  -504  -556  -597  -647  -710  -783  -853  -899  -897  -804  -597  -345  -180  -160  -242  -378  -539  -686  -777  -806  -795  -769  -744  -721  -679  -617  -577  -597  -666  -729  -729  -669  -603  -585  -635  -723  -788  -805  -800  -795  -785  -750  -685  -603  -535  -510  -527  -559  -575  -568  -553  -542  -510  -433  -330  -250  -235  -280  -337  -364  -370  -365  -345  -319  -317  -368  -483  -636  -774  -850  -866  -858  -855  -868  -891  -915  -949  -1007  -1060  -1062  -1072  -1210  -1433  -1466  -1008  91  1777  3698  5246  5918  5529  4136  2153  264  -1033  -1560  -1488  -1324  -1406  -1583  -1602  -1430  -1169  -930  -789  -739  -741  -766  -798  -821  -820  -793  -759  -739  -733  -730  -720  -700  -682  -674  -665  -650  -638  -633  -604  -500  -299  -70  85  134  119  101  129  224  348  437  489  563  699  880  1077  1285  1481  1631  1770  1967  2193  2348  2393  2370  2319  2254  2174  2075  1949  1778  1563  1320  1048  737  431  194  27  -94  -170  -201  -202  -190  -171  -148  -154  -221  -310  -346  -306  -243  -219  -220  -198  -157  -126  -111  -103  -90  -72  -71  -142  -319  -506  -545  -428  -294  -220  -173  -101  -4  73  112  126  138  158  170  143  51  -102  -266  -370  -397  -388  -376  -370  -369  -378  -405  -453  -496  -498  -456  -409  -389  -397  -405  -359  -220  -35  97  144  149  153  161  150  78  -82  -292  -471  -578  -630  -651  -659  -685  -751  -845  -931  -968  -940  -881  -815  -757  -743  -829  -1040  -1246  -1093  -230  1417  3497  5349  6325  6070  4662  2582  499  -1012  -1708  -1699  -1330  -967  -790  -776  -833  -904  -970  -1021  -1048  -1056  -1054  -1050  -1041  -1012  -958  -903  -845  -744  -579  -386  -247  -239  -348  -479  -566  -603  -609  -589  -523  -377  -153  84  238  249  161  96  131  247  395  552  716  896  1106  1324  1491  1582  1619  1635  1645  1621  1532  1411  1335  1344  1410  1458  1422  1296  1115  937  805  695  560  395  243  132  26  -133  -336  -513  -610  -633  -607  -535  -430  -337  -304  -341  -420  -494  -546  -596  -641  -668  -682  -689  -684  -663  -637  -625  -623  -594  -502  -370  -273  -268  -363  -516  -665  -771  -829  -848  -826  -749  -630  -510  -428  -393  -388  -384  -363  -335  -331  -357  -379  -363  -317  -265  -229  -228  -249  -266  -275  -290  -300  -278  -233  -215  -244  -293  -342  -395  -449  -483  -478  -417  -302  -179  -128  -196  -364  -569  -751  -881  -983  -1098  -1234  -1376  -1481  -1491  -1409  -1283  -1131  -936  -733  -687  -952  -1403  -1689  -1517  -688  905  2999  4966  6237  6436  5381  3342  1038  -853  -1942  -2160  -1777  -1178  -681  -463  -455  -488  -500  -515  -561  -641  -739  -833  -898  -912  -856  -726  -567  -454  -414  -414  -398  -331  -226  -132  -78  -53  -29  8  46  67  70  71  86  114  126  109  90  113  222  449  733  951  1064  1147  1264  1409  1536  1617  1670  1716  1751  1761  1745  1710  1668  1627  1569  1461  1295  1106  951  856  767  608  390  190  47  -52  -123  -166  -190  -223  -311  -472  -651  -770  -811  -824  -849  -873  -843  -740  -617  -540  -523  -557  -621  -699  -783  -860  -912  -943  -965  -975  -941  -833  -674  -530  -440  -400  -401  -434  -490  -555  -608  -634  -631  -615  -608  -611  -587  -492  -357  -265  -236  -206  -128  -50  -86  -262  -460  -572  -599  -592  -582  -566  -543  -527  -528  -531  -516  -481  -452  -450  -459  -462  -467  -475  -454  -372  -228  -17  264  546  704  696  588  464  355  247  101  -95  -281  -381  -388  -358  -332  -301  -244  -163  -97  -90  -134  -185  -223  -271  -359  -407  -164  637  2063  3923  5760  6907  6870  5673  3754  1718  111  -773  -1003  -915  -795  -714  -671  -710  -807  -864  -872  -885  -918  -937  -914  -860  -794  -683  -484  -258  -140  -161  -230  -273  -282  -254  -175  -62  29  56  22  -29  -67  -87  -86  -45  59  233  448  646  767  815  852  937  1083  1272  1467  1621  1703  1731  1742  1764  1813  1874  1915  1928  1929  1929  1929  1907  1818  1643  1446  1317  1233  1063  732  330  20  -151  -265  -381  -473  -513  -529  -574  -661  -741  -772  -753  -718  -701  -709  -715  -713  -720  -749  -811  -912  -1022  -1097  -1124  -1128  -1131  -1131  -1096  -1000  -878  -797  -775  -778  -783  -807  -876  -978  -1061  -1086  -1053  -976  -883  -822  -843  -960  -1125  -1245  -1267  -1196  -1072  -949  -862  -812  -791  -789  -793  -789  -771  -747  -729  -724  -726  -728  -730  -733  -732  -713  -661  -589  -540  -530  -532  -524  -508  -500  -516  -552  -597  -649  -697  -708  -662  -567  -453  -364  -350  -438  -574  -666  -680  -653  -621  -592  -572  -572  -601  -660  -755  -870  -950  -983  -1007  -991  -934  -994  -1240  -1384  -947  367  2458  4778  6503  7020  6210  4331  1990  -71  -1370  -1732  -1369  -809  -453  -410  -595  -810  -912  -901  -829  -730  -626  -532  -458  -414  -394  -376  -354  -333  -320  -331  -373  -425  -420  -288  -59  136  240  296  346  398  455  513  554  565  559  552  562  623  753  914  1039  1146  1312  1532  1703  1773  1807  1905  2077  2238  2332  2363  2329  2244  2172  2164  2200  2237  2256  2261  2171  1806  1112  352  -135  -297  -302  -283  -272  -270  -280  -315  -371  -422  -445  -433  -397  -363  -345  -341  -378  -487  -629  -745  -830  -885  -888  -837  -759  -682  -619  -579  -568  -572  -557  -501  -418  -348  -331  -390  -509  -636  -713  -716  -675  -629  -595  -573  -557  -534  -507  -490  -498  -538  -593  -630  -631  -607  -579  -555  -517  -458  -399  -360  -347  -345  -344  -344  -367  -434  -529  -601  -624  -619  -610  -616  -645  -687  -722  -737  -728  -697  -654  -614  -572  -513  -438  -368  -318  -292  -284  -286  -288  -278  -257  -242  -231  -228  -261  -309  -338  -387  -478  -595  -742  -874  -930  -910  -867  -850  -826  -731  -578  -381  -18  772  2193  4069  5833  6849  6708  5389  3252  926  -901  -1814  -1844  -1322  -684  -260  -104  -78  -63  -42  -58  -128  -199  -231  -242  -278  -347  -395  -371  -312  -282  -287  -273  -186  -52  58  130  186  232  259  265  240  166  63  -23  -75  -98  -88  -20  144  402  657  826  931  1017  1114  1244  1395  1527  1635  1738  1834  1897  1921  1921  1895  1828  1731  1654  1630  1647  1658  1586  1366  1053  787  612  446  230  -15  -251  -431  -555  -666  -756  -815  -857  -857  -800  -750  -768  -834  -867  -834  -803  -847  -931  -979  -982  -979  -980  -943  -820  -630  -465  -385  -372  -402  -476  -591  -718  -833  -930  -996  -1014  -970  -859  -732  -651  -627  -629  -627  -612  -588  -563  -534  -509  -529  -637  -818  -989  -1096  -1140  -1136  -1088  -1021  -970  -941  -918  -900  -896  -903  -901  -879  -867  -896  -944  -969  -949  -884  -805  -748  -714  -653  -511  -311  -148  -87  -124  -231  -368  -491  -576  -636  -684  -707  -701  -691  -685  -674  -673  -691  -711  -716  -689  -610  -519  -580  -963  -1537  -1816  -1317  94  2087  4035  5406  5879  5335  3950  2067  82  -1446  -2047  -1816  -1283  -892  -776  -825  -857  -827  -813  -826  -825  -821  -838  -868  -872  -812  -688  -559  -498  -495  -484  -424  -315  -188  -97  -83  -151  -278  -414  -501  -501  -372  -109  183  373  426  411  392  414  499  626  742  840  966  1107  1191  1211  1255  1416  1685  1961  2127  2112  1961  1805  1727  1719  1726  1685  1564  1401  1275  1208  1152  1047  870  655  457  295  146  5  -109  -191  -248  -286  -312  -322  -321  -329  -350  -375  -397  -411  -423  -434  -428  -399  -368  -355  -363  -377  -394  -423  -446  -432  -374  -283  -193  -140  -119  -113  -106  -85  -44  -2  -21  -151  -350  -522  -610  -608  -521  -365  -189  -59  2  9  -13  -31  -22  -7  -30  -120  -250  -359  -432  -483  -511  -516  -515  -537  -594  -657  -661  -562  -404  -280  -233  -235  -247  -245  -219  -176  -127  -79  -37  -1  26  27  -6  -55  -98  -134  -187  -288  -411  -491  -513  -527  -600  -752  -930  -1071  -1161  -1244  -1401  -1586  -1432  -528  1076  2975  4800  6169  6665  6117  4678  2661  515  -1154  -1903  -1818  -1329  -803  -485  -471  -606  -687  -687  -660  -649  -673  -723  -748  -714  -653  -616  -609  -613  -618  -623  -628  -622  -588  -517  -416  -318  -255  -225  -201  -177  -163  -137  -60  46  110  129  188  317  434  473  476  541  738  1021  1257  1379  1428  1453  1461  1455  1449  1482  1583  1716  1784  1728  1580  1408  1245  1091  951  849  793  765  719  578  287  -88  -390  -501  -440  -317  -233  -244  -367  -542  -694  -812  -902  -945  -936  -888  -835  -792  -752  -718  -702  -699  -697  -691  -684  -671  -644  -613  -593  -582  -572  -564  -563  -565  -563  -553  -540  -539  -574  -667  -793  -876  -876  -836  -808  -796  -780  -747  -715  -704  -718  -745  -759  -748  -732  -732  -736  -687  -543  -351  -221  -201  -255  -320  -371  -420  -460  -475  -459  -406  -318  -205  -88  11  86  153  198  167  34  -130  -232  -256  -242  -226  -217  -221  -242  -274  -293  -299  -320  -360  -389  -408  -476  -639  -877  -1036  -828  72  1799  4057  6165  7385  7288  5902  3675  1346  -402  -1306  -1527  -1397  -1135  -806  -492  -302  -255  -294  -372  -454  -507  -534  -560  -594  -619  -625  -628  -622  -554  -370  -130  26  53  17  -14  -26  -26  -19  -4  10  -3  -51  -103  -122  -93  -2  134  274  377  432  458  500  603  765  938  1104  1285  1467  1586  1616  1592  1558  1522  1477  1439  1425  1428  1434  1428  1369  1197  911  593  327  116  -72  -225  -311  -350  -397  -476  -573  -660  -719  -753  -779  -813  -849  -873  -885  -893  -890  -854  -790  -733  -703  -685  -660  -624  -589  -566  -555  -557  -591  -668  -742  -726  -608  -472  -401  -406  -447  -479  -491  -502  -539  -616  -717  -793  -780  -669  -536  -459  -444  -453  -452  -430  -397  -374  -365  -364  -365  -374  -400  -440  -474  -494  -503  -508  -510  -504  -478  -425  -353  -275  -176  -50  55  82  42  0  -24  -71  -190  -365  -532  -660  -763  -842  -862  -801  -691  -593  -533  -510  -544  -655  -823  -1040  -1273  -1349  -1045  -175  1347  3306  5159  6323  6369  5187  3188  1102  -468  -1248  -1350  -1190  -1116  -1155  -1159  -1056  -905  -785  -706  -648  -640  -708  -810  -848  -766  -613  -488  -433  -424  -429  -446  -485  -542  -587  -591  -526  -392  -236  -118  -52  -16  3  -15  -78  -138  -132  -38  100  222  325  459  658  899  1109  1222  1244  1240  1276  1393  1580  1770  1903  1968  1992  1990  1924  1739  1467  1233  1119  1092  1057  945  768  587  427  275  141  56  22  7  -16  -90  -265  -512  -727  -851  -898  -906  -909  -911  -898  -876  -870  -872  -825  -682  -483  -335  -283  -287  -309  -344  -392  -441  -479  -492  -475  -445  -423  -416  -416  -410  -381  -327  -292  -329  -413  -457  -418  -349  -343  -426  -523  -540  -480  -414  -380  -356  -319  -273  -238  -222  -215  -196  -151  -77  3  55  71  68  65  70  71  50  -18  -159  -355  -535  -634  -662  -666  -662  -635  -586  -538  -493  -427  -385  -487  -802  -1183  -1238  -626  690  2514  4407  5739  6063  5338  3774  1774  -99  -1394  -1940  -1852  -1451  -1063  -828  -745  -753  -779  -792  -794  -796  -792  -760  -681  -577  -516  -529  -581  -618  -628  -625  -625  -634  -637  -602  -503  -369  -272  -243  -250  -245  -192  -92  13  82  130  222  387  577  724  821  914  1027  1146  1238  1309  1381  1464  1571  1700  1806  1866  1908  1954  1997  2000  1902  1704  1496  1359  1305  1293  1255  1112  816  434  126  -14  -33  -14  -14  -76  -237  -496  -764  -933  -984  -974  -940  -867  -736  -583  -487  -476  -501  -514  -504  -504  -573  -745  -966  -1127  -1180  -1144  -1030  -855  -676  -554  -515  -546  -602  -653  -695  -740  -800  -872  -927  -954  -963  -974  -993  -1011  -1013  -998  -963  -900  -797  -652  -482  -327  -228  -200  -220  -253  -278  -291  -305  -326  -353  -382  -401  -400  -380  -354  -337  -331  -324  -300  -281  -324  -443  -552  -575  -554  -560  -592  -582  -517  -578  -908  -1209  -924  234  2103  4211  5922  6685  6309  4935  2905  725  -994  -1810  -1750  -1228  -660  -271  -138  -209  -348  -451  -499  -512  -510  -498  -480  -465  -457  -455  -450  -433  -388  -309  -219  -160  -143  -147  -154  -155  -148  -128  -90  -23  63  131  147  114  61  37  87  214  396  579  710  792  877  988  1105  1231  1388  1560  1699  1788  1834  1844  1830  1805  1781  1744  1646  1440  1152  889  734  683  679  660  555  322  8  -271  -442  -510  -521  -515  -506  -500  -499  -502  -508  -519  -539  -574  -624  -682  -733  -767  -791  -813  -818  -799  -788  -813  -824  -770  -690  -652  -667  -700  -715  -702  -666  -612  -561  -533  -526  -524  -525  -545  -598  -670  -721  -738  -742  -751  -752  -714  -646  -596  -590  -614  -653  -675  -628  -478  -271  -127  -104  -138  -159  -159  -151  -144  -155  -211  -333  -519  -733  -913  -1019  -1047  -1031  -1005  -984  -963  -921  -838  -748  -718  -761  -827  -941  -1218  -1678  -2007  -1640  -239  1941  4276  6102  6866  6425  5044  3058  909  -826  -1787  -1982  -1664  -1168  -768  -644  -784  -981  -1063  -1020  -918  -814  -739  -703  -696  -696  -690  -678  -666  -647  -611  -571  -550  -550  -550  -537  -495  -399  -251  -102  -11  15  10  -7  -30  -38  -2  82  187  299  403  463  482  540  730  1054  1389  1608  1705  1748  1779  1806  1823  1812  1753  1657  1548  1440  1339  1247  1148  1021  862  676  476  283  116  -18  -125  -205  -274  -368  -479  -543  -495  -364  -252  -215  -236  -280  -345  -443  -556  -650  -723  -781  -809  -798  -755  -697  -627  -537  -460  -428  -428  -426  -404  -372  -348  -341  -350  -365  -379  -391  -403  -401  -373  -332  -311  -332  -391  -460  -510  -530  -508  -448  -382  -340  -324  -318  -314  -307  -282  -223  -111  74  296  448  446  292  76  -83  -146  -159  -193  -293  -425  -508  -499  -425  -340  -287  -267  -269  -290  -344  -438  -521  -529  -514  -549  -487  -48  932  2457  4268  5765  6322  5709  4129  2082  220  -917  -1215  -1000  -706  -527  -455  -473  -546  -616  -667  -700  -707  -691  -666  -653  -648  -611  -526  -424  -335  -275  -240  -225  -244  -303  -374  -423  -434  -411  -367  -318  -269  -211  -140  -66  10  89  154  205  263  356  517  735  935  1065  1170  1309  1476  1624  1738  1848  1960  2052  2103  2081  1967  1793  1606  1448  1342  1270  1177  1007  792  616  501  399  243  -22  -381  -737  -1004  -1139  -1129  -992  -793  -633  -564  -576  -642  -728  -809  -876  -915  -925  -920  -915  -908  -885  -833  -749  -655  -590  -568  -567  -563  -551  -529  -514  -539  -634  -783  -924  -1002  -1015  -998  -984  -990  -1011  -1021  -995  -945  -919  -913  -860  -757  -680  -666  -677  -649  -538  -368  -215  -133  -128  -181  -273  -377  -441  -390  -182  106  319  363  249  43  -180  -381  -542  -637  -650  -598  -519  -475  -495  -530  -547  -557  -571  -601  -665  -799  -995  -1019  -513  650  2314  4100  5441  5873  5287  3862  1994  216  -1007  -1436  -1228  -880  -692  -614  -601  -665  -753  -803  -766  -644  -513  -428  -383  -360  -363  -426  -572  -754  -875  -870  -739  -551  -386  -253  -132  -31  29  43  23  2  9  59  154  265  360  436  501  550  582  607  658  771  927  1053  1113  1136  1163  1211  1277  1352  1425  1487  1525  1533  1529  1532  1523  1438  1241  994  790  626  450  269  128  35  -25  -81  -170  -327  -538  -733  -842  -849  -803  -774  -788  -816  -814  -785  -762  -762  -769  -763  -740  -719  -711  -720  -731  -725  -679  -586  -466  -357  -290  -288  -368  -521  -697  -814  -804  -650  -410  -199  -100  -119  -247  -444  -616  -678  -631  -559  -550  -605  -657  -673  -670  -670  -670  -655  -613  -551  -499  -484  -510  -548  -578  -587  -557  -473  -340  -187  -55  31  64  68  77  77  47  38  85  162  213  153  -49  -313  -527  -641  -667  -628  -534  -413  -319  -280  -289  -346  -445  -562  -679  -792  -864  -694  33  1419  3227  5033  6305  6599  5738  3885  1608  -327  -1426  -1664  -1341  -872  -581  -549  -667  -796  -861  -862  -816  -721  -594  -477  -400  -367  -357  -330  -256  -154  -78  -53  -59  -68  -66  -45  -1  80  211  342  387  335  263  230  227  224  209  211  266  390  575  789  982  1123  1227  1325  1443  1591  1740  1843  1887  1894  1889  1882  1874  1866  1860  1838  1766  1634  1477  1335  1185  965  686  458  359  355  385  408  385  268  65  -132  -239  -252  -230  -235  -285  -334  -346  -342  -347  -355  -360  -358  -334  -276  -199  -144  -126  -124  -117  -114  -157  -288  -473  -615  -675  -691  -696  -689  -664  -633  -615  -607  -594  -587  -602  -627  -637  -631  -621  -616  -615  -614  -617  -630  -651  -673  -685  -687  -687  -697  -716  -727  -705  -653  -609  -608  -644  -673  -671  -660  -674  -737  -825  -891  -910  -896  -866  -815  -716  -569  -429  -347  -321  -322  -332  -340  -335  -316  -329  -453  -719  -1037  -1277  -1385  -1393  -1336  -1225  -1066  -887  -741  -653  -635  -738  -998  -1313  -1388  -854  486  2406  4320  5678  6136  5565  4151  2282  431  -897  -1474  -1495  -1297  -1094  -950  -856  -790  -757  -783  -882  -1018  -1122  -1152  -1108  -1002  -875  -790  -766  -776  -796  -806  -774  -677  -545  -448  -418  -422  -411  -347  -238  -126  -58  -45  -40  10  87  151  219  329  468  604  751  910  1038  1117  1164  1194  1238  1342  1503  1666  1791  1871  1908  1913  1909  1909  1905  1870  1780  1630  1427  1161  831  499  263  137  66  17  -7  -7  -14  -82  -230  -394  -496  -524  -516  -504  -494  -485  -486  -495  -507  -522  -542  -570  -614  -667  -706  -718  -705  -670  -614  -541  -447  -330  -213  -141  -159  -275  -435  -551  -586  -570  -536  -503  -480  -472  -480  -493  -501  -501  -503  -507  -502  -483  -463  -450  -450  -475  -544  -642  -727  -777  -791  -763  -682  -574  -497  -471  -463  -440  -399  -350  -282  -201  -146  -136  -141  -144  -147  -141  -128  -131  -149  -162  -165  -166  -164  -154  -131  -101  -86  -97  -118  -134  -150  -189  -273  -384  -471  -526  -597  -689  -740  -681  -536  -471  -630  -834  -651  223  1782  3747  5589  6685  6612  5304  3112  731  -1104  -1926  -1822  -1326  -876  -613  -519  -509  -512  -501  -498  -541  -640  -761  -856  -898  -905  -902  -877  -813  -725  -640  -574  -512  -433  -352  -290  -239  -185  -153  -163  -191  -200  -176  -136  -113  -74  60  294  539  714  806  847  873  925  1036  1211  1394  1526  1595  1650  1740  1856  1939  1952  1907  1841  1792  1771  1754  1720  1663  1567  1375  1075  747  493  350  284  225  133  21  -85  -191  -322  -470  -595  -680  -733  -772  -815  -867  -909  -914  -876  -828  -802  -793  -787  -783  -767  -713  -610  -496  -421  -411  -467  -575  -689  -754  -760  -736  -696  -623  -503  -368  -260  -190  -179  -273  -451  -614  -697  -716  -709  -695  -682  -679  -688  -706  -726  -735  -729  -718  -718  -748  -799  -807  -734  -628  -545  -497  -460  -407  -340  -286  -259  -239  -192  -98  18  108  140  90  -66  -300  -523  -679  -762  -781  -752  -707  -675  -657  -630  -591  -549  -503  -481  -633  -1094  -1689  -2019  -1785  -855  692  2527  4290  5650  6185  5643  4190  2218  225  -1228  -1881  -1933  -1674  -1260  -842  -583  -491  -464  -446  -436  -435  -433  -442  -483  -547  -607  -645  -669  -690  -689  -641  -568  -518  -500  -456  -328  -144  0  61  66  56  53  66  92  118  143  194  280  375  457  541  671  878  1129  1344  1477  1540  1562  1577  1615  1690  1782  1863  1934  1997  2024  1988  1899  1793  1692  1614  1564  1502  1337  1016  606  224  -86  -326  -468  -505  -490  -473  -482  -525  -587  -634  -644  -603  -508  -389  -304  -275  -290  -332  -383  -422  -437  -424  -378  -306  -237  -189  -149  -100  -52  -33  -58  -118  -200  -307  -423  -504  -534  -550  -571  -568  -504  -395  -296  -241  -239  -274  -320  -369  -417  -453  -487  -543  -627  -704  -736  -720  -687  -664  -652  -646  -641  -627  -595  -535  -456  -387  -326  -219  -53  117  231  282  288  221  28  -258  -529  -734  -885  -975  -979  -893  -750  -620  -554  -541  -538  -509  -465  -474  -602  -803  -906  -626  326  1956  3898  5643  6687  6688  5623  3822  1824  96  -1045  -1405  -1117  -691  -530  -561  -532  -435  -410  -465  -510  -513  -512  -541  -553  -449  -233  -57  -13  -52  -100  -124  -110  -58  27  118  178  198  196  176  132  78  48  62  96  117  132  198  342  502  593  613  642  753  930  1100  1223  1305  1369  1447  1548  1647  1725  1780  1804  1794  1770  1721  1606  1435  1284  1195  1106  932  666  360  53  -207  -367  -429  -454  -477  -491  -495  -533  -646  -806  -924  -950  -899  -814  -733  -675  -651  -671  -718  -756  -768  -760  -743  -737  -780  -908  -1071  -1140  -1042  -848  -689  -615  -591  -580  -567  -551  -540  -534  -528  -525  -551  -629  -737  -818  -849  -854  -860  -869  -857  -807  -738  -676  -649  -684  -759  -810  -819  -793  -746  -699  -659  -606  -526  -441  -384  -346  -294  -223  -169  -166  -229  -335  -460  -596  -729  -826  -875  -904  -952  -1020  -1086  -1135  -1171  -1195  -1199  -1156  -1032  -887  -895  -1107  -1266  -1002  -52  1659  3839  5783  6767  6422  4821  2499  226  -1392  -2083  -2005  -1671  -1495  -1512  -1576  -1606  -1612  -1596  -1521  -1375  -1220  -1103  -991  -883  -832  -839  -869  -907  -938  -949  -947  -943  -938  -932  -923  -913  -904  -897  -876  -790  -586  -301  -58  58  57  -19  -142  -274  -357  -312  -113  155  374  500  567  609  641  692  795  947  1110  1233  1278  1258  1223  1179  1083  919  718  510  326  177  15  -201  -418  -558  -636  -714  -808  -893  -949  -976  -986  -1029  -1170  -1403  -1628  -1754  -1803  -1851  -1907  -1928  -1900  -1864  -1850  -1851  -1845  -1814  -1771  -1758  -1820  -1961  -2117  -2215  -2227  -2162  -2048  -1934  -1864  -1844  -1867  -1951  -2106  -2279  -2390  -2422  -2416  -2413  -2432  -2464  -2487  -2496  -2499  -2507  -2525  -2543  -2530  -2459  -2351  -2260  -2218  -2225  -2284  -2410  -2572  -2701  -2763  -2771  -2748  -2703  -2648  -2593  -2546  -2499  -2447  -2423  -2457  -2514  -2549  -2552  -2555  -2613  -2768  -2979  -3147  -3218  -3223  -3210  -3201  -3199  -3207  -3235  -3279  -3302  -3255  -3182  -3246  -3452  -3483  -2971  -1767  20  2004  3594  4289  3859  2349  141  -2128  -3859  -4675  -4600  -4030  -3446  -3161  -3165  -3216  -3192  -3155  -3154  -3164  -3136  -3065  -3001  -2955  -2891  -2818  -2766  -2737  -2740  -2778  -2822  -2842  -2840  -2832  -2828  -2823  -2805  -2762  -2678  -2541  -2386  -2267  -2201  -2161  -2101  -1985  -1825  -1661  -1479  -1246  -990  -775  -624  -521  -434  -336  -226  -110  23  178  315  408  478  568  683  781  821  789  686  534  371  218  95  25  12  28  49  60  37  -46  -183  -315  -395  -412  -360  -218  0  208  330  371  398  465  626  924  1296  1590  1740  1801  1843  1891  1948  2017  2117  2285  2528  2785  2985  3142  3316  3534  3774  3981  4127  4263  4464  4741  5047  5319  5533  5725  5931  6113  6226  6298  6388  6536  6770  7094  7498  7962  8402  8702  8864  9018  9260  9584  9939  10283  10624  11004  11445  11939  12466  12941  13251  13397  13483  13582  13704  13872  14132  14477  14847  15215  15587  15947  16269  16563  16903  17319  17737  18074  18301  18475  18835  19754  21452  23712  25872  27282  27782  27565  26812  25790  24897  24365  24166  24216  24480  24931  25523  26201  26879  27459  27883  28192  28518  28927  29370  29835  30345  30886  31457  32058  32599  32767  32767  32767  32767  32767  32767  32767  32767  32767  32767  32767  32767  32767  32767  32767  32767  32767  32767  28689  21325  11816  2149  -6458  -13437  -18031  -19898  -19752  -18834  -18413  -19517  -22072  -24663  -26045  -26362  -26858  -29134  -32768  -32768  -32768  -32768  -32768  -32768  -32768  -32768  -32768  -32768  -30087  -28857  -28777  -28934  -28605  -27547  -26191  -25258  -24971  -25019  -25099  -25144  -25223  -25369  -25460  -25323  -24974  -24566  -24093  -23435  -22683  -22115  -21822  -21708  -21722  -21799  -21655  -20868  -19381  -17770  -16683  -16221  -16106  -16114  -16193  -16370  -16589  -16702  -16632  -16468  -16339  -16301  -16400  -16712  -17195  -17642  -17884  -17923  -17844  -17681  -17425  -17136  -16943  -16924  -17070  -17299  -17453  -17295  -16661  -15721  -14895  -14409  -14113  -13683  -12958  -12158  -11661  -11667  -12159  -12917  -13561  -13847  -13847  -13783  -13873  -14226  -14712  -15086  -15333  -15651  -16057  -16265  -15977  -15158  -14066  -13051  -12501  -13166  -15930  -20466  -24730  -26176  -23210  -16540  -9239  -4447  -3310  -4732  -6540  -7622  -8686  -10905  -14884  -19946  -23603  -23422  -19768  -15257  -11921  -10179  -9622  -9628  -9682  -9587  -9390  -9185  -9012  -8825  -8536  -8122  -7637  -6999  -5919  -4262  -2306  -518  947  2483  4284  5820  6619  6881  7030  7303  7954  9254  11004  12584  13596  14042  14044  13647  12864  11810  10737  9922  9506  9419  9557  9926  10518  11239  11996  12726  13531  14677  16072  17169  17680  17770  17456  16430  14701  12980  11976  11642  11541  11536  11733  12109  12509  12796  12890  12754  12292  11396  10247  9250  8573  8064  7593  7156  6685  6035  5174  4298  3692  3456  3471  3602  3784  3964  4118  4295  4521  4747  4978  5311  5756  6145  6307  6242  6069  5873  5644  5381  5169  5097  5224  5585  6095  6525  6719  6725  6687  6736  6958  7479  8742  11297  14748  17667  19148  19529  19524  19521  19614  19727  19431  17935  14916  11387  9189  9287  10816  12152  12340  11263  9410  7679  6720  5974  4118  1046  -1931  -3711  -4003  -3311  -2706  -2990  -4291  -6198  -7978  -9108  -9607  -9745  -9659  -9287  -8603  -7843  -7290  -6953  -6735  -6685  -6755  -6395  -4764  -1788  1293  3160  3664  3232  1891  -494  -3608  -6702  -9007  -10156  -10329  -9822  -8707  -7133  -5614  -4675  -4364  -4348  -4347  -4303  -4260  -4246  -4256  -4270  -4216  -3918  -3137  -1860  -406  876  1811  2327  2494  2487  2437  2396  2388  2446  2587  2771  2928  3042  3139  3234  3331  3473  3710  3995  4222  4365  4452  4470  4409  4324  4282  4234  4004  3470  2746  2019]
