reading_id,reading_time,wire_id,result_classification,heart_rate,heart_rate_alert,firmware_version,device_app_version,hardware_version,waveform_samples
e68276c0-d42d-11ed-8080-808080808080,Thu Apr 06 03:48:32 UTC 2023,e12964476439,NSR,67,NONE,20001.188.58,2.13.0,Charge 5,[0  -34  -94  -162  -195  -158  -16  207  360  310  100  -172  -434  -609  -666  -644  -579  -505  -448  -409  -382  -388  -488  -711  -976  -1153  -1202  -1189  -1189  -1233  -1296  -1311  -1236  -1100  -964  -854  -761  -670  -562  -437  -324  -246  -193  -132  -29  96  191  212  129  -67  -322  -537  -645  -635  -552  -469  -432  -452  -505  -556  -597  -660  -748  -822  -847  -787  -624  -423  -309  -338  -438  -481  -401  -247  -109  -16  52  97  124  150  169  138  9  -220  -481  -679  -773  -784  -749  -687  -618  -569  -553  -563  -593  -632  -662  -670  -663  -654  -638  -596  -525  -427  -310  -221  -203  -223  -206  -118  0  94  155  190  180  85  -124  -421  -700  -834  -787  -652  -544  -507  -513  -529  -549  -569  -578  -578  -596  -693  -858  -870  -391  746  2358  3966  5097  5489  5061  3924  2393  770  -706  -1675  -1905  -1605  -1129  -688  -447  -478  -658  -812  -860  -811  -722  -662  -646  -645  -610  -515  -388  -284  -226  -192  -184  -235  -313  -305  -167  22  163  191  125  48  6  -12  -6  79  289  560  760  844  876  905  934  961  992  1041  1149  1369  1668  1923  2053  2086  2081  2070  2051  2002  1914  1833  1825  1897  1999  2088  2141  2123  1982  1689  1293  917  693  623  591  518  416  315  223  152  116  103  85  46  -2  -32  -37  -32  -43  -84  -141  -184  -200  -206  -213  -215  -192  -134  -74  -60  -92  -131  -161  -196  -240  -256  -202  -91  13  47  -12  -142  -300  -464  -619  -737  -805  -834  -846  -855  -870  -887  -904  -926  -951  -964  -956  -944  -963  -1022  -1063  -1040  -987  -949  -931  -927  -974  -1117  -1325  -1497  -1582  -1595  -1533  -1349  -1054  -766  -609  -620  -764  -957  -1101  -1166  -1176  -1149  -1080  -966  -825  -701  -623  -588  -583  -620  -717  -849  -949  -971  -909  -775  -598  -408  -226  -80  3  3  -97  -277  -473  -636  -748  -821  -865  -872  -865  -873  -895  -931  -1022  -1194  -1377  -1435  -1301  -1049  -897  -1038  -1351  -1400  -827  416  2149  3986  5380  5881  5272  3635  1455  -627  -2160  -2918  -2956  -2624  -2242  -1891  -1595  -1411  -1332  -1305  -1291  -1281  -1281  -1283  -1265  -1242  -1241  -1265  -1305  -1347  -1374  -1369  -1312  -1181  -996  -834  -754  -736  -729  -707  -684  -685  -711  -733  -719  -658  -556  -432  -312  -203  -72  116  323  458  507  552  657  803  964  1198  1576  2002  2298  2433  2517  2617  2727  2848  2989  3121  3218  3246  3125  2800  2343  1946  1730  1650  1606  1553  1486  1414  1331  1221  1108  1024  983  980  995  990  942  840  719  642  627  649  684  717  748  787  836  874  869  789  617  402  253  243  373  566  699  710  640  545  452  380  328  285  258  250  253  250  231  196  160  137  123  96  24  -98  -241  -371  -462  -503  -478  -372  -211  -56  62  159  246  301  258  66  -220  -460  -573  -546  -390  -185  -40  20  39  45  39  16  -10  -17  10  65  116  133  117  85  42  2  -16  -14  -13  -51  -154  -299  -429  -497  -491  -439  -394  -390  -421  -460  -486  -500  -502  -495  -475  -496  -566  -444  172  1368  2990  4578  5507  5380  4167  2169  -3  -1702  -2575  -2530  -1762  -862  -370  -288  -303  -232  -93  43  141  200  223  210  180  138  105  108  114  76  5  -49  -54  -9  66  153  242  328  401  459  506  541  557  579  627  673  688  681  696  773  917  1097  1283  1477  1677  1846  1945  2006  2073  2105  2052  1969  1968  2101  2315  2493  2571  2557  2465  2287  1982  1494  909  435  165  7  -179  -443  -690  -838  -955  -1153  -1410  -1598  -1660  -1645  -1611  -1594  -1640  -1784  -1980  -2125  -2176  -2177  -2175  -2185  -2193  -2191  -2184  -2175  -2134  -2034  -1908  -1832  -1845  -1905  -1936  -1886  -1726  -1437  -1075  -803  -737  -871  -1106  -1271  -1264  -1164  -1081  -1011  -894  -741  -650  -681  -776  -809  -700  -488  -283  -157  -110  -121  -178  -262  -332  -350  -313  -252  -207  -197  -210  -222  -192  -81  88  240  340  431  545  656  750  872  1045  1221  1340  1404  1435  1429  1418  1495  1723  2094  2511  2832  2999  3055  3035  2957  2875  2837  2841  2865  2888  2858  2689  2355  1976  1725  1649  1666  1698  1714  1689  1591  1421  1233  1035  722  301  111  360  698  705  366  -12  73  1096  3010  5045  6222  6023  4539  2339  195  -1423  -2487  -3060  -3164  -2893  -2456  -2086  -1889  -1828  -1861  -2005  -2259  -2532  -2711  -2743  -2628  -2436  -2304  -2301  -2391  -2506  -2564  -2522  -2431  -2351  -2297  -2268  -2269  -2290  -2320  -2364  -2444  -2585  -2798  -3034  -3196  -3230  -3124  -2878  -2570  -2343  -2237  -2178  -2100  -2033  -2024  -1992  -1834  -1640  -1545  -1525  -1467  -1324  -1147  -1019  -970  -984  -1064  -1232  -1477  -1734  -1935  -2064  -2152  -2229  -2307  -2418  -2621  -2939  -3319  -3635  -3705  -3444  -3035  -2825  -2988  -3366  -3697  -3904  -4054  -4172  -4213  -4101  -3779  -3335  -2937  -2598  -2273  -2080  -2121  -2292  -2435  -2498  -2500  -2458  -2334  -2074  -1721  -1409  -1225  -1157  -1140  -1120  -1071  -994  -896  -790  -702  -644  -606  -568  -522  -465  -405  -362  -346  -349  -369  -422  -519  -638  -718  -699  -560  -357  -184  -100  -125  -228  -286  -226  -127  -75  -49  20  151  303  410  456  515  653  827  968  1050  1083  1088  1089  1095  1080  1034  1023  1113  1256  1356  1388  1378  1363  1390  1495  1659  1817  1925  1983  2003  2004  2007  2049  2154  2270  2299  2231  2153  2145  2222  2339  2433  2481  2503  2542  2675  2961  3350  3603  3441  2915  2407  2163  2111  2102  2079  2053  2034  2011  1945  1782  1483  1066  646  349  173  60  12  45  92  30  -115  -23  590  1569  2632  3880  5365  6528  6711  5609  3183  -31  -2850  -4308  -4405  -3773  -3050  -2698  -2614  -2241  -1513  -876  -514  -287  -55  234  528  715  785  901  1253  1874  2600  3365  4371  5687  6941  7745  8095  8202  8274  8479  8900  9453  9943  10249  10351  10236  9928  9481  8918  8316  7828  7541  7399  7286  7121  6891  6570  6085  5397  4639  4047  3669  3345  3014  2770  2647  2565  2483  2440  2440  2371  2082  1578  1079  800  761  829  874  845  731  490  100  -328  -612  -692  -659  -598  -525  -428  -356  -394  -517  -534  -256  234  583  582  398  271  255  235  95  -127  -314  -384  -337  -233  -123  -41  -16  -44  -78  -101  -134  -187  -206  -132  11  148  236  316  422  487  438  327  243  205  175  61  -231  -691  -1206  -1631  -1853  -1874  -1808  -1805  -2006  -2448  -3027  -3597  -4068  -4412  -4632  -4774  -4908  -5052  -5157  -5198  -5205  -5223  -5303  -5538  -5999  -6553  -6928  -6999  -6851  -6645  -6499  -6428  -6388  -6381  -6429  -6500  -6542  -6540  -6503  -6425  -6237  -5883  -5424  -4977  -4618  -4416  -4379  -4419  -4439  -4413  -4369  -4328  -4238  -4023  -3703  -3376  -3083  -2837  -2685  -2639  -2640  -2632  -2614  -2605  -2580  -2471  -2220  -1831  -1403  -1101  -998  -1030  -1098  -1168  -1258  -1369  -1467  -1530  -1552  -1547  -1550  -1571  -1573  -1519  -1417  -1334  -1325  -1377  -1470  -1624  -1887  -2238  -2414  -2138  -1547  -836  234  1855  3724  5346  6072  5250  3098  685  -1170  -2303  -2801  -2838  -2762  -2775  -2549  -1817  -979  -542  -553  -786  -1029  -1169  -1214  -1226  -1207  -1068  -745  -348  -79  -2  -25  -37  24  189  420  608  661  576  434  323  269  260  333  551  875  1158  1314  1374  1396  1411  1427  1444  1449  1412  1348  1355  1533  1870  2276  2657  2945  3092  3081  2937  2746  2609  2562  2572  2602  2635  2627  2497  2210  1857  1569  1395  1308  1272  1255  1228  1172  1101  1039  966  808  509  147  -115  -205  -147  10  182  275  278  238  186  136  92  48  31  75  172  290  412  530  621  653  607  504  396  329  303  289  270  264  298  361  386  314  173  62  33  66  107  121  120  130  148  160  163  161  159  163  182  233  316  393  389  258  66  -75  -134  -133  -50  158  420  544  434  217  98  126  205  253  268  274  282  279  217  50  -176  -336  -341  -192  31  222  342  421  488  523  459  244  -48  -263  -331  -308  -261  -215  -165  -112  -64  -30  -8  -1  -11  -33  -58  -83  -103  -111  -96  -54  -6  45  143  319  555  805  1012  1143  1183  1131  990  790  604  528  601  748  844  747  366  -184  -624  -828  -880  -853  -754  -627  -540  -508  -517  -538  -482  -164  427  813  451  -421  -937  -522  810  2735  4720  6168  6732  6318  4913  2775  573  -1082  -1922  -1937  -1447  -931  -598  -378  -216  -116  -54  -9  16  26  29  24  -5  -77  -185  -293  -332  -224  40  354  568  632  566  392  171  8  -45  -3  113  256  357  403  439  487  536  583  640  687  687  636  576  562  631  803  1074  1374  1598  1710  1750  1790  1874  1968  2003  1955  1849  1727  1642  1612  1601  1568  1504  1427  1361  1293  1191  1040  853  676  554  462  346  194  48  -38  -58  -44  -26  -14  -4  3  0  -29  -90  -171  -245  -274  -187  78  443  706  730  535  248  -6  -209  -370  -408  -257  -8  151  132  9  -99  -138  -104  -1  130  224  246  211  151  92  44  4  -29  -21  93  286  396  301  68  -137  -243  -288  -319  -347  -397  -497  -623  -702  -703  -659  -608  -550  -473  -392  -365  -459  -676  -922  -1091  -1156  -1158  -1158  -1179  -1214  -1245  -1262  -1244  -1194  -1140  -1097  -1057  -1035  -1082  -1238  -1451  -1612  -1675  -1679  -1667  -1663  -1677  -1696  -1684  -1597  -1454  -1370  -1417  -1515  -1532  -1433  -1294  -1210  -1185  -1173  -1182  -1235  -1271  -1176  -937  -680  -533  -501  -500  -480  -529  -866  -1502  -1982  -1914  -1386  -546  628  2080  3555  4768  5479  5335  4086  1990  -361  -2393  -3591  -3700  -3024  -2259  -1883  -1776  -1598  -1336  -1214  -1351  -1647  -1835  -1774  -1614  -1526  -1492  -1429  -1327  -1295  -1391  -1466  -1365  -1098  -757  -460  -301  -270  -287  -297  -291  -284  -288  -300  -313  -333  -348  -298  -107  200  480  621  646  635  625  594  518  455  515  701  896  1013  1045  1007  910  761  580  400  256  173  144  138  137  136  103  -7  -219  -492  -735  -903  -1030  -1140  -1201  -1167  -1058  -982  -991  -996  -911  -741  -501  -261  -108  -28  29  50  20  -15  10  103  170  130  69  130  328  611  907  1105  1171  1175  1174  1157  1108  1056  1030  1029  1039  1048  1037  981  891  855  929  1041  1089  1037  916  815  777  737  664  628  668  737  766  732  694  733  845  914  858  738  634  519  342  132  -9  15  234  552  799  896  894  869  853  844  830  805  772  748  719  624  428  201  70  90  197  301  366  400  408  398  388  379  316  133  -119  -285  -287  -194  -115  -96  -115  -117  -24  203  487  679  721  672  612  570  531  485  432  378  347  349  355  325  225  44  -172  -358  -481  -525  -495  -444  -420  -418  -399  -326  -161  125  426  428  -61  -839  -1493  -1655  -962  788  3262  5595  6947  6952  5714  3728  1657  -95  -1407  -2142  -2236  -1831  -1211  -725  -543  -552  -594  -611  -619  -639  -673  -687  -627  -456  -224  -53  9  15  8  -31  -154  -352  -556  -682  -657  -441  -86  259  458  492  425  326  235  182  183  225  277  328  375  410  426  428  421  414  429  493  623  825  1071  1285  1438  1549  1567  1454  1301  1210  1179  1174  1176  1183  1193  1197  1161  1054  881  682  480  283  85  -127  -330  -454  -470  -401  -293  -180  -86  -76  -208  -437  -641  -742  -746  -695  -605  -491  -392  -338  -324  -341  -404  -524  -679  -830  -962  -1068  -1136  -1172  -1196  -1193  -1083  -809  -506  -416  -567  -754  -826  -794  -730  -685  -671  -674  -679  -681  -680  -680  -679  -680  -683  -692  -705  -715  -716  -708  -698  -709  -779  -916  -1071  -1185  -1229  -1185  -1050  -879  -756  -707  -694  -693  -705  -724  -744  -747  -714  -662  -627  -613  -614  -623  -631  -633  -632  -634  -647  -678  -710  -711  -676  -632  -612  -605  -564  -474  -376  -311  -278  -253  -219  -201  -243  -349  -473  -559  -579  -524  -399  -258  -160  -120  -152  -272  -455  -641  -753  -729  -544  -270  -47  43  46  48  103  196  278  312  267  111  -126  -350  -501  -583  -609  -598  -581  -573  -566  -547  -520  -501  -488  -468  -436  -393  -346  -325  -374  -508  -693  -726  -202  1118  3016  4973  6369  6685  5820  4047  1777  -419  -1917  -2362  -1887  -989  -205  105  -76  -424  -653  -760  -821  -837  -757  -548  -295  -137  -119  -163  -166  -115  -85  -121  -211  -280  -180  86  291  304  222  163  147  147  141  130  152  241  371  466  488  466  436  424  459  566  712  829  900  962  1053  1180  1297  1339  1330  1351  1429  1558  1714  1859  1976  2081  2159  2160  2042  1796  1439  1022  645  400  277  207  156  128  116  109  92  61  25  -15  -77  -161  -239  -290  -312  -323  -336  -352  -369  -394  -424  -441  -422  -364  -297  -236  -170  -109  -78  -69  -62  -54  -60  -85  -120  -154  -187  -220  -254  -296  -342  -352  -287  -169  -44  59  106  85  45  29  31  36  43  60  81  91  77  43  1  -33  -49  -36  2  32  19  -31  -120  -266  -429  -546  -610  -635  -625  -603  -590  -575  -523  -401  -229  -68  35  52  -42  -223  -381  -407  -338  -294  -287  -249  -181  -127  -101  -100  -112  -121  -123  -116  -106  -94  -82  -78  -79  -70  -41  -13  -15  -53  -121  -225  -356  -459  -500  -495  -460  -381  -239  -66  56  94  85  77  91  114  116  90  53  28  36  89  187  297  372  401  401  382  321  199  18  -191  -379  -501  -555  -574  -583  -589  -592  -593  -591  -588  -593  -620  -655  -640  -560  -563  -746  -886  -602  352  1896  3602  5049  6015  6302  5672  4078  1828  -492  -2178  -2743  -2329  -1518  -784  -303  -89  -82  -156  -222  -256  -264  -261  -247  -208  -133  -43  13  -9  -116  -237  -289  -287  -286  -269  -206  -126  -75  -68  -98  -151  -209  -238  -212  -148  -72  6  93  215  370  466  437  381  433  580  710  768  800  868  996  1166  1326  1418  1440  1444  1476  1531  1575  1597  1614  1628  1602  1474  1241  1007  880  834  734  465  51  -338  -551  -598  -596  -637  -705  -689  -549  -416  -441  -639  -900  -1089  -1166  -1179  -1147  -1024  -784  -506  -305  -226  -247  -344  -478  -581  -599  -512  -319  -77  96  133  71  0  -44  -100  -179  -250  -299  -345  -415  -482  -465  -350  -211  -94  -6  13  -63  -190  -277  -285  -246  -208  -187  -178  -181  -221  -319  -464  -598  -650  -574  -378  -154  -14  -5  -103  -245  -366  -452  -516  -557  -563  -535  -482  -430  -390  -336  -255  -201  -233  -330  -437  -508  -501  -412  -293  -195  -133  -117  -174  -335  -550  -709  -765  -750  -702  -631  -556  -502  -477  -460  -449  -458  -471  -468  -445  -374  -227  -49  71  106  95  82  85  91  61  -45  -213  -376  -484  -533  -558  -588  -623  -642  -636  -608  -580  -572  -572  -562  -523  -443  -350  -302  -372  -652  -1080  -1261  -734  595  2414  4282  5758  6421  6048  4680  2547  100  -1968  -3013  -2872  -1942  -931  -397  -344  -445  -527  -590  -641  -674  -679  -665  -660  -659  -651  -630  -579  -494  -414  -387  -414  -451  -444  -367  -231  -77  55  124  115  61  -9  -106  -229  -341  -380  -299  -105  126  295  396  529  760  1025  1209  1280  1279  1230  1145  1067  1094  1297  1610  1893  2099  2252  2346  2363  2307  2175  1958  1668  1342  1036  800  653  582  563  560  538  494  442  358  190  -66  -341  -528  -580  -538  -472  -426  -419  -471  -590  -744  -844  -788  -529  -168  89  139  24  -141  -259  -305  -314  -313  -322  -377  -499  -650  -768  -834  -848  -773  -561  -268  -37  63  78  67  42  -19  -162  -416  -710  -866  -751  -440  -156  -36  -49  -101  -141  -173  -200  -209  -194  -181  -210  -290  -388  -457  -492  -517  -534  -508  -414  -293  -233  -259  -318  -361  -378  -382  -388  -394  -387  -373  -372  -398  -451  -510  -548  -563  -560  -538  -497  -460  -461  -497  -535  -555  -567  -570  -527  -398  -223  -108  -119  -225  -347  -438  -499  -561  -653  -762  -857  -922  -949  -904  -767  -573  -360  -141  17  16  -113  -220  -200  -87  -9  -39  -112  -145  -140  -147  -218  -375  -568  -704  -750  -750  -746  -742  -723  -685  -637  -596  -580  -579  -549  -451  -324  -268  -303  -426  -729  -1183  -1399  -822  815  3184  5447  6742  6724  5646  4083  2539  1137  -184  -1320  -2039  -2159  -1718  -1037  -480  -158  -9  -1  -138  -358  -549  -654  -691  -689  -659  -604  -516  -380  -196  -1  161  265  297  260  173  65  -28  -74  -65  -30  -4  19  77  183  295  363  389  411  458  556  743  992  1200  1298  1327  1375  1496  1660  1791  1859  1884  1894  1906  1925  1962  2006  2013  1969  1889  1765  1595  1418  1264  1142  1051  971  858  701  550  451  384  262  19  -280  -502  -587  -547  -395  -167  42  131  41  -160  -325  -384  -378  -361  -352  -353  -365  -393  -428  -446  -436  -415  -392  -341  -238  -111  -25  -24  -101  -209  -285  -303  -277  -233  -206  -240  -368  -548  -678  -676  -532  -319  -145  -61  -40  -34  -24  -23  -49  -91  -133  -175  -227  -285  -327  -341  -340  -336  -332  -333  -339  -350  -352  -323  -252  -180  -159  -187  -235  -277  -302  -326  -376  -453  -525  -566  -573  -569  -576  -583  -563  -506  -426  -350  -296  -277  -297  -338  -382  -430  -475  -507  -518  -495  -416  -296  -188  -130  -129  -182  -261  -326  -350  -310  -185  -4  154  248  280  258  183  82  8  -17  -9  5  0  -57  -186  -373  -564  -700  -768  -796  -823  -872  -918  -919  -838  -674  -571  -698  -969  -1187  -1144  -512  840  2643  4449  5688  5804  4686  2805  827  -756  -1705  -2069  -2098  -1964  -1739  -1461  -1129  -816  -627  -560  -566  -605  -644  -666  -661  -648  -659  -689  -712  -721  -718  -703  -668  -618  -567  -516  -459  -402  -321  -179  -15  86  115  116  109  76  -8  -116  -187  -207  -204  -179  -88  112  416  766  1054  1176  1161  1139  1164  1220  1304  1414  1533  1637  1700  1723  1727  1715  1656  1548  1474  1496  1529  1440  1223  970  714  404  25  -328  -537  -591  -567  -521  -459  -391  -345  -331  -333  -334  -337  -363  -431  -521  -586  -601  -579  -544  -498  -432  -370  -345  -361  -393  -414  -426  -408  -295  -92  88  173  175  117  4  -144  -286  -387  -441  -465  -477  -479  -466  -429  -353  -248  -158  -123  -173  -318  -504  -637  -657  -557  -370  -172  -42  -8  -35  -84  -156  -259  -362  -433  -479  -515  -532  -514  -457  -376  -299  -252  -239  -241  -247  -265  -309  -386  -475  -541  -557  -507  -393  -264  -141  -4  122  195  215  203  158  84  10  -53  -127  -213  -296  -349  -339  -274  -213  -204  -246  -310  -383  -496  -672  -862  -986  -1012  -959  -894  -881  -895  -900  -959  -1044  -826  50  1639  3661  5523  6528  6259  4757  2524  293  -1400  -2308  -2443  -2098  -1622  -1207  -872  -575  -348  -258  -294  -385  -461  -498  -502  -491  -483  -489  -506  -522  -531  -535  -536  -533  -508  -421  -261  -109  -48  -60  -94  -107  -83  -60  -77  -113  -143  -163  -167  -110  54  291  512  696  888  1083  1220  1287  1333  1384  1423  1434  1430  1439  1489  1587  1699  1783  1824  1810  1718  1555  1385  1288  1273  1256  1162  995  778  527  273  54  -118  -262  -382  -466  -523  -580  -634  -663  -662  -658  -706  -837  -997  -1087  -1078  -1017  -947  -886  -835  -784  -735  -702  -691  -694  -704  -717  -715  -661  -548  -436  -403  -452  -523  -566  -571  -551  -515  -461  -392  -325  -268  -220  -152  -24  141  265  287  207  68  -75  -195  -282  -333  -354  -356  -344  -335  -341  -357  -373  -393  -428  -465  -452  -343  -169  -16  66  97  74  -41  -235  -412  -507  -514  -449  -362  -294  -244  -191  -133  -87  -98  -197  -343  -442  -452  -421  -403  -396  -362  -283  -194  -131  -94  -89  -115  -154  -191  -200  -177  -148  -132  -129  -138  -169  -225  -293  -344  -358  -355  -360  -366  -358  -312  -207  -69  35  71  58  40  38  43  34  5  -9  25  95  143  130  73  22  2  3  7  12  24  40  23  -84  -295  -514  -634  -639  -577  -517  -492  -460  -391  -373  -537  -815  -845  -214  1205  3151  5050  6264  6427  5567  3968  2073  316  -1057  -1811  -1747  -1127  -513  -248  -320  -477  -520  -472  -422  -398  -392  -392  -392  -390  -385  -372  -342  -279  -199  -149  -159  -216  -275  -283  -226  -127  -9  105  181  184  135  87  63  57  61  71  92  133  199  288  406  558  723  885  1073  1278  1427  1482  1479  1466  1485  1559  1678  1796  1870  1882  1834  1754  1684  1652  1651  1669  1671  1576  1299  887  522  318  237  187  116  8  -146  -323  -466  -564  -638  -691  -717  -713  -673  -603  -530  -485  -461  -432  -397  -380  -387  -406  -416  -408  -392  -392  -432  -502  -536  -502  -455  -450  -469  -471  -450  -426  -424  -460  -550  -664  -730  -727  -699  -684  -688  -692  -679  -652  -619  -592  -574  -546  -481  -395  -347  -382  -479  -566  -598  -596  -587  -571  -545  -516  -495  -498  -522  -545  -550  -538  -513  -467  -394  -329  -326  -384  -445  -469  -474  -489  -487  -433  -362  -328  -340  -370  -387  -378  -363  -347  -302  -215  -127  -96  -147  -250  -360  -459  -538  -598  -651  -701  -714  -629  -435  -243  -177  -232  -329  -419  -480  -501  -464  -344  -162  16  139  186  158  79  -16  -111  -213  -300  -314  -254  -196  -189  -208  -205  -157  -61  70  187  232  192  106  28  -22  -61  -106  -159  -202  -214  -204  -198  -212  -244  -294  -359  -424  -468  -486  -488  -485  -476  -469  -486  -596  -860  -1150  -1243  -1068  -584  345  1780  3548  5246  6414  6675  5858  4163  2105  221  -1109  -1748  -1795  -1472  -1070  -840  -807  -836  -822  -752  -668  -614  -601  -588  -542  -471  -404  -359  -337  -314  -266  -208  -179  -194  -212  -195  -144  -101  -117  -190  -254  -267  -254  -243  -221  -163  -72  27  116  185  227  279  395  568  745  893  993  1050  1107  1211  1354  1481  1558  1587  1593  1592  1591  1591  1590  1589  1592  1601  1606  1564  1440  1261  1084  890  622  316  90  1  0  18  8  -62  -223  -453  -662  -784  -840  -878  -896  -857  -747  -628  -577  -588  -605  -609  -607  -607  -608  -615  -637  -669  -690  -692  -693  -708  -701  -644  -593  -619  -696  -734  -680  -572  -486  -456  -468  -505  -551  -590  -603  -565  -457  -317  -243  -283  -381  -438  -408  -329  -265  -236  -219  -198  -183  -195  -258  -367  -476  -540  -556  -540  -501  -448  -397  -342  -267  -186  -138  -168  -281  -361  -320  -250  -222  -203  -198  -176  -62  95  161  62  -157  -372  -482  -481  -418  -340  -297  -296  -280  -213  -121  -45  -5  6  6  -6  -47  -123  -238  -371  -441  -403  -330  -287  -262  -247  -251  -263  -272  -282  -297  -292  -207  -11  229  391  429  379  292  203  127  64  12  -57  -191  -370  -515  -571  -558  -526  -503  -481  -451  -418  -390  -394  -488  -715  -1008  -1227  -1258  -1079  -823  -594  -182  654  1918  3567  5314  6394  6186  4684  2297  -252  -2143  -2916  -2667  -1926  -1213  -686  -354  -230  -223  -224  -207  -195  -206  -231  -247  -254  -263  -274  -267  -233  -184  -137  -116  -113  -84  -26  -5  -65  -139  -128  -39  21  1  -29  -8  41  99  192  314  402  431  439  469  544  677  849  999  1101  1182  1256  1310  1340  1393  1522  1704  1856  1945  1995  2028  2043  2015  1908  1730  1555  1436  1354  1264  1138  966  760  554  372  226  130  99  108  84  -46  -281  -518  -672  -745  -760  -723  -648  -551  -436  -330  -295  -383  -550  -691  -751  -733  -661  -570  -494  -450  -439  -448  -468  -493  -521  -552  -578  -577  -549  -520  -497  -455  -358  -222  -107  -49  -39  -58  -94  -136  -179  -222  -260  -284  -296  -330  -425  -589  -764  -847  -786  -648  -536  -487  -475  -474  -477  -480  -476  -451  -405  -356  -325  -315  -314  -311  -323  -384  -512  -670  -797  -863  -878  -855  -784  -668  -551  -477  -454  -462  -487  -526  -546  -504  -414  -339  -310  -309  -308  -308  -322  -354  -393  -430  -461  -478  -447  -313  -79  149  250  181  -14  -255  -452  -554  -575  -566  -569  -601  -651  -697  -727  -742  -745  -753  -789  -850  -905  -925  -910  -922  -1080  -1350  -1375  -769  516  2300  4262  5843  6471  5897  4244  1978  -248  -1877  -2570  -2379  -1794  -1257  -859  -612  -525  -531  -557  -589  -643  -717  -773  -756  -647  -502  -382  -298  -262  -276  -317  -370  -429  -488  -546  -589  -582  -492  -322  -122  59  198  281  314  313  302  306  339  390  446  513  615  737  827  880  948  1071  1221  1342  1445  1597  1824  2045  2170  2200  2188  2167  2140  2108  2087  2068  1998  1823  1558  1267  1001  807  716  684  610  430  179  -49  -186  -239  -258  -279  -297  -297  -275  -240  -210  -199  -214  -269  -358  -453  -529  -575  -593  -592  -567  -504  -414  -337  -299  -300  -339  -413  -498  -547  -510  -357  -142  9  4  -160  -392  -563  -629  -622  -561  -449  -307  -172  -77  -31  -19  -18  -23  -29  -32  -26  -15  -12  -31  -71  -131  -223  -366  -557  -743  -847  -827  -694  -498  -309  -178  -108  -74  -64  -95  -193  -332  -446  -492  -482  -449  -418  -398  -391  -395  -405  -411  -383  -296  -172  -81  -94  -233  -447  -626  -704  -686  -603  -495  -403  -339  -308  -345  -466  -606  -652  -538  -325  -141  -54  -40  -67  -148  -289  -439  -529  -549  -537  -537  -569  -620  -657  -640  -522  -277  50  354  558  646  624  488  265  36  -120  -202  -267  -372  -504  -598  -612  -560  -488  -439  -421  -409  -385  -360  -369  -421  -498  -607  -778  -980  -1040  -677  243  1558  2983  4250  5080  5243  4691  3534  1972  310  -1093  -1921  -2049  -1628  -1001  -522  -358  -408  -485  -518  -524  -509  -467  -424  -408  -426  -465  -506  -536  -556  -561  -506  -345  -126  36  100  112  103  64  -2  -77  -143  -188  -218  -259  -305  -294  -157  107  400  603  683  686  668  654  651  677  756  878  985  1033  1050  1117  1291  1544  1769  1882  1890  1861  1834  1801  1749  1670  1542  1367  1218  1152  1145  1126  1013  751  399  95  -72  -127  -151  -212  -323  -449  -561  -645  -685  -658  -560  -442  -374  -374  -416  -473  -543  -597  -584  -500  -401  -339  -314  -318  -361  -440  -528  -602  -653  -687  -718  -727  -662  -498  -288  -133  -63  -56  -135  -343  -566  -586  -394  -180  -79  -93  -150  -168  -145  -123  -118  -113  -91  -63  -80  -165  -259  -296  -284  -264  -265  -285  -299  -284  -249  -219  -203  -203  -225  -276  -343  -393  -391  -324  -206  -76  21  42  -38  -178  -304  -379  -406  -397  -363  -310  -248  -201  -184  -179  -161  -131  -114  -135  -187  -247  -308  -372  -429  -463  -466  -432  -368  -302  -263  -254  -258  -263  -264  -260  -250  -245  -273  -367  -500  -595  -575  -420  -200  -29  38  32  -8  -67  -128  -166  -158  -102  -25  30  53  59  51  -6  -143  -301  -392  -415  -440  -502  -589  -687  -777  -821  -783  -654  -437  -151  69  -16  -451  -963  -1220  -902  219  2025  4043  5678  6416  6011  4649  2814  974  -516  -1457  -1850  -1768  -1363  -932  -663  -500  -375  -317  -354  -450  -533  -564  -564  -557  -536  -460  -328  -234  -255  -348  -438  -501  -556  -612  -610  -483  -276  -92  32  120  173  187  178  167  175  225  318  427  506  529  496  444  433  516  709  948  1136  1250  1324  1370  1382  1369  1347  1338  1388  1534  1731  1880  1941  1945  1905  1801  1643  1483  1364  1267  1111  838  489  176  -29  -154  -268  -400  -522  -594  -622  -647  -683  -714  -729  -730  -714  -673  -617  -573  -557  -572  -620  -691  -759  -806  -829  -829  -811  -780  -736  -667  -592  -558  -581  -614  -611  -586  -563  -531  -477  -415  -371  -362  -389  -459  -587  -747  -873  -921  -881  -749  -555  -381  -294  -286  -313  -351  -396  -456  -551  -666  -746  -759  -722  -671  -633  -593  -528  -459  -427  -436  -462  -503  -556  -620  -703  -789  -820  -756  -639  -550  -519  -524  -535  -544  -542  -509  -428  -322  -235  -174  -126  -105  -141  -226  -331  -447  -567  -652  -647  -557  -453  -390  -361  -335  -307  -281  -244  -189  -117  -37  24  43  20  -8  -18  -36  -84  -146  -208  -281  -384  -503  -589  -620  -623  -620  -620  -637  -662  -678  -688  -700  -704  -658  -562  -530  -589  -459  244  1705  3679  5445  6201  5608  3904  1645  -513  -2051  -2753  -2689  -2142  -1514  -1111  -957  -907  -865  -832  -815  -793  -750  -697  -650  -617  -603  -593  -557  -472  -343  -203  -95  -36  -10  9  33  52  66  107  210  350  451  474  436  379  333  302  286  315  439  645  841  952  993  1024  1079  1154  1235  1330  1461  1623  1771  1875  1935  1955  1962  2017  2161  2354  2488  2470  2270  1951  1641  1417  1266  1156  1075  1019  957  821  581  319  129  8  -88  -176  -279  -423  -582  -698  -748  -747  -719  -676  -615  -548  -509  -492  -449  -364  -271  -190  -118  -71  -77  -155  -283  -409  -502  -565  -591  -563  -477  -334  -150  28  151  208  216  183  99  -27  -146  -222  -264  -288  -281  -242  -194  -163  -161  -183  -216  -256  -308  -388  -510  -646  -735  -750  -706  -615  -495  -381  -305  -270  -267  -291  -340  -391  -440  -492  -539  -551  -502  -389  -279  -259  -336  -422  -434  -375  -305  -251  -187  -89  28  136  225  296  346  381  389  299  39  -323  -619  -780  -856  -892  -904  -909  -909  -880  -797  -688  -616  -605  -606  -534  -394  -392  -686  -1068  -1186  -765  467  2478  4640  6145  6487  5530  3567  1287  -654  -1945  -2455  -2247  -1682  -1159  -865  -741  -627  -482  -392  -415  -508  -587  -615  -598  -545  -477  -425  -406  -412  -435  -465  -488  -484  -434  -339  -239  -177  -176  -241  -361  -486  -553  -523  -401  -252  -156  -134  -150  -161  -111  46  324  661  933  1070  1102  1089  1061  1048  1118  1328  1614  1823  1897  1899  1893  1888  1874  1849  1802  1700  1531  1328  1139  986  874  795  729  639  486  276  70  -80  -182  -274  -392  -542  -686  -783  -831  -854  -855  -799  -656  -471  -352  -354  -443  -562  -667  -729  -746  -743  -742  -743  -738  -719  -689  -646  -570  -459  -349  -284  -267  -283  -311  -343  -398  -502  -627  -704  -711  -668  -585  -481  -385  -309  -246  -184  -120  -60  -7  21  -13  -132  -308  -484  -603  -649  -661  -667  -652  -608  -562  -544  -553  -568  -557  -474  -307  -120  1  22  -39  -145  -257  -348  -406  -429  -433  -430  -429  -435  -446  -469  -507  -543  -533  -446  -308  -219  -244  -313  -302  -180  -7  135  210  217  149  4  -166  -286  -328  -327  -317  -310  -308  -314  -332  -360  -389  -406  -374  -253  -108  -179  -597  -1099  -1262  -818  318  2000  3829  5362  6259  6274  5340  3635  1506  -533  -1871  -2226  -1867  -1242  -705  -448  -409  -428  -448  -462  -458  -432  -404  -408  -459  -543  -630  -687  -712  -716  -691  -602  -452  -305  -224  -208  -218  -230  -233  -222  -200  -202  -245  -266  -182  4  207  349  420  457  480  496  508  510  529  641  859  1101  1302  1452  1565  1652  1702  1709  1693  1696  1765  1888  1965  1924  1822  1748  1704  1619  1442  1217  1032  919  838  755  668  568  418  231  67  -58  -167  -262  -352  -443  -512  -540  -534  -492  -397  -258  -142  -115  -151  -170  -155  -137  -129  -126  -130  -154  -213  -331  -513  -673  -674  -509  -310  -180  -136  -151  -188  -219  -246  -291  -362  -440  -521  -602  -664  -688  -678  -648  -633  -654  -681  -672  -612  -526  -455  -420  -420  -446  -489  -535  -574  -601  -609  -586  -539  -501  -478  -446  -413  -416  -469  -541  -588  -598  -585  -556  -521  -489  -465  -451  -475  -580  -768  -958  -1065  -1067  -996  -904  -835  -790  -742  -675  -602  -548  -523  -518  -522  -526  -520  -496  -458  -422  -408  -448  -573  -747  -871  -868  -733  -540  -404  -387  -470  -590  -684  -736  -776  -834  -899  -946  -970  -978  -959  -908  -845  -791  -741  -680  -650  -752  -1000  -1282  -1367  -824  637  2720  4741  6021  6113  5051  3286  1386  -224  -1399  -2093  -2238  -2002  -1733  -1575  -1439  -1266  -1107  -1046  -1124  -1309  -1504  -1619  -1649  -1637  -1598  -1480  -1230  -917  -695  -628  -670  -774  -919  -1066  -1162  -1204  -1242  -1295  -1335  -1329  -1285  -1231  -1177  -1083  -899  -653  -444  -294  -155  -22  76  162  292  472  654  817  1008  1263  1528  1738  1925  2166  2482  2820  3089  3227  3254  3231  3194  3151  3108  3074  3043  2964  2765  2440  2065  1735  1512  1387  1293  1181  1057  956  889  837  774  707  681  724  797  818  741  608  486  386  296  232  208  216  244  292  351  399  422  426  420  408  383  335  265  189  130  99  89  88  89  93  109  139  167  173  147  81  -7  -71  -91  -95  -120  -174  -235  -279  -310  -337  -358  -354  -350  -405  -491  -519  -490  -462  -457  -456  -438  -390  -323  -260  -213  -193  -213  -250  -273  -285  -305  -321  -295  -244  -244  -320  -415  -479  -508  -516  -520  -530  -550  -564  -542  -484  -438  -436  -467  -499  -517  -522  -522  -520  -521  -525  -527  -515  -476  -418  -374  -361  -346  -310  -278  -278  -303  -328  -331  -283  -159  3  124  167  167  161  152  129  91  40  -40  -169  -329  -495  -686  -884  -1015  -1054  -1049  -1053  -1084  -1136  -1190  -1224  -1188  -1013  -723  -526  -619  -850  -764  29  1652  3860  5941  6998  6613  5004  2708  386  -1353  -2253  -2461  -2231  -1784  -1371  -1120  -965  -816  -650  -495  -391  -347  -329  -298  -231  -144  -80  -67  -112  -192  -253  -263  -249  -249  -259  -258  -218  -126  -9  79  116  119  116  122  133  142  152  163  180  206  227  236  249  287  349  444  618  908  1295  1674  1899  1933  1870  1800  1751  1727  1724  1737  1756  1762  1756  1745  1694  1557  1359  1184  1079  990  808  533  281  137  76  27  -53  -160  -300  -514  -773  -959  -1025  -1025  -1011  -972  -877  -752  -670  -665  -704  -733  -733  -707  -657  -587  -527  -522  -601  -746  -887  -963  -975  -944  -875  -790  -726  -699  -700  -718  -749  -777  -757  -658  -519  -416  -372  -358  -359  -393  -480  -600  -698  -747  -757  -743  -695  -606  -510  -461  -474  -518  -557  -580  -597  -603  -591  -573  -564  -573  -593  -606  -599  -570  -525  -476  -442  -428  -430  -446  -478  -505  -498  -460  -425  -415  -424  -432  -417  -372  -315  -279  -277  -291  -306  -316  -293  -184  6  173  202  88  -78  -219  -310  -368  -423  -482  -521  -527  -527  -547  -576  -592  -596  -607  -640  -685  -713  -677  -558  -433  -388  -437  -576  -672  -367  718  2584  4705  6323  6741  5683  3560  1148  -890  -2135  -2446  -2040  -1361  -800  -516  -436  -415  -391  -388  -440  -526  -595  -622  -614  -581  -523  -431  -321  -219  -148  -113  -108  -119  -126  -106  -42  45  108  123  100  67  44  32  24  28  76  192  342  475  588  701  803  881  944  1007  1059  1081  1095  1190  1429  1740  1969  2072  2136  2213  2267  2241  2131  1988  1884  1850  1845  1780  1565  1208  856  644  559  502  408  265  96  -67  -208  -319  -384  -403  -398  -389  -387  -399  -429  -458  -465  -460  -473  -512  -566  -631  -706  -775  -796  -733  -596  -428  -284  -210  -211  -256  -314  -338  -310  -269  -263  -292  -328  -346  -358  -404  -510  -643  -738  -769  -751  -705  -646  -579  -483  -354  -239  -194  -231  -315  -393  -432  -436  -420  -395  -364  -334  -316  -310  -308  -305  -308  -336  -396  -466  -513  -496  -398  -284  -232  -255  -321  -380  -406  -431  -483  -534  -554  -537  -501  -473  -464  -466  -463  -441  -393  -334  -285  -239  -190  -175  -231  -330  -413  -453  -460  -458  -461  -466  -451  -394  -305  -230  -199  -206  -230  -250  -267  -293  -320  -328  -314  -295  -303  -351  -417  -473  -500  -490  -455  -380  -238  -51  104  184  202  188  148  75  -11  -70  -83  -66  -45  -39  -51  -88  -167  -292  -414  -473  -465  -436  -419  -418  -430  -455  -485  -497  -473  -400  -262  -127  -219  -622  -961  -668  489  2263  4138  5632  6418  6328  5350  3689  1773  38  -1144  -1551  -1343  -907  -528  -333  -272  -247  -246  -262  -284  -345  -469  -616  -713  -721  -655  -557  -456  -344  -228  -150  -131  -136  -108  -19  92  144  94  -17  -116  -167  -181  -164  -114  -40  27  74  121  195  320  511  736  916  1006  1030  1030  1025  1014  1009  1060  1207  1406  1554  1614  1640  1698  1809  1932  1988  1914  1721  1496  1339  1275  1257  1236  1175  1040  820  563  326  109  -92  -240  -304  -306  -289  -280  -294  -329  -373  -432  -518  -607  -667  -690  -671  -619  -555  -475  -401  -367  -393  -482  -604  -704  -759  -772  -752  -718  -675  -600  -474  -337  -259  -247  -257  -275  -323  -411  -510  -578  -600  -598  -591  -575  -534  -464  -391  -353  -350  -332  -254  -140  -48  0  14  12  10  16  12  -40  -173  -360  -480  -384  -94  191  321  310  242  166  84  8  -25  -10  35  102  167  207  212  175  111  59  25  -15  -70  -94  -59  -19  -23  -53  -72  -78  -79  -71  -44  7  77  137  139  39  -134  -295  -374  -368  -302  -212  -134  -89  -73  -64  -44  -8  29  48  16  -88  -231  -333  -359  -342  -322  -306  -284  -244  -197  -163  -144  -121  -90  -64  -52  -54  -67  -95  -140  -190  -236  -281  -329  -368  -382  -350  -258  -135  -44  -11  -8  -4  12  30  48  71  96  115  115  81  2  -126  -312  -516  -677  -786  -859  -868  -777  -621  -488  -425  -407  -403  -418  -488  -610  -711  -790  -950  -1151  -1086  -433  909  2785  4713  6042  6386  5727  4237  2296  430  -993  -1840  -2041  -1720  -1260  -929  -718  -567  -481  -482  -573  -732  -905  -1012  -996  -870  -700  -561  -467  -392  -347  -332  -312  -328  -440  -578  -641  -605  -487  -338  -228  -174  -149  -128  -91  -17  97  222  301  309  282  258  238  220  238  361  615  920  1151  1282  1373  1455  1502  1508  1514  1558  1659  1799  1932  2004  1986  1908  1838  1807  1785  1700  1485  1174  899  749  699  688  667  609  487  280  5  -277  -510  -666  -746  -776  -782  -750  -654  -543  -520  -599  -690  -734  -738  -718  -670  -602  -539  -500  -479  -467  -471  -497  -529  -530  -490  -442  -409  -379  -349  -333  -334  -345  -365  -394  -422  -428  -455  -555  -674  -719  -680  -610  -557  -527  -486  -422  -361  -329  -302  -260  -226  -236  -298  -373  -397  -352  -294  -293  -385  -555  -729  -834  -863  -840  -767  -636  -466  -307  -239  -308  -474  -640  -725  -721  -670  -616  -581  -573  -577  -567  -532  -487  -466  -474  -491  -499  -501  -504  -516  -549  -600  -647  -667  -650  -599  -539  -513  -548  -644  -752  -816  -830  -824  -805  -753  -661  -544  -438  -410  -495  -630  -715  -715  -670  -618  -555  -472  -389  -338  -329  -349  -364  -325  -215  -85  -23  -58  -162  -304  -456  -582  -663  -712  -748  -776  -795  -799  -787  -769  -759  -765  -792  -832  -877  -917  -946  -990  -1109  -1308  -1438  -1264  -617  568  2218  4028  5466  6043  5620  4319  2443  502  -1055  -2020  -2352  -2241  -1995  -1747  -1449  -1091  -757  -505  -348  -280  -281  -333  -415  -501  -568  -605  -617  -619  -618  -594  -530  -443  -375  -332  -281  -221  -197  -231  -284  -288  -221  -117  -25  26  64  153  314  486  597  641  655  673  704  746  805  887  968  1026  1076  1173  1356  1599  1816  1950  2025  2100  2188  2256  2284  2287  2279  2248  2144  1931  1669  1468  1338  1176  914  596  322  157  82  39  3  -26  -63  -137  -244  -344  -386  -362  -316  -280  -243  -183  -103  -18  71  166  226  221  155  59  -32  -109  -186  -238  -229  -152  -10  158  275  311  301  288  293  325  372  406  413  405  409  454  545  652  744  830  919  986  999  939  827  760  808  914  992  1035  1045  1007  929  850  799  767  732  694  653  606  574  589  656  752  844  899  912  904  898  905  928  969  1018  1055  1059  1010  899  767  668  616  606  697  959  1335  1637  1738  1668  1548  1464  1419  1387  1363  1364  1427  1538  1622  1631  1591  1559  1546  1516  1443  1330  1207  1119  1071  1018  924  799  686  598  489  290  28  -188  -309  -369  -402  -456  -558  -508  32  1206  2818  4408  5464  5655  4920  3507  1776  -45  -1746  -3011  -3535  -3221  -2367  -1578  -1289  -1432  -1654  -1759  -1772  -1753  -1708  -1641  -1601  -1638  -1742  -1865  -1954  -1970  -1943  -1929  -1940  -1928  -1820  -1595  -1328  -1080  -853  -706  -741  -963  -1196  -1216  -1025  -822  -731  -721  -733  -743  -754  -763  -749  -701  -633  -563  -475  -340  -162  7  111  138  128  120  123  131  137  150  174  205  214  157  30  -102  -181  -205  -239  -374  -641  -964  -1241  -1449  -1619  -1776  -1926  -2066  -2201  -2325  -2387  -2357  -2288  -2243  -2228  -2215  -2194  -2187  -2210  -2204  -2065  -1803  -1575  -1483  -1491  -1527  -1560  -1583  -1603  -1624  -1642  -1647  -1618  -1537  -1420  -1299  -1180  -1065  -989  -972  -994  -1027  -1041  -1004  -895  -742  -616  -559  -561  -591  -592  -533  -457  -421  -421  -426  -409  -367  -330  -334  -369  -397  -364  -221  5  194  215  50  -186  -373  -510  -652  -779  -807  -699  -546  -463  -454  -444  -392  -329  -301  -301  -300  -290  -268  -225  -169  -126  -104  -94  -106  -179  -353  -624  -886  -927  -601  -43  426  625  578  372  102  -115  -211  -182  -63  74  167  193  140  -2  -188  -322  -363  -347  -301  -223  -126  -44  25  108  204  296  357  342  217  33  -105  -158  -147  -85  26  143  193  143  42  -34  -67  -82  -112  -176  -274  -366  -410  -400  -360  -317  -279  -236  -201  -205  -256  -321  -355  -352  -333  -310  -281  -273  -390  -680  -968  -977  -489  644  2367  4328  6073  7141  7139  6026  4174  2098  257  -978  -1462  -1365  -946  -430  -94  -72  -203  -300  -332  -343  -350  -348  -318  -249  -155  -90  -110  -195  -266  -292  -301  -311  -313  -290  -233  -144  -18  147  306  359  290  219  256  380  539  722  918  1108  1273  1385  1416  1374  1312  1302  1392  1624  2015  2448  2732  2806  2754  2666  2592  2551  2541  2549  2566  2591  2611  2615  2605  2585  2545  2475  2385  2278  2133  1949  1772  1638  1512  1300  929  471  120  -23  -28  0  12  5  -5  10  78  182  277  334  361  365  335  246  96  -63  -164  -191  -181  -170  -171  -191  -221  -238  -225  -191  -159  -134  -104  -74  -58  -60  -76  -105  -150  -206  -230  -189  -151  -194  -281  -360  -447  -550  -623  -629  -574  -502  -460  -460  -476  -491  -504  -505  -446  -284  -77  35  -25  -199  -341  -363  -311  -265  -241  -226  -208  -195  -208  -277  -395  -504  -563  -577  -559  -516  -436  -309  -158  -28  46  67  48  -10  -102  -200  -276  -313  -312  -288  -267  -280  -336  -388  -383  -328  -273  -247  -238  -216  -181  -153  -144  -148  -155  -159  -148  -108  -47  -2  -13  -100  -253  -439  -618  -757  -834  -798  -609  -354  -191  -174  -237  -297  -319  -300  -235  -140  -54  -26  -126  -412  -796  -1082  -1198  -1215  -1189  -1115  -998  -888  -835  -842  -875  -883  -842  -800  -842  -938  -952  -895  -929  -1004  -709  355  2148  4183  5842  6638  6286  4752  2432  25  -1868  -2820  -2659  -1817  -1078  -821  -866  -945  -970  -936  -834  -681  -538  -466  -479  -554  -646  -706  -726  -727  -714  -680  -627  -588  -606  -670  -741  -773  -713  -567  -425  -332  -241  -94  83  204  229  198  155  124  115  147  256  438  627  761  836  885  948  1046  1185  1369  1565  1715  1793  1819  1832  1880  1990  2122  2193  2141  1966  1728  1514  1376  1314  1292  1253  1137  918  638  391  248  184  119  -7  -182  -336  -429  -466  -468  -462  -489  -579  -702  -784  -785  -737  -703  -719  -758  -788  -820  -870  -928  -964  -946  -848  -668  -469  -357  -378  -477  -551  -565  -568  -534  -389  -194  -102  -177  -341  -468  -500  -461  -366  -198  4  166  257  282  236  112  -45  -158  -194  -185  -169  -163  -160  -147  -133  -137  -171  -221  -266  -298  -310  -264  -114  95  251  301  275  197  65  -81  -165  -161  -110  -65  -44  -40  -63  -132  -233  -318  -352  -339  -287  -194  -42  165  366  494  544  544  484  327  116  -41  -98  -94  -78  -59  -18  40  74  70  63  34  -56  -170  -238  -250  -241  -237  -240  -240  -238  -239  -253  -278  -302  -340  -445  -647  -878  -991  -850  -369  564  1998  3686  5130  5917  5846  4794  2933  986  -281  -744  -791  -768  -756  -723  -665  -609  -567  -535  -511  -490  -459  -413  -363  -328  -322  -350  -404  -448  -460  -481  -570  -704  -788  -791  -752  -705  -663  -636  -636  -673  -715  -718  -693  -669  -617  -484  -288  -117  -26  1  4  0]
