reading_id,reading_time,wire_id,result_classification,heart_rate,heart_rate_alert,firmware_version,device_app_version,hardware_version,waveform_samples
847a4650-da78-11ed-8080-808080808080,Fri Apr 14 03:57:47 UTC 2023,e12964476439,NSR,79,NONE,20001.188.58,2.13.0,Charge 5,[2565  2603  2635  2658  2665  2655  2645  2680  2771  2811  2697  2500  2333  2225  2171  2151  2112  2019  1891  1787  1734  1680  1536  1268  960  738  634  580  499  371  235  124  37  -28  -56  -89  -216  -398  -511  -412  153  1269  2679  4138  5463  6313  6309  5328  3533  1322  -726  -2077  -2533  -2334  -1873  -1407  -1166  -1273  -1509  -1603  -1549  -1462  -1408  -1412  -1485  -1619  -1770  -1899  -1991  -2044  -2077  -2108  -2125  -2119  -2128  -2169  -2216  -2241  -2231  -2196  -2159  -2123  -2057  -1943  -1813  -1732  -1723  -1703  -1544  -1196  -746  -350  -82  94  213  272  271  225  160  104  83  118  216  343  432  444  391  296  148  -101  -435  -734  -909  -1025  -1207  -1459  -1665  -1753  -1759  -1728  -1671  -1588  -1508  -1502  -1622  -1820  -1977  -2027  -2000  -1946  -1867  -1760  -1654  -1582  -1536  -1511  -1540  -1669  -1858  -1969  -1922  -1788  -1685  -1630  -1544  -1383  -1199  -1068  -1016  -1057  -1205  -1411  -1574  -1642  -1655  -1667  -1689  -1703  -1678  -1597  -1483  -1387  -1329  -1300  -1310  -1363  -1441  -1523  -1588  -1622  -1620  -1587  -1529  -1461  -1391  -1331  -1296  -1293  -1303  -1312  -1344  -1423  -1508  -1520  -1411  -1200  -965  -763  -612  -520  -485  -489  -515  -531  -490  -359  -146  67  158  61  -155  -362  -487  -546  -578  -610  -655  -708  -750  -771  -768  -727  -635  -500  -381  -383  -561  -800  -842  -385  745  2440  4358  6008  6915  6854  5838  4036  1877  7  -1097  -1413  -1211  -796  -406  -180  -135  -209  -333  -458  -560  -636  -662  -653  -646  -623  -562  -470  -348  -206  -70  23  59  55  34  11  -2  0  15  38  56  71  94  136  206  330  529  761  939  1031  1094  1188  1312  1422  1488  1522  1541  1547  1548  1590  1730  1942  2109  2148  2054  1881  1696  1535  1388  1222  1022  816  637  501  419  376  344  311  280  241  168  44  -119  -291  -439  -561  -693  -839  -941  -951  -879  -782  -705  -615  -438  -197  -25  -21  -170  -370  -505  -546  -540  -536  -547  -570  -593  -603  -592  -574  -568  -574  -584  -593  -596  -574  -508  -418  -350  -329  -347  -397  -475  -564  -654  -743  -816  -855  -866  -868  -869  -853  -805  -729  -638  -538  -458  -457  -537  -634  -698  -731  -750  -751  -706  -592  -448  -339  -289  -289  -367  -559  -782  -879  -810  -674  -549  -455  -382  -292  -146  20  117  105  33  -32  -77  -127  -195  -269  -358  -490  -656  -795  -861  -860  -825  -781  -739  -693  -638  -577  -500  -418  -439  -684  -1008  -1012  -380  1006  3078  5395  7212  7869  7079  5078  2577  357  -1053  -1495  -1273  -892  -608  -424  -317  -259  -218  -201  -248  -394  -595  -753  -822  -814  -713  -495  -253  -139  -162  -205  -170  -37  129  256  324  353  378  425  477  496  493  509  540  572  615  685  773  871  1010  1215  1429  1567  1614  1620  1627  1655  1719  1796  1848  1864  1863  1856  1837  1799  1742  1676  1607  1529  1429  1286  1086  863  672  537  436  333  227  155  132  137  151  169  175  145  77  -9  -97  -178  -246  -292  -307  -259  -117  78  220  235  124  -48  -189  -250  -253  -243  -243  -260  -280  -290  -298  -341  -451  -587  -664  -649  -580  -509  -458  -424  -396  -383  -414  -515  -665  -795  -860  -873  -866  -846  -802  -744  -697  -671  -649  -636  -682  -854  -1130  -1375  -1472  -1414  -1272  -1126  -1011  -919  -842  -801  -797  -775  -705  -640  -611  -589  -564  -551  -544  -524  -483  -416  -316  -206  -132  -131  -206  -327  -446  -540  -618  -685  -733  -766  -805  -868  -944  -1031  -1133  -1195  -1145  -1023  -1003  -1218  -1583  -1808  -1478  -323  1557  3786  5741  6726  6438  5062  3049  996  -572  -1449  -1729  -1645  -1453  -1320  -1255  -1196  -1126  -1069  -1017  -936  -834  -737  -670  -692  -812  -927  -949  -873  -755  -650  -568  -495  -415  -304  -176  -113  -160  -237  -251  -208  -167  -131  -37  146  369  554  676  761  858  1021  1241  1447  1585  1662  1710  1756  1796  1822  1834  1834  1831  1831  1827  1795  1707  1545  1335  1142  1012  932  856  740  528  190  -195  -490  -634  -660  -609  -509  -384  -279  -267  -394  -604  -780  -874  -911  -922  -920  -911  -901  -885  -837  -754  -676  -632  -612  -609  -625  -654  -686  -700  -662  -561  -436  -345  -309  -305  -324  -403  -574  -775  -868  -782  -598  -453  -403  -409  -429  -452  -478  -494  -474  -394  -273  -164  -107  -126  -231  -378  -493  -548  -565  -561  -536  -482  -389  -283  -206  -163  -145  -151  -185  -233  -276  -293  -260  -154  -1  134  217  252  252  227  191  147  60  -97  -291  -448  -533  -523  -403  -244  -153  -166  -232  -284  -292  -258  -219  -271  -514  -874  -1039  -663  439  2218  4256  5883  6636  6444  5386  3654  1693  9  -1093  -1491  -1292  -857  -552  -507  -601  -666  -655  -605  -543  -447  -283  -96  -21  -140  -375  -568  -647  -655  -646  -625  -564  -455  -334  -240  -160  -60  53  141  190  222  250  262  255  246  257  321  498  798  1118  1335  1431  1475  1519  1571  1627  1681  1719  1724  1697  1653  1599  1526  1429  1333  1244  1132  982  822  679  519  295  45  -124  -184  -203  -254  -357  -487  -603  -681  -725  -744  -748  -745  -743  -740  -737  -734  -735  -752  -774  -761  -703  -662  -668  -679  -675  -664  -656  -680  -745  -803  -804  -737  -633  -534  -454  -386  -340  -322  -335  -386  -472  -564  -618  -631  -645  -676  -693  -682  -678  -720  -757  -668  -457  -316  -351  -455  -507  -497  -459  -420  -382  -342  -302  -269  -246  -232  -232  -246  -261  -261  -251  -245  -245  -231  -191  -133  -82  -50  -44  -53  -46  -18  5  21  57  138  273  427  535  588  624  660  694  706  676  606  496  338  169  51  -9  -61  -130  -201  -247  -275  -304  -327  -327  -304  -268  -241  -283  -446  -673  -877  -950  -603  395  1919  3728  5534  6805  6992  5921  3881  1531  -369  -1382  -1595  -1402  -1155  -1015  -975  -955  -905  -838  -806  -851  -966  -1085  -1110  -986  -777  -615  -557  -563  -577  -574  -549  -504  -451  -420  -432  -474  -517  -546  -544  -516  -469  -393  -280  -129  53  244  399  486  513  529  583  707  878  1032  1126  1167  1182  1192  1215  1275  1360  1396  1315  1137  955  847  811  814  831  805  655  372  25  -301  -548  -694  -760  -780  -791  -803  -799  -761  -704  -670  -675  -700  -723  -750  -795  -849  -892  -916  -927  -929  -922  -913  -909  -910  -913  -903  -874  -830  -774  -693  -596  -509  -451  -435  -468  -531  -593  -633  -635  -614  -599  -583  -536  -452  -351  -245  -152  -112  -127  -155  -170  -184  -216  -258  -289  -314  -364  -436  -479  -458  -403  -359  -345  -348  -353  -355  -348  -315  -261  -229  -255  -315  -372  -422  -462  -483  -482  -462  -432  -385  -288  -133  29  135  165  135  67  -14  -90  -150  -173  -139  -56  70  250  462  649  765  776  650  421  185  22  -59  -88  -89  -86  -85  -78  -73  -113  -233  -399  -522  -562  -546  -500  -425  -349  -378  -573  -834  -989  -777  190  2038  4380  6593  7979  7969  6547  4247  1764  -242  -1335  -1552  -1275  -867  -613  -609  -664  -642  -596  -587  -608  -638  -664  -687  -693  -666  -622  -587  -549  -470  -357  -257  -199  -182  -204  -253  -309  -349  -370  -375  -337  -222  -48  135  309  464  570  616  626  631  653  713  824  974  1145  1344  1565  1737  1806  1791  1735  1697  1712  1735  1701  1603  1491  1414  1374  1312  1170  952  704  461  242  65  -56  -134  -199  -289  -425  -580  -697  -748  -753  -740  -731  -752  -828  -939  -1025  -1031  -961  -878  -828  -795  -778  -791  -817  -825  -800  -743  -661  -554  -443  -388  -426  -519  -595  -623  -620  -608  -597  -582  -554  -505  -441  -379  -331  -304  -293  -287  -294  -345  -465  -638  -787  -823  -740  -624  -550  -516  -484  -446  -420  -423  -453  -491  -522  -548  -583  -617  -631  -623  -609  -600  -597  -597  -597  -592  -573  -538  -495  -458  -435  -422  -407  -385  -374  -392  -443  -513  -586  -634  -633  -582  -502  -430  -387  -374  -375  -375  -370  -366  -381  -418  -464  -517  -576  -622  -615  -511  -309  -85  65  117  108  84  92  157  226  191  20  -213  -432  -601  -693  -684  -607  -531  -494  -483  -479  -476  -479  -497  -536  -605  -736  -939  -1103  -1012  -428  793  2580  4637  6476  7505  7320  5943  3792  1519  -222  -1102  -1253  -1035  -733  -559  -591  -710  -798  -837  -845  -823  -766  -680  -574  -455  -366  -344  -365  -406  -485  -593  -674  -704  -708  -709  -696  -607  -376  -43  241  374  387  361  340  338  369  442  531  593  627  702  903  1242  1612  1869  1976  1994  1994  1995  1987  1956  1903  1846  1809  1800  1812  1823  1779  1628  1379  1114  906  759  599  367  97  -124  -241  -271  -277  -304  -382  -518  -672  -790  -861  -899  -921  -935  -934  -916  -889  -859  -838  -825  -808  -773  -710  -635  -586  -586  -623  -662  -685  -705  -727  -738  -734  -716  -693  -673  -659  -649  -645  -649  -653  -630  -559  -456  -370  -334  -375  -520  -740  -938  -1029  -983  -804  -569  -400  -343  -354  -394  -455  -539  -622  -670  -676  -664  -655  -648  -640  -640  -654  -674  -687  -679  -649  -618  -588  -540  -484  -465  -519  -636  -774  -883  -925  -853  -635  -328  -67  61  87  79  66  31  -48  -156  -239  -268  -244  -168  -62  29  63  -21  -270  -606  -853  -941  -936  -903  -849  -760  -659  -585  -551  -575  -694  -886  -1042  -995  -526  553  2246  4264  6077  7146  7056  5653  3336  933  -801  -1512  -1347  -855  -548  -568  -730  -840  -903  -972  -1013  -979  -856  -663  -454  -284  -181  -138  -132  -167  -253  -363  -443  -461  -418  -311  -160  -22  55  80  90  121  175  238  317  434  586  734  846  912  939  964  1050  1248  1520  1762  1919  2038  2176  2324  2423  2436  2379  2289  2189  2062  1880  1664  1473  1323  1166  984  830  757  756  771  734  591  354  81  -176  -390  -552  -679  -773  -810  -787  -737  -680  -612  -549  -512  -503  -509  -521  -536  -552  -566  -573  -574  -573  -571  -572  -583  -601  -609  -589  -533  -447  -369  -359  -411  -464  -489  -496  -494  -482  -463  -461  -497  -548  -573  -565  -542  -529  -549  -611  -715  -830  -912  -942  -906  -787  -602  -428  -330  -313  -359  -464  -624  -787  -877  -876  -833  -796  -758  -695  -612  -544  -515  -515  -533  -562  -592  -606  -582  -512  -423  -360  -331  -308  -272  -239  -229  -231  -205  -120  3  95  96  -8  -182  -355  -481  -556  -611  -694  -824  -978  -1116  -1193  -1165  -1013  -787  -585  -475  -517  -749  -1046  -1078  -454  993  3027  5114  6693  7294  6691  5080  2953  852  -696  -1386  -1373  -1047  -699  -488  -440  -456  -458  -445  -430  -429  -449  -481  -506  -518  -526  -532  -516  -451  -341  -222  -128  -73  -52  -51  -58  -66  -65  -58  -74  -113  -122  -81  -8  110  282  473  643  784  908  1045  1207  1377  1540  1678  1765  1807  1837  1871  1904  1923  1924  1914  1901  1879  1842  1788  1708  1594  1442  1239  987  706  431  212  89  49  43  33  7  -57  -192  -388  -596  -768  -867  -894  -881  -859  -833  -794  -741  -691  -660  -647  -642  -639  -638  -639  -643  -646  -641  -613  -565  -519  -500  -529  -620  -759  -880  -891  -751  -543  -399  -372  -411  -449  -468  -482  -504  -528  -544  -545  -536  -529  -531  -550  -586  -624  -657  -674  -645  -553  -429  -317  -250  -236  -271  -352  -450  -519  -547  -566  -612  -680  -731  -747  -745  -742  -746  -760  -786  -808  -790  -727  -642  -544  -442  -366  -327  -310  -302  -298  -299  -325  -410  -553  -695  -777  -791  -748  -642  -463  -249  -76  11  29  20  9  0  -5  -5  0  4  -15  -85  -200  -316  -393  -437  -472  -486  -461  -418  -388  -369  -336  -282  -243  -297  -464  -658  -884  -1213  -1451  -1190  -183  1517  3599  5608  7045  7484  6792  5167  2984  796  -743  -1317  -1138  -653  -269  -206  -369  -523  -589  -615  -619  -596  -546  -491  -441  -382  -322  -285  -278  -283  -275  -241  -187  -139  -111  -100  -99  -105  -120  -143  -161  -137  -40  113  274  410  520  617  715  824  933  1021  1064  1065  1063  1133  1335  1616  1833  1921  1920  1889  1862  1859  1874  1881  1850  1775  1657  1473  1228  995  848  751  612  419  226  55  -104  -243  -343  -403  -442  -488  -551  -604  -619  -592  -545  -532  -588  -676  -730  -737  -728  -726  -728  -718  -677  -588  -472  -395  -398  -469  -553  -622  -681  -715  -702  -639  -526  -410  -345  -330  -329  -327  -317  -297  -262  -241  -292  -407  -507  -544  -531  -487  -421  -347  -299  -298  -344  -418  -494  -555  -578  -554  -513  -491  -487  -486  -478  -471  -473  -492  -525  -559  -581  -592  -597  -600  -606  -614  -622  -624  -620  -610  -596  -576  -553  -533  -520  -510  -501  -474  -391  -252  -112  -30  -17  -77  -212  -384  -524  -604  -657  -716  -750  -725  -666  -623  -602  -561  -457  -298  -138  -17  53  72  45  -4  -48  -71  -77  -81  -93  -122  -171  -232  -294  -360  -460  -609  -771  -886  -931  -921  -864  -751  -598  -455  -366  -404  -681  -1157  -1495  -1240  -110  1892  4404  6736  8181  8315  7099  4885  2339  182  -1125  -1549  -1385  -1036  -807  -750  -748  -743  -758  -819  -926  -1025  -1033  -925  -750  -585  -486  -459  -472  -498  -523  -542  -552  -550  -537  -516  -487  -453  -435  -455  -510  -555  -538  -422  -194  97  345  497  599  705  830  952  1050  1125  1188  1234  1278  1371  1541  1752  1948  2098  2174  2135  1972  1738  1517  1343  1214  1135  1087  1006  839  592  320  106  -6  -43  -65  -100  -140  -176  -221  -287  -389  -536  -702  -823  -860  -834  -811  -837  -896  -937  -933  -898  -859  -821  -772  -698  -613  -555  -550  -591  -650  -692  -688  -633  -553  -488  -460  -456  -458  -466  -493  -550  -632  -709  -754  -773  -813  -919  -1098  -1281  -1340  -1200  -934  -700  -585  -561  -570  -568  -539  -500  -479  -478  -476  -466  -465  -497  -561  -626  -660  -666  -672  -698  -738  -756  -702  -570  -437  -370  -350  -346  -349  -351  -361  -380  -397  -420  -471  -571  -705  -825  -886  -849  -675  -401  -152  -22  -7  -42  -48  24  133  179  141  83  39  -12  -81  -132  -111  8  193  372  508  587  561  411  189  -30  -209  -332  -392  -402  -392  -382  -380  -392  -426  -467  -487  -473  -437  -429  -535  -775  -999  -893  -167  1263  3236  5348  7037  7774  7261  5605  3302  1021  -624  -1355  -1350  -1069  -881  -839  -810  -705  -560  -451  -419  -448  -497  -526  -521  -479  -408  -336  -295  -288  -299  -306  -285  -216  -120  -37  25  83  133  167  185  200  228  276  327  359  367  378  425  531  722  1016  1347  1605  1742  1783  1771  1750  1776  1891  2060  2186  2228  2230  2234  2228  2147  1947  1681  1456  1302  1184  1077  981  879  705  404  38  -243  -363  -372  -367  -415  -534  -685  -796  -847  -871  -885  -885  -871  -846  -813  -773  -739  -723  -722  -729  -739  -734  -686  -586  -464  -363  -320  -322  -320  -309  -339  -459  -674  -903  -1006  -954  -843  -755  -708  -685  -663  -635  -593  -528  -467  -448  -463  -479  -496  -531  -579  -618  -636  -637  -630  -614  -599  -593  -598  -608  -621  -632  -635  -627  -606  -574  -528  -483  -475  -513  -559  -579  -577  -569  -572  -603  -663  -724  -743  -670  -477  -222  -8  121  176  171  126  72  38  15  -44  -179  -364  -532  -625  -642  -621  -599  -604  -633  -636  -587  -541  -551  -631  -776  -946  -1047  -915  -315  892  2600  4478  6101  7018  6840  5533  3497  1284  -505  -1438  -1564  -1275  -980  -889  -914  -890  -796  -680  -568  -472  -424  -484  -674  -853  -807  -546  -300  -204  -210  -242  -276  -317  -366  -410  -430  -424  -414  -403  -338  -160  88  279  341  318  280  289  375  497  578  602  658  861  1212  1554  1738  1781  1806  1891  1988  2032  2034  2016  1969  1906  1837  1725  1553  1379  1265  1192  1080  867  587  337  154  10  -113  -214  -295  -355  -400  -449  -521  -614  -706  -766  -790  -793  -781  -780  -826  -894  -933  -942  -939  -932  -915  -882  -844  -820  -810  -793  -750  -694  -651  -637  -652  -696  -749  -757  -670  -504  -340  -256  -268  -336  -412  -466  -504  -534  -548  -538  -519  -513  -523  -514  -455  -367  -307  -296  -318  -349  -373  -390  -413  -449  -494  -539  -572  -590  -595  -593  -599  -599  -560  -492  -453  -459  -470  -454  -421  -427  -513  -641  -737  -779  -798  -817  -824  -801  -736  -631  -512  -392  -271  -172  -109  -93  -153  -272  -369  -393  -365  -323  -283  -246  -244  -319  -462  -615  -726  -783  -798  -793  -772  -736  -692  -644  -577  -481  -377  -316  -416  -817  -1414  -1748  -1329  23  2136  4535  6551  7593  7419  6168  4202  2020  148  -1050  -1531  -1489  -1177  -873  -767  -812  -870  -906  -911  -838  -674  -491  -390  -400  -454  -480  -473  -460  -455  -455  -455  -456  -458  -455  -424  -347  -244  -160  -113  -81  -34  28  79  102  111  135  200  331  545  826  1118  1345  1488  1575  1636  1694  1767  1853  1930  1961  1927  1845  1746  1645  1548  1479  1442  1423  1403  1334  1151  868  596  408  267  105  -78  -235  -346  -428  -493  -543  -578  -595  -600  -600  -599  -595  -588  -580  -580  -593  -619  -651  -674  -691  -713  -737  -749  -745  -739  -746  -767  -784  -786  -786  -787  -775  -758  -749  -745  -732  -701  -669  -668  -701  -738  -767  -789  -801  -786  -726  -640  -562  -513  -493  -494  -506  -524  -547  -566  -580  -588  -587  -584  -583  -584  -584  -585  -583  -582  -589  -607  -628  -633  -624  -611  -594  -562  -507  -438  -390  -397  -468  -573  -643  -635  -564  -482  -433  -425  -447  -498  -564  -610  -597  -514  -399  -313  -286  -302  -343  -384  -376  -288  -157  -59  -25  -21  -19  -29  -69  -127  -166  -176  -186  -244  -375  -526  -614  -623  -595  -561  -535  -527  -538  -553  -573  -673  -918  -1209  -1310  -948  93  1788  3837  5802  7171  7534  6755  5019  2838  798  -656  -1268  -1174  -832  -575  -523  -677  -887  -1001  -1015  -969  -872  -741  -596  -424  -244  -143  -172  -300  -448  -547  -585  -595  -597  -550  -400  -174  17  104  110  86  59  38  23  22  51  123  212  285  377  581  922  1277  1505  1591  1622  1671  1765  1911  2083  2224  2307  2355  2385  2384  2347  2289  2197  2018  1709  1341  1055  886  776  702  662  606  466  254  35  -166  -336  -444  -499  -531  -569  -625  -686  -720  -706  -650  -588  -555  -542  -535  -533  -543  -553  -540  -510  -489  -488  -495  -503  -515  -517  -476  -384  -289  -249  -265  -282  -263  -229  -223  -255  -292  -312  -333  -377  -433  -481  -505  -497  -457  -402  -361  -342  -330  -316  -307  -315  -346  -393  -442  -491  -536  -552  -524  -470  -425  -403  -398  -397  -400  -402  -401  -413  -450  -494  -523  -529  -519  -499  -473  -435  -399  -394  -430  -477  -499  -504  -516  -520  -493  -456  -453  -488  -524  -523  -483  -433  -405  -399  -387  -338  -228  -77  59  150  215  288  356  385  380  360  315  212  33  -182  -344  -418  -443  -468  -511  -561  -604  -633  -644  -645  -663  -728  -836  -959  -1080  -1191  -1252  -1100  -477  789  2657  4821  6734  7794  7616  6205  3993  1635  -249  -1303  -1594  -1458  -1206  -1050  -1038  -1044  -995  -931  -885  -858  -843  -837  -853  -906  -986  -1042  -1007  -846  -616  -437  -358  -337  -334  -348  -371  -388  -385  -359  -302  -204  -92  -18  3  20  81  184  312  486  729  990  1198  1343  1440  1483  1483  1478  1518  1629  1779  1906  1981  2012  1995  1888  1683  1461  1321  1259  1189  1072  929  764  542  262  0  -179  -294  -382  -449  -501  -566  -641  -693  -713  -722  -737  -741  -712  -677  -676  -680  -638  -584  -606  -738  -908  -992  -960  -885  -837  -835  -857  -871  -857  -801  -690  -554  -457  -439  -497  -605  -728  -822  -850  -813  -759  -742  -767  -796  -809  -818  -831  -838  -801  -688  -527  -398  -360  -421  -570  -749  -872  -905  -882  -842  -798  -741  -677  -647  -678  -724  -695  -587  -486  -436  -408  -385  -374  -372  -371  -369  -376  -406  -458  -509  -538  -541  -520  -469  -377  -255  -140  -68  -36  -38  -82  -157  -222  -252  -252  -244  -242  -240  -223  -187  -148  -118  -81  -19  49  69  -61  -414  -886  -1237  -1316  -1108  -531  522  1974  3623  5180  6148  6098  5010  3171  1121  -524  -1485  -1778  -1578  -1215  -910  -703  -629  -669  -731  -755  -707  -562  -369  -228  -179  -185  -210  -254  -325  -404  -442  -409  -323  -223  -127  -37  48  128  191  231  250  260  292  381  508  598  616  624  731  988  1312  1557  1664  1687  1697  1737  1842  2015  2206  2343  2398  2391  2354  2309  2259  2164  1988  1738  1462  1223  1079  1016  941  776  564  417  350  263  89  -129  -315  -418  -444  -430  -412  -404  -403  -400  -394  -391  -392  -388  -382  -404  -499  -684  -903  -1046  -1034  -871  -646  -487  -447  -486  -545  -584  -591  -574  -542  -501  -458  -427  -418  -424  -432  -437  -432  -407  -367  -362  -437  -533  -557  -516  -482  -494  -547  -607  -656  -694  -711  -716  -748  -824  -908  -936  -864  -714  -556  -451  -419  -429  -441  -437  -415  -359  -244  -92  28  75  28  -126  -357  -579  -752  -883  -968  -1001  -997  -967  -904  -806  -705  -659  -693  -771  -832  -841  -770  -618  -493  -556  -793  -923  -546  584  2355  4260  5599  5907  5163  3659  1887  325  -784  -1366  -1498  -1391  -1165  -900  -770  -810  -874  -884  -869  -855  -838  -808  -767  -724  -681  -637  -618  -649  -712  -763  -770  -725  -650  -584  -546  -531  -539  -575  -643  -737  -840  -929  -991  -1002  -888  -569  -121  277  572  799  955  1032  1080  1167  1315  1477  1586  1622  1596  1516  1409  1334  1353  1490  1696  1847  1805  1484  962  469  178  61  -16  -148  -315  -447  -538  -641  -763  -851  -882  -884  -877  -853  -791  -699  -615  -571  -560  -562  -570  -583  -598  -611  -624  -646  -671  -682  -667  -631  -589  -539  -457  -346  -248  -200  -207  -245  -279  -281  -240  -164  -74  5  49  36  -35  -133  -206  -236  -243  -240  -227  -203  -176  -145  -77  52  198  264  186  -8  -220  -361  -412  -397  -353  -321  -311  -287  -196  -32  132  197  145  85  124  238  333  367  368  370  380  388  388  385  399  448  520  570  553  452  311  200  141  79  -33  -176  -282  -329  -346  -358  -365  -349  -276  -146  -55  -130  -360  -492  -78  1135  2872  4627  6004  6629  6252  5007  3255  1379  -166  -1007  -1172  -1010  -802  -624  -524  -542  -613  -650  -649  -645  -649  -643  -579  -421  -206  -40  18  3  -29  -61  -113  -206  -303  -349  -339  -321  -334  -379  -419  -386  -228  10  211  304  318  326  378  458  517  533  527  537  594  717  892  1069  1185  1236  1310  1508  1794  2019  2085  1977  1709  1353  1019  753  534  325  128  -13  -114  -237  -407  -602  -803  -981  -1098  -1155  -1187  -1203  -1171  -1064  -916  -808  -792  -853  -946  -1023  -1074  -1109  -1131  -1142  -1155  -1182  -1217  -1235  -1220  -1180  -1133  -1088  -1034  -952  -855  -787  -765  -768  -773  -780  -798  -835  -888  -946  -980  -933  -762  -521  -333  -268  -323  -487  -696  -845  -897  -892  -861  -796  -667  -481  -295  -148  -33  57  90  -19  -328  -735  -1029  -1125  -1088  -992  -886  -811  -779  -770  -793  -872  -988  -1053  -996  -837  -640  -472  -380  -377  -443  -531  -589  -583  -502  -373  -275  -241  -219  -194  -217  -289  -365  -406  -405  -380  -346  -312  -288  -281  -291  -313  -322  -257  -99  35  -13  -310  -715  -772  26  1718  3820  5702  6811  6783  5668  3924  2039  378  -695  -1019  -824  -449  -67  176  180  21  -181  -399  -583  -655  -591  -451  -319  -234  -182  -148  -128  -125  -135  -146  -147  -155  -195  -260  -299  -275  -199  -105  -10  91  203  301  368  418  511  693  907  1042  1090  1131  1207  1316  1442  1551  1628  1681  1714  1728  1731  1729  1725  1722  1720  1723  1736  1744  1686  1469  1070  620  278  85  -10  -57  -79  -91  -109  -148  -205  -264  -330  -429  -567  -716  -849  -951  -1009  -1023  -1001  -937  -842  -747  -674  -631  -610  -603  -598  -588  -577  -566  -550  -527  -509  -512  -544  -596  -641  -660  -656  -643  -623  -588  -546  -523  -517  -481  -370  -215  -101  -64  -69  -78  -75  -65  -52  -37  -20  -6  -8  -41  -109  -190  -251  -279  -283  -258  -197  -117  -65  -65  -103  -151  -192  -216  -225  -224  -207  -160  -82  -2  50  73  84  93  102  115  129  142  156  171  186  197  203  208  213  220  228  232  203  116  -1  -88  -118  -114  -101  -84  -67  -57  -49  -17  66  145  42  -334  -829  -1157  -982  -30  1657  3686  5514  6644  6815  6033  4524  2727  1085  -156  -910  -1222  -1244  -1094  -875  -677  -490  -270  -55  74  108  103  105  111  80  11  -38  -26  31  82  51  -68  -188  -252  -270  -262  -213  -92  99  312  509  669  758  767  741  735  777  872  1031  1283  1601  1887  2060  2128  2149  2175  2236  2328  2439  2539  2590  2576  2528  2489  2472  2459  2421  2321  2088  1701  1290  1038  972  979  968  927  869  769  584  327  76  -105  -233  -335  -393  -407  -421  -470  -546  -611  -645  -649  -643  -662  -738  -862  -992  -1094  -1178  -1279  -1397  -1464  -1404  -1220  -1039  -1012  -1135  -1290  -1426  -1559  -1676  -1748  -1750  -1643  -1390  -1063  -833  -817  -1001  -1269  -1453  -1436  -1207  -882  -649  -611  -752  -986  -1203  -1329  -1364  -1351  -1330  -1317  -1313  -1329  -1383  -1467  -1540  -1550  -1481  -1403  -1384  -1398  -1393  -1369  -1345  -1297  -1190  -1042  -917  -855  -866  -978  -1185  -1386  -1454  -1378  -1251  -1149  -1093  -1065  -1044  -1024  -1013  -1010  -995  -947  -876  -819  -813  -873  -983  -1080  -1122  -1110  -1061  -1022  -1023  -1028  -1025  -1080  -1231  -1426  -1571  -1606  -1505  -1279  -1045  -941  -995  -1100  -939  -138  1320  3115  4828  6004  6303  5660  4196  2204  192  -1299  -1968  -1888  -1447  -1011  -727  -619  -634  -695  -781  -885  -985  -1066  -1106  -1101  -1080  -1066  -1042  -998  -940  -887  -843  -787  -692  -572  -485  -461  -486  -533  -596  -665  -698  -654  -553  -445  -363  -319  -295  -236  -87  110  252  309  391  609  934  1224  1403  1494  1530  1529  1514  1499  1486  1470  1438  1374  1273  1144  1017  919  838  712  497  221  -43  -250  -402  -511  -573  -586  -584  -604  -640  -680  -740  -818  -882  -906  -874  -777  -648  -556  -533  -556  -593  -628  -652  -653  -615  -534  -441  -380  -361  -362  -367  -374  -384  -396  -401  -402  -410  -426  -436  -399  -288  -137  -25  26  54  84  98  73  19  -36  -78  -104  -119  -129  -135  -127  -82  0  88  142  159  164  160  116  10  -99  -114  -21  109  235  341  377  302  139  -26  -115  -95  30  208  350  408  405  378  347  324  314  318  336  365  401  432  447  422  326  162  -15  -135  -171  -162  -155  -153  -147  -138  -134  -147  -204  -319  -499  -779  -1128  -1356  -1197  -390  1117  3053  4991  6478  7074  6509  4865  2627  461  -1074  -1677  -1499  -1107  -914  -853  -729  -554  -447  -437  -472  -504  -528  -556  -586  -608  -616  -606  -593  -557  -429  -223  -53  16  17  -6  -35  -61  -71  -45  44  204  377  492  538  552  577  639  740  851  942  1022  1115  1235  1383  1554  1730  1874  1966  2016  2055  2113  2187  2250  2284  2291  2264  2159  1937  1632  1356  1193  1113  1024  883  714  536  336  123  -49  -155  -209  -235  -249  -262  -277  -313  -409  -568  -722  -808  -817  -773  -695  -598  -508  -452  -440  -457  -482  -501  -496  -450  -365  -273  -210  -179  -162  -149  -137  -144  -192  -284  -386  -435  -407  -346  -288  -205  -79  10  -44  -224  -389  -459  -460  -422  -346  -251  -178  -138  -109  -81  -52  -16  25  57  73  77  77  72  64  64  93  160  249  331  367  293  63  -245  -470  -549  -557  -563  -570  -562  -557  -576  -598  -576  -491  -358  -242  -231  -358  -593  -814  -754  -156  1074  2773  4460  5549  5649  4690  2993  1137  -456  -1591  -2073  -1926  -1502  -1107  -909  -976  -1165  -1282  -1307  -1304  -1308  -1293  -1224  -1105  -993  -949  -984  -1047  -1074  -1032  -928  -831  -798  -805  -810  -813  -820  -805  -728  -579  -411  -290  -242  -249  -268  -243  -126  75  310  527  679  743  745  726  708  694  696  745  849  976  1074  1116  1120  1116  1114  1099  1033  889  677  429  177  -47  -223  -335  -388  -420  -493  -640  -820  -928  -911  -813  -717  -672  -681  -742  -855  -990  -1086  -1116  -1106  -1082  -1040  -963  -872  -817  -823  -855  -873  -876  -875  -860  -825  -786  -759  -745  -739  -727  -685  -601  -497  -424  -401  -394  -371  -333  -301  -290  -294  -301  -292  -250  -188  -151  -184  -309  -520  -756  -910  -904  -735  -488  -293  -205  -184  -188  -206  -226  -233  -220  -190  -157  -130  -117  -140  -209  -288  -337  -352  -349  -342  -333  -323  -316  -310  -302  -299  -329  -414  -525  -613  -690  -821  -984  -979  -660  -225  19  116  463  1406  2959  4749  6152  6639  5999  4406  2348  370  -1066  -1658  -1508  -1029  -573  -293  -187  -176  -194  -224  -257  -281  -291  -293  -294  -293  -292  -293  -297  -300  -288  -247  -185  -126  -89  -76  -75  -68  -45  -11  14  28  45  65  77  92  153  278  439  596  731  855  976  1096  1228  1366  1485  1598  1731  1859  1935  1947  1911  1849  1761  1632  1471  1315  1169  1020  869  714  539  338  133  -25  -100  -107  -102  -141  -256  -419  -559  -642  -685  -713  -744  -793  -850  -890  -879  -797  -666  -552  -505  -527  -598  -698  -810  -909  -963  -955  -882  -769  -667  -620  -654  -778  -946  -1066  -1076  -975  -814  -660  -551  -494  -479  -517  -632  -797  -924  -925  -778  -563  -404  -346  -345  -356  -375  -406  -438  -450  -438  -428  -430  -419  -375  -312  -259  -231  -217  -181  -106  -16  54  101  132  149  163  178  169  84  -109  -356  -540  -603  -577  -513  -439  -375  -335  -331  -362  -431  -522  -549  -459  -446  -756  -1241  -1406  -829  541  2392  4286  5860  6788  6788  5784  3934  1606  -548  -1817  -1995  -1494  -895  -551  -492  -560  -630  -680  -712  -708  -676  -655  -663  -677  -674  -652  -608  -533  -442  -378  -358  -352  -323  -273  -232  -217  -217  -215  -200  -173  -123  -39  47  102  135  168  202  256  392  648  965  1237  1431  1577  1692  1780  1861  1947  2009  2003  1927  1825  1743  1701  1675  1604  1493  1398  1309  1143  864  537  259  84  12  -3  -40  -164  -360  -538  -628  -642  -628  -614  -605  -603  -621  -677  -761  -835  -867  -867  -869  -889  -913  -931  -942  -942  -908  -821  -702  -612  -579  -591  -628  -671  -702  -718  -726  -728  -708  -647  -552  -463  -414  -401  -400  -404  -437  -528  -651  -741  -769  -762  -756  -776  -813  -813  -715  -534  -377  -343  -443  -563  -585  -533  -491  -479  -462  -417  -373  -382  -448  -506  -488  -369  -204  -82  -27  3  24  6  -62  -165  -278  -372  -423  -430  -423  -449  -541  -667  -756  -780  -770  -755  -739  -713  -698  -752  -898  -1077  -1141  -817  116  1611  3458  5306  6574  6758  5726  3722  1350  -627  -1677  -1793  -1417  -1001  -740  -642  -617  -594  -576  -582  -613  -656  -687  -699  -700  -693  -667  -626  -595  -596  -611  -589  -499  -359  -235  -172  -153  -137  -111  -95  -107  -134  -133  -74  20  107  171  238  362  571  832  1099  1346  1535  1630  1647  1635  1623  1620  1629  1654  1688  1715  1725  1723  1714  1704  1690  1642  1496  1214  876  610  456  357  249  89  -134  -366  -516  -567  -567  -561  -559  -569  -602  -662  -725  -757  -747  -703  -643  -585  -550  -540  -543  -548  -550  -551  -551  -548  -540  -531  -535  -570  -632  -697  -745  -771  -777  -759  -703  -614  -521  -451  -411  -377  -303  -175  -55  -43  -164  -336  -473  -532  -518  -477  -441  -410  -368  -318  -276  -262  -289  -368  -465  -504  -440  -317  -212  -166  -186  -301  -523  -790  -1009  -1151  -1238  -1282  -1284  -1237  -1127  -950  -743  -569  -462  -403  -380  -493  -902  -1497  -1848  -1603  -655  922  2809  4510  5595  5816  5107  3600  1675  -140  -1399  -1888  -1717  -1278  -957  -859  -864  -801  -578  -264  -32  18  -91  -289  -473  -571  -595  -596  -600  -567  -437  -210  16  154  201  198  176  157  152  158  172  209  296  432  567  648  668  654  647  697  843  1062  1285  1485  1700  1929  2126  2264  2341  2361  2335  2295  2262  2240  2210  2130  1958  1729  1536  1416  1321  1209  1079  928  730  471  193  -24  -166  -290  -433  -581  -706  -792  -832  -830  -805  -784  -777  -776  -770  -754  -749  -777  -831  -872  -879  -865  -854  -856  -858  -829  -752  -642  -527  -454  -476  -543  -548  -484  -419  -393  -411  -464  -529  -572  -586  -604  -642  -665  -650  -619  -609  -644  -710  -750  -727  -671  -618  -557  -475  -396  -351  -341  -347  -353  -349  -328  -299  -277  -267  -261  -258  -262  -260  -244  -225  -231  -298  -439  -640  -846  -979  -1016  -1004  -988  -973  -950  -923  -918  -948  -994  -1066  -1173  -1220  -1049  -498  623  2317  4196  5692  6336  5909  4506  2531  542  -961  -1665  -1603  -1158  -745  -562  -569  -624  -641  -618  -585  -575  -603  -650  -686  -698  -697  -695  -692  -676  -643  -609  -605  -629  -631  -555  -404  -240  -124  -75  -70  -55  13  118  192  208  190  177  205  299  459  672  939  1223  1441  1579  1705  1840  1937  1972  1971  1964  1954  1924  1873  1828  1808  1765  1603  1294  942  684  541  443  332  202  77  -16  -94  -215  -393  -569  -687  -736  -743  -739  -741  -747  -746  -731  -712  -696  -666  -631  -640  -701  -763  -794  -815  -844  -852  -809  -740  -687  -652  -617  -566  -486  -391  -324  -302  -304  -308  -317  -346  -392  -423  -423  -409  -399  -388  -363  -326  -300  -308  -361  -440  -516  -570  -587  -558  -504  -468  -478  -518  -522  -468  -401  -358  -347  -370  -426  -499  -559  -575  -518  -373  -190  -60  -20  -36  -65  -89  -98  -70  17  144  235  211  38  -224  -445  -553  -578  -573  -562  -556  -569  -615  -682  -745  -792  -806  -765  -703  -733  -913  -1105  -1090  -677  350  2056  4090  5866  6892  6897  5841  3991  1895  94  -1069  -1465  -1245  -810  -527  -493  -587  -668  -684  -646  -591  -553  -557  -604  -669  -716  -724  -701  -666  -638  -626  -626  -635  -652  -655  -594  -419  -163  59  168  182  165  154  150  144  147  194  324  525  740  908  1011  1084  1164  1252  1333  1407  1486  1583  1680  1723  1696  1652  1638  1648  1651  1627  1551  1397  1160  880  647  523  482  442  318  57  -306  -641  -823  -829  -700  -503  -332  -267  -330  -494  -683  -814  -853  -818  -735  -644  -588  -606  -708  -852  -958  -970  -872  -695  -527  -454  -491  -575  -644  -698  -775  -864  -902  -845  -730  -643  -613  -594  -549  -488  -440  -446  -513  -601  -684  -762  -818  -828  -788  -709  -610  -509  -429  -400  -435  -510  -588  -643  -669  -674  -671  -668  -666  -665  -667  -671  -659  -610  -520  -417  -337  -297  -300  -350  -445  -560  -653  -688  -659  -602  -554  -520  -490  -459  -411  -331  -233  -156  -116  -96  -82  -77  -109  -203  -333  -438  -503  -547  -569  -538  -435  -304  -231  -245  -310  -394  -497  -619  -725  -764  -768  -882  -1109  -1122  -525  849  2852  4998  6669  7409  7058  5701  3626  1350  -499  -1533  -1743  -1403  -958  -766  -800  -837  -812  -784  -768  -728  -649  -574  -559  -597  -637  -652  -643  -630  -626  -621  -599  -570  -558  -563  -555  -489  -352  -201  -112  -99  -110  -77  33  191  323  391  422  454  492  532  602  754  975  1172  1298  1444  1706  2020  2219  2235  2130  1982  1832  1700  1605  1548  1496  1398  1240  1062  931  864  797  638  349  7  -258  -397  -451  -471  -478  -471  -447  -418  -411  -458  -574  -736  -873  -925  -885  -794  -709  -661  -648  -658  -685  -720  -748  -761  -753  -724  -677  -627  -595  -583  -580  -587  -611  -638  -629  -570  -484  -407  -364  -359  -374  -390  -401  -414  -435  -460  -473  -486  -547  -654  -742  -770  -755  -733  -718  -702  -662  -596  -528  -480  -456  -445  -426  -400  -390  -420  -496  -603  -710  -776  -770  -696  -598  -527  -489  -437  -347  -249  -190  -175  -172  -152  -105  -43  15  57  76  52  -49  -231  -434  -605  -741  -834  -866  -855  -835  -820  -807  -795  -786  -763  -682  -532  -424  -480  -606  -492  163  1493  3363  5254  6465  6565  5490  3516  1284  -510  -1534  -1821  -1601  -1153  -696  -408  -372  -473  -547  -561  -564  -599  -661  -709  -707  -657  -563  -431  -308  -244  -245  -291  -353  -395  -396  -354  -290  -229  -190  -175  -175  -168  -124  -25  131  342  571  750  842  875  898  937  1007  1145  1368  1610  1797  1927  2030  2115  2177  2215  2227  2196  2099  1954  1803  1665  1548  1468  1377  1187  901  633  456  334  209  79  -23  -99  -174  -261  -367  -499  -628  -706  -720  -708  -704  -713  -729  -748  -761  -753  -711  -638  -549  -460  -399  -402  -472  -569  -648  -691  -701  -681  -624  -540  -459  -410  -404  -438  -501  -560  -572  -544  -508  -463  -403  -359  -358  -400  -465  -533  -603  -674  -727  -747  -726  -669  -592  -518  -465  -439  -443  -475  -521  -552  -540  -472  -372  -288  -244  -233  -239  -253  -269  -277  -274  -264  -245  -208  -164  -128  -109  -111  -165  -306  -520  -730  -858  -866  -776  -639  -495  -383  -341  -388  -515  -678  -838  -1017  -1170  -1145  -842  -199  913  2534  4382  5932  6697  6343  4796  2491  184  -1483  -2162  -1954  -1357  -842  -602  -560  -550  -532  -542  -568  -585  -588  -581  -562  -535  -504  -473  -444  -426  -426  -439  -442  -394  -276  -135  -45  -25  -32  -28  -1  38  87  159  255  363  484  610  709  769  813  881  1028  1282  1563  1759  1859  1920  1977  2035  2090  2125  2127  2098  2051  1997  1946  1898  1828  1667  1362  1004  755  633  492  241  -58  -276  -359  -363  -372  -412  -455  -484  -529  -608  -692  -735  -726  -693  -666  -655  -654  -660  -679  -714  -763  -813  -852  -871  -854  -768  -611  -431  -301  -266  -327  -429  -505  -538  -544  -537  -521  -505  -502  -515  -550  -617  -701  -765  -779  -738  -651  -550  -457  -375  -325  -333  -377  -427  -478  -551  -649  -732  -744  -656  -483  -304  -202  -188  -213  -238  -258  -279  -304  -331  -353  -366  -371  -378  -402  -433  -420  -325  -181  -53  28  64  71  68  61  44  17  3  49  190  384  516  479  245  -77  -309  -380  -359  -331  -352  -445  -580  -677  -675  -561  -384  -244  -256  -511  -942  -1249  -1103  -339  1039  2794  4488  5766  6436  6308  5315  3658  1666  -207  -1399  -1685  -1375  -914  -588  -503  -578  -667  -703  -698  -680  -667  -686  -757  -859  -929  -919  -832  -722  -650  -619  -593  -556  -520  -499  -495  -501  -508  -505  -473  -403  -318  -252  -208  -166  -93  30  177  279  327  388  531  719  869  992  1174  1420  1640  1788  1892  1963  1946  1786  1524  1277  1131  1093  1109  1118  1101  1043  915  714  483  269  82  -88  -246  -368  -452  -525  -618  -720  -789  -792  -740  -677  -652  -673  -709  -735  -748  -756  -762  -763  -749  -718  -684  -664  -661  -662  -667  -684  -703  -711  -714  -727  -753  -778  -791  -804  -819  -818  -785  -727  -669  -617  -565  -544  -577  -641  -715  -793  -860  -890  -846  -705  -513  -369  -317  -332  -395  -495  -599  -670  -705  -719  -721  -714  -708  -709  -711  -692  -629  -530  -428  -347  -297  -274  -266  -268  -299  -379  -484  -562  -600  -625  -655  -682  -700  -710  -706  -674  -604  -508  -430  -393  -379  -356  -318  -276  -239  -215  -213  -220  -215  -181  -118  -47  -5  -21  -119  -300  -499  -625  -665  -658  -622  -547  -449  -380  -367  -393  -419  -446  -554  -827  -1184  -1393  -1229  -517  815  2628  4590  6296  7317  7329  6284  4432  2277  387  -830  -1299  -1276  -1076  -847  -666  -595  -609  -636  -646  -643  -637  -634  -634  -640  -651  -661  -662  -665  -678  -684  -650  -564  -468  -395  -299  -171  -96  -142  -283  -417  -424  -282  -83  87  201  283  372  478  594  717  850  999  1168  1342  1483  1572  1639  1735  1858  1955  1996  2002  2001  2002  1986  1930  1840  1754  1680  1555  1323  990  629  314  82  -79  -204  -328  -444  -518  -535  -507  -447  -381  -347  -366  -439  -558  -707  -856  -974  -1019  -971  -851  -725  -658  -659  -677  -661  -600  -507  -422  -379  -404  -504  -653  -789  -870  -892  -867  -823  -787  -767  -749  -715  -650  -547  -413  -286  -217  -231  -322  -447  -538  -571  -570  -563  -562  -568  -571  -551  -491  -407  -345  -328  -349  -398  -465  -528  -556  -546  -520  -492  -467  -449  -439  -432  -426  -423  -428  -443  -463  -487  -525  -568  -593  -595  -583  -568  -557  -543  -509  -454  -418  -451  -543  -622  -646  -626  -585  -540  -506  -485  -455  -379  -263  -146  -44  41  100  140  206  309  365  297  154  27  -65  -151  -244  -332  -412  -478  -509  -509  -503  -500  -490  -471  -452  -435  -425  -463  -612  -889  -1211  -1329  -896  330  2315  4683  6778  7882  7569  5923  3511  1142  -540  -1315  -1379  -1152  -980  -959  -1008  -1048  -1059  -1039  -972  -859  -741  -667  -640  -628  -610  -595  -587  -580  -555  -511  -463  -422  -377  -336  -310  -284  -238  -164  -72  12  70  98  111  124  146  186  235  284  349  462  620  795  985  1211  1465  1707  1901  2027  2099  2160  2228  2274  2248  2125  1946  1796  1706  1647  1585  1484  1288  940  497  131  -48  -86  -73  -58  -53  -66  -110  -215  -399  -627  -835  -976  -1037  -1021  -958  -872  -764  -620  -471  -380  -380  -460  -570  -651  -682  -685  -679  -664  -631  -580  -510  -410  -294  -219  -234  -345  -503  -626  -668  -610  -444  -226  -69  -17  -31  -64  -95  -111  -109  -102  -112  -165  -262  -360  -417  -430  -412  -373  -329  -308  -325  -365  -400  -417  -413  -373  -273  -110  66  181  210  198  190  199  210  205  184  153  118  88  75  83  111  152  202  271  340  342  228  44  -111  -199  -242  -260  -261  -276  -338  -448  -552  -608  -611  -559  -495  -514  -643  -727  -474  364  1846  3760  5592  6716  6729  5586  3523  1087  -948  -2021  -2088  -1498  -775  -377  -402  -630  -826  -902  -871  -762  -601  -451  -392  -453  -570  -647  -643  -589  -537  -504  -487  -480  -480  -483  -486  -485  -470  -434  -383  -327  -249  -121  58  234  339  360  342  337  387  514  708  969  1294  1601  1782  1829  1824  1844  1905  1969  2000  2006  2015  2029  2020  1943  1784  1569  1361  1199  1047  837  558  274  64  -38  -74  -128  -257  -450  -651  -819  -936  -990  -995  -985  -974  -953  -929  -918  -918  -916  -895  -848  -790  -747  -730  -728  -732  -730  -708  -674  -646  -637  -641  -640  -635  -644  -657  -652  -619  -568  -514  -471  -450  -452  -468  -479  -467  -433  -391  -358  -344  -343  -348  -350  -346  -346  -376  -457  -565  -642  -666  -663  -660  -667  -667  -637  -578  -526  -497  -476  -450  -422  -393  -364  -339  -315  -278  -225  -176  -157  -183  -232  -254  -235  -182  -92  12  87  120  129  123  96  16  -145  -354  -539  -665  -730  -736  -703  -659  -631  -614  -587  -575  -619  -714  -823  -943  -1059  -1032  -657  204  1565  3269  4981  6255  6652  5928  4232  2091  150  -1086  -1484  -1332  -1052  -858  -755  -724  -740  -755  -750  -742  -741  -748  -754  -743  -701  -642  -596  -575  -570  -567  -544  -480  -393  -330  -307  -298  -272  -225  -179  -149  -139  -147  -159  -142  -51  125  350  561  707  789  854  944  1061  1186  1323  1496  1695  1857  1943  1967  1969  1968  1971  1974  1971  1942  1856  1699  1503  1317  1142  928  629  291  15  -160  -269  -333  -355  -355  -350  -354  -376  -421  -482  -544  -594  -638  -686  -723  -730  -703  -656  -625  -649  -741  -881  -1002  -1012  -897  -720  -542  -414  -371  -417  -516  -609  -657  -665  -656  -644  -633  -627  -627  -628  -625  -612  -593  -577  -567  -565  -570  -578  -584  -582  -564  -520  -456  -391  -345  -323  -322  -350  -417  -516  -620  -698  -729  -705  -645  -581  -536  -508  -493  -501  -535  -567  -578  -573  -571  -595  -660  -742  -783  -745  -652  -550  -458  -384  -339  -325  -326  -330  -342  -369  -404  -431  -437  -420  -377  -320  -273  -242  -212  -175  -161  -192  -243  -273  -284  -313  -392  -510  -620  -697  -748  -801  -863  -909  -916  -874  -783  -648  -497  -464  -735  -1260  -1631  -1336  -71  2032  4381  6231  7050  6700  5427  3605  1597  -153  -1245  -1591  -1371  -896  -586  -705  -1075  -1352  -1412  -1328  -1206  -1097  -994  -890  -798  -714  -623  -543  -501  -495  -515  -557  -617  -663  -640  -536  -412  -340  -334  -352  -360  -348  -302  -210  -95  2  84  178  305  488  738  1008  1211  1313  1363  1411  1455  1476  1479  1509  1606  1764  1930  2039  2038  1951  1846  1743  1604  1414  1201  991  808  679  575  434  237  16  -189  -347  -436  -464  -449  -411  -380  -404  -499  -611  -655  -592  -473  -378  -334  -315  -296  -273]
