reading_id,reading_time,wire_id,result_classification,heart_rate,heart_rate_alert,firmware_version,device_app_version,hardware_version,waveform_samples
cf222120-5803-11ed-8080-808080808080,Sun Oct 30 03:34:50 UTC 2022,e101e3752439,UNREADABLE,0,NONE,20001.171.50,2.10.0,Charge 5,[-8325  -9128  -9922  -10126  -7948  -1049  10893  24778  32767  32767  32767  32767  32767  32767  32767  32767  32767  32767  32767  32767  32767  32767  32767  32767  32767  32767  32767  32767  32767  32767  32767  32767  32767  32767  32767  32767  32767  32767  29924  28799  29235  30804  32767  32767  32767  32767  32767  32767  32031  30206  29355  29548  30837  32767  32767  32767  32767  32767  32767  32767  32767  32767  32767  32767  32767  32767  32767  32767  32767  32767  32767  32767  32767  32767  32767  32767  32767  32767  32767  32767  32767  32767  32767  32767  32767  32767  32767  32767  32767  32767  32767  32767  32767  32767  32729  32681  32691  32723  32726  32701  32707  32767  32767  32767  32767  32767  32767  32767  32767  32767  32767  32767  32767  32767  32767  32767  32767  32501  32060  31671  31398  31195  31028  30871  30713  30568  30414  30174  29813  29426  29176  29116  29160  29178  29042  28689  28227  27865  27551  26602  24013  19659  14625  9825  5432  1560  -2082  -6281  -10924  -14665  -16512  -16878  -16826  -16914  -17074  -17258  -17907  -19513  -21720  -23519  -24409  -24673  -24658  -24396  -23815  -23029  -22362  -22331  -23719  -26888  -30714  -32768  -32768  -32668  -30346  -27971  -26527  -26104  -26171  -26352  -26597  -26965  -27391  -27701  -27836  -27890  -27929  -27871  -27537  -26769  -25564  -24214  -23169  -22749  -23009  -23689  -24318  -24454  -23683  -21776  -19179  -16842  -15393  -14715  -14295  -13856  -13507  -13338  -13243  -13122  -12999  -13031  -13502  -14702  -16636  -18799  -20441  -21028  -20121  -17432  -13747  -10799  -9529  -9416  -9583  -9676  -9783  -9999  -10083  -9563  -8456  -7432  -6879  -6323  -4906  -2360  179  581  -2695  -9279  -16839  -22558  -25014  -24786  -23643  -22929  -22470  -21386  -19563  -17739  -16529  -15930  -15768  -16299  -18046  -20969  -24130  -26432  -27426  -27123  -25560  -23164  -20992  -19806  -19437  -19398  -19508  -19809  -20231  -20449  -20177  -19533  -18876  -18358  -17787  -16860  -15514  -14069  -12922  -12030  -10833  -8985  -6994  -5664  -5162  -5102  -5205  -5435  -5724  -5919  -5895  -5641  -5310  -5115  -5143  -5349  -5621  -5841  -5980  -6009  -5716  -4872  -3687  -2701  -2091  -1501  -571  557  1424  1844  2032  2228  2463  2488  2090  1806  2663  4795  7275  9555  11810  13775  14535  13277  9452  3037  -4564  -10853  -13951  -13294  -9137  -2506  4489  9499  11652  11832  11204  10218  8873  7147  5204  3501  2418  1927  1794  1825  1892  1919  1830  1551  1127  744  522  403  321  390  741  1355  2142  2975  3654  4053  4240  4333  4235  3627  2367  854  -246  -651  -584  -303  313  1568  3359  5159  6611  7729  8640  9396  9936  10200  10170  9832  9252  8530  7644  6560  5476  4743  4515  4658  4949  5218  5395  5447  5235  4414  2531  -547  -4327  -7995  -10782  -12275  -12770  -12903  -13000  -13070  -13097  -13158  -13212  -12836  -11481  -9217  -6860  -5132  -4178  -3818  -3724  -3545  -3138  -2559  -1937  -1438  -1139  -909  -575  -107  411  995  1777  2670  3314  3560  3594  3576  3479  3211  2815  2442  2161  1965  1936  2398  3798  6121  8702  10770  11883  11955  11038  9267  7021  4778  2836  1310  245  -409  -954  -1904  -3520  -5362  -6667  -7114  -6801  -5828  -4309  -2341  81  2501  3916  3896  2897  1521  535  833  2377  4203  5487  5622  4272  1790  -1223  -4010  -5385  -4516  -1842  955  2138  1526  303  -683  -1326  -1562  -1288  -678  -146  274  1567  4973  10156  15165  18520  20261  21104  21538  21732  21796  21784  21509  20606  19018  17249  15715  14075  11795  8981  6215  4046  2749  2194  2004  1888  1853  2316  3861  6508  9320  11263  12307  13093  13938  14705  15241  15563  15762  15851  15730  15352  14874  14374  13365  11214  8365  6145  5075  4545  4020  3542  3248  2975  2444  1652  867  259  -248  -758  -1265  -1675  -1880  -1900  -1937  -2319  -3367  -5110  -7137  -8816  -9731  -10022  -10170  -10472  -11059  -12067  -13308  -14246  -14639  -14600  -14084  -12878  -11010  -8744  -6400  -4483  -3482  -3346  -3591  -3682  -3078  -1353  1359  4091  5746  6157  5956  5698  5564  5540  5584  5599  5314  4461  3214  1990  812  -521  -1937  -3239  -4339  -5139  -5552  -5633  -5531  -5386  -5284  -5289  -5460  -5783  -6114  -6309  -6360  -6342  -6290  -6203  -6161  -6369  -6957  -7811  -8670  -9295  -9595  -9672  -9630  -9307  -8415  -7016  -5549  -4355  -3505  -2948  -2554  -2165  -1766  -1467  -1306  -1277  -1553  -2385  -3716  -5279  -7005  -8733  -9940  -10135  -9007  -6619  -3923  -2145  -1546  -1542  -1588  -1492  -1314  -1209  -1340  -1827  -2564  -3244  -3571  -3130  -1416  1342  3927  5234  4920  3089  428  -1878  -3144  -3576  -3705  -3828  -3966  -4128  -4345  -4352  -3377  -744  3013  6252  7870  8145  7818  7224  6412  5387  4161  2945  2019  1354  977  1642  4029  7300  9844  11091  11360  11109  10905  10793  10142  8327  4871  -159  -5627  -10066  -12858  -14240  -14690  -15041  -16159  -17723  -18608  -18107  -15665  -11151  -6088  -2603  -1170  -856  -1011  -1514  -2126  -2486  -2439  -2035  -1499  -1111  -952  -908  -969  -1338  -2178  -3303  -4366  -5327  -6431  -7659  -8498  -8158  -6053  -2646  531  2431  3320  3827  4151  4282  4293  4292  4337  4405  4370  4049  3373  2458  1439  367  -600  -1203  -1402  -1383  -1223  -844  -299  92  -146  -1346  -3202  -4850  -5564  -4823  -2293  1232  3978  5045  4963  4508  4038  3653  3437  3509  3879  4372  4794  5082  5301  5555  5828  5967  5917  5837  6003  6633  7625  8547  9051  9174  9139  9057  8881  8525  7985  7340  6650  5923  5239  4755  4541  4507  4503  4438  4282  4009  3651  3323  3120  3069  3132  3211  3197  3003  2553  1851  1069  478  282  547  1168  1845  2295  2499  2580  2608  2664  2900  3373  3863  4006  3544  2359  616  -1053  -1802  -906  1912  5846  9200  10854  10925  9940  8242  6116  3954  2279  1436  1235  1262  1428  2092  3607  5616  7144  7578  7039  5884  4457  3010  1540  148  -734  -932  -805  -918  -1694  -3085  -4675  -6255  -7956  -9997  -12530  -15209  -17227  -18172  -18068  -16631  -13622  -9826  -6358  -3422  -886  894  1535  985  -418  -1615  -1414  379  3177  6206  8564  9548  9107  7586  5004  1184  -3499  -8326  -12563  -15245  -15660  -13731  -9646  -4544  -655  910  992  673  297  -315  -1457  -2941  -4103  -4434  -3653  -1587  1307  3924  5492  6146  6438  6685  6830  6685  6145  5139  3615  1876  552  -47  -17  715  2323  4441  6281  7471  8192  8551  8130  6252  3000  -398  -2675  -3572  -3614  -3298  -2661  -1381  743  3190  4999  5908  6532  7482  8711  9546  9534  8988  8121  6634  4750  3374  2923  3019  3190  3185  2869  2270  1646  1279  1265  1606  2284  3076  3623  3839  3952  4103  4133  3813  3101  1935  189  -1914  -3863  -5384  -6562  -7456  -7895  -7910  -7952  -8259  -8616  -8929  -9422  -10208  -11035  -11568  -11736  -11702  -11620  -11523  -11369  -11107  -10665  -9996  -9216  -8580  -8199  -7935  -7650  -7386  -7292  -7474  -7751  -7741  -7378  -6953  -6716  -6708  -6840  -7074  -7505  -8164  -8933  -9660  -10182  -10386  -10337  -10258  -10421  -10916  -11530  -12000  -12265  -12403  -12485  -12550  -12639  -12744  -12615  -11606  -9126  -5676  -2778  -1390  -1171  -1350  -1521  -1635  -1674  -1416  -548  885  2320  3192  3465  3466  3431  3279  2685  1451  -23  -1023  -1325  -1277  -1240  -1286  -1269  -1080  -825  -615  -242  625  1919  3093  3710  3835  3783  3814  4081  4529  4935  5167  5234  5196  5173  5226  5183  4647  3337  1630  445  448  1613  3230  4392  4830  4937  5057  5197  5233  5149  5046  4978  4917  4854  4872  5063  5411  5763  5923  5783  5383  4851  4269  3648  3077  2721  2625  2702  2908  3251  3744  4433  5301  6128  6664  6911  7024  7078  7069  7027  7006  7032  7055  6927  6510  5811  4819  3436  1902  795  365  359  496  709  1013  1400  1809  2052  1961  1703  1693  2108  2677  3040  3313  4107  5784  7860  9467  10172  9875  8369  5677  2446  -313  -1863  -2238  -1947  -1346  -665  -166  51  34  -296  -1100  -2230  -3266  -3999  -4573  -5146  -5640  -5756  -5237  -4164  -2883  -1764  -1068  -842  -1024  -1613  -2523  -3523  -4439  -5188  -5697  -5937  -5977  -5914  -5822  -5745  -5710  -5712  -5723  -5701  -5612  -5450  -5162  -4655  -4026  -3555  -3365  -3352  -3414  -3503  -3584  -3649  -3684  -3596  -3259  -2686  -2049  -1505  -1086  -716  -351  -15  347  822  1315  1627  1714  1672  1588  1532  1669  2286  3538  5046  6124  6543  6581  6517  6556  6966  7929  9257  10484  11273  11558  11348  10652  9722  9002  8678  8598  8584  8612  8740  8975  9261  9555  9730  9391  8089  6036  4196  3302  3330  3954  4835  5645  6238  6638  6859  6920  6901  6881  6898  6950  6997  6981  6878  6698  6458  6106  5503  4643  3794  3226  2921  2657  2311  1965  1704  1564  1633  1816  1850  1705  1528  1397  1321  1298  1321  1346  1208  624  -566  -2095  -3380  -4074  -4334  -4572  -5132  -6103  -7190  -7913  -8073  -7822  -7413  -7055  -6861  -6885  -7222  -7991  -9243  -10694  -11434  -10508  -8061  -5333  -3490  -2952  -3551  -4589  -5197  -5516  -6752  -9194  -11508  -12346  -11166  -8265  -5136  -3511  -3936  -5802  -7959  -9383  -9869  -9860  -9758  -9693  -9659  -9644  -9629  -9553  -9357  -9041  -8645  -8232  -7898  -7728  -7797  -8208  -8924  -9658  -10175  -10567  -11017  -11396  -11054  -9117  -5468  -1247  2131  4129  5087  5512  5660  5624  5481  5351  5363  5534  5747  5894  5952  5941  5860  5690  5447  5231  5182  5337  5608  5886  6095  6216  6272  6189  5749  4801  3614  2842  3194  4990  7566  9594  10404  10221  9330  7976  6696  5995  5902  6133  6429  6643  6737  6729  6642  6532  6503  6629  6905  7336  7982  8789  9542  10073  10359  10452  10416  10313  10209  10160  10172  10216  10281  10383  10535  10609  10171  8805  6875  5367  4708  4490  4258  3815  2954  1605  137  -959  -1531  -1698  -1547  -1056  -327  365  912  1447  1977  2296  2307  2154  2022  1973  1977  1999  2035  2077  2070  1946  1690  1322  898  557  405  447  749  1223  1164  -279  -2934  -5338  -5797  -3736  -106  3372  5067  4057  781  -3299  -7047  -9941  -11673  -12679  -13867  -15172  -15864  -15807  -15254  -14303  -13144  -12092  -11205  -10225  -8972  -7709  -6884  -6547  -6422  -6418  -6652  -7115  -7608  -7935  -8070  -8077  -7816  -6969  -5563  -4161  -3268  -2885  -2805  -2973  -3428  -4066  -4717  -5557  -6922  -8559  -9751  -10266  -10447  -10567  -10644  -10707  -11001  -11846  -13198  -14614  -15734  -16481  -16896  -17029  -16804  -16020  -14756  -13516  -12735  -12377  -12138  -11831  -11529  -11372  -11322  -11060  -10176  -8671  -7068  -5643  -4010  -1986  -189  761  989  973  929  832  734  857  1355  2061  2634  2956  3135  3250  3388  3659  4020  4284  4371  4368  4385  4492  4776  5336  6173  7083  7757  8052  8085  8039  8007  7984  7937  7859  7771  7688  7648  7801  8341  9202  10011  10518  10825  11080  11252  11279  11175  10920  10447  9652  8275  6075  3143  -86  -2865  -4441  -4674  -3950  -2751  -1597  -889  -686  -827  -1175  -1661  -2151  -2430  -2391  -2184  -2132  -2402  -2821  -3116  -2981  -1977  124  2915  5497  7152  7886  8210  8528  8952  9531  10352  11306  12066  12473  12716  13062  13589  14162  14602  14842  14791  14126  12561  10365  8317  7016  6395  5951  5350  4681  4209  4063  4168  4363  4509  4543  4430  4112  3620  3155  2888  2742  2526  2225  2000  1941  1967  1931  1723  1369  1019  811  767  811  856  901  1033  1330  1781  2240  2439  2206  1668  1154  802  414  -190  -860  -1297  -1396  -1295  -1250  -1491  -2046  -2708  -3227  -3514  -3633  -3643  -3459  -2933  -2139  -1409  -951  -645  -259  227  622  796  767  526  43  -536  -948  -1135  -1256  -1398  -1516  -1576  -1597  -1588  -1536  -1461  -1473  -1747  -2338  -3017  -3465  -3610  -3600  -3582  -3629  -3756  -3902  -4010  -4128  -4270  -4325  -4255  -4072  -3725  -3202  -2502  -1598  -594  244  713  763  365  -543  -1909  -3431  -4647  -5270  -5382  -5167  -4691  -4065  -3503  -3121  -2910  -2830  -2836  -2888  -2957  -3001  -2942  -2714  -2366  -2045  -1870  -1895  -2136  -2551  -3034  -3450  -3695  -3715  -3490  -3069  -2613  -2288  -2169  -2323  -2811  -3492  -4028  -4167  -3771  -2798  -1509  -340  478  970  1224  1318  1324  1306  1301  1318  1353  1396  1435  1416  1228  816  324  -4  -75  9  103  141  154  222  394  668  1028  1424  1744  1897  1854  1595  1146  595  84  -111  485  2150  4313  5891  6296  5489  3576  999  -1426  -3057  -3785  -3917  -3844  -3785  -3770  -3736  -3630  -3469  -3236  -2765  -1849  -504  909  1919  2387  2525  2401  1664  -4  -2197  -3871  -4356  -4002  -3748  -4478  -6327  -8193  -8587  -6852  -3673  -961  -605  -2870  -6099  -8013  -7301  -4313  -951  743  520  -277  -541  -110  804  1893  2772  3341  3802  4228  4494  4570  4585  4660  4799  4950  5109  5279  5422  5490  5413  5118  4668  4280  4121  4196  4455  4871  5386  5861  6128  5929  4940  3219  1427  180  -433  -546  -269  194  569  725  740  750  798  811  716  550  396  286  204  139  167  507  1385  2685  3869  4488  4572  4410  4230  4128  4101  4107  4120  4153  4212  4252  4219  4143  4109  4136  4118  3854  3233  2387  1415  174  -1294  -2594  -3470  -4044  -4610  -5378  -6244  -6902  -7221  -7333  -7403  -7500  -7623  -7725  -7681  -7307  -6562  -5715  -5098  -4755  -4557  -4452  -4436  -4447  -4371  -4145  -3874  -3777  -3931  -4145  -4174  -4013  -3836  -3669  -3304  -2551  -1496  -433  431  1056  1482  1791  2030  2135  2027  1732  1358  1043  876  836  827  781  758  978  1673  2763  3795  4355  4326  3744  2794  1895  1479  1793  2904  4575  6161  7060  7212  6965  6648  6403  6177  5861  5502  5238  4972  4280  2759  529  -1606  -2846  -3158  -3050  -2878  -2729  -2661  -2807  -3279  -3989  -4660  -5082  -5227  -5035  -4318  -3091  -1788  -899  -572  -768  -1560  -2998  -4728  -6100  -6733  -6601  -5713  -4255  -2838  -2032  -1863  -2071  -2547  -3290  -4122  -4723  -4955  -4918  -4780  -4668  -4650  -4755  -4978  -5255  -5498  -5670  -5758  -5658  -5180  -4292  -3236  -2296  -1614  -1233  -1097  -1085  -1112  -1140  -1145  -1097  -940  -655  -334  -120  -50  -85  -240  -576  -1093  -1696  -2235  -2576  -2727  -2847  -3084  -3413  -3697  -3873  -3891  -3460  -2276  -668  559  1066  1196  1366  1662  1900  1905  1656  1298  1034  944  985  1116  1293  1405  1267  748  21  -499  -525  -81  550  1034  1318  1624  2093  2617  3026  3318  3614  3972  4323  4568  4682  4714  4722  4699  4570  4287  3902  3511  3130  2702  2228  1783  1371  965  670  748  1504  2931  4472  5488  5874  5974  6118  6360  6554  6627  6636  6626  6598  6563  6527  6455  6246  5829  5300  4833  4488  4223  4014  3839  3596  3060  2083  929  92  -265  -295  -70  486  1398  2394  3032  3119  2797  2349  1976  1567  721  -778  -2470  -3547  -3623  -2890  -1890  -1194  -981  -1046  -1166  -1223  -1089  -650  -29  441  490  26  -821  -1657  -2136  -2311  -2454  -2649  -2739  -2604  -2344  -2146  -2053  -1949  -1755  -1528  -1357  -1296  -1429  -1868  -2478  -2843  -2769  -2464  -2248  -2354  -2643  -2611  -1911  -581  893  1695  1388  199  -1353  -2522  -2723  -2289  -2025  -2169  -2498  -2858  -3073  -2828  -1883  -392  1062  1976  2305  2218  1769  947  -158  -1360  -2488  -3595  -4852  -6101  -6859  -6713  -5541  -3756  -2186  -1309  -957  -768  -531  -198  189  569  884  1077  1042  641  -114  -910  -1396  -1550  -1577  -1554  -1299  -576  524  1566  2208  2475  2557  2577  2595  2714  3037  3492  3868  4053  4103  4185  4475  4977  5470  5774  5938  6115  6360  6626  6852  7031  7180  7264  7190  6846  6207  5466  4925  4706  4700  4792  4879  4752  4227  3472  3091  3555  4458  4984  5149  5597  6268  6331  5034  1909  -2830  -7465  -9853  -9472  -6938  -2963  1071  3647  4511  4343  3611  2348  556  -1382  -2804  -3463  -3806  -4351  -5099  -5674  -5749  -5145  -3923  -2589  -1754  -1559  -1778  -2183  -2585  -2820  -2858  -2774  -2641  -2555  -2768  -3589  -4920  -6137  -6717  -6672  -6309  -5895  -5548  -5301  -5211  -5359  -5751  -6297  -6925  -7632  -8303  -8680  -8634  -8308  -7997  -7888  -7908  -7908  -7875  -7763  -7346  -6401  -4845  -2726  -383  1600  2944  3814  4377  4651  4662  4477  4159  3720  3151  2563  2156  2015  2054  2129  2147  2089  1993  1922  1959  2285  3082  4161  5009  5390  5491  5499  5439  5305  5108  4861  4596  4336  4108  3950  3896  3973  4189  4491  4761  4906  4931  4866  4625  4019  3049  2050  1331  872  558  401  388  420  378  -13  -1171  -3100  -5071  -6231  -6312  -5527  -4312  -3248  -2696  -2559  -2573  -2686  -3175  -4380  -6116  -7625  -8352  -8358  -7938  -7317  -6614  -5879  -5225  -4769  -4443  -4035  -3441  -2799  -2342  -2092  -1855  -1495  -1073  -723  -523  -518  -870  -1837  -3375  -5050  -6441  -7413  -8008  -8077  -7083  -4570  -847  3077  6248  8297  9385  9794  9742  9343  8407  6685  4463  2495  1492  1732  2880  4277  5334  5710  5486  5069  4766  4633  4617  4633  4652  4666  4602  4359  3860  3175  2564  2187  1968  1796  1608  1361  1062  783  595  515  524  627  857  1169  1382  1268  709  -100  -779  -1140  -1223  -1071  -723  -310  114  868  2364  4408  6229  7361  8016  8555  9046  9418  9659  9816  9936  9980  9899  9758  9637  9483  9127  8398  7245  5934  4910  4417  4506  5002  5325  4821  3340  1406  -356  -1611  -2046  -1941  -2401  -3980  -6396  -9366  -12448  -14928  -16320  -16574  -16139  -15649  -15260  -14697  -13745  -12454  -11211  -10473  -10280  -10311  -10224  -9796  -8998  -7870  -6384  -4750  -3516  -2976  -2867  -2794  -2648  -2508  -2301  -1752  -742  412  1258  1686  1819  1753  1621  1552  1556  1554  1460  1213  758  69  -690  -1234  -1511  -1727  -2054  -2506  -2975  -3319  -3460  -3442  -3395  -3503  -3901  -4496  -5019  -5202  -4634  -2946  -637  1037  1304  316  -1217  -2478  -3066  -3063  -2649  -2031  -1512  -1359  -1631  -2129  -2561  -2717  -2380  -1383  -49  931  1267  1193  957  648  242  -441  -1595  -3058  -4310  -4967  -5172  -5310  -5528  -5724  -5875  -6090  -6399  -6690  -6878  -6905  -6564  -5506  -3559  -948  1802  4162  5905  7145  8136  9066  9887  10378  10366  9809  8940  8301  8148  8256  8523  8886  9032  8878  8741  8866  8922  8052  5591  1626  -2842  -6121  -6958  -5760  -4090  -3064  -2771  -2710  -2238  -1059  394  1373  1579  1256  800  501  422  461  506  472  297  -20  -439  -913  -1339  -1624  -1824  -2030  -2178  -2022  -1323  -167  1107  2382  3739  5059  6099  6831  7356  7704  7876  7948  8058  8310  8623  8758  8572  8201  7897  7751  7608  7234  6546  5717  4976  4301  3506  2650  2056  1949  2382  3269  4244  4851  4918  4571  4058  3629  3393  3338  3433  3551  3350  2414  758  -939  -1967  -2252  -2188  -2071  -1910  -1559  -954  -252  292  562  618  534  316  3  -287  -478  -584  -671  -835  -1135  -1539  -1952  -2332  -2775  -3445  -4356  -5291  -5980  -6294  -6222  -5784  -5067  -4202  -3209  -2000  -619  593  1254  1291  883  264  -404  -1102  -1762  -2172  -2105  -1456  -412  539  1013  949  439  -325  -1059  -1550  -1826  -2262  -3279  -4676  -5742  -6120  -5951  -5373  -4468  -3506  -2814  -2478  -2332  -2138  -1770  -1331  -1101  -1375  -2277  -3571  -4731  -5420  -5773  -6082  -6429  -6720  -6884  -6950  -7008  -7115  -7256  -7366  -7361  -7167  -6769  -6263  -5829  -5569  -5394  -5150  -4846  -4596  -4401  -4150  -3783  -3362  -3021  -2848  -2852  -2981  -3177  -3409  -3631  -3635  -2979  -1372  744  2577  3849  4712  5249  5486  5382  4882  4303  4339  5350  6827  7751  7379  5609  2967  436  -1165  -1738  -1646  -1359  -1411  -2147  -3404  -4641  -5450  -5864  -6188  -6658  -7201  -7553  -7642  -7616  -7577  -7547  -7448  -6952  -5571  -3173  -331  2002  3214  3340  2675  1435  -119  -1593  -2613  -3084  -3177  -3010  -2479  -1505  -147  1599  3703  5815  7416  8237  8434  8398  8446  8667  8969  9232  9408  9504  9542  9543  9517  9480  9489  9679  10145  10750  11231  11516  11684  11745  11649  11455  11361  11505  11800  12143  12581  13179  13864  14434  14646  14311  13435  12330  11264  10156  9029  8251  7964  7904  7847  7782  7746  7712  7654  7650  7920  8643  9619  10376  10677  10661  10542  10428  10290  9922  9011  7395  5396  3705  2706  2127  1410  112  -1794  -3839  -5419  -6275  -6596  -6726  -6888  -7224  -7833  -8614  -9250  -9538  -9564  -9513  -9486  -9501  -9534  -9514  -9326  -8876  -8176  -7438  -6961  -6844  -6936  -7022  -6852  -6233  -5316  -4543  -4202  -4353  -5051  -6227  -7542  -8586  -9138  -9278  -9231  -9129  -9057  -9195  -9636  -10021  -9604  -7928  -5273  -2265  583  2634  3082  1720  -857  -3784  -6156  -7415  -7822  -8156  -9013  -10316  -11365  -11631  -11306  -10830  -10420  -10194  -10295  -10798  -11528  -12125  -12415  -12465  -12223  -11288  -9264  -6519  -4179  -3016  -2787  -2855  -2882  -2843  -2800  -2779  -2766  -2757  -2786  -2911  -3144  -3420  -3626  -3687  -3628  -3422  -2811  -1631  -267  663  959  715  -46  -1226  -2515  -3577  -4141  -3986  -3046  -1653  -404  402  910  1334  1770  2181  2462  2528  2296  1725  1008  492  259  -61  -908  -2203  -3354  -3935  -3953  -3542  -2861  -2182  -1742  -1577  -1616  -1813  -2125  -2456  -2650  -2525  -1991  -1241  -631  -305  -154  -81  -87  -221  -505  -913  -1386  -1885  -2521  -3490  -4656  -5554  -5865  -5490  -4442  -3109  -2145  -1804  -1832  -1934  -2005  -2024  -1915  -1539  -690  1013  3867  7485  10741  12646  13189  13282  14125  16232  18720  19958  18733  14982  10044  5897  3892  4144  5444  6155  5860  5364  5269  5556  6076  6750  7484  8125  8557  8811  9053  9447  9987  10465  10673  10596  10395  10275  10370  10702  11168  11567  11716  11579  11300  11070  10966  10951  10998  11090  11106  10756  9806  8483  7378  6791  6489  6110  5566  4954  4249  3257  1637  -916  -4078  -6853  -8511  -9168  -9333  -9282  -8881  -7883  -6454  -5208  -4553  -4361  -4315  -4285  -4399  -4967  -6153  -7566  -8524  -8744  -8400  -7762  -7067  -6486  -6095  -5913  -5920  -6076  -6312  -6470  -6285  -5534  -4401  -3425  -2916  -2753  -2720  -2697  -2621  -2481  -2340  -2279  -2326  -2427  -2506  -2514  -2404  -2059  -1298  33  1914  3913  5457  6462  7180  7670  7893  7919  7783  7411  6704  5659  4441  3398  2926  3167  3920  5009  6416  7890  8996  9630  9986  10197  10308  10336  10206  9792  9127  8465  8030  7844  7834  7940  7951  7276  5319  2394  -376  -2315  -3538  -4273  -4573  -4377  -3620  -2432  -1098  131  1137  1971  2571  2638  2106  1317  671  372  350  423  509  662  1039  1808  2929  4136  5130  5677  5586  4714  3135  1200  -616  -1864  -2372  -2301  -1856  -1170  -380  332  791  989  1072  1078  870  198  -1076  -2567  -3547  -3628  -2936  -1941  -1250  -1317  -2255  -3693  -4953  -5710  -6177  -6569  -6780  -6621  -6046  -5077  -3856  -2695  -1786  -1068  -497  -84  231  503  657  457  -331  -1589  -2957  -4326  -5682  -6732  -7134  -6639  -5113  -2985  -1223  -392  -240  -348  -710  -1588  -2918  -4152  -4831  -5004  -4913  -4620  -4066  -3326  -2667  -2313  -2243  -2282  -2298  -2266  -2262  -2463  -3018  -3783  -4388  -4610  -4418  -3832  -3066  -2525  -2447  -2770  -3258  -3675  -3973  -4247  -4538  -4797  -4942  -4866  -4469  -3813  -3151  -2652  -2197  -1458  -241  1131  2058  2317  2114  1683  1217  896  792  925  1327  1898  2374  2580  2525  2286  1992  1790  1722  1701  1645  1525  1271  767  68  -554  -918  -1095  -1200  -1251  -1274  -1379  -1674  -2114  -2505  -2696  -2694  -2596  -2551  -2816  -3582  -4597  -5319  -5532  -5478  -5482  -5730  -6277  -7096  -8026  -8789  -9278  -9636  -9950  -10156  -10218  -10216  -10297  -10608  -11174  -11791  -12205  -12398  -12534  -12652  -12638  -12455  -12217  -12037  -11947  -11914  -11895  -11919  -12151  -12826  -14041  -15615  -17127  -18162  -18623  -18661  -18454  -18211  -18077  -18048  -18080  -18226  -18590  -19233  -20204  -21563  -23132  -24485  -25341  -25680  -25393  -24193  -22209  -20311  -19289  -19086  -19163  -19164  -19095  -19086  -19121  -19085  -19041  -19123  -18703  -15688  -8097  2675  12221  17624  19504  19919  20195  20604  20987  21248  21421  21525  21531  21457  21384  21359  21367  21366  21318  21196  20973  20624  20190  19787  19475  19198  18883  18515  18106  17695  17368  17187  17116  17053  16883  16539  16084  15668  15361  15106  14837  14574  14416  14493  14995  16123  17734  19213  20029  20098  19439  18014  15999  13874  12209  11271  10840  10563  10322  10142  10013  9889  9757  9635  9502  9318  9056  8700  8273  7862  7531  7271  7085  7003  6998  6964  6789  6463  6106  5862  5777  5783  5759  5612  5343  5060  4850  4696  4567  4476  4429  4401  4357  4272  4154  4040  3945  3855  3771  3732  3751  3773  3760  3719  3663  3606  3564  3533  3513  3515  3553  3623  3695  3722  3679  3576  3428  3251  3077  2926  2757  2521  2233  1919  1558  1146  737  342  -90  -512  -784  -886  -941  -1031  -1171  -1381  -1624  -1794  -1843  -1814  -1769  -1738  -1723  -1723  -1755  -1837  -1929  -1935  -1813  -1679  -1714  -1936  -2178  -2306  -2329  -2314  -2302  -2291  -2277  -2259  -2235  -2207  -2186  -2211  -2347  -2610  -2899  -3072  -3049  -2838  -2544  -2340  -2350  -2581  -2908  -3158  -3255  -3233  -3128  -2976  -2841  -2767  -2746  -2762  -2825  -2963  -3179  -3404  -3497  -3342  -2968  -2562  -2328  -2351  -2600  -2937  -3173  -3214  -3094  -2910  -2759  -2680  -2647  -2647  -2731  -2951  -3246  -3453  -3468  -3308  -3082  -2921  -2868  -2885  -2939  -3008  -3062  -3053  -2951  -2795  -2681  -2669  -2736  -2847  -2967  -3055  -3090  -3092  -3075  -3043  -2997  -2950  -2924  -2925  -2936  -2920  -2871  -2854  -2932  -3076  -3223  -3374  -3557  -3741  -3863  -3893  -3833  -3695  -3531  -3417  -3379  -3383  -3384  -3360  -3310  -3248  -3178  -3093  -2986  -2851  -2681  -2469  -2256  -2111  -2063  -2081  -2111  -2118  -2104  -2093  -2129  -2244  -2399  -2499  -2495  -2422  -2349  -2315  -2327  -2365  -2417  -2472  -2512  -2521  -2489  -2418  -2346  -2375  -2530  -2543  -1944  -467  1676  3944  5890  7238  7707  7196  5828  3777  1410  -606  -1754  -2004  -1649  -1124  -859  -950  -1149  -1227  -1159  -1030  -924  -868  -858  -884  -926  -959  -967  -921  -777  -521  -216  16  120  161  224  300  299  217  178  263  422  586  722  808  870  968  1132  1334  1522  1656  1743  1825  1940  2093  2260  2416  2573  2763  2967  3111  3186  3290  3515  3838  4151  4377  4488  4479  4379  4287  4328  4506  4706  4840  4899  4904  4851  4690  4383  3989  3648  3441  3337  3255  3133  2965  2800  2693  2649  2644  2658  2681  2725  2842  3079  3369  3586  3717  3846  3983  4040  3979  3888  3867  3876  3851  3854  3958  4150  4410  4736  5081  5329  5397  5280  5033  4764  4590  4540  4495  4224  3590  2790  2207  1986  1975  2010  2057  2140  2241  2316  2350  2356  2322  2196  1950  1670  1553  1796  2421  3199  3862  4356  4682  4472  2956  -210  -4208  -7693  -9998  -11231  -11413  -10039  -6795  -2449  1346  3085  2328  136  -1684  -2317  -2412  -3200  -5617  -9234  -12109  -12696  -11326  -9478  -8269  -7843  -7601  -6867  -5581  -4205  -3126  -2458  -2202  -2479  -3533  -5240  -6899  -7702  -6915  -4140  -337  2532  3438  2501  67  -3048  -5559  -6859  -7465  -8251  -9557  -10951  -11804  -11827  -11003  -9529  -7896  -6580  -5693  -5061  -4481  -3756  -2803  -1862  -1291  -1209  -1545  -2227  -3162  -4094  -4669  -4750  -4556  -4510  -4837  -5328  -5676  -5773  -5664  -5498  -5380  -5290  -5141  -4855  -4428  -3955  -3539  -3196  -2865  -2471  -2064  -1817  -1840  -2051  -2258  -2423  -2573  -2234  -615  2404  6102  9731  12878  15223  16587  17095  16691  14894  11706  7906  4257  1462  208  451  1485  2666  3596  4260  4993  5843  6498  6762  6566  5898  5015  4319  3838  3256  2457  1523  417  -804  -1835  -2477  -2789  -2924  -3016  -3127  -3216  -3179  -2916  -2373  -1392  281  2589  5036  6994  8036  8187  7831  7362  7067  7140  7644  8419  9151  9625  9760  9507  8913  8196  7620  7263  6920  6240  5048  3580  2295  1449  920  451  -20  -369  -505  -507  -549  -772  -1180  -1748  -2612  -3957  -5808  -8003  -10095  -11506  -12099  -12131  -11853  -11496  -11244  -11099  -10877  -10317  -9331  -8111  -6835  -5488  -4134  -3049  -2439  -2206  -2080  -1916  -1749  -1639  -1567  -1382  -807  274  1570  2820  4213  5838  7231  7977  8131  7777  6735  4937  2773  875  -313  -761  -698  -330  204  731  1090  1244  1251  1190  1128  1090  1067  1064  1087  1134  1185  1160  889  211  -782  -1743  -2407  -2801  -3082  -3323  -3493  -3572  -3611  -3663  -3683  -3477  -2803  -1672  -473  339  651  641  470  165  -268  -729  -1053  -1089  -685  240  1481  2589  3240  3459  3419  3164  2598  1712  754  131  209  1212  2938  4620  5522  5442  4564  3352  2405  1985  1936  2029  2136  2117  1741  951  273  573  2188  4460  6233  6728  5958  4687  3823  3445  2838  1538  -207  -1905  -3083  -3424  -3141  -2917  -3254  -3947  -4328  -4018  -3039  -1528  74  1121  1319  728  -478  -1924  -3097  -3772  -4178  -4661  -5304  -5963  -6539  -7031  -7405  -7603  -7658  -7653  -7648  -7704  -7891  -8173  -8365  -8205  -7541  -6599  -5806  -5300  -4981  -4870  -5040  -5395  -5809  -6343  -7096  -7856  -8204  -7940  -7246  -6403  -5492  -4512  -3656  -3189  -3183  -3525  -3991  -4307  -4263  -3811  -3121  -2445  -1858  -1307  -736  -13  958  2048  2992  3614  3907  4000  4031  4061  4158  4394  4720  5026  5370  5868  6372  6601  6561  6464  6420  6426  6465  6514  6505  6370  6152  5927  5621  5083  4393  3807  3409  3109  2872  2702  2557  2374  2133  1823  1335  549  -353  -968  -1120  -956  -674  -388  -114  215  660  1134  1439  1419  1011  337  -229  -283  321  1320  2127  2310  1955  1473  1252  1370  1387  658  -1061  -3374  -5378  -6250  -5814  -4510  -3075  -2005  -1273  -725  -334  -80  92  259  519  929  1387  1695  1786  1724  1568  1389  1302  1384  1614  1962  2471  3137  3754  4098  4172  4132  4094  4093  4129  4185  4230  4215  4097  3866  3567  3283  3103  3045  3015  2820  2236  1265  297  -244  -332  -227  -134  -96  -67  0  108  215  292  354  433  575  840  1208  1535  1716  1784  1821  1866  1941  2103  2582  3723  5509  7369  8709  9344  9278  8336  6478  4406  3068  2611  2483  2252  1830  1231  474  -289  -831  -1082  -1124  -1059  -988  -971  -999  -1031  -1015  -883  -496  304  1565  3224  5124  6896  7993  7962  6668  4346  1568  -822  -2104  -2219  -1785  -1567  -1874  -2459  -2972  -3258  -3319  -3199  -2930  -2567  -2176  -1796  -1462  -1211  -995  -705  -329  -1  144  91  -87  -330  -795  -1892  -3770  -5920  -7571  -8333  -8308  -7768  -6980  -6146  -5350  -4708  -4462  -4760  -5460  -6217  -6749  -6916  -6501  -5284  -3591  -2220  -1604  -1608  -2123  -3288  -5100  -7010  -8240  -8571  -8352  -7932  -7487  -7066  -6470  -5270  -3313  -1192  244  747  618  149  -465  -992  -1284  -1389  -1408  -1314  -976  -335  497  1282  1769  1839  1494  831  128  -293  -333  -98  231  515  714  775  534  -73  -813  -1344  -1541  -1497  -1323  -1112  -955  -873  -801  -691  -568  -440  -243  53  405  797  1304  2007  2842  3606  4152  4510  4773  4986  5136  5187  5123  4936  4607  4180  3769  3454  3166  2710  1962  1058  314  -38  62  571  1285  1928  2413  2785  2997  2932  2541  1972  1518  1326  1304  1320  1325  1333  1361  1401  1431  1449  1475  1519  1563  1564  1445  1150  738  392  253  315  471  631  772  869  767  215  -801  -1857  -2479  -2632  -2572  -2479  -2386  -2353  -2617  -3468  -4834  -6228  -7242  -7855  -8226  -8449  -8428  -7861  -6528  -4709  -3048  -1918  -1212  -661  -108  489  1066  1489  1685  1717  1700  1719  1860  2197  2681  3136  3427  3568  3603  3493  3170  2668  2167  1827  1630  1445  1175  807  366  -136  -615  -924  -1024  -1009  -942  -785  -446  93  662  1027  1086  835  320  -275  -735  -1035  -1274  -1404  -1190  -368  1212  3441  5857  7808  8706  8200  6376  3841  1354  -560  -1698  -2284  -2679  -2886  -2771  -2436  -2084  -1846  -1759  -1774  -1834  -1919  -2001  -1931  -1434  -417  729  1440  1475  976  296  -197  -412  -480  -496  -475  -432  -409  -428  -484  -602  -816  -1069  -1240  -1275  -1182  -958  -615  -222  134  401  573  661  681  664  638  607  538  369  84  -220  -403  -376  -132  223  519  680  743  759  757  776  855  977  1062  1007  751  376  45  -174  -328  -503  -783  -1128  -1374  -1425  -1323  -1166  -1048  -1021  -1117  -1343  -1619  -1818  -1922  -2020  -2162  -2324  -2483  -2617  -2670  -2578  -2341  -2057  -1854  -1765  -1733  -1692  -1610  -1501  -1394  -1282  -1166  -1086  -1083  -1151  -1247  -1314  -1337  -1337  -1334  -1326  -1310  -1289  -1280  -1295  -1332  -1375  -1394  -1320  -1087  -762  -529  -525  -747  -1058  -1281  -1356  -1345  -1300  -1231  -1158  -1107  -1030  -781  -293  263  646  823  970  1314  1969  2793  3473  3832  3941  3971  3998  3992  3912  3760  3568  3321  2948  2493  2128  1905  1745  1598  1443  1228  925  601  356  234  215  269  359  441  493  522  519  446  268  0  -280  -468  -544  -556  -522  -444  -351  -279  -248  -260  -290  -287  -199  10  343  721  1016  1161  1193  1146  1013  815  634  543  542  573  612  696  848  1031  1181  1265  1295  1303  1313  1337  1355  1310  1143  878  615  432  338  303  289  250  89  -360  -1179  -2124  -2777  -2982  -2863  -2549  -2186  -1974  -2008  -2200  -2393  -2497  -2505  -2426  -2278  -2149  -2173  -2402  -2630  -2401  -1304  775  3552  6316  8214  8749  7991  6343  4347  2632  1586  1139  985  865  668  437  284  275  396  568  687  685  559  379  240  177  164  184  268  451  692  890  1003  1060  1086  1092  1134  1287  1516  1657  1583  1332  1005  615  161  -280  -614  -782  -808  -780  -800  -927  -1137  -1344  -1472  -1482  -1354  -1051  -540  63  538  845  1136  1471  1760  1936  2009  2016  2000  1986  1978  1962  1924  1874  1830  1787  1703  1502  1135  709  421  341  387  475  563  634  721  917  1221  1499  1680  1801  1875  1850  1667  1348  992  665  348  50  -135  -128  -5  94  133  141  124  66  -70  -319  -663  -1024  -1300  -1468  -1642  -1964  -2438  -2925  -3269  -3376  -3235  -2931  -2602  -2316  -2051  -1798  -1592  -1448  -1363  -1304  -1233  -1162  -1125  -1117  -1114  -1091  -1037  -973  -947  -1027  -1236  -1498  -1667  -1626  -1358  -993  -729  -631  -613  -610  -647  -776  -1005  -1286  -1565  -1843  -2153  -2463  -2681  -2783  -2813  -2816  -2808  -2796  -2781  -2769  -2762  -2759  -2760  -2768  -2784  -2812  -2848  -2884  -2932  -3004  -3003  -2667  -1790  -583  447  1038  1318  1518  1770  2076  2348  2516  2556  2388  1881  1058  175  -510  -936  -1153  -1206  -1072  -624  172  986  1291  915  137  -639  -1065  -1025  -926  -1380  -2477  -3775  -4796  -5161  -4772  -4021  -3419  -3170  -3206  -3317  -3260  -2913  -2399  -1987  -1814  -1817  -1843  -1702  -1232  -413  590  1505  2098  2335  2325  2100  1586  760  -188  -934  -1297  -1360  -1232  -867  -206  564  1107  1325  1443  1735  2305  3075  3855  4445  4773  4906  4889  4700  4382  4069  3857  3714  3534  3260  2905  2466  1909  1304  825  580  517  525  525  483  364  105  -306  -773  -1177  -1488  -1682  -1668  -1404  -944  -377  169  571  814  1006  1233  1463  1642  1841  2178  2594  2892  2948  2760  2396  2015  1775  1695  1700  1725  1739  1698  1554  1333  1138  1054  1123  1368  1763  2217  2612  2840  2860  2699  2465  2284  2136  1843  1311  705  305  255  553  1085  1598  1832  1722  1416  1103  872  727  683  760  947  1217  1558  1968  2410  2779  2991  3076  3082  3003  2827  2596  2377  2197  2055  2022  2306  3104  4280  5362  6042  6400  6558  6365  5523  4055  2454  1221  504  207  142  59  -248  -764  -1249  -1497  -1435  -1034  -383  245  613  677  414  -326  -1670  -3371  -4882  -5860  -6347  -6604  -6898  -7115  -6358  -3486  1268  5941  8572  8502  6390  3863  2411  2067  1622  37  -2688  -5390  -6306  -4658  -1557  1088  2040  1251  -280  -1381  -1728  -1753  -1908  -2319  -2842  -3262  -3508  -3688  -3943  -4311  -4761  -5275  -5788  -6174  -6354  -6281  -5932  -5450  -5108  -5040  -5194  -5486  -5819  -6037  -5963  -5392  -4054  -1862  609  2385  3079  3057  2711  2048  825  -992  -2863  -4099  -4589  -4694  -4629  -4369  -3920  -3375  -2866  -2540  -2443  -2489  -2580  -2661  -2725  -2791  -2878  -2978  -3067  -3122  -3132  -3061  -2829  -2428  -1999  -1657  -1303  -677  386  1697  2795  3313  3075  2023  499  -763  -1373  -1550  -1578  -1453  -1107  -664  -347  -240  -254  -296  -417  -735  -1203  -1572  -1541  -890  293  1488  2163  2223  1887  1429  1052  771  466  76  -353  -742  -1050  -1336  -1661  -1857  -1706  -1350  -1059  -809  -539  -342  -91  475  1190  1590  1449  694  -645  -2097  -2931  -2886  -2431  -2046  -1639  -1047  -421  135  625  943  1011  886  677  479  319  144  -87  -365  -650  -912  -1137  -1208  -783  503  2468  4334  5498  5960  5991  5748  5277  4687  4021  3097  1895  830  274  172  278  440  618  804  996  1202  1446  1746  2039  2219  2270  2267  2264  2265  2307  2525  2987  3524  3916  4158  4359  4540  4607  4456  4098  3659  3230  2830  2484  2239  2146  2227  2448  2753  3104  3500  3966  4434  4745  4833  4757  4584  4389  4262  4268  4416  4644  4805  4690  4151  3302  2448  1744  1159  643  151  -302  -619  -750  -758  -726  -688  -644  -602  -634  -929  -1642  -2604  -3409  -3859  -4049  -4092  -3998  -3732  -3266  -2626  -1944  -1371  -953  -672  -517  -459  -463  -521  -628  -736  -746  -544  -128  319  603  697  672  545  352  209  195  277  372  426  437  424  306  -117  -1052  -2600  -4424  -5607  -5360  -3418  258  5040  9659  13082  14292  12568  8768  4779  1900  481  189  -29  -1362  -3795  -6070  -7204  -7329  -7082  -6854  -6753  -6834  -7164  -7679  -8147  -8399  -8455  -8376  -8165  -7841  -7406  -6739  -5703  -4423  -3268  -2512  -2085  -1772  -1550  -1568  -1793  -2008  -2184  -2573  -3369  -4405  -5316  -5876  -6038  -5852  -5468  -5024  -4514  -3873  -3190  -2698  -2507  -2505  -2547  -2621  -2807  -3122  -3471  -3763  -3977  -4086  -4054  -3881  -3514  -2797  -1728  -652  40  279  221  55  -84  -151  -163  -139  -96  -58  -49  -103  -289  -688  -1275  -1911  -2470  -2913  -3234  -3431  -3538  -3591  -3583  -3487  -3279  -2910  -2318  -1481  -539  243  716  936  1012  1023  1036  1129  1340  1596  1762  1723  1413  848  185  -350  -597  -443  166  1046  1816  2283  2503  2649  3088  4155  5578  6622  6968  6876  6653  6451  6340  6261  5961  5209  4221  3648  3984  5114  6419  7256  7492  7659  8358  9503  10366  10177  8706  6410  4093  2475  1625  881  -265  -1590  -2557  -2966  -3083  -3213  -3413  -3643  -3888  -4137  -4363  -4492  -4373  -3867  -3070  -2282  -1675  -1219  -851  -541  -297  -142  -65  -53  -148  -417  -840  -1281  -1616  -1852  -2082  -2378  -2771  -3214  -3582  -3751  -3625  -3134  -2390  -1689  -1265  -1167  -1271  -1393  -1449  -1468  -1488  -1497  -1413  -1093  -328  1003  2602  3859  4476  4643  4667  4678  4545  4001  3009  1936  1164  703  367  93  -73  -179  -422  -954  -1605  -1948  -1711  -942  261  1847  3456  4547  4995  5066  4876  4244  3126  1934  1242  1424  2569  4258  5697  6370  6164  5287  4591  5267  7669  11021  14327  16857  18028  17630  15779  12259  6930  834  -4307  -7309  -7773  -6131  -3614  -1576  -677  -626  -745  -597  -77  723  1551  2108  2309  2276  2059  1603  993  453  93  -183  -530  -1006  -1622  -2464  -3547  -4629  -5379  -5705  -5781  -5725  -5381  -4528  -3278  -1971  -727  427  1275  1675  1780  1800  1811  1809  1778  1729  1703  1763  1930  2121  2292  2694  3639  4847  5633  5850  5944  5960  4944  1893  -2403  -5713  -7002  -7101  -7014  -7025  -7069  -7104  -7142  -7156  -7028  -6643  -6098  -5642  -5375  -5116  -4493  -3109  -1011  1016  2153  2358  2100  1770  1525  1364  1255  1200  1176  1090  835  306  -512  -1365  -1898  -2027  -1904  -1674  -1431  -1294  -1428  -1962  -2738  -3277  -3051  -1851  -175  1026  1227  611  -274  -883  -995  -736  -352  -68  19  -31  18  763  2847  5956  8762  10317  10724  10360  9383  8138  7043  6007  4938  4241  3958  3761  3745  3840  3442  2023  -902  -5269  -9835  -13124  -14436  -14171  -13387  -12452  -10571  -6816  -1504  3523  6599  7602  7100  5272  2474  -92  -1227  -835  208  989  1227  1172  1120  1212  1390  1423  1208  908  557  -34  -816  -1416  -1606  -1405  -906  -314  75  125  -90  -395  -625  -729  -740  -711  -792  -1245  -2211  -3522  -4857  -5958  -6665  -6972  -7050  -7051  -6924  -6463  -5562  -4384  -3289  -2585  -2280  -2208  -2442  -3329  -4976  -6968  -8719  -9856  -10331  -10380  -10288  -10095  -9437  -7802  -5263  -2678  -874  -14  145  -266  -1313  -2835  -4335  -5391  -5938  -6193  -6382  -6559  -6655  -6619  -6450  -6156  -5813  -5572  -5510  -5584  -5717  -5813  -5713  -5246  -4434  -3495  -2597  -1697  -601  776  2157  3081  3409  3382  3262  3154  3053  2936  2858  2901  2937  2473  1076  -838  -2240  -2682  -2543  -2279  -2008  -1574  -790  350  1670  2878  3739  4290  4761  5312  5989  6746  7413  7837  7987  7892  7538  6892  6100  5483  5212  5175  5177  5102  5043  5300  6139  7635  9463  10877  11396  11166  10521  9806  9242  8403  6503  3522  254  -2440  -3807  -3617  -2855  -2965  -4240  -5783  -6756  -6928  -6292  -4905  -3250  -2068  -1635  -1661  -1807  -1933  -1902  -1383  12  2266  4719  6552  7483  7788  7783  7501  6847  5938  5056  4339  3789  3412  3200  3138  3199  3301  3380  3438  3482  3508  3548  3658  3842  4046  4270  4587  5010  5423  5708  5832  5691  4997  3470  1172  -1272  -3035  -3881  -4304  -4746  -5121  -5010  -4025  -2282  -613  96  -295  -1211  -2001  -2517  -2976  -3477  -3882  -4078  -4136  -4281  -4765  -5672  -6801  -7907  -9000  -10092  -10921  -11281  -11231  -10896  -10400  -9910  -9496  -9103  -8754  -8518  -8183  -7324  -5925  -4609  -3898  -3575  -2935  -1557  158  1423  2065  2590  3370  4228  4739  4584  3694  2450  1484  1016  755  466  247  260  554  1174  2057  2895  3415  3598  3550  3392  3248  3222  3406  3844  4404  4836  4880  4239  2802  1081  -101  -336  379  1841  3434  4438  4682  4475  4106  3722  3419  3269  3309  3540  3878  4135  4092  3573  2621  1594  1049  1753  4302  7980  10962  12281  12444  12119  11368  10089  8554  7234  6291  5575  5019  4716  4664  4707  4644  4358  3938  3618  3515  3535  3482  3220  2815  2418  1923  920  -766  -2609  -3849  -4212  -3639  -2027  136  1801  2434  2261  1582  593  -521  -1750  -3193  -4655  -5599  -5541  -4335  -2410  -708  87  -10  -584  -992  -629  571  2131  3503  4461  5193  5958  6564  6480  5327  3090  378  -1810  -2965  -3268  -3175  -3202  -3694  -4483  -5139  -5587  -6050  -6561  -6950  -7153  -7240  -7306  -7511  -8025  -8762  -9243  -8746  -6845  -4221  -2262  -1460  -1163  -763  -271  13  -62  -348  -622  -1023  -1933  -3316  -4633  -5457  -5773  -5778  -5671  -5521  -5213  -4564  -3600  -2501  -1335  -240  413  220  -1001  -2846  -4410  -5113  -5001  -4294  -3286  -2437  -2050  -2060  -2290  -2800  -3771  -5004  -5956  -6338  -6097  -5014  -3033  -788  850  1652  1962  2107  2179  2139  1879  1297  495  -218  -635  -732  -420  432  1569  2425  2761  2712  2308  1446  317  -591  -943  -715  -13  979  2007  2861  3417  3623  3528  3253  2859  2259  1352  219  -871  -1689  -2222  -2585  -2908  -3322  -3889  -4533  -5103  -5490  -5682  -5737  -5723  -5691  -5681  -5683  -5604  -5294  -4676  -3877  -3007  -1827  -10  2348  4823  7009  8665  9871  10892  11740  12235  12403  12485  12632  12770  12782  12720  12596  12064  10715  8751  6834  5197  3566  1882  469  -403  -713  -347  1020  3323  5785  7573  8409  8438  7778  6494  4955  3650  2634  1646  713  139  -41  -197  -674  -1490  -2570  -4136  -6541  -9787  -13368  -16525  -18757  -20137  -20954  -21097  -20200  -18328  -16068  -13876  -11585  -8868  -5934  -3407  -1921  -1973  -3669  -6532  -9748  -12384  -13602  -13316  -12382  -11687  -11451  -11501  -11464  -10668  -8662  -6078  -4204  -3536  -3557  -3709  -3744  -3398  -2366  -711  1121  2787  4174  5282  6221  7043  7639  7981  8168  8214  7981  7245  5992  4684  3885  3672  3773  3999  4312  4678  5004  5213  5367  5628  6012  6346  6494  6444  6233  5929  5575  5119  4581  4146  3989  4223  4883  5722  6308  6455  6300  6053  5864  5790  5825  5954  6163  6388  6535  6558  6475  6317  6075  5733  5133  3814  1570  -839  -2341  -2633  -2061  -1015  125  961  1234  942  334  -267  -786  -1419  -2228  -2996  -3536  -3835  -3922  -3794  -3442  -2938  -2476  -2229  -2102  -1706  -633  1171  3160  4541  5064  5085  5003  4981  5015  5047  5010  4788  4263  3532  2893  2509  2348  2464  3110  4444  6251  8024  9392  10461  11423  12082  12137  11462  9967  7581  4466  1015  -2404  -5414  -7438  -8031  -7388  -6399  -6133  -7052  -8668  -10101  -10843  -10750  -9662  -7662  -5536  -4222  -3985  -4605  -5777  -7013  -7811  -8117  -8244  -8407  -8583  -8687  -8691  -8582  -8355  -8045  -7709  -7403  -7171  -6998  -6825  -6632  -6447  -6311  -6262  -6299  -6315  -6079  -5417  -4522  -3796  -3352  -3005  -2676  -2437  -2279  -1942  -1019  585  2320  3465  3859  3844  3719  3518  3164  2640  2082  1688  1505  1422  1409  1613  2172  2945  3578  3887  3964  3959  3983  4164  4589  5147  5594  5801  5866  6077  6698  7587  8227  8208  7517  6549  5791  5266  4577  3493  2128  646  -726  -1460  -1059  383  2206  3604  4209  4387  4786  5643  6579  6836  5810  3459  327  -2462  -3570  -2357  694  4071  5945  5766  4576  3382  2299  1171  67  -879  -1698  -2423  -2962  -3286  -3529  -3797  -3806  -2680  325  4537  8099  9889  10338  10337  10065  8886  6360  3278  1022  47  -177  -170  -96  58  446  1332  2727  4123  4965  5181  4943  4322  3442  2479  1436  396  -312  -557  -518  -324  35  507  1029  1957  3997  7145  10205  12017  12682  13158  14118  15390  16329  16454  15541  13719  11744  10424  9798  9437  9128  8834  8355  7286  5479  3474  1992  1175  719  414  254  266  341  112  -892  -2686  -4626  -6000  -6621  -6808  -6969  -7241  -7527  -7724  -7796  -7683  -7332  -6862  -6521  -6408  -6438  -6507  -6543  -6436  -6013  -5192  -4225  -3542  -3289  -3314  -3480  -3721  -3959  -4169  -4462  -5001  -5705  -6219  -6266  -5820  -5082  -4424  -4212  -4581  -5285  -5797  -5927  -6045  -6224  -5835  -4442  -2609  -1605  -2332  -4670  -7607  -9614  -9611  -8141  -6821  -6393  -6376  -6342  -6347  -6539  -6921  -7278  -7388  -7316  -7175  -6699  -5287  -2699  251  2343  3172  2986  1788  -497  -3377  -6058  -8026  -9102  -9448  -9454  -9377  -9190  -8777  -8185  -7638  -7315  -7229  -7275  -7338  -7407  -7564  -7868  -8368  -9123  -10027  -10793  -11253  -11428  -11179  -10114  -8067  -5357  -2563  -353  796  1008  759  369  -36  -367  -568  -669  -782  -1099  -1786  -2761  -3675  -4228  -4362  -4192  -3889  -3631  -3502  -3460  -3440  -3430  -3350  -2877  -1585  663  3381  5648  6870  7177  7005  6536  5559  3788  1378  -1024  -2744  -3519  -3575  -3316  -3023  -2790  -2588  -2405  -2294  -2224  -2024  -1577  -993  -524  -311  -302  -390  -508  -560  -294  520  1653  2480  2594  2048  1184  398  -120  -302  173  1737  4188  6628  8400  9474  10008  10071  9557  8375  6932  5953  5673  5735  5715  5390  4740  3989  3469  3274  3265  3366  3607  3957  4307  4620  5007  5610  6396  7225  8054  8686  8524  7016  4353  1603  78  646  3344  7115  10177  11108  9546  6250  2792  503  -561  -1031  -1255  -1534  -2126  -2795  -3192  -3310  -3296  -3195  -2882  -2224  -1339  -468  433  1684  3378  5131  6495  7351  7746  7637  6901  5581  4012  2631  1763  1506  1802  2534  3481  4429  5396  6486  7628  8650  9406  9793  9769  9322  8549  7758  7239  7014  6923  6808  6556  6162  5710  5287  4984  4878  4891  4833  4651  4460  4202  3604  2618  1592  777  61  -628  -1131  -1386  -1563  -1844  -2228  -2493  -2282  -1338  76  1261  1773  1645  1026  139  -677  -1180  -1358  -1374  -1485  -1894  -2531  -3094  -3386  -3392  -3101  -2501  -1779  -1248  -1071  -1270  -1840  -2575  -3107  -3300  -3312  -3290  -3260  -3218  -3186  -3137  -2920  -2364  -1452  -276  1028  2184  2935  3339  3630  3923  4220  4540  4911  5306  5589  5546  5101  4411  3724  3246  3034  2883  2453  1603  465  -735  -1752  -2359  -2519  -2404  -2217  -2073  -1973  -1910  -1980  -2374  -3221  -4338  -5267  -5728  -5800  -5581  -4992  -4035  -3020  -2335  -2119  -2432  -3385  -4762  -5987  -6758  -7259  -7673  -7962  -8082  -8121  -8180  -8202  -7908  -7018  -5718  -4627  -4143  -4139  -4294  -4321  -3950  -3052  -1908  -1015  -537  -231  64  231  174  18  -63  -48  0]
