reading_id,reading_time,wire_id,result_classification,heart_rate,heart_rate_alert,firmware_version,device_app_version,hardware_version,waveform_samples
931598a0-cab9-11ed-8080-808080808080,Sat Mar 25 03:03:10 UTC 2023,e12964476439,NSR,84,NONE,20001.188.58,2.13.0,Charge 5,[2390  2473  2563  2620  2611  2554  2494  2454  2430  2408  2395  2373  2272  2039  1737  1491  1343  1242  1148  1075  1050  1080  1139  1188  1206  1203  1200  1206  1231  1283  1353  1408  1422  1393  1348  1335  1354  1338  1259  1167  1098  1051  1006  922  742  438  51  -281  -446  -475  -513  -682  -981  -1310  -1568  -1705  -1735  -1725  -1761  -1894  -2108  -2340  -2542  -2673  -2685  -2569  -2405  -2294  -2264  -2277  -2286  -2254  -2165  -2070  -2055  -2143  -2283  -2421  -2540  -2647  -2760  -2846  -2818  -2653  -2444  -2308  -2277  -2304  -2344  -2413  -2537  -2656  -2651  -2476  -2190  -1903  -1730  -1721  -1833  -1999  -2158  -2279  -2345  -2288  -2121  -1959  -1870  -1852  -1899  -1957  -1943  -1810  -1615  -1462  -1366  -1249  -1099  -980  -911  -858  -804  -751  -708  -689  -723  -825  -965  -1080  -1134  -1145  -1136  -1105  -1036  -942  -856  -807  -838  -1011  -1332  -1739  -2149  -2412  -2287  -1631  -552  751  2200  3744  5156  6030  5966  4735  2485  -110  -2121  -2906  -2468  -1370  -361  10  -281  -762  -1007  -967  -815  -711  -672  -626  -532  -421  -348  -305  -241  -143  -31  61  116  145  164  167  99  -87  -325  -440  -335  -90  150  349  535  693  792  853  902  936  972  1046  1160  1276  1364  1409  1396  1331  1261  1233  1275  1408  1642  1931  2181  2330  2366  2279  2086  1863  1701  1606  1495  1293  1021  764  541  293  15  -198  -286  -281  -254  -251  -312  -462  -652  -787  -832  -818  -777  -720  -665  -627  -601  -564  -511  -459  -422  -404  -414  -474  -595  -739  -835  -834  -718  -515  -310  -169  -92  -59  -75  -156  -278  -369  -388  -365  -340  -319  -285  -237  -194  -167  -157  -160  -169  -165  -146  -128  -123  -120  -102  -63  -14  26  44  20  -60  -188  -322  -415  -429  -331  -106  166  364  432  371  167  -138  -413  -557  -591  -607  -680  -813  -947  -1040  -1102  -1141  -1082  -853  -658  -809  -1234  -1370  -595  1177  3366  5110  5666  4802  2944  827  -921  -1987  -2322  -2075  -1589  -1227  -1111  -1110  -1090  -1031  -960  -876  -759  -611  -486  -413  -371  -339  -319  -312  -310  -308  -304  -300  -288  -262  -258  -313  -391  -437  -440  -396  -287  -97  140  342  464  542  611  673  739  837  958  1062  1138  1195  1233  1279  1388  1568  1762  1916  2001  1999  1916  1801  1707  1664  1660  1641  1561  1421  1229  959  621  301  49  -147  -317  -468  -607  -757  -959  -1227  -1511  -1725  -1821  -1836  -1825  -1812  -1803  -1802  -1808  -1817  -1817  -1824  -1875  -1968  -2049  -2089  -2110  -2140  -2180  -2206  -2189  -2112  -2007  -1930  -1891  -1855  -1802  -1750  -1728  -1777  -1920  -2106  -2253  -2340  -2384  -2390  -2368  -2334  -2292  -2225  -2125  -2014  -1921  -1865  -1841  -1826  -1811  -1797  -1761  -1671  -1544  -1443  -1394  -1364  -1309  -1224  -1137  -1074  -1019  -944  -846  -768  -739  -749  -768  -778  -782  -808  -878  -964  -996  -925  -777  -611  -449  -302  -222  -287  -514  -776  -906  -858  -659  -221  663  2060  3731  5249  6093  5830  4497  2623  755  -749  -1589  -1706  -1420  -1079  -843  -710  -558  -306  -27  146  167  73  -61  -162  -208  -242  -299  -350  -356  -313  -242  -171  -120  -91  -79  -80  -93  -122  -164  -206  -232  -242  -245  -240  -215  -156  -57  59  166  239  278  324  428  587  758  912  1040  1147  1247  1328  1371  1397  1453  1543  1590  1529  1409  1307  1237  1160  1029  847  671  533  415  304  212  132  31  -86  -169  -193  -195  -236  -358  -525  -650  -702  -729  -783  -874  -967  -1015  -997  -934  -854  -771  -686  -612  -569  -566  -600  -656  -712  -748  -753  -712  -627  -527  -451  -395  -341  -287  -248  -230  -221  -202  -153  -86  -35  -16  -18  -26  -30  -16  28  92  144  166  145  65  -62  -191  -277  -314  -289  -170  51  313  522  635  677  693  700  696  677  651  632  623  619  624  655  720  785  795  742  653  516  313  103  -26  -60  -47  -34  -37  -59  -84  -94  -102  -187  -447  -840  -1110  -879  157  1955  4033  5738  6533  6154  4720  2715  695  -944  -1953  -2229  -1916  -1356  -882  -674  -705  -803  -850  -868  -925  -1038  -1160  -1232  -1223  -1132  -990  -854  -764  -740  -773  -807  -794  -746  -710  -697  -673  -596  -459  -292  -148  -64  -34  -24  -25  -44  -78  -99  -52  120  382  610  726  779  847  950  1050  1132  1219  1335  1487  1614  1616  1481  1302  1167  1100  1087  1102  1130  1147  1087  873  532  190  -56  -202  -281  -315  -319  -316  -336  -402  -498  -583  -641  -679  -696  -676  -610  -520  -448  -398  -344  -281  -231  -209  -210  -221  -236  -264  -318  -377  -378  -303  -194  -110  -91  -127  -153  -119  -48  -13  -57  -145  -205  -224  -232  -225  -190  -152  -143  -172  -229  -299  -357  -383  -375  -352  -328  -280  -189  -101  -108  -231  -407  -561  -645  -647  -585  -498  -420  -361  -323  -322  -375  -452  -467  -380  -263  -186  -145  -112  -72  -27  11  36  39  -1  -101  -224  -303  -311  -281  -253  -236  -229  -231  -239  -224  -176  -194  -408  -789  -1119  -1116  -502  926  2998  5130  6746  7411  6798  5007  2615  355  -1166  -1708  -1501  -1041  -696  -550  -518  -505  -483  -461  -427  -354  -248  -155  -108  -102  -111  -117  -111  -86  -51  -21  -4  -1  -12  -26  -21  20  87  126  101  40  -16  -73  -140  -195  -177  -44  189  466  704  829  824  749  707  762  905  1112  1341  1541  1696  1796  1805  1700  1498  1289  1171  1147  1163  1185  1202  1191  1102  903  636  392  221  104  -9  -173  -396  -629  -814  -934  -994  -1012  -1019  -1052  -1124  -1225  -1329  -1412  -1477  -1539  -1594  -1620  -1596  -1522  -1430  -1340  -1246  -1153  -1069  -995  -936  -899  -876  -844  -804  -772  -757  -754  -744  -695  -589  -450  -340  -301  -330  -402  -481  -529  -531  -489  -424  -366  -331  -317  -320  -346  -377  -361  -248  -71  78  155  166  135  94  71  65  66  67  67  73  90  122  166  211  237  241  237  232  227  223  229  265  339  432  490  464  350  176  -33  -237  -365  -359  -217  -7  161  239  260  264  227  92  -121  -311  -383  -222  381  1635  3539  5737  7586  8358  7596  5448  2610  -39  -1745  -2122  -1396  -268  539  732  529  288  158  120  157  295  526  765  919  979  985  968  923  846  778  787  869  949  984  992  989  957  868  743  648  631  704  858  1065  1272  1433  1538  1604  1638  1645  1642  1643  1644  1637  1648  1712  1830  1967  2114  2257  2355  2411  2470  2530  2526  2410  2201  1969  1795  1719  1714  1718  1672  1551  1367  1141  880  615  391  194  -12  -208  -332  -368  -341  -279  -209  -154  -118  -112  -182  -377  -635  -818  -871  -851  -821  -790  -745  -700  -682  -703  -760  -828  -879  -903  -903  -869  -788  -683  -605  -596  -668  -809  -991  -1164  -1280  -1322  -1323  -1314  -1307  -1300  -1293  -1305  -1352  -1424  -1484  -1518  -1536  -1555  -1583  -1622  -1656  -1671  -1673  -1674  -1670  -1647  -1590  -1494  -1364  -1225  -1107  -1045  -1058  -1133  -1250  -1360  -1390  -1321  -1212  -1130  -1095  -1099  -1144  -1246  -1400  -1563  -1701  -1797  -1845  -1857  -1858  -1864  -1879  -1890  -1863  -1765  -1603  -1511  -1652  -1919  -1874  -1079  558  2682  4564  5436  4884  3080  720  -1442  -2906  -3396  -3071  -2502  -2132  -2005  -1954  -1825  -1592  -1359  -1257  -1316  -1436  -1517  -1540  -1508  -1408  -1243  -1065  -950  -911  -881  -807  -729  -730  -804  -861  -835  -712  -503  -270  -94  0  45  75  94  98  91  82  93  153  273  450  693  1001  1298  1478  1514  1473  1431  1416  1419  1430  1449  1484  1540  1604  1638  1613  1546  1461  1373  1279  1137  919  670  455  300  180  51  -98  -233  -317  -365  -407  -447  -478  -503  -515  -496  -446  -394  -388  -447  -536  -647  -820  -1040  -1231  -1359  -1426  -1417  -1318  -1149  -966  -834  -763  -735  -757  -839  -957  -1066  -1150  -1209  -1230  -1202  -1147  -1097  -1061  -1046  -1042  -1009  -910  -783  -724  -792  -940  -1073  -1128  -1110  -1058  -991  -906  -818  -760  -733  -715  -696  -675  -649  -625  -617  -628  -649  -664  -658  -627  -572  -499  -424  -372  -351  -356  -400  -496  -615  -706  -747  -752  -754  -790  -863  -921  -935  -942  -964  -943  -671  150  1633  3546  5380  6443  6183  4609  2283  -41  -1692  -2305  -2045  -1443  -940  -706  -669  -646  -560  -462  -396  -367  -385  -454  -549  -623  -646  -614  -527  -418  -340  -326  -366  -434  -496  -521  -486  -390  -266  -159  -88  -68  -111  -184  -219  -158  -11  143  261  356  433  499  589  731  915  1093  1217  1304  1379  1426  1446  1493  1587  1678  1714  1695  1667  1674  1715  1744  1720  1663  1592  1475  1274  1008  707  394  130  -8  -29  -30  -120  -339  -605  -799  -882  -898  -897  -897  -883  -850  -816  -797  -785  -755  -694  -634  -619  -626  -610  -583  -571  -570  -565  -551  -531  -516  -502  -468  -398  -308  -241  -207  -192  -190  -219  -295  -379  -404  -364  -316  -297  -296  -297  -297  -301  -308  -314  -306  -264  -180  -74  18  102  215  365  510  610  664  690  693  656  557  434  387  476  644  783  842  819  698  481  262  147  141  174  197  199  176  111  4  -127  -223  -187  -40  76  190  570  1487  2985  4812  6522  7526  7262  5636  3140  578  -1196  -1695  -1156  -272  383  566  330  -45  -301  -374  -323  -206  -62  80  200  294  379  486  608  691  680  567  408  290  253  279  348  431  493  524  535  540  548  554  555  552  560  612  741  943  1164  1324  1401  1445  1516  1622  1723  1812  1927  2068  2178  2240  2288  2340  2384  2411  2430  2446  2430  2337  2158  1953  1799  1706  1634  1542  1408  1221  978  700  422  153  -81  -222  -262  -248  -211  -154  -101  -96  -158  -265  -382  -470  -519  -553  -588  -626  -666  -683  -653  -588  -526  -493  -487  -494  -505  -526  -564  -626  -696  -706  -595  -409  -295  -383  -648  -910  -1021  -971  -847  -733  -665  -639  -652  -701  -767  -813  -806  -741  -649  -578  -550  -567  -638  -761  -907  -1030  -1087  -1049  -907  -673  -419  -244  -177  -166  -165  -176  -222  -295  -351  -372  -391  -454  -566  -678  -736  -739  -740  -790  -886  -974  -1036  -1100  -1183  -1258  -1301  -1332  -1377  -1449  -1501  -1274  -407  1212  3359  5518  6878  6708  4915  2082  -825  -2836  -3494  -3072  -2236  -1596  -1384  -1436  -1527  -1580  -1604  -1603  -1561  -1462  -1340  -1256  -1230  -1234  -1234  -1220  -1202  -1191  -1179  -1149  -1112  -1086  -1071  -1061  -1043  -996  -908  -795  -689  -620  -595  -598  -608  -608  -589  -545  -472  -386  -318  -275  -216  -70  177  452  649  734  758  777  782  747  700  698  771  912  1083  1234  1330  1353  1261  1007  655  342  110  -81  -246  -391  -517  -603  -640  -654  -672  -704  -766  -864  -971  -1050  -1096  -1127  -1149  -1144  -1093  -1014  -947  -932  -980  -1063  -1126  -1138  -1112  -1077  -1056  -1050  -1048  -1045  -1044  -1054  -1074  -1100  -1120  -1129  -1133  -1136  -1149  -1191  -1262  -1334  -1363  -1318  -1195  -1011  -819  -687  -632  -622  -632  -667  -738  -826  -891  -924  -945  -968  -978  -947  -870  -788  -744  -734  -714  -645  -523  -370  -224  -120  -55  -4  32  26  -18  -75  -124  -141  -78  78  259  352  310  196  105  70  62  53  33  -2  -57  -107  -131  -128  -129  -167  -243  -295  -307  -305  -195  247  1232  2896  5141  7391  8764  8650  6991  4247  1298  -865  -1662  -1252  -292  596  1055  1028  736  462  314  259  250  250  236  213  194  201  245  311  376  418  424  393  339  281  232  193  161  140  128  122  119  119  127  153  208  279  339  401  508  679  866  993  1039  1040  1034  1030  1031  1053  1135  1296  1496  1656  1731  1737  1714  1687  1664  1644  1621  1595  1575  1549  1422  1088  610  202  -15  -94  -116  -135  -174  -216  -232  -216  -195  -219  -308  -428  -536  -616  -667  -696  -715  -721  -707  -665  -603  -552  -535  -537  -532  -507  -474  -470  -513  -579  -629  -656  -679  -719  -779  -848  -910  -954  -967  -912  -746  -498  -283  -180  -178  -241  -360  -524  -693  -806  -846  -842  -812  -740  -613  -471  -376  -348  -366  -396  -413  -389  -298  -138  40  162  196  181  188  266  421  605  746  811  829  840  845  789  620  385  205  140  147  171  185  174  139  88  37  -1  -5  13  -37  -210  -381  -320  253  1507  3288  5189  6662  7133  6282  4244  1561  -992  -2664  -3087  -2567  -1801  -1278  -1118  -1210  -1329  -1336  -1273  -1220  -1199  -1198  -1192  -1170  -1144  -1141  -1164  -1195  -1220  -1229  -1218  -1201  -1191  -1189  -1189  -1190  -1193  -1200  -1218  -1254  -1287  -1255  -1095  -816  -511  -273  -143  -91  -45  64  241  426  561  638  698  768  835  878  912  966  1059  1188  1334  1471  1587  1650  1619  1505  1366  1239  1112  959  772  585  444  355  288  197  35  -193  -414  -569  -687  -817  -946  -1012  -996  -934  -870  -842  -857  -867  -846  -843  -904  -996  -1042  -1019  -953  -864  -769  -705  -681  -667  -642  -618  -610  -615  -610  -583  -549  -520  -483  -440  -409  -393  -380  -362  -360  -406  -505  -595  -611  -567  -524  -502  -487  -462  -448  -460  -460  -421  -365  -350  -445  -629  -787  -842  -819  -766  -709  -648  -574  -492  -421  -373  -350  -341  -335  -332  -357  -437  -562  -697  -827  -943  -1020  -1052  -1065  -1088  -1143  -1241  -1369  -1481  -1519  -1446  -1328  -1356  -1578  -1685  -1351  -547  704  2377  4136  5417  5759  4965  3169  803  -1475  -2973  -3413  -3056  -2338  -1706  -1449  -1486  -1571  -1603  -1600  -1590  -1584  -1579  -1568  -1557  -1552  -1550  -1541  -1520  -1492  -1483  -1509  -1549  -1580  -1605  -1628  -1644  -1650  -1647  -1635  -1608  -1556  -1460  -1303  -1097  -892  -749  -684  -665  -632  -540  -413  -319  -280  -258  -220  -141  36  372  783  1080  1184  1179  1153  1139  1142  1168  1213  1237  1211  1158  1113  1081  1045  962  788  560  380  271  159  13  -122  -226  -322  -405  -433  -384  -280  -156  -49  6  2  -23  -14  49  123  150  153  185  229  222  144  73  137  364  631  820  924  988  1039  1081  1102  1086  1029  947  865  805  779  812  946  1171  1391  1512  1522  1457  1355  1264  1229  1266  1356  1450  1511  1536  1537  1527  1515  1507  1498  1477  1444  1406  1370  1354  1374  1417  1464  1498  1514  1499  1456  1431  1433  1413  1357  1298  1261  1258  1303  1396  1525  1666  1792  1872  1876  1776  1581  1360  1193  1106  1070  1038  983  907  825  750  679  598  551  603  679  612  308  -66  -9  901  2595  4653  6564  7800  7960  6949  5031  2677  488  -879  -1122  -543  268  839  927  602  197  -22  -38  63  209  341  434  483  476  435  410  403  392  373  372  425  543  679  769  805  817  812  767  683  591  522  485  486  543  665  816  949  1073  1223  1377  1487  1556  1648  1829  2085  2331  2487  2546  2553  2566  2618  2709  2812  2886  2904  2871  2797  2674  2518  2374  2273  2217  2191  2161  2078  1930  1753  1563  1356  1157  1000  884  802  763  760  771  782  784  769  728  662  580  506  481  544  695  873  1008  1080  1109  1107  1064  968  855  801  844  938  1019  1072  1120  1159  1155  1108  1061  1047  1062  1086  1107  1124  1138  1140  1107  1023  916  844  838  875  921  959  983  989  982  990  1024  1062  1086  1104  1129  1161  1179  1158  1102  1035  977  928  853  730  589  489  463  506  581  633  631  589  525  446  369  309  264  240  239  236  186  71  -70  -180  -225  -226  -215  -205  -183  -145  -130  -192  -317  -439  -539  -642  -747  -822  -850  -849  -842  -854  -903  -971  -1024  -1054  -1086  -1156  -1306  -1565  -1876  -2130  -2273  -2332  -2359  -2385  -2449  -2611  -2889  -3201  -3427  -3531  -3590  -3680  -3869  -4170  -4378  -4129  -3148  -1466  541  2238  2902  2150  205  -2266  -4496  -5930  -6448  -6375  -6183  -6098  -6094  -6115  -6163  -6269  -6446  -6678  -6937  -7175  -7366  -7520  -7624  -7651  -7632  -7639  -7715  -7833  -7930  -7992  -8057  -8130  -8194  -8233  -8223  -8181  -8170  -8202  -8268  -8372  -8482  -8550  -8569  -8569  -8560  -8525  -8452  -8386  -8404  -8521  -8656  -8722  -8700  -8633  -8568  -8539  -8593  -8785  -9081  -9352  -9504  -9549  -9564  -9636  -9798  -10000  -10170  -10310  -10485  -10730  -11037  -11379  -11704  -11970  -12219  -12516  -12864  -13233  -13584  -13880  -14097  -14230  -14309  -14410  -14593  -14810  -14943  -14946  -14844  -14643  -14370  -14122  -13956  -13846  -13737  -13543  -13135  -12440  -11627  -11006  -10656  -10403  -10075  -9578  -8934  -8295  -7746  -7205  -6603  -5961  -5316  -4680  -4047  -3460  -2959  -2472  -1893  -1244  -637  -102  488  1196  1855  2340  2748  3187  3667  4186  4709  5162  5532  5880  6259  6686  7112  7455  7723  8025  8419  8818  9115  9342  9644  10120  10686  11151  11422  11539  11581  11621  11714  11883  12091  12275  12418  12595  12881  13214  13463  13611  13734  13860  13954  14016  14081  14142  14169  14163  14151  14169  14250  14379  14496  14561  14570  14510  14404  14307  14239  14201  14210  14279  14387  14458  14373  14057  13621  13294  13186  13261  13474  13747  13957  14023  13902  13557  13052  12584  12324  12254  12229  12119  11816  11321  10822  10524  10434  10424  10382  10232  9920  9479  9072  8784  8528  8358  8552  9330  10722  12534  14296  15333  15107  13598  11237  8652  6478  5132  4671  4838  5307  5798  5986  5733  5256  4768  4327  3981  3786  3726  3716  3652  3479  3236  3031  2931  2879  2756  2528  2292  2151  2093  2026  1888  1704  1524  1352  1179  1037  961  941  930  873  735  553  400  315  287  299  354  449  548  607  612  567  481  364  247  165  130  131  166  230  291  301  199  -54  -414  -782  -1111  -1402  -1658  -1866  -2011  -2112  -2199  -2293  -2416  -2563  -2726  -2980  -3406  -3891  -4215  -4314  -4295  -4257  -4227  -4200  -4173  -4157  -4152  -4150  -4144  -4139  -4162  -4260  -4467  -4727  -4906  -4894  -4669  -4320  -3999  -3796  -3713  -3702  -3720  -3753  -3807  -3887  -3975  -4050  -4102  -4119  -4079  -3989  -3886  -3810  -3769  -3754  -3803  -3968  -4233  -4485  -4609  -4584  -4466  -4275  -3997  -3686  -3461  -3388  -3471  -3690  -3960  -4141  -4151  -3998  -3769  -3587  -3507  -3496  -3493  -3460  -3383  -3294  -3232  -3206  -3196  -3194  -3220  -3307  -3440  -3542  -3551  -3456  -3275  -3036  -2778  -2569  -2466  -2451  -2465  -2461  -2423  -2368  -2329  -2316  -2313  -2305  -2289  -2278  -2273  -2270  -2262  -2254  -2280  -2395  -2629  -2894  -2993  -2809  -2461  -2179  -2063  -2056  -2097  -2189  -2379  -2717  -3060  -3078  -2559  -1459  139  1883  3236  3794  3460  2385  850  -795  -2221  -3187  -3580  -3445  -2932  -2235  -1642  -1407  -1472  -1588  -1640  -1648  -1635  -1604  -1553  -1495  -1440  -1392  -1348  -1301  -1255  -1233  -1250  -1285  -1303  -1285  -1222  -1117  -988  -859  -743  -655  -606  -600  -620  -625  -562  -399  -173  20  119  147  157  181  235  326  454  619  815  1015  1183  1276  1268  1209  1176  1221  1347  1499  1593  1559  1339  965  601  374  256  168  97  57  15  -94  -292  -510  -668  -761  -832  -896  -937  -975  -1057  -1188  -1307  -1358  -1342  -1299  -1256  -1204  -1119  -997  -875  -813  -837  -923  -1029  -1121  -1161  -1123  -1027  -933  -869  -810  -725  -633  -572  -551  -552  -561  -567  -554  -506  -429  -356  -326  -338  -358  -371  -405  -481  -578  -662  -701  -690  -668  -660  -650  -612  -521  -393  -283  -224  -208  -215  -252  -376  -636  -976  -1252  -1358  -1301  -1146  -939  -689  -412  -174  -37  -3  -30  -89  -167  -254  -329  -360  -330  -260  -176  -92  -17  23  2  -90  -216  -303  -325  -316  -333  -407  -514  -596  -626  -619  -587  -536  -478  -417  -322  -185  -12  300  938  1991  3333  4641  5535  5691  4895  3266  1284  -490  -1596  -1802  -1301  -582  -53  124  23  -149  -242  -230  -140  -9  105  163  167  145  132  164  237  309  354  383  420  470  514  560  649  780  886  930  924  888  829  757  687  623  569  530  502  476  475  572  824  1164  1435  1570  1628  1686  1765  1850  1930  2018  2111  2180  2212  2238  2299  2383  2392  2222  1891  1520  1235  1091  1057  1055  1030  968  872  728  514  274  110  56  59  65  59  50  46  50  55  60  67  84  120  165  195  202  201  210  230  244  231  201  170  163  217  336  472  561  593  591  569  510  409  318  317  395  463  466  428  405  420  436  416  383  376  385  371  320  254  222  247  297  327  318  280  248  246  263  291  334  385  426  417  357  296  270  268  275  286  312  351  389  420  457  514  582  635  666  687  702  697  655  571  468  377  312  272  247  209  120  -20  -155  -232  -253  -252  -249  -251  -268  -338  -512  -774  -986  -941  -430  641  2205  4043  5692  6521  6133  4590  2360  132  -1474  -2153  -2027  -1518  -1022  -732  -642  -643  -647  -642  -642  -637  -601  -521  -409  -309  -287  -385  -554  -702  -773  -755  -652  -510  -401  -358  -365  -395  -429  -446  -439  -423  -407  -374  -308  -219  -143  -102  -86  -79  -73  -48  29  181  369  519  599  659  771  952  1152  1318  1424  1472  1477  1462  1445  1428  1400  1349  1274  1180  1057  867  589  276  22  -136  -232  -313  -408  -512  -595  -642  -667  -700  -770  -883  -997  -1065  -1096  -1141  -1233  -1368  -1513  -1621  -1659  -1621  -1531  -1433  -1375  -1376  -1427  -1501  -1561  -1594  -1608  -1603  -1556  -1441  -1284  -1156  -1100  -1101  -1128  -1173  -1244  -1328  -1397  -1448  -1493  -1529  -1533  -1489  -1411  -1348  -1318  -1303  -1287  -1274  -1271  -1281  -1299  -1299  -1266  -1222  -1197  -1191  -1191  -1187  -1173  -1142  -1087  -1007  -918  -846  -798  -768  -770  -820  -883  -922  -933  -933  -929  -915  -882  -839  -805  -774  -724  -658  -617  -631  -702  -815  -937  -1019  -1044  -1042  -1058  -1119  -1199  -1250  -1268  -1274  -1260  -1170  -969  -732  -650  -897  -1453  -2005  -2098  -1396  165  2277  4367  5852  6294  5559  3870  1676  -476  -2058  -2736  -2526  -1782  -1017  -598  -538  -624  -699  -732  -739  -733  -720  -705  -689  -679  -676  -677  -683  -692  -698  -684  -625  -521  -408  -337  -337  -387  -438  -458  -442  -374  -245  -92  13  58  83  112  127  112  93  147  361  728  1102  1345  1456  1519  1585  1661  1754  1854  1927  1951  1925  1853  1756  1670  1597  1533  1493  1487  1493  1451  1294  1017  705  433  228  86  -11  -98  -202  -321  -418  -472  -499  -524  -552  -569  -556  -521  -489  -474  -473  -488  -527  -583  -631  -661  -668  -649  -601  -518  -398  -277  -204  -198  -243  -304  -346  -362  -360  -346  -314  -276  -251  -241  -223  -177  -130  -131  -185  -260  -341  -424  -495  -542  -564  -571  -569  -557  -524  -474  -424  -384  -352  -336  -328  -292  -211  -130  -108  -146  -196  -232  -263  -298  -327  -319  -253  -155  -79  -38  2  62  118  155  183  217  237  193  46  -176  -369  -444  -400  -303  -216  -157  -136  -179  -286  -404  -471  -486  -532  -611  -517  31  1197  2886  4707  6099  6546  5755  3864  1543  -400  -1529  -1714  -1167  -485  -94  45  76  60  42  46  62  75  81  82  83  78  58  33  25  38  55  70  92  126  166  193  203  202  194  176  165  205  332  504  638  714  775  846  916  967  1000  1035  1106  1227  1362  1466  1573  1739  1943  2095  2151  2146  2131  2140  2185  2245  2286  2302  2299  2259  2159  2027  1933  1893  1811  1564  1147  708  387  201  56  -150  -413  -624  -732  -766  -769  -771  -773  -764  -764  -793  -849  -900  -876  -762  -642  -585  -575  -573  -563  -561  -600  -689  -789  -849  -848  -803  -753  -718  -696  -682  -672  -663  -659  -661  -668  -661  -604  -484  -345  -256  -255  -334  -456  -576  -672  -744  -789  -806  -804  -787  -755  -718  -698  -708  -726  -713  -661  -576  -478  -399  -354  -331  -324  -333  -346  -349  -345  -339  -331  -318  -306  -320  -383  -480  -556  -573  -532  -466  -411  -379  -370  -396  -481  -612  -745  -848  -893  -872  -813  -741  -677  -685  -837  -1098  -1310  -1234  -589  761  2587  4364  5516  5638  4606  2667  417  -1458  -2510  -2630  -2067  -1289  -693  -464  -549  -720  -803  -796  -762  -753  -797  -870  -929  -956  -969  -984  -984  -917  -741  -497  -293  -177  -112  -53  4  33  15  -28  -82  -153  -226  -267  -255  -179  -46  100  201  248  290  376  517  693  897  1122  1322  1441  1475  1482  1531  1655  1829  1976  2047  2056  2046  2044  2050  2042  1977  1813  1560  1296  1081  896  697  493  336  258  232  214  185  156  132  112  88  39  -84  -319  -600  -780  -796  -707  -600  -537  -542  -600  -674  -727  -744  -726  -671  -594  -522  -471  -438  -426  -442  -478  -517  -564  -646  -749  -824  -849  -850  -854  -867  -876  -873  -863  -856  -847  -807  -717  -615  -589  -691  -873  -1016  -1046  -977  -856  -710  -553  -414  -330  -317  -353  -406  -454  -483  -495  -496  -496  -500  -512  -532  -559  -574  -549  -469  -351  -234  -110  73  306  492  570  545  424  220  -15  -206  -304  -321  -306  -305  -339  -400  -455  -479  -479  -480  -484  -448  -315  -138  -168  -577  -1155  -1445  -1041  191  2014  3992  5647  6503  6266  4947  2859  583  -1197  -2020  -1930  -1374  -811  -508  -471  -538  -593  -622  -631  -614  -580  -571  -609  -656  -673  -667  -671  -685  -667  -597  -508  -444  -412  -395  -380  -356  -309  -247  -198  -167  -127  -60  19  73  87  83  96  158  299  516  750  948  1087  1158  1174  1163  1150  1169  1264  1455  1694  1894  1994  2015  2008  1999  1974  1914  1839  1785  1740  1646  1494  1322  1155  989  821  629  399  143  -106  -321  -472  -544  -555  -542  -534  -544  -579  -622  -639  -619  -581  -541  -497  -472  -502  -590  -677  -703  -671  -626  -599  -604  -627  -635  -630  -626  -622  -604  -546  -435  -302  -205  -176  -206  -284  -402  -529  -617  -644  -624  -572  -510  -469  -453  -442  -411  -356  -283  -214  -173  -170  -196  -225  -242  -244  -237  -224  -202  -171  -143  -123  -119  -147  -223  -330  -420  -466  -475  -470  -463  -461  -472  -505  -544  -537  -444  -297  -178  -122  -91  -41  41  145  230  257  227  161  54  -85  -203  -253  -239  -203  -188  -200  -213  -216  -229  -261  -287  -296  -324  -404  -483  -466  -405  -483  -736  -948  -744  229  2037  4272  6207  7154  6778  5189  2881  565  -1139  -1952  -1947  -1498  -1048  -821  -797  -857  -907  -920  -897  -838  -760  -698  -667  -657  -661  -691  -751  -810  -829  -777  -661  -548  -485  -436  -395  -406  -468  -541  -580  -568  -523  -478  -450  -439  -426  -393  -316  -178  -13  116  196  260  352  493  678  880  1059  1169  1207  1223  1265  1367  1523  1682  1782  1803  1742  1605  1434  1278  1123  931  734  598  538  494  411  290  157  14  -128  -230  -284  -331  -430  -591  -760  -891  -972  -976  -878  -740  -646  -615  -618  -645  -704  -781  -850  -906  -950  -972  -962  -927  -865  -780  -702  -653  -627  -610  -598  -590  -588  -595  -627  -686  -741  -766  -756  -726  -696  -682  -679  -676  -672  -686  -737  -809  -859  -871  -861  -839  -806  -771  -746  -736  -741  -769  -821  -881  -926  -945  -918  -807  -620  -434  -335  -351  -466  -617  -730  -780  -796  -801  -802  -804  -813  -822  -797  -692  -488  -239  -47  13  -44  -128  -139  -76  -18  -24  -99  -200  -272  -300  -314  -339  -371  -392  -391  -373  -356  -355  -370  -392  -404  -395  -349  -276  -261  -393  -636  -766  -355  983  3212  5766  7743  8313  7247  5018  2438  306  -893  -1179  -938  -610  -405  -321  -291  -258  -209  -155  -110  -97  -120  -170  -251  -316  -298  -212  -119  -46  15  73  119  153  182  209  237  271  321  381  423  431  417  406  442  560  730  877  964  1018  1069  1112  1137  1169  1267  1466  1708  1892  1994  2065  2143  2221  2290  2346  2373  2351  2268  2155  2071  2042  2048  2068  2084  2050  1913  1677  1421  1209  1046  920  818  695  498  258  67  -43  -118  -172  -187  -153  -95  -80  -161  -296  -399  -434  -428  -418  -418  -419  -408  -382  -342  -295  -253  -218  -180  -153  -152  -163  -167  -167  -184  -230  -285  -321  -351  -411  -501  -584  -630  -656  -687  -717  -728  -711  -670  -606  -522  -435  -376  -355  -361  -384  -428  -496  -572  -637  -693  -747  -786  -788  -749  -690  -635  -597  -574  -567  -568  -567  -557  -544  -542  -544  -524  -457  -365  -297  -283  -311  -356  -406  -469  -545  -606  -636  -645  -655  -672  -687  -699  -702  -691  -664  -639  -666  -788  -977  -1157  -1285  -1371  -1415  -1405  -1373  -1322  -1102  -442  885  2807  4770  6023  6077  4866  2742  342  -1665  -2838  -3074  -2601  -1861  -1289  -1107  -1234  -1427  -1518  -1466  -1278  -1030  -856  -824  -903  -1017  -1099  -1132  -1135  -1125  -1100  -1052  -991  -936  -890  -846  -794  -735  -686  -667  -669  -665  -641  -629  -659  -688  -649  -517  -332  -168  -53  38  140  263  383  466  507  554  661  815  953  1059  1162  1287  1418  1509  1542  1547  1553  1561  1526  1393  1159  880  618  402  211  3  -224  -428  -584  -694  -766  -798  -765  -661  -543  -469  -447  -461  -497  -566  -684  -817  -908  -943  -947  -941  -920  -864  -770  -672  -593  -506  -379  -239  -147  -124  -145  -187  -250  -341  -420  -439  -412  -387  -378  -378  -384  -401  -431  -459  -467  -454  -424  -367  -285  -202  -143  -125  -166  -262  -371  -445  -468  -443  -379  -298  -228  -183  -151  -130  -133  -167  -218  -263  -287  -274  -231  -178  -110  -10  98  175  192  158  111  77  32  -53  -166  -269  -358  -437  -497  -537  -568  -594  -620  -641  -601  -431  -195  -115  -320  -604  -512  380  2188  4459  6309  7003  6280  4361  1908  -266  -1599  -1960  -1598  -983  -537  -408  -489  -618  -682  -632  -506  -398  -354  -347  -334  -297  -251  -206  -154  -103  -65  -38  -43  -87  -136  -163  -165  -148  -126  -115  -110  -89  -29  67  189  347  522  648  689  674  642  631  677  795  963  1143  1317  1465  1576  1681  1818  1957  2037  2044  2018  1999  1993  1977  1930  1867  1827  1812  1778  1656  1383  975  568  304  182  112  51  6  -56  -191  -377  -519  -573  -573  -547  -485  -374  -254  -198  -238  -352  -499  -657  -771  -756  -617  -460  -366  -333  -319  -290  -250  -225  -227  -236  -238  -247  -280  -341  -416  -475  -488  -440  -344  -238  -168  -145  -145  -153  -182  -249  -351  -434  -424  -313  -163  -44  11  2  -45  -106  -170  -227  -252  -257  -269  -272  -248  -216  -202  -200  -171  -82  44  143  181  173  155  156  186  229  247  220  162  95  10  -92  -185  -254  -313  -370  -408  -427  -450  -483  -508  -511  -489  -462  -479  -591  -801  -998  -937  -293  1178  3345  5589  7123  7391  6266  4118  1662  -384  -1607  -1974  -1745  -1297  -943  -781  -729  -710  -708  -717  -727  -732  -732  -725  -713  -697  -677  -646  -610  -583  -570  -564  -558  -549  -538  -537  -562  -605  -595  -456  -228  -52  -11  -77  -179  -257  -295  -287  -193  18  275  444  469  413  391  494  699  909  1072  1194  1280  1342  1393  1438  1476  1514  1550  1570  1557  1512  1428  1298  1151  1003  788  439  18  -322  -497  -542  -535  -521  -510  -509  -545  -642  -771  -866  -900  -901  -890  -860  -804  -741  -704  -719  -788  -882  -974  -1042  -1070  -1054  -994  -896  -794  -736  -751  -840  -961  -1047  -1059  -1010  -940  -891  -877  -883  -889  -872  -813  -732  -671  -652  -658  -666  -655  -610  -536  -463  -415  -400  -408  -407  -365  -304  -296  -394  -558  -686  -731  -727  -714  -697  -677  -659  -636  -575  -461  -332  -249  -235  -276  -337  -371  -350  -301  -247  -173  -59  68  153  156  74  -65  -213  -329  -390  -411  -423  -427  -416  -414  -444  -487  -520  -539  -570  -659  -816  -986  -1048  -780  63  1562  3543  5559  6952  7193  6146  4058  1495  -764  -2063  -2291  -1806  -1071  -540  -432  -535  -561  -456  -313  -224  -220  -274  -341  -407  -482  -544  -559  -525  -481  -472  -462  -342  -140  -17  10  52  117  147  136  108  91  111  171  256  335  389  422  450  467  474  530  699  948  1162  1286  1360  1438  1536  1653  1772  1872  1929  1924  1874  1824  1791  1765  1743  1743  1772  1791  1724  1518  1229  972  763  521  248  35  -64  -93  -142  -284  -489  -651  -716  -718  -706  -701  -701  -698  -681  -645  -603  -574  -554  -529  -515  -539  -603  -682  -745  -776  -780  -770  -746  -705  -655  -613  -589  -582  -587  -600  -620  -645  -667  -677  -674  -661  -638  -599  -551  -514  -495  -489  -504  -573  -700  -829  -886  -862  -811  -783  -782  -782  -756  -709  -668  -610  -485  -318  -191  -143  -145  -166  -195  -241  -296  -329  -319  -279  -227  -158  -80  -17  16  23  -4  -90  -225  -359  -457  -520  -547  -543  -541  -545  -549  -579  -641  -706  -754  -763  -738  -728  -765  -830  -760  -161  1324  3532  5741  7120  7097  5572  3056  456  -1439  -2343  -2459  -2152  -1677  -1211  -895  -760  -739  -753  -773  -801  -838  -866  -837  -723  -570  -463  -434  -441  -440  -422  -402  -380  -346  -290  -215  -139  -85  -67  -94  -162  -244  -292  -251  -92  128  302  387  417  439  517  698  936  1125  1229  1301  1397  1533  1696  1845  1927  1919  1863  1846  1903  1969  1973  1905  1811  1747  1726  1710  1623  1412  1137  930  818  692  469  207  21  -86  -214  -399  -573  -682  -734  -752  -754  -753  -753  -747  -726  -685  -638  -608  -602  -613  -632  -657  -680  -692  -691  -686  -680  -666  -640  -613  -607  -610  -598  -560  -506  -449  -401  -377  -384  -400  -399  -387  -377  -369  -368  -396  -479  -601  -712  -782  -812  -798  -740  -658  -576  -494  -396  -291  -214  -180  -167  -158  -150  -142  -138  -136  -137  -145  -178  -262  -393  -518  -589  -610  -615  -631  -670  -718  -741  -726  -701  -700  -744  -854  -1008  -1101  -1070  -951  -728  -238  730  2254  4077  5630  6251  5522  3571  1034  -1213  -2462  -2646  -2239  -1725  -1359  -1127  -873  -596  -421  -376  -421  -528  -660  -756  -793  -793  -780  -751  -699  -624  -522  -390  -253  -164  -141  -147  -153  -152  -152  -166  -195  -233  -265  -283  -267  -184  -20  191  408  609  807  993  1129  1203  1243  1274  1305  1354  1442  1559  1659  1727  1774  1804  1821  1839  1866  1898  1919  1915  1876  1806  1711  1562  1305  942  577  328  216  175  138  67  -70  -273  -479  -612  -650  -630  -592  -546  -488  -427  -387  -389  -432  -494  -539  -550  -525  -473  -414  -372  -355  -353  -361  -382  -408  -393  -279  -90  62  95  9  -133  -270  -389  -490  -533  -471  -309  -112  39  94  29  -152  -404  -650  -804  -799  -655  -463  -299  -196  -156  -154  -160  -162  -168  -187  -220  -256  -284  -301  -312  -330  -354  -386  -452  -582  -744  -856  -868  -799  -713  -670  -675  -706  -736  -729  -743  -936  -1247  -1319  -821  376  2160  4053  5349  5520  4496  2638  526  -1256  -2270  -2421  -2015  -1487  -1090  -941  -1067  -1297  -1436  -1471  -1473  -1443  -1309  -1033  -699  -452  -358  -380  -460  -558  -645  -700  -714  -670  -534  -322  -120  -12  -12  -87  -182  -246  -266  -264  -265  -277  -292  -279  -197  -30  200  451  681  866  1005  1113  1204  1287  1362  1427  1483  1539  1592  1619  1631  1665  1738  1820  1860  1840  1780  1696  1554  1284  886  493  254  179  174  155  97  10  -82  -176  -276  -392  -531  -682  -813  -889  -892  -852  -796  -719  -636  -585  -585  -627  -685  -728  -743  -730  -692  -640  -604  -616  -687  -789  -865  -880  -827  -716  -572  -466  -468  -559  -646  -680  -674  -651  -627  -602  -574  -558  -585  -679  -830  -980  -1078  -1082  -956  -751  -586  -484  -383  -266  -180  -145  -133  -129  -152  -210  -269  -293  -295  -319  -382  -452  -485  -468  -419  -400  -463  -584  -696  -741  -710  -655  -617  -576  -485  -360  -350  -596  -1034  -1418  -1407  -678  830  2828  4796  6152  6458  5606  3894  1852  -18  -1293  -1751  -1601  -1254  -949  -751  -657  -627  -628  -660  -732  -826  -894  -898  -831  -716  -594  -502  -456  -446  -453  -467  -486  -485  -423  -308  -202  -138  -109  -100  -98  -101  -107  -101  -46  80  245  374  433  441  430  423  435  484  592  779  1034  1284  1460  1571  1658  1744  1838  1919  1943  1914  1863  1803  1754  1741  1764  1788  1733  1506  1132  764  515  366  259  168  76  -23  -121  -213  -320  -451  -585  -686  -728  -717  -670  -594  -506  -444  -423  -426  -433  -445  -474  -532  -618  -708  -766  -786  -789  -788  -769  -715  -640  -605  -645  -705  -706  -628  -532  -489  -496  -536  -616  -681  -655  -568  -487  -435  -414  -417  -443  -493  -553  -596  -606  -592  -566  -549  -542  -515  -460  -392  -331  -305  -329  -387  -454  -523  -572  -562  -452  -248  -39  76  85  42  -3  -36  -64  -93  -129  -179  -240  -307  -377  -445  -504  -547  -562  -549  -539  -555  -583  -603  -649  -815  -1115  -1314  -1034  -12  1743  3863  5747  6845  6793  5499  3287  869  -968  -1744  -1521  -890  -470  -419  -537  -645  -706  -749  -783  -797  -793  -787  -775  -722  -586  -380  -201  -135  -177  -249  -275  -246  -206  -188  -186  -192  -200  -212  -222  -227  -213  -166  -90  -11  47  88  144  237  349  461  574  682  760  804  838  894  999  1176  1411  1633  1777  1851  1902  1940  1940  1895  1833  1773  1713  1656  1602  1532  1433  1267  965  536  142  -72  -130  -137  -173  -276  -440  -601  -695  -721  -711  -679  -622  -554  -519  -541  -585  -625  -673  -732  -774  -788  -787  -783  -779  -769  -752  -728  -707  -708  -742  -784  -798  -765  -696  -615  -548  -506  -491  -506  -557  -643  -742  -822  -861  -856  -820  -773  -743  -736  -741  -748  -758  -769  -781  -787  -778  -748  -711  -682  -663  -654  -650  -649  -652  -668  -698  -716  -706  -683  -668  -661  -650  -630  -611  -612  -627  -641  -637  -599  -526  -447  -395  -373  -365  -360  -344  -300  -236  -181  -153  -164  -244  -407  -602  -755  -835  -859  -857  -850  -847  -843  -841  -858  -917  -1000  -1050  -1043  -1008  -1000  -919  -409  822  2741  5006  6949  7802  7182  5250  2610  167  -1312  -1666  -1303  -767  -392  -281  -365  -481  -528  -513  -467  -419  -389  -384  -386  -366  -302  -206  -104  -3  85  130  119  81  57  65  96  140  202  273  331  377  438  532  663  807  919  985  1023  1050  1073  1107  1170  1249  1314  1373  1471  1617  1771  1910  2044  2166  2257  2315  2351  2382  2435  2515  2566  2542  2471  2351  2121  1812  1555  1403  1303  1190  1025  784  483  190  -8  -91  -117  -161  -246  -336  -413  -498  -595  -676  -729  -773  -814  -841  -852  -849  -830  -784  -711  -635  -602  -634  -708  -786  -866  -953  -1022  -1030  -970  -868  -762  -678  -626  -604  -604  -618  -649  -718  -836  -956  -979  -842  -615  -437  -371  -404  -524  -717  -928  -1070  -1064  -928  -764  -667  -671  -744  -820  -871  -914  -957  -988  -994  -972  -928  -874  -825  -794  -778  -748  -672  -568  -489  -458  -451  -442  -439  -452  -474  -484  -467  -422  -362  -302  -237  -177  -198  -381  -691  -974  -1115  -1135  -1107  -1072  -1034  -991  -954  -924  -895  -887  -954  -1131  -1251  -976  -43  1667  3926  5950  6903  6407  4537  1855  -677  -2263  -2710  -2301  -1565  -1030  -822  -729  -667  -689  -761  -813  -826  -826  -834  -833  -788  -702  -611  -547  -509  -481  -451  -420  -406  -441  -531  -599  -565  -470  -392  -340  -285  -205  -110  -42  -20  -29  -43  -39  8  123  311  538  735  866  965  1083  1219  1338  1421  1476  1517  1557  1600  1634  1659  1680  1703  1723  1725  1698  1643  1548  1394  1212  1071  960  757  377  -70  -385  -499  -486  -426  -374  -349  -337  -328  -334  -364  -410  -457  -504  -551  -583  -596  -599  -598  -583  -541  -485  -447  -441  -453  -468  -486  -498  -481  -415  -322  -250  -220  -209  -203  -208  -232  -276  -325  -363  -377  -359  -313  -257  -215  -199  -211  -247  -298  -345  -370  -375  -377  -396  -438  -493  -542  -559  -530  -470  -398  -317  -236  -169  -128  -108  -102  -101  -100  -100  -99  -92  -82  -79  -89  -99  -89  -46  23  95  125  67  -87  -273  -406  -460  -466  -450  -415  -365  -314  -265  -213  -201  -294  -491  -716  -863  -705  42  1468  3331  5125  6208  6050  4569  2313  114  -1421  -2034  -1848  -1357  -1016  -863  -722  -539  -382  -279  -192  -101  -37  -23  -46  -80  -104  -122  -144  -167  -185  -228  -321  -426  -478  -442  -319  -129  96  300  421  452  443  437  450  471  483  487  505  558  633  696  745  805  885  969  1047  1158  1346  1567  1719  1768  1755  1723  1695  1679  1676  1683  1692  1683  1609  1422  1147  894  738  672  655  638  544  309  -25  -316  -477  -550  -610  -670  -702  -700  -681  -664  -651  -644  -656  -700  -765  -815  -832  -823  -814  -844  -941  -1076  -1179  -1221  -1221  -1185  -1090  -950  -823  -742  -697  -686  -714  -755  -776  -772  -754  -741  -755  -810  -900  -997  -1063  -1075  -1026  -940  -858  -805  -781  -778  -787  -795  -795  -785  -771  -763  -764  -757  -706  -589  -438  -324  -304  -385  -533  -691  -786  -761  -603  -389  -236  -188  -197  -206  -194  -167  -140  -110  -64  -7  40  68  69  31  -48  -169  -338  -531  -693  -802  -849  -796  -643  -467  -353  -349  -477  -712  -985  -1200  -1107  -355  1135  3055  4879  6029  6074  4958  3063  992  -705  -1638  -1777  -1469  -1049  -705  -585  -672  -798  -854  -836  -760  -649  -540  -452  -389  -356  -350  -347  -315  -241  -148  -82  -59  -59  -62  -74  -113  -179  -245  -286  -299  -270  -157  64  325  502  562  559  541  522  512  543  637  765  877  992  1161  1360  1504  1565  1583  1612  1686  1809  1940  2033  2065  2041  1985  1918  1846  1767  1670  1553  1413  1233  977  646  307  36  -154  -287  -371  -411  -421  -416  -395  -356  -328  -364  -487  -642  -751  -766  -696  -607  -563  -574  -606  -637  -679  -742  -812  -864  -885  -893  -913  -946  -980  -1011  -1033  -1021  -947  -805  -625  -459  -360  -332  -337  -354  -400  -493  -596  -646  -629  -581  -539  -516  -497  -479  -496  -573  -691  -812  -911  -979  -1009  -973  -829  -588  -358  -249  -279  -393  -514  -587  -609  -605  -599  -599  -604  -602  -571  -494  -370  -220  -89  -13  9  12  25  44  44  1  -69  -106  -82  -57  -87  -152  -205  -238  -303  -458  -669  -829  -891  -902  -902  -870  -752  -576  -506  -640  -859  -948  -671  206  1773  3796  5714  6880  6859  5564  3335  876  -1040  -1958  -1921  -1305  -604  -235  -281  -525  -723  -791  -765  -707  -653  -612  -576  -547  -525  -510  -504  -513  -526  -535  -538  -542  -545  -533  -494  -429  -357  -290  -223  -146  -62  7  56  102  158  222  277  311  325  344  395  479  574  665  762  872  986  1094  1204  1340  1508  1688  1852  1987  2101  2203  2284  2319  2307  2261  2154  1918  1567  1246  1065  985  909  779  577  331  112  -16  -70  -106  -153  -200  -237  -262  -277  -281  -285  -316  -375  -430  -459  -465  -451  -411  -335  -227  -124  -71  -80  -125  -172  -217  -272  -322  -338  -326  -313  -314  -330  -359  -402  -459  -517  -559  -580  -582  -576  -571  -583  -627  -690  -737  -740  -709  -660  -603  -583  -637  -724  -756  -696  -590  -509  -476  -476  -508  -590  -704  -797  -842  -844  -787  -652  -491  -423  -507  -664  -766  -779  -750  -692  -566  -383  -226  -158  -162  -189  -200  -167  -76  43  140  189  186  93  -131  -421  -642  -734  -739  -716  -701  -712  -732  -742  -759  -819  -914  -976  -970  -963  -1067  -1235  -1165  -563  630  2312  4255  6025  7048  6884  5460  3122  593  -1290  -2098  -2028  -1573  -1131  -903  -889  -958  -1006  -1019  -1019  -1022  -1029  -1028  -1000  -940  -837  -671  -469  -311  -242  -225  -210  -186  -174  -195  -257  -338  -396  -416  -406  -371  -312  -226  -98  75  252  362  390  375  368  411  515  639  718  744  786  912  1099  1257  1338  1356  1345  1332  1348  1432  1610  1829  1989  2045  2009  1879  1658  1411  1227  1124  1042  919  734  524  341  188  39  -127  -344  -598  -795  -874  -869  -844  -830  -821  -802  -775  -753  -742  -726  -685  -619  -568  -568  -602  -636  -654  -652  -646  -680  -788  -932  -1020  -1001  -897  -772  -678  -622  -589  -569  -563  -576  -602  -634  -675  -714  -723  -678  -590  -513  -500  -532  -568  -589  -600  -622  -684  -746  -724  -619  -522  -483  -479  -472  -448  -403  -343  -298  -303  -362  -435  -470  -446  -356  -185  23  174  229  225  189  117  21  -63  -123  -193  -326  -530  -734  -856  -880  -855  -822  -778  -699  -628  -651  -782  -959  -1091  -1035  -617  353  1986  4029  5850  6757  6298  4473  1833  -741  -2464  -2980  -2543  -1784  -1220  -980  -915  -868  -808  -765  -739  -714  -690  -679  -671  -660  -651  -645  -608  -501  -342  -212  -159  -156  -167  -166  -134  -75  -13  42  99  154  199  242  295  362  430  480  506  514  510  515  579  738  953  1118  1161  1130  1115  1166  1311  1552  1835  2078  2237  2329  2385  2394  2329  2204  2064  1916  1726  1503  1310  1144  940  705  523  424  343  203  15  -147  -256  -332  -385  -426  -478  -550  -619  -650  -642  -624  -615  -607  -583  -548  -522  -515  -501  -447  -373  -340  -378  -441  -454  -400  -323  -259  -209  -166  -132  -103  -84  -110  -214  -375  -525  -611  -642  -662  -685  -668  -572  -436  -340  -310  -318  -340  -368  -380  -350  -291  -248  -243  -260  -265  -230  -138  0]
