reading_id,reading_time,wire_id,result_classification,heart_rate,heart_rate_alert,firmware_version,device_app_version,hardware_version,waveform_samples
ccc74e70-630a-11ed-8080-808080808080,Sun Nov 13 04:22:35 UTC 2022,e101e3752439,NSR,64,NONE,20001.171.50,2.10.0,Charge 5,[-22472  -24945  -28090  -32099  -32768  -32768  -32768  -32768  -32768  -32768  -32768  -32768  -32768  -32768  -32619  -30076  -27638  -25191  -23018  -21341  -20044  -18829  -17375  -15606  -13761  -12182  -11162  -10747  -10688  -10718  -10766  -10927  -11284  -11704  -11895  -11708  -11264  -10691  -9820  -8335  -6247  -4124  -2544  -1483  -652  76  933  2145  3599  5141  6816  8451  9601  10150  10543  11340  12779  14706  16686  18281  19406  20281  21089  21844  22564  23424  24560  25840  26989  27835  28440  29145  30291  31712  32767  32767  32767  32767  32767  32767  32767  32767  32767  32767  32767  32767  32767  32767  32767  32767  32767  32767  32767  32767  32767  31414  30585  30128  29659  28787  27220  25022  22627  20421  18402  16303  13877  10982  7801  4766  1999  -578  -2855  -4772  -6408  -7774  -9002  -10417  -12161  -14118  -16015  -17435  -18232  -18772  -19514  -20524  -21555  -22565  -23841  -25654  -28137  -31109  -32768  -32768  -32768  -32768  -32768  -32768  -32768  -32768  -32768  -32768  -32768  -32768  -32768  -32768  -32768  -32768  -32768  -32768  -32768  -32768  -32768  -32424  -30414  -28445  -26539  -24655  -22530  -19617  -15624  -10989  -6634  -3507  -2062  -1898  -2245  -2616  -2845  -2844  -2463  -1590  -380  805  1718  2425  3234  4358  5617  6674  7465  8124  8714  9243  9741  10237  10756  11345  11990  12533  12829  12941  13033  13179  13371  13591  13838  14111  14393  14610  14658  14511  14284  14124  14068  14052  14009  13944  13921  13988  14135  14305  14445  14528  14565  14562  14469  14251  14037  14051  14312  14601  14757  14783  14707  14522  14278  14074  13933  13807  13664  13453  13094  12638  12261  12024  11852  11679  11444  11070  10555  9998  9513  9184  9008  8844  8505  7963  7395  6999  6807  6697  6501  6096  5504  4915  4540  4403  4364  4283  4105  3859  3624  3443  3253  2959  2548  2093  1698  1434  1274  1141  1005  902  851  803  685  431  24  -454  -865  -1108  -1217  -1307  -1454  -1678  -1989  -2330  -2570  -2671  -2734  -2873  -3121  -3423  -3682  -3861  -4008  -4180  -4417  -4762  -5221  -5709  -6107  -6360  -6484  -6531  -6561  -6592  -6611  -6651  -6797  -7095  -7462  -7753  -7899  -7951  -8001  -8097  -8213  -8277  -8233  -8077  -7866  -7685  -7544  -7397  -7275  -7237  -7236  -7139  -6844  -6408  -6028  -5827  -5730  -5585  -5322  -4975  -4617  -4315  -4113  -3994  -3913  -3856  -3822  -3779  -3667  -3409  -2981  -2481  -2046  -1764  -1635  -1585  -1540  -1478  -1414  -1350  -1253  -1076  -806  -503  -269  -159  -144  -159  -169  -177  -201  -250  -320  -379  -379  -273  -70  150  313  424  529  633  717  785  849  908  958  1008  1058  1082  1053  973  868  770  706  684  690  699  682  606  450  261  132  121  217  357  464  503  476  388  244  39  -211  -341  5  1131  3093  5625  8098  9728  9976  8784  6545  3880  1452  -192  -922  -1035  -858  -603  -462  -459  -502  -620  -883  -1241  -1517  -1566  -1433  -1276  -1184  -1151  -1148  -1157  -1182  -1235  -1341  -1503  -1644  -1653  -1507  -1286  -1071  -900  -780  -727  -769  -892  -1013  -1068  -1069  -1053  -1036  -1013  -973  -911  -841  -795  -794  -833  -871  -817  -572  -172  190  361  381  393  480  617  740  830  922  1012  1060  1054  1029  1009  1003  1024  1091  1189  1268  1295  1277  1221  1117  956  724  414  89  -151  -267  -298  -290  -262  -230  -224  -283  -435  -672  -922  -1095  -1160  -1149  -1085  -958  -772  -597  -515  -546  -637  -718  -751  -740  -707  -669  -635  -617  -617  -604  -514  -303  -35  169  265  294  291  236  92  -102  -251  -305  -282  -205  -106  -33  -19  -92  -265  -479  -628  -668  -648  -622  -604  -594  -608  -666  -755  -832  -864  -848  -824  -835  -891  -989  -1108  -1204  -1254  -1269  -1265  -1249  -1229  -1215  -1199  -1155  -1078  -984  -879  -764  -653  -563  -488  -409  -330  -266  -221  -217  -270  -348  -398  -415  -418  -405  -330  -154  48  128  35  -135  -262  -270  -156  23  194  298  329  336  364  416  469  502  501  458  394  337  300  298  311  317  329  333  291  231  201  203  219  242  282  355  449  517  538  528  512  499  488  475  462  459  481  552  688  861  1007  1094  1142  1156  1082  872  580  345  243  233  249  266  288  296  223  7  -280  -449  -385  -147  137  382  538  563  376  -68  -602  -926  -836  -137  1390  3722  6391  8608  9699  9422  7922  5673  3336  1395  65  -627  -883  -961  -1011  -1069  -1077  -1014  -940  -890  -840  -781  -735  -736  -819  -983  -1171  -1305  -1356  -1348  -1308  -1251  -1184  -1097  -975  -836  -745  -730  -739  -751  -782  -816  -818  -766  -649  -507  -406  -369  -376  -409  -437  -395  -211  87  356  485  504  499  501  510  552  664  828  985  1118  1236  1322  1387  1482  1604  1692  1707  1677  1640  1611  1584  1564  1559  1558  1544  1510  1445  1308  1060  736  437  236  152  145  123  -10  -254  -498  -649  -703  -711  -723  -755  -795  -830  -848  -846  -833  -816  -791  -754  -714  -690  -686  -687  -665  -597  -481  -354  -300  -394  -629  -894  -1071  -1139  -1138  -1064  -877  -620  -411  -305  -274  -302  -399  -542  -658  -707  -709  -699  -690  -682  -672  -665  -665  -680  -716  -766  -806  -812  -770  -678  -547  -398  -268  -195  -209  -337  -572  -837  -1045  -1160  -1188  -1168  -1140  -1129  -1129  -1124  -1102  -1069  -1044  -1063  -1156  -1286  -1350  -1294  -1167  -1064  -1021  -1019  -1058  -1160  -1310  -1446  -1520  -1533  -1523  -1514  -1487  -1429  -1356  -1285  -1230  -1181  -1113  -1038  -985  -955  -946  -955  -974  -990  -998  -1000  -957  -798  -519  -234  -65  -43  -147  -357  -634  -894  -1052  -1100  -1097  -1075  -1027  -946  -854  -785  -763  -814  -967  -1176  -1336  -1396  -1391  -1370  -1365  -1408  -1555  -1805  -1983  -1835  -1162  153  1984  3931  5608  6733  7045  6398  4880  2779  562  -1207  -2146  -2301  -2000  -1570  -1256  -1179  -1246  -1308  -1333  -1343  -1336  -1319  -1312  -1316  -1315  -1282  -1198  -1056  -874  -701  -599  -574  -578  -565  -527  -480  -418  -311  -161  -33  15  0  -6  44  132  199  225  240  293  414  583  766  965  1190  1397  1526  1567  1540  1459  1346  1247  1199  1234  1387  1651  1930  2116  2208  2292  2457  2688  2874  2943  2922  2856  2780  2713  2630  2478  2231  1935  1686  1537  1432  1274  1057  868  733  594  442  354  362  392  379  318  208  41  -143  -288  -378  -451  -560  -693  -766  -709  -530  -286  -55  88  141  162  189  216  231  227  190  101  -23  -127  -176  -186  -183  -165  -113  -29  59  124  158  167  173  204  268  318  289  185  80  24  7  -5  -23  -32  -28  -25  -40  -73  -88  -37  68  183  293  391  426  351  190  6  -154  -283  -380  -446  -462  -370  -118  234  526  653  604  399  116  -111  -207  -206  -164  -110  -64  -30  17  110  232  322  344  296  197  92  24  7  28  71  109  132  158  216  283  281  189  109  139  267  427  565  642  652  617  564  509  464  434  422  441  506  608  710  810  938  1088  1201  1221  1142  1022  931  888  865  840  817  797  750  632  429  209  66  27  57  129  213  272  299  314  328  343  369  402  357  96  -322  -503  3  1409  3596  6077  8132  9206  9137  8060  6305  4310  2413  848  -150  -556  -599  -496  -387  -350  -348  -356  -416  -498  -529  -496  -430  -371  -343  -342  -346  -352  -378  -445  -535  -601  -610  -562  -467  -315  -121  32  89  70  15  -44  -82  -92  -90  -89  -92  -87  -54  13  92  142  155  152  151  153  146  115  60  -7  -69  -79  46  363  783  1118  1262  1265  1223  1172  1099  1016  965  950  926  840  692  540  432  354  287  245  236  228  159  -24  -306  -580  -749  -811  -851  -940  -1076  -1209  -1312  -1400  -1494  -1595  -1676  -1694  -1630  -1536  -1473  -1456  -1461  -1472  -1486  -1497  -1500  -1497  -1483  -1451  -1412  -1387  -1379  -1385  -1401  -1424  -1448  -1458  -1434  -1361  -1245  -1144  -1136  -1220  -1342  -1475  -1608  -1699  -1729  -1721  -1704  -1685  -1654  -1597  -1529  -1479  -1455  -1458  -1498  -1587  -1724  -1866  -1950  -1953  -1913  -1877  -1858  -1845  -1831  -1815  -1800  -1809  -1866  -1950  -2013  -2039  -2047  -2047  -2015  -1916  -1768  -1634  -1565  -1569  -1614  -1653  -1669  -1679  -1701  -1718  -1697  -1626  -1536  -1472  -1447  -1446  -1470  -1533  -1623  -1685  -1644  -1467  -1222  -1044  -981  -983  -986  -966  -929  -897  -877  -877  -923  -1035  -1150  -1158  -1037  -869  -718  -591  -486  -417  -387  -370  -344  -320  -336  -398  -464  -490  -470  -425  -385  -347  -295  -245  -207  -159  -90  -17  59  165  297  410  469  484  476  460  443  431  417  387  317  206  84  -40  -164  -264  -311  -321  -327  -340  -337  -284  -178  -53  30  0  -199  -580  -973  -1021  -435  899  2917  5231  7278  8691  9262  8748  7162  4981  2738  822  -392  -817  -792  -610  -320  -52  26  -42  -145  -240  -317  -363  -365  -340  -318  -296  -233  -100  54  139  117  36  -31  -55  -37  13  78  131  165  190  194  145  32  -107  -205  -239  -226  -186  -122  -35  65  170  272  363  423  453  472  480  481  498  539  604  712  855  1000  1136  1264  1421  1653  1909  2025  1899  1617  1356  1220  1197  1250  1357  1479  1551  1500  1285  980  732  607  566  559  553  523  466  384  255  77  -91  -220  -334  -434  -468  -431  -380  -358  -362  -371  -359  -307  -225  -157  -130  -140  -177  -234  -300  -385  -524  -695  -805  -783  -643  -464  -324  -254  -240  -249  -242  -224  -228  -250  -246  -195  -128  -102  -141  -223  -307  -359  -363  -332  -286  -235  -177  -136  -148  -222  -337  -448  -525  -559  -557  -526  -473  -398  -301  -201  -133  -100  -86  -86  -122  -230  -382  -493  -527  -527  -541  -590  -658  -706  -691  -596  -456  -318  -189  -77  -27  -44  -78  -96  -111  -148  -202  -243  -257  -256  -251  -245  -235  -224  -212  -204  -206  -225  -262  -308  -356  -390  -389  -352  -305  -271  -256  -249  -235  -217  -224  -264  -290  -257  -178  -100  -42  -4  13  11  2  -6  -15  -25  -29  -27  -28  -39  -46  -16  65  178  274  319  326  318  299  260  203  127  19  -122  -281  -461  -676  -857  -910  -885  -887  -886  -827  -754  -711  -691  -697  -783  -978  -1184  -1259  -1105  -542  633  2427  4630  6836  8432  8834  7844  5752  3173  846  -647  -1197  -1112  -799  -574  -601  -818  -1029  -1114  -1089  -1007  -916  -856  -838  -850  -879  -914  -933  -913  -849  -752  -640  -544  -488  -472  -474  -476  -477  -477  -472  -455  -418  -360  -295  -241  -205  -172  -108  14  162  263  296  297  299  305  314  343  414  525  645  749  837  921  1004  1064  1085  1081  1084  1132  1266  1504  1772  1928  1914  1805  1708  1658  1636  1631  1638  1636  1591  1471  1268  1005  747  567  472  397  285  136  -47  -268  -501  -712  -850  -884  -865  -865  -856  -804  -739  -704  -704  -716  -717  -700  -681  -688  -730  -782  -815  -826  -833  -841  -823  -742  -609  -486  -414  -394  -423  -489  -579  -669  -733  -766  -781  -755  -654  -497  -357  -275  -243  -234  -235  -252  -295  -350  -387  -405  -450  -568  -727  -847  -889  -874  -825  -756  -681  -609  -548  -502  -474  -455  -439  -426  -424  -427  -428  -422  -412  -415  -446  -496  -548  -595  -633  -655  -653  -632  -603  -580  -570  -569  -573  -573  -549  -486  -397  -326  -299  -325  -409  -522  -606  -636  -637  -633  -623  -576  -474  -350  -256  -209  -191  -177  -141  -84  -35  -4  29  73  94  62  -13  -88  -137  -192  -303  -474  -642  -743  -771  -765  -754  -745  -736  -722  -704  -690  -692  -725  -818  -1004  -1264  -1477  -1549  -1447  -1006  27  1682  3679  5571  6925  7421  6900  5458  3390  1119  -738  -1736  -1931  -1605  -1064  -664  -566  -647  -756  -817  -800  -707  -567  -430  -346  -325  -333  -333  -311  -276  -245  -225  -210  -197  -182  -156  -126  -112  -127  -164  -201  -218  -192  -98  47  186  282  340  372  371  347  340  392  519  681  805  859  864  856  868  931  1058  1224  1396  1556  1673  1728  1741  1731  1725  1786  1960  2189  2352  2396  2347  2233  2086  1941  1802  1661  1545  1481  1451  1398  1261  1024  755  531  361  205  33  -134  -249  -295  -316  -344  -381  -414  -444  -488  -548  -601  -624  -614  -590  -571  -565  -564  -564  -569  -586  -615  -632  -597  -480  -323  -209  -172  -171  -153  -98  -34  -24  -107  -237  -332  -363  -369  -400  -463  -513  -526  -532  -553  -564  -566  -584  -610  -623  -624  -646  -722  -838  -934  -950  -871  -740  -629  -577  -566  -567  -567  -569  -589  -642  -716  -779  -819  -843  -850  -820  -747  -680  -648  -615  -580  -589  -641  -707  -770  -810  -819  -807  -780  -734  -659  -573  -511  -467  -402  -311  -221  -148  -95  -73  -82  -121  -186  -253  -304  -336  -348  -377  -460  -570  -659  -719  -762  -799  -828  -848  -867  -897  -936  -971  -993  -1008  -1026  -1017  -941  -859  -871  -916  -762  -91  1327  3405  5671  7457  8188  7620  5949  3674  1391  -378  -1396  -1713  -1551  -1216  -933  -779  -731  -728  -749  -828  -987  -1164  -1256  -1221  -1114  -1014  -937  -847  -740  -659  -631  -636  -647  -655  -657  -642  -602  -556  -551  -612  -700  -747  -677  -454  -160  66  193  257  288  308  352  429  506  548  558  566  602  676  767  841  890  937  1000  1080  1165  1245  1332  1445  1560  1629  1634  1608  1586  1575  1564  1540  1505  1471  1449  1399  1256  1018  784  648  571  449  252  35  -177  -380  -524  -584  -599  -626  -673  -711  -723  -716  -708  -722  -777  -874  -977  -997  -888  -742  -666  -663  -688  -715  -730  -736  -740  -745  -750  -750  -728  -673  -599  -542  -517  -498  -452  -392  -363  -393  -450  -489  -499  -498  -501  -504  -499  -486  -470  -452  -437  -442  -476  -521  -557  -584  -596  -589  -572  -545  -506  -465  -441  -437  -454  -485  -508  -518  -514  -491  -444  -382  -326  -286  -254  -223  -195  -193  -230  -291  -352  -395  -406  -392  -371  -358  -367  -385  -399  -431  -477  -509  -517  -500  -471  -458  -452  -426  -370  -285  -188  -121  -103  -127  -165  -195  -239  -336  -457  -528  -505  -386  -224  -100  -36  7  60  125  210  314  424  525  607  658  639  501  246  -40  -255  -360  -395  -408  -416  -412  -387  -349  -328  -359  -424  -474  -492  -503  -538  -599  -668  -745  -844  -873  -591  192  1527  3352  5388  7193  8389  8621  7639  5638  3192  951  -566  -1199  -1195  -904  -580  -405  -414  -512  -613  -686  -722  -731  -729  -725  -728  -756  -818  -888  -924  -920  -901  -875  -826  -735  -607  -484  -402  -363  -343  -315  -301  -355  -497  -664  -738  -651  -452  -267  -204  -270  -347  -302  -145  -3  54  87  173  301  395  415  400  426  557  781  1015  1204  1356  1482  1563  1597  1614  1624  1614  1573  1515  1469  1441  1403  1326  1211  1097  1028  1003  973  895  762  589  391  165  -78  -285  -418  -494  -548  -598  -646  -687  -715  -729  -730  -717  -693  -670  -656  -650  -644  -630  -625  -645  -674  -676  -647  -638  -680  -742  -782  -793  -787  -773  -740  -673  -582  -513  -489  -484  -459  -409  -362  -344  -347  -354  -363  -389  -434  -500  -592  -691  -752  -735  -628  -474  -341  -254  -198  -172  -182  -214  -230  -211  -187  -209  -291  -363  -335  -223  -128  -107  -139  -184  -232  -300  -386  -460  -488  -468  -423  -385  -361  -346  -339  -345  -360  -385  -412  -412  -366  -294  -234  -199  -188  -200  -245  -325  -407  -454  -463  -455  -449  -448  -445  -428  -407  -407  -415  -363  -224  -73  -8  -57  -162  -258  -309  -305  -286  -306  -344  -344  -312  -292  -297  -304  -270  -156  11  162  272  389  546  712  837  886  836  667  400  116  -100  -232  -307  -344  -353  -341  -314  -281  -254  -247  -269  -325  -399  -480  -584  -718  -843  -901  -925  -1056  -1190  -827  368  2230  4389  6428  7901  8492  8005  6420  4075  1586  -371  -1330  -1366  -1007  -703  -573  -520  -455  -435  -510  -625  -733  -811  -846  -856  -870  -897  -914  -868  -718  -502  -321  -231  -205  -210  -242  -302  -377  -431  -419  -336  -200  -45  65  113  125  114  102  125  182  239  262  237  195  171  167  174  195  245  335  462  607  752  888  1023  1186  1364  1490  1536  1534  1504  1445  1387  1393  1465  1537  1561  1537  1483  1410  1325  1246  1161  1034  883  769  682  553  370  185  14  -172  -361  -490  -540  -556  -585  -631  -666  -676  -673  -669  -664  -666  -679  -708  -757  -826  -899  -957  -976  -916  -754  -551  -444  -498  -642  -760  -813  -826  -800  -691  -510  -336  -219  -155  -126  -105  -87  -91  -129  -201  -300  -412  -503  -540  -533  -540  -575  -581  -531  -482  -487  -523  -546  -552  -553  -557  -553  -508  -399  -258  -158  -135  -167  -213  -245  -255  -255  -252  -241  -214  -194  -240  -376  -513  -558  -530  -502  -496  -492  -459  -393  -347  -401  -551  -708  -803  -828  -814  -797  -788  -763  -695  -601  -550  -565  -570  -519  -459  -437  -437  -412  -328  -211  -125  -85  -48  26  126  206  248  249  196  66  -135  -362  -553  -673  -725  -733  -732  -741  -759  -767  -742  -687  -627  -568  -493  -436  -534  -864  -1197  -1100  -269  1293  3326  5375  6921  7591  7190  5720  3530  1214  -685  -1811  -2076  -1742  -1233  -841  -680  -717  -814  -859  -833  -744  -616  -490  -381  -309  -319  -432  -600  -715  -682  -545  -443  -435  -479  -513  -504  -456  -381  -300  -239  -197  -145  -79  -35  -35  -36  7  68  103  127  172  228  259  251  235  256  325  449  624  808  958  1086  1207  1296  1335  1344  1351  1361  1379  1433  1539  1679  1826  1959  2039  2038  1947  1774  1565  1384  1263  1174  1080  959  799  588  353  164  50  -42  -175  -337  -482  -593  -674  -724  -745  -763  -809  -877  -937  -971  -979  -968  -937  -889  -839  -806  -793  -780  -746  -688  -617  -546  -473  -401  -367  -400  -473  -543  -575  -537  -435  -324  -245  -207  -192  -183  -188  -231  -307  -381  -436  -491  -547  -571  -545  -483  -411  -356  -334  -336  -348  -375  -430  -493  -525  -517  -505  -499  -462  -374  -276  -216  -196  -211  -269  -380  -523  -645  -702  -688  -642  -611  -587  -517  -400  -306  -291  -350  -435  -496  -518  -525  -532  -539  -539  -537  -546  -576  -622  -664  -684  -657  -544  -343  -134  -34  -80  -202  -293  -308  -281  -246  -197  -125  -44  26  73  88  81  72  61  -1  -167  -392  -555  -594  -548  -491  -477  -505  -538  -552  -555  -559  -563  -546  -517  -616  -958  -1340  -1293  -442  1238  3435  5692  7519  8483  8358  7120  4951  2362  75  -1302  -1618  -1210  -580  -156  -188  -563  -932  -1081  -1026  -866  -691  -563  -495  -464  -458  -496  -595  -708  -752  -712  -632  -535  -429  -348  -314  -312  -318  -312  -293  -275  -257  -232  -206  -179  -130  -55  8  28  16  21  92  246  427  547  580  563  541  556  648  821  1035  1224  1342  1386  1386  1373  1379  1418  1480  1550  1629  1722  1814  1868  1871  1831  1758  1666  1560  1416  1232  1072  998  986  952  785  433  1  -305  -414  -412  -386  -367  -371  -411  -478  -546  -598  -618  -603  -570  -535  -495  -456  -429  -421  -446  -522  -653  -795  -891  -919  -879  -775  -637  -515  -437  -412  -436  -477  -509  -525  -512  -482  -466  -477  -509  -544  -576  -615  -658  -689  -703  -704  -701  -694  -680  -658  -632  -604  -573  -547  -546  -578  -640  -694  -695  -651  -614  -608  -614  -616  -630  -666  -711  -744  -762  -765  -756  -741  -733  -728  -695  -597  -470  -392  -379  -387  -387  -376  -369  -406  -520  -677  -792  -819  -785  -732  -692  -663  -628  -587  -557  -551  -570  -600  -621  -627  -626  -624  -625  -625  -621  -606  -580  -545  -490  -396  -255  -96  32  102  117  107  99  98  97  89  71  48  9  -83  -271  -538  -788  -915  -904  -831  -770  -741  -732  -737  -756  -785  -811  -811  -790  -831  -1028  -1298  -1306  -650  832  2945  5269  7293  8519  8665  7696  5748  3243  868  -772  -1417  -1219  -689  -343  -326  -461  -572  -636  -699  -774  -836  -867  -879  -892  -908  -913  -891  -843  -784  -731  -679  -606  -525  -467  -442  -431  -408  -371  -352  -375  -424  -463  -471  -435  -349  -213  -44  112  225  288  313  319  330  351  371  379  378  386  433  540  712  935  1167  1358  1520  1687  1837  1912  1899  1833  1755  1696  1667  1665  1672  1671  1654  1615  1564  1516  1470  1401  1285  1134  975  812  634  437  233  52  -94  -237  -398  -552  -666  -739  -772  -768  -732  -633  -479  -367  -357  -416  -500  -568  -596  -605  -630  -675  -734  -813  -904  -963  -941  -840  -713  -607  -523  -472  -480  -531  -586  -621  -630  -608  -538  -427  -317  -243  -208  -198  -226  -338  -553  -800  -965  -1007  -964  -889  -805  -724  -661  -624  -599  -566  -528  -501  -494  -495  -485  -453  -414  -393  -417  -490  -565  -593  -585  -564  -556  -580  -603  -589  -559  -543  -545  -548  -529  -475  -418  -418  -483  -529  -478  -362  -259  -204  -186  -189  -228  -322  -457  -577  -618  -544  -395  -266  -208  -199  -198  -181  -152  -142  -180  -266  -362  -410  -389  -342  -287  -170  43  284  447  508  502  426  274  82  -86  -188  -225  -231  -231  -238  -272  -346  -445  -551  -652  -711  -709  -665  -603  -559  -558  -579  -591  -616  -756  -1084  -1458  -1534  -961  425  2518  4944  7159  8637  9035  8239  6397  3951  1539  -245  -1139  -1285  -1043  -757  -631  -663  -729  -758  -758  -753  -750  -743  -722  -688  -654  -620  -575  -516  -458  -421  -407  -404  -406  -410  -412  -408  -394  -369  -334  -296  -265  -252  -252  -228  -172  -122  -98  -79  -50  -38  -64  -98  -82  13  177  354  494  581  624  651  683  725  777  865  1022  1209  1335  1367  1352  1335  1328  1331  1344  1371  1409  1447  1465  1451  1402  1327  1257  1191  1096  955  761  494  213  22  -69  -144  -236  -306  -327  -319  -310  -325  -386  -468  -521  -518  -486  -488  -560  -662  -740  -788  -811  -796  -735  -639  -545  -489  -474  -479  -480  -463  -430  -392  -361  -349  -362  -389  -415  -432  -440  -435  -409  -361  -309  -279  -284  -323  -385  -450  -497  -511  -473  -360  -204  -92  -84  -188  -351  -492  -563  -574  -537  -445  -320  -227  -232  -355  -536  -667  -700  -664  -600  -538  -499  -483  -483  -487  -486  -483  -480  -472  -450  -419  -396  -390  -396  -400  -387  -344  -281  -219  -145  -32  101  197  226  210  178  136  67  -50  -197  -326  -431  -556  -706  -832  -898  -912  -898  -887  -887  -885  -858  -789  -708  -739  -924  -1036  -916  -709  -431  140  1138  2601  4470  6337  7469  7311  5847  3506  993  -896  -1733  -1704  -1319  -954  -732  -648  -659  -709  -773  -834  -864  -851  -817  -768  -688  -586  -495  -438  -408  -382  -349  -337  -368  -410  -409  -363  -317  -299  -291  -262  -202  -127  -57  10  102  210  290  319  322  321  323  341  399  514  654  754  796  811  835  890  1002  1185  1402  1586  1698  1757  1804  1853  1891  1911  1930  1969  2020  2058  2067  2037  1951  1818  1680  1574  1501  1434  1358  1268  1141  958  727  475  237  42  -113  -284  -536  -830  -1040  -1118  -1103  -1040  -965  -920  -901  -885  -872  -871  -862  -803  -728  -738  -844  -943  -968  -944  -918  -900  -875  -833  -786  -756  -753  -749  -707  -627  -548  -497  -478  -481  -498  -522  -550  -573  -588  -592  -590  -587  -586  -587  -593  -606  -632  -674  -724  -773  -807  -803  -760  -702  -643  -581  -539  -572  -696  -845  -916  -869  -759  -669  -631  -631  -647  -674  -703  -722  -728  -716  -683  -641  -617  -625  -652  -669  -654  -598  -505  -397  -309  -255  -228  -220  -220  -221  -220  -221  -234  -280  -372  -479  -549  -570  -595  -685  -842  -1005  -1108  -1132  -1081  -953  -792  -674  -630  -648  -736  -922  -1162  -1308  -1148  -430  989  2963  5089  6898  7956  7943  6760  4633  2135  -49  -1406  -1775  -1496  -1065  -703  -478  -422  -484  -589  -691  -756  -774  -771  -768  -766  -754  -727  -707  -715  -734  -705  -583  -406  -272  -223  -216  -211  -208  -211  -216  -216  -208  -192  -165  -128  -90  -65  -77  -113  -129  -120  -116  -122  -95  30  270  566  825  985  1048  1062  1076  1127  1228  1349  1443  1496  1536  1592  1663  1731  1779  1806  1820  1823  1797  1720  1608  1507  1436  1372  1302  1217  1102  968  855  754  601  385  166  10  -50  -46  -61  -135  -260  -427  -572  -634  -624  -559  -459  -383  -382  -455  -550  -610  -622  -606  -563  -484  -371  -254  -188  -214  -329  -473  -566  -574  -527  -482  -470  -480  -489  -492  -492  -487  -467  -429  -386  -359  -358  -387  -438  -491  -524  -518  -463  -378  -308  -271  -252  -242  -242  -265  -323  -414  -523  -634  -732  -793  -790  -712  -585  -465  -401  -405  -463  -522  -555  -617  -765  -930  -975  -895  -807  -769  -751  -745  -767  -801  -797  -716  -592  -491  -437  -404  -377  -367  -405  -519  -678  -806  -860  -827  -669  -376  -50  167  244  249  244  248  253  247  210  124  -3  -138  -247  -311  -321  -295  -263  -241  -241  -293  -423  -593  -719  -776  -803  -834  -866  -878  -845  -804  -908  -1199  -1349  -918  290  2188  4426  6536  8089  8698  8121  6442  4077  1661  -154  -1034  -1139  -905  -702  -690  -777  -800  -751  -708  -690  -683  -676  -668  -664  -664  -668  -675  -677  -653  -576  -442  -292  -175  -118  -126  -190  -275  -337  -361  -367  -372  -379  -393  -411  -426  -413  -340  -197  -30  101  186  251  321  386  421  428  439  482  549  625  711  804  881  951  1052  1198  1370  1527  1634  1692  1723  1730  1705  1654  1604  1578  1578  1591  1601  1572  1461  1280  1101  966  851  720  566  412  301  240  185  84  -61  -197  -270  -284  -272  -270  -336  -524  -777  -954  -987  -924  -835  -748  -647  -506  -369  -335  -412  -503  -542  -541  -530  -532  -558  -603  -647  -663  -634  -558  -452  -367  -369  -453  -552  -616  -641  -643  -629  -597  -552  -518  -510  -527  -553  -572  -586  -607  -639  -674  -697  -693  -663  -620  -581  -535  -466  -383  -339  -392  -519  -634  -689  -704  -709  -719  -724  -694  -607  -501  -443  -448  -478  -506  -527  -551  -582  -604  -602  -586  -570  -550  -505  -417  -316  -265  -296  -371  -431  -460  -476  -492  -506  -512  -507  -505  -529  -580  -644  -709  -762  -791  -770  -680  -548  -445  -402  -383  -354  -322  -299  -273  -234  -185  -144  -123  -124  -130  -129  -122  -104  -72  -29  17  58  80  48  -83  -314  -562  -732  -783  -718  -566  -394  -274  -238  -300  -481  -734  -952  -1095  -1223  -1384  -1488  -1291  -509  999  3076  5291  7172  8349  8548  7662  5851  3527  1302  -229  -902  -955  -745  -633  -739  -850  -836  -794  -810  -865  -913  -935  -937  -908  -825  -704  -605  -562  -559  -567  -569  -564  -545  -508  -469  -452  -452  -443  -425  -406  -388  -370  -347  -319  -287  -249  -209  -173  -121  -22  102  194  241  280  328  373  413  461  525  610  714  823  930  1035  1128  1190  1236  1303  1399  1487  1543  1576  1596  1592  1566  1534  1496  1436  1348  1257  1190  1151  1129  1096  1020  905  777  647  504  343  148  -101  -358  -531  -610  -652  -699  -753  -793  -791  -716  -565  -399  -294  -266  -285  -328  -375  -404  -406  -400  -422  -494  -597  -675  -708  -712  -704  -679  -628  -556  -481  -413  -359  -315  -277  -248  -221  -195  -175  -179  -216  -283  -349  -385  -392  -399  -432  -488  -527  -521  -489  -450  -393  -323  -269  -250  -271  -340  -455  -555  -549  -437  -319  -295  -381  -495  -542  -525  -499  -481  -463  -443  -437  -454  -488  -520  -534  -521  -475  -412  -363  -339  -333  -341  -366  -406  -427  -405  -365  -350  -361  -374  -368  -324  -245  -163  -108  -86  -84  -92  -104  -120  -138  -160  -196  -245  -293  -327  -346  -351  -352  -354  -360  -358  -321  -231  -98  39  139  191  213  224  222  198  160  129  113  102  84  38  -69  -247  -454  -643  -775  -829  -815  -773  -739  -725  -724  -727  -726  -703  -641  -582  -659  -939  -1258  -1298  -749  564  2545  4805  6827  8141  8368  7303  5127  2479  178  -1203  -1574  -1276  -829  -605  -633  -722  -751  -723  -663  -601  -595  -678  -808  -890  -882  -821  -751  -678  -597  -530  -492  -470  -450  -434  -421  -412  -407  -405  -404  -397  -372  -326  -269  -217  -178  -146  -96  -7  107  212  285  347  424  515  617  713  776  800  816  854  902  930  948  1001  1115  1293  1513  1711  1828  1869  1871  1852  1809  1742  1690  1713  1805  1887  1896  1827  1714  1561  1320  993  683  476  364  286  214  159  89  -58  -285  -510  -662  -725  -725  -705  -692  -685  -678  -668  -655  -642  -636  -652  -698  -753  -782  -781  -771  -764  -756  -748  -751  -759  -746  -693  -606  -513  -445  -414  -411  -429  -483  -581  -694  -766  -771  -733  -685  -654  -634  -602  -571  -580  -624  -673  -708  -724  -730  -738  -743  -726  -683  -641  -628  -662  -752  -871  -945  -921  -821  -710  -633  -597  -584  -577  -593  -676  -841  -1026  -1142  -1166  -1128  -1066  -996  -923  -861  -830  -813  -754  -613  -426  -271  -178  -137  -131  -148  -177  -201  -206  -197  -193  -205  -228  -255  -312  -426  -567  -669  -709  -716  -717  -722  -734  -753  -770  -784  -798  -812  -813  -798  -785  -828  -973  -1170  -1282  -1167  -662  400  2020  3963  5833  7121  7374  6427  4481  2098  -47  -1508  -2102  -1929  -1371  -840  -538  -441  -425  -410  -401  -421  -463  -497  -511  -509  -504  -500  -494  -472  -412  -305  -180  -96  -70  -72  -70  -59  -47  -39  -29  -10  16  45  50  27  33  124  270  385  429  426  411  394  387  413  507  680  902  1109  1244  1298  1311  1319  1350  1431  1555  1670  1734  1748  1744  1757  1806  1872  1921  1948  1969  1980  1968  1936  1893  1831  1724  1536  1258  951  721  611  552  444  265  61  -129  -283  -372  -398  -397  -419  -506  -661  -822  -921  -949  -938  -900  -833  -749  -675  -630  -603  -574  -547  -538  -550  -569  -579  -565  -513  -424  -328  -262  -244  -263  -274  -243  -189  -151  -141  -138  -123  -99  -83  -90  -117  -157  -202  -234  -246  -247  -247  -260  -303  -374  -452  -518  -553  -537  -458  -341  -248  -241  -334  -489  -629  -707  -726  -709  -675  -624  -551  -470  -417  -407  -425  -452  -490  -554  -631  -684  -700  -697  -696  -703  -704  -678  -625  -572  -523  -453  -339  -193  -65  3  17  -1  -57  -178  -369  -570  -705  -757  -766  -762  -759  -762  -774  -792  -806  -816  -835  -875  -927  -958  -957  -964  -1027  -1163  -1370  -1604  -1709  -1396  -401  1323  3569  5871  7630  8356  7832  6224  4017  1740  -130  -1214  -1475  -1282  -1010  -808  -723  -741  -785  -812  -821  -818  -813  -820  -844  -876  -893  -866  -773  -644  -566  -584  -655  -715  -745  -750  -726  -660  -565  -479  -411  -330  -218  -100  -20  16  46  83  108  110  98  87  83  90  127  221  358  483  575  668  786  907  999  1045  1049  1037  1050  1138  1319  1550  1747  1849  1866  1847  1830  1837  1869  1902  1921  1923  1879  1725  1433  1103  881  795  766  723  641  484  196  -169  -447  -563  -587  -575  -512  -384  -230  -132  -158  -278  -395  -449  -458  -452  -445  -434  -414  -397  -394  -406  -418  -428  -441  -459  -465  -437  -358  -235  -110  -53  -96  -194  -273  -304  -308  -307  -305  -286  -235  -177  -175  -266  -402  -500  -530  -526  -523  -528  -522  -479  -398  -317  -297  -368  -489  -593  -656  -679  -656  -578  -472  -393  -380  -437  -543  -645  -693  -678  -635  -600  -587  -584  -569  -533  -492  -474  -507  -609  -748  -868  -942  -970  -940  -840  -702  -590  -533  -517  -521  -529  -534  -529  -522  -524  -550  -598  -641  -648  -616  -562  -489  -405  -330  -267  -219  -214  -275  -388  -499  -550  -528  -452  -361  -296  -263  -235  -199  -171  -162  -167  -177  -173  -131  -54  -8  -58  -196  -366  -520  -624  -676  -685  -666  -652  -662  -682  -710  -758  -813  -842  -837  -838  -936  -1176  -1400  -1274  -507  1010  3139  5493  7540  8726  8675  7398  5235  2683  375  -1112  -1655  -1528  -1058  -557  -319  -399  -580  -673  -677  -674  -725  -847  -996  -1098  -1115  -1061  -970  -880  -808  -751  -712  -708  -743  -770  -758  -731  -720  -722  -711  -666  -589  -495  -402  -327  -274  -246  -238  -234  -223  -209  -181  -115  -4  118  219  301  399  520  631  712  787  869  939  979  997  1011  1031  1094  1244  1471  1691  1836  1891  1891  1880  1871  1823  1693  1512  1360  1269  1211  1155  1078  961  830  729  635  468  200  -91  -305  -413  -456  -472  -475  -477  -478  -464  -440  -416  -388  -360  -340  -339  -388  -508  -673  -822  -941  -1046  -1128  -1145  -1040  -785  -477  -274  -227  -260  -295  -307  -308  -316  -328  -319  -278  -251  -282  -346  -393  -408  -398  -376  -350  -315  -279  -253  -229  -198  -171  -171  -212  -270  -311  -324  -323  -320  -312  -296  -275  -269  -290  -326  -346  -329  -276  -204  -139  -101  -92  -110  -154  -207  -239  -248  -274  -360  -486  -590  -636  -629  -580  -508  -445  -405  -383  -372  -365  -364  -370  -381  -388  -373  -329  -278  -252  -249  -251  -246  -242  -249  -265  -283  -294  -298  -299  -298  -293  -279  -260  -256  -282  -323  -356  -382  -413  -426  -366  -210  -23  95  124  112  100  94  88  78  65  49  38  67  168  310  401  392  307  216  173  158  118  36  -64  -155  -221  -260  -282  -297  -302  -298  -301  -349  -457  -587  -676  -700  -664  -598  -600  -772  -1046  -1121  -614  719  2815  5267  7453  8789  8923  7782  5653  3124  812  -801  -1529  -1567  -1216  -697  -292  -212  -344  -468  -535  -594  -662  -716  -737  -725  -688  -641  -599  -575  -573  -594  -633  -671  -698  -717  -725  -690  -559  -336  -115  8  24  -36  -141  -245  -307  -327  -332  -340  -343  -318  -248  -133  13  162  270  317  341  402  523  666  775  845  914  1007  1104  1179  1216  1222  1215  1213  1228  1261  1298  1323  1334  1338  1343  1354  1362  1336  1245  1094  927  779  658  563  486  408  302  164  -6  -213  -410  -531  -573  -611  -721  -886  -1004  -985  -828  -621  -473  -421  -438  -504  -625  -795  -962  -1033  -957  -779  -608  -538  -576  -649  -694  -700  -673  -600  -470  -318  -211  -189  -247  -365  -508  -615  -631  -564  -476  -406  -349  -299  -279  -314  -394  -480  -526  -501  -396  -253  -150  -132  -188  -281  -373  -438  -472  -482  -482  -479  -479  -485  -489  -479  -439  -363  -261  -165  -108  -111  -173  -271  -359  -406  -418  -417  -410  -393  -362  -325  -301  -301  -322  -351  -375  -389  -400  -410  -405  -362  -283  -202  -131  -63  -3  34  51  46  3  -86  -192  -260  -273  -251  -220  -199  -190  -183  -175  -175  -183  -186  -167  -125  -73  -23  49  200  436  672  802  790  656  441  206  21  -82  -141  -214  -307  -379  -414  -435  -463  -498  -537  -583  -617  -614  -580  -548  -556  -636  -790  -975  -1152  -1220  -928  -35  1518  3609  5864  7719  8647  8306  6676  4209  1690  -170  -1047  -1124  -884  -688  -630  -668  -716  -723  -695  -649  -608  -602  -650  -745  -839  -880  -861  -823  -808  -825  -850  -847  -826  -825  -834  -825  -800  -775  -768  -777  -773  -728  -639  -534  -431  -317  -190  -102  -89  -124  -171  -209  -214  -134  80  367  575  623  547  432  355  368  489  680  880  1056  1191  1276  1324  1361  1403  1464  1543  1607  1613  1570  1516  1449  1331  1171  1017  888  781  707  680  694  714  676  502  190  -131  -335  -423  -464  -492  -500  -497  -500  -504  -505  -514  -535  -571  -631  -707  -766  -783  -761  -721  -688  -670  -651  -619  -589  -570  -546  -499  -421  -346  -346  -441  -582  -706  -773  -767  -701  -612  -546  -517  -505  -490  -458  -416  -379  -365  -385  -456  -559  -639  -648  -595  -526  -482  -468  -474  -506  -566  -622  -626  -574  -504  -452  -427  -423  -427  -431  -435  -437  -433  -417  -397  -414  -500  -628  -728  -770  -774  -748  -679  -573  -468  -390  -339  -313  -307  -309  -313  -324  -347  -386  -425  -441  -418  -348  -222  -62  60  104  90  66  58  67  74  58  26  0  -28  -81  -160  -270  -428  -610  -747  -794  -755  -676  -612  -584  -577  -584  -618  -682  -729  -720  -728  -846  -1010  -949  -319  1037  2966  5077  6827  7729  7520  6127  3815  1287  -691  -1716  -1799  -1303  -773  -556  -612  -726  -754  -673  -543  -439  -398  -412  -466  -537  -599  -628  -596  -484  -309  -138  -31  7  -10  -109  -304  -527  -667  -648  -466  -202  15  121  140  117  82  52  42  75  172  300  391  420  416  417  457  567  736  903  1016  1082  1144  1224  1320  1438  1574  1695  1775  1814  1821  1797  1733  1646  1576  1537  1526  1541  1589  1656  1687  1641  1515  1314  1051  779  556  400  281  182  121  88  10  -181  -470  -748  -935  -1050  -1142  -1214  -1245  -1204  -1065  -857  -674  -581  -567  -595  -647  -704  -730  -703  -642  -587  -559  -561  -599  -679  -752  -735  -628  -526  -507  -572  -669  -742  -768  -752  -698  -610  -508  -420  -371  -361  -368  -371  -353  -312  -264  -243  -292  -427  -597  -717  -756  -746  -710  -646  -565  -518  -545  -609  -651  -653  -636  -607  -549  -450  -336  -259  -248  -313  -447  -609  -735  -794  -803  -782  -728  -641  -546  -471  -410  -355  -317  -303  -298  -290  -288  -301  -311  -276  -155  23  179  262  277  248  182  77  -60  -202  -327  -446  -556  -627  -647  -645  -650  -672  -698  -715  -722  -726  -723  -708  -688  -708  -845  -1132  -1462  -1635  -1478  -852  352  2106  4192  6248  7811  8390  7682  5816  3323  889  -845  -1576  -1498  -1068  -729  -698  -847  -951  -953  -910  -872  -830  -742  -584  -397  -260  -229  -298  -436  -590  -689  -669  -519  -304  -140  -80  -90  -124  -166  -223  -287  -335  -355  -344  -286  -169  -3  162  265  293  283  267  259  267  316  419  572  759  952  1103  1186  1222  1242  1250  1246  1252  1299  1402  1544  1681  1768  1804  1823  1829  1812  1775  1722  1649  1567  1500  1442  1355  1193  970  775  667  601  484  292  60  -189  -429  -595  -663  -672  -660  -643  -629  -650  -746  -916  -1092  -1198  -1223  -1182  -1086  -965  -869  -822  -806  -792  -770  -736  -681  -614  -561  -534  -521  -519  -553  -649  -767  -812  -731  -579  -452  -390  -364  -345  -327  -313  -311  -320  -327  -328  -331  -347  -387  -457  -536  -577  -559  -503  -446  -408  -390  -385  -395  -427  -482  -541  -578  -575  -551  -544  -569  -612  -664  -715  -730  -688  -611  -548  -521  -531  -580  -649  -705  -737  -758  -786  -823  -845  -807  -680  -494  -328  -243  -237  -270  -306  -329  -343  -354  -363  -365  -333  -247  -118  9  102  152  164  122  7  -142  -250  -295  -326  -387  -475  -559  -629  -700  -771  -833  -877  -903  -915  -910  -868  -785  -738  -827  -990  -995  -593  418  2118  4279  6463  8166  8850  8159  6187  3480  853  -948  -1642  -1462  -919  -501  -403  -506  -627  -693  -724  -753  -792  -834  -865  -878  -882  -882  -871  -833  -756  -643  -523  -439  -410  -415  -430  -442  -453  -456  -440  -397  -341  -297  -280  -281  -276  -241  -165  -63  37  118  182  240  290  332  388  481  593  688  745  783  831  887  930  955  981  1032  1130  1282  1442  1547  1599  1654  1733  1801  1833  1840  1839  1824  1767  1649  1483  1310  1139  931  678  449  300  208  100  -79  -297  -464  -539  -560  -568  -576  -582  -593  -614  -638  -652  -654  -662  -710  -815  -941  -1017  -1016  -955  -849  -734  -679  -708  -762  -779  -749  -697  -653  -602  -537  -505  -531  -591  -664  -719  -733  -723  -715  -716  -722  -718  -683  -611  -532  -488  -493  -521  -548  -576  -611  -630  -599  -511  -385  -286  -270  -319  -404  -521  -611  -633  -615  -584  -557  -556  -572  -584  -583  -560  -515  -453  -394  -360  -354  -352  -340  -325  -314  -324  -371  -446  -518  -561  -575  -576  -588  -617  -650  -658  -616  -526  -407  -283  -185  -135  -126  -132  -131  -109  -50  51  165  244  278  286  279  237  150  46  -43  -126  -203  -262  -320  -401  -491  -552  -575  -584  -610  -663  -727  -762  -735  -653  -586  -579  -573  -579  -751  -1034  -1030  -331  1264  3639  6228  8255  9128  8584  6749  4172  1589  -389  -1412  -1483  -1013  -545  -345  -351  -417  -480  -537  -579  -604  -643  -732  -848  -924  -935  -906  -846  -749  -647  -592  -603  -660  -730  -786  -813  -788  -664  -434  -193  -50  -36  -110  -209  -275  -278  -224  -144  -82  -57  -49  -13  79  199  275  288  274  262  255  257  283  360  515  749  988  1134  1183  1217  1306  1457  1631  1772  1843  1857  1852  1838  1778  1647  1483  1346  1231  1088  918  777  694  629  528  368  169  -24  -175  -261  -287  -282  -283  -320  -392  -468  -526  -579  -641  -695  -721  -729  -746  -778  -789  -749  -678  -618  -579  -548  -503  -448  -409  -398  -401  -396  -373  -341  -331  -360  -412  -453  -469  -469  -466  -464  -456  -435  -408  -389  -388  -400  -407  -394  -373  -378  -441  -555  -672  -756  -777  -692  -517  -351  -270  -274  -318  -352  -366  -389  -445  -515  -563  -578  -575  -568  -554  -527  -483  -433  -394  -368  -348  -335  -331  -328  -323  -325  -348  -389  -431  -468  -496  -509  -511  -511  -504  -476  -427  -366  -293  -214  -149  -101  -53  -3  24  22  8  -17  -69  -133  -181  -208  -237  -290  -373  -471  -559  -617  -643  -666  -717  -799  -862  -854  -784  -714  -680  -669  -667  -741  -977  -1292  -1374  -876  396  2400  4772  6890  8148  8177  6869  4506  1813  -388  -1608  -1833  -1442  -935  -642  -604  -682  -764  -824  -867  -886  -881  -863  -841  -813  -772  -727  -689  -659  -629  -599  -580  -575  -577  -574  -557  -528  -489  -434  -364  -286  -195  -102  -45  -36  -53  -70  -74  -51  16  124  231  303  332  320  282  257  294  425  625  815  938  1002  1043  1098  1192  1321  1462  1580  1649  1666  1659  1660  1689  1726  1733  1707  1687  1688  1665  1542  1292  998  779  661  560  408  242  144  118  79  -74  -361  -681  -906  -1003  -1019  -1008  -985  -947  -904  -881  -885  -906  -925  -944  -996  -1096  -1196  -1208  -1093  -924  -809  -779  -791  -793  -748  -640  -506  -420  -413  -443  -477  -526  -605  -686  -703  -637  -566  -576  -674  -795  -870  -877  -853  -835  -829  -822  -792  -728  -648  -599  -597  -608  -600  -585  -592  -618  -645  -664  -687  -726  -772  -804  -818  -827  -833  -826  -781  -665  -478  -275  -123  -21  82  196  262  239  155  71  31  30  13  -95  -323  -600  -822  -955  -1024  -1057  -1051  -988  -870  -748  -674  -661  -693  -753  -822  -838  -737  -639  -755  -992  -941  -239  1245  3382  5731  7604  8368  7728  5799  3145  613  -1115  -1810  -1678  -1170  -701  -458  -418  -459  -501  -529  -551  -569  -586  -596  -584  -540  -462  -346  -226  -154  -153  -197  -247  -278  -286  -272  -223  -121  23  154  223  234  216  193  179  187  236  329  445  547  613  661  728  810  869  884  881  903  995  1169  1395  1601  1719  1751  1768  1847  1994  2142  2224  2241  2239  2251  2276  2298  2311  2325  2345  2365  2367  2320  2209  2040  1829  1595  1362  1134  894  663  500  424  387  333  248  158  90  37  -13  -53  -54  4  81  94  24  -79  -179  -247  -268  -248  -202  -157  -130  -103  -38  90  247  347  353  293  201  107  49  38  63  108  165  228  288  327  346  352  344  305  213  75  -59  -137  -146  -103  -39  0  -13  -68  -143  -222  -285  -314  -305  -262  -189  -102  -36  -9  -16  -47  -102  -174  -236  -270  -283  -296  -321  -348  -370  -381  -348  -248  -129  -62  -70  -124  -179  -216  -252  -296  -327  -329  -309  -284  -273  -286  -306  -306  -263  -185  -116  -90  -94  -98  -99  -103  -125  -183  -286  -404  -497  -553  -587  -619  -683  -823  -1068  -1376  -1631  -1754  -1772  -1750  -1726  -1695  -1648  -1628  -1673  -1735  -1746  -1765  -1912  -2147  -2228  -1818  -645  1296  3639  5771  7083  7201  6126  4174  1839  -292  -1724  -2341  -2405  -2229  -1986  -1790  -1708  -1715  -1758  -1805  -1851  -1902  -1966  -2033  -2075  -2066  -2002  -1914  -1854  -1836  -1834  -1813  -1768  -1708  -1656  -1627  -1618  -1603  -1559  -1481  -1396  -1339  -1322  -1327  -1336  -1339  -1328  -1296  -1254  -1222  -1189  -1120  -992  -843  -737  -701  -704  -695  -646  -580  -546  -565  -590  -556  -456  -339  -241  -147  -25  133  312  484  628  731  792  829  854  857  806  675  487  303  167  88  50  11  -119  -406  -765  -1019  -1109  -1108  -1068  -975  -842  -744  -751  -858  -982  -1048  -1068  -1088  -1112  -1130  -1137  -1120  -1055  -946  -840  -781  -763  -747  -702  -631  -567  -536  -531  -517  -462  -378  -310  -284  -286  -297  -304  -291  -238  -151  -57  14  53  62  55  41  19  -14  -67  -115  -112  -48  49  156  250  314  361  411  463  499  513  512  499  473  441  406  368  337  332  363  412  447  458  451  444  454  499  576  665  741  785  790  769  743  722  709  717  774  890  1027  1117  1122  1049  957  916  940  980  1003  1008  1003  995  994  1005  1013  1008  1023  1096  1199  1271  1292  1290  1293  1311  1346  1400  1460  1503  1523  1534  1547  1557  1538  1440  1204  847]
