reading_id,reading_time,wire_id,result_classification,heart_rate,heart_rate_alert,firmware_version,device_app_version,hardware_version,waveform_samples
53ef2060-617d-11ed-8080-808080808080,Fri Nov 11 04:57:22 UTC 2022,e101e3752439,NSR,71,NONE,20001.171.50,2.10.0,Charge 5,[21409  22060  22499  22675  22631  22336  21686  20764  19863  19157  18669  18432  18444  18645  18988  19370  19644  19827  20070  20374  20608  20813  21202  21796  22326  22389  21509  19379  16320  13245  11055  10066  9930  10128  10396  10698  11044  11425  11841  12362  13052  13739  14154  14497  15706  19071  25330  32767  32767  32767  32767  32767  32767  32767  32767  32767  32767  32767  32767  32767  32767  32767  32767  27718  21170  14036  5996  -3286  -13613  -24486  -32768  -32768  -32768  -32768  -32768  -32768  -32768  -32768  -32768  -32768  -32768  -32768  -32768  -32768  -32768  -32768  -32768  -32768  -32768  -32768  -32768  -32768  -32768  -32768  -32768  -32768  -32768  -32768  -32768  -32768  -32768  -32768  -32768  -32768  -32768  -32768  -32768  -32768  -32768  -32768  -32768  -32768  -32768  -32768  -32768  -32768  -32768  -32768  -28096  -23833  -22216  -21802  -21797  -21860  -21530  -20285  -18052  -15368  -12981  -11271  -9761  -7395  -3919  -583  1276  1670  1402  1010  669  468  463  633  897  1225  1704  2353  3048  3708  4358  5007  5556  5888  6022  6089  6163  6215  6213  6191  6248  6477  6881  7391  7903  8274  8431  8433  8362  8271  8242  8367  8654  9015  9336  9550  9730  10049  10593  11285  12028  12772  13488  14315  15690  18153  21994  26812  31374  32767  32767  32767  32767  32767  32767  32767  32767  32767  32767  32767  32767  32767  32767  32767  32767  32767  31700  29498  27795  26795  26224  25982  26380  27728  29622  31060  31358  30376  28347  26021  24328  23629  23655  24059  24650  25331  26137  27178  28361  29447  30478  31684  32767  32767  32767  32767  31538  28190  24931  22853  21798  21159  20660  20045  19225  18782  19293  20462  21504  21777  20581  17368  12927  9044  6622  5412  4953  4782  4543  4279  4199  4290  4349  4160  3631  2929  2322  1872  1503  1207  953  641  217  -281  -815  -1367  -1851  -2131  -2203  -2215  -2296  -2383  -2263  -1961  -1840  -2040  -2288  -2403  -2552  -2959  -3554  -4068  -4390  -4561  -4589  -4509  -4372  -4194  -3988  -3735  -3402  -3072  -2884  -2909  -3147  -3515  -3878  -4185  -4435  -4565  -4465  -4104  -3638  -3306  -3197  -3268  -3506  -3887  -4298  -4627  -4862  -5002  -4995  -4866  -4767  -4817  -5001  -5240  -5517  -5918  -6449  -6952  -7278  -7425  -7539  -7812  -8268  -8723  -9017  -9147  -9192  -9195  -9129  -8936  -8631  -8309  -8036  -7777  -7450  -7067  -6760  -6618  -6602  -6643  -6722  -6830  -6829  -6519  -5919  -5296  -4907  -4783  -4800  -4865  -4958  -5020  -4875  -4373  -3677  -3171  -3013  -3048  -3100  -3114  -3120  -3202  -3437  -3780  -4122  -4417  -4598  -4463  -3916  -3196  -2674  -2484  -2488  -2510  -2475  -2396  -2249  -1889  -1233  -474  105  462  818  1398  2106  2615  2805  2872  3017  3260  3490  3577  3333  2606  1629  916  670  669  640  460  164  -125  -317  -405  -432  -434  -388  -185  277  882  1315  1374  1113  735  421  150  -242  -821  -1396  -1678  -1704  -1822  -2000  -1636  -308  1808  4259  6414  7605  7542  6282  4057  1327  -1279  -3075  -3644  -3221  -2479  -1922  -1673  -1638  -1661  -1646  -1577  -1454  -1309  -1217  -1209  -1221  -1155  -987  -815  -758  -804  -844  -879  -1102  -1706  -2530  -3120  -3163  -2699  -2047  -1587  -1451  -1503  -1588  -1661  -1750  -1876  -2035  -2215  -2384  -2498  -2559  -2585  -2569  -2506  -2425  -2368  -2333  -2218  -1917  -1503  -1186  -1052  -1014  -987  -959  -935  -914  -917  -1008  -1233  -1527  -1765  -1892  -1943  -1957  -1931  -1874  -1891  -2191  -2904  -3788  -4372  -4488  -4322  -4053  -3767  -3543  -3394  -3224  -2925  -2542  -2274  -2233  -2348  -2537  -2769  -3012  -3194  -3216  -2982  -2464  -1796  -1254  -995  -952  -1030  -1221  -1522  -1872  -2193  -2434  -2597  -2716  -2796  -2791  -2655  -2431  -2209  -2017  -1807  -1554  -1283  -1027  -828  -693  -605  -603  -724  -873  -929  -876  -756  -618  -491  -321  -40  290  546  686  723  683  633  621  624  588  498  397  315  233  148  59  -60  -230  -439  -647  -799  -893  -999  -1178  -1404  -1604  -1750  -1838  -1864  -1829  -1748  -1646  -1506  -1270  -950  -651  -461  -357  -282  -254  -293  -385  -566  -806  -937  -916  -921  -1151  -1644  -2234  -2702  -2964  -3074  -3107  -3107  -3093  -3071  -3019  -2911  -2772  -2693  -2751  -2932  -3136  -3244  -3187  -3014  -2869  -2737  -2391  -1707  -646  808  2478  4187  5671  6311  5726  4134  1875  -615  -2649  -3743  -3887  -3239  -2037  -850  -304  -429  -754  -978  -1142  -1291  -1300  -1051  -653  -373  -333  -352  -167  257  706  973  1055  1049  1021  1001  987  960  926  942  1108  1487  1988  2416  2673  2834  3003  3175  3307  3459  3735  4102  4410  4598  4783  5104  5569  6092  6619  7225  7977  8727  9227  9450  9603  9830  10025  10032  9865  9652  9507  9451  9422  9389  9364  9335  9260  9050  8622  8004  7265  6314  5049  3657  2531  1915  1715  1661  1592  1520  1519  1636  1850  2071  2220  2291  2302  2264  2177  2022  1751  1347  911  617  515  516  535  566  665  872  1124  1319  1433  1455  1231  590  -285  -949  -1234  -1347  -1446  -1450  -1249  -921  -665  -573  -587  -620  -630  -611  -594  -624  -732  -926  -1166  -1355  -1391  -1243  -1025  -917  -957  -1037  -1073  -1071  -1068  -1112  -1243  -1442  -1626  -1739  -1791  -1777  -1586  -1102  -459  22  170  9  -410  -983  -1507  -1830  -1985  -2099  -2235  -2367  -2431  -2350  -2097  -1808  -1666  -1678  -1728  -1751  -1753  -1752  -1755  -1756  -1748  -1731  -1716  -1709  -1686  -1608  -1473  -1333  -1214  -1077  -922  -774  -646  -564  -537  -536  -533  -523  -523  -547  -583  -607  -624  -659  -732  -822  -888  -913  -912  -889  -839  -777  -751  -805  -953  -1169  -1387  -1532  -1582  -1579  -1554  -1428  -1078  -515  199  1166  2508  4106  5575  6468  6556  5835  4466  2867  1559  809  498  383  364  436  564  676  721  669  498  247  15  -122  -147  -48  175  461  702  809  700  325  -185  -548  -571  -277  135  428  524  508  460  389  290  195  123  0  -279  -634  -786  -576  -178  87  110  49  53  102  142  203  322  477  611  688  725  773  903  1154  1440  1580  1486  1260  1072  973  903  822  740  652  520  331  130  -6  -59  -67  -54  -1  104  204  186  24  -185  -321  -332  -261  -188  -134  -66  8  25  -62  -209  -293  -304  -391  -607  -831  -948  -901  -710  -476  -292  -186  -152  -184  -290  -448  -596  -685  -706  -662  -565  -456  -383  -359  -362  -376  -410  -469  -533  -567  -570  -567  -576  -618  -708  -829  -932  -971  -936  -864  -805  -783  -802  -864  -950  -1019  -1043  -1003  -885  -728  -609  -556  -549  -588  -706  -900  -1100  -1236  -1293  -1302  -1288  -1243  -1148  -1023  -936  -911  -889  -848  -816  -791  -778  -792  -817  -834  -852  -890  -961  -1052  -1108  -1064  -882  -576  -254  -56  -24  -96  -192  -250  -264  -271  -317  -390  -397  -287  -135  -22  45  83  97  94  82  75  108  216  371  482  464  299  62  -136  -263  -343  -371  -332  -259  -217  -233  -273  -308  -354  -427  -510  -556  -551  -551  -588  -623  -616  -587  -637  -839  -920  -350  1028  2833  4651  6256  7318  7476  6678  4998  2610  193  -1397  -1898  -1645  -1113  -698  -572  -652  -775  -852  -852  -739  -511  -253  -69  4  10  2  -16  -105  -307  -570  -783  -885  -893  -859  -831  -843  -871  -844  -744  -637  -592  -604  -596  -482  -235  57  255  327  363  438  522  561  592  705  914  1122  1237  1262  1251  1238  1226  1213  1209  1260  1404  1607  1773  1847  1825  1699  1479  1236  1042  907  815  767  752  733  675  559  398  231  102  44  56  82  36  -104  -275  -408  -487  -519  -523  -523  -534  -558  -574  -549  -449  -293  -126  38  190  285  286  198  73  -18  -42  -22  -2  -36  -152  -302  -401  -426  -415  -398  -371  -321  -259  -215  -206  -227  -273  -326  -363  -376  -375  -365  -341  -310  -295  -321  -393  -486  -570  -654  -778  -931  -1056  -1153  -1253  -1305  -1250  -1125  -989  -852  -737  -677  -668  -686  -717  -759  -807  -829  -803  -755  -726  -728  -755  -790  -818  -837  -851  -861  -866  -866  -870  -899  -970  -1063  -1121  -1094  -976  -820  -697  -634  -602  -582  -583  -605  -641  -691  -751  -803  -839  -867  -880  -831  -662  -395  -154  -58  -120  -245  -350  -416  -448  -461  -478  -502  -519  -521  -516  -529  -578  -652  -713  -750  -774  -800  -824  -836  -832  -834  -853  -885  -956  -1092  -1253  -1391  -1442  -1192  -334  1292  3436  5454  6736  6927  5896  3898  1606  -264  -1311  -1456  -922  -204  280  460  474  444  374  226  34  -129  -213  -164  53  348  528  496  331  159  39  -28  -48  -3  124  309  488  596  582  437  210  -11  -163  -246  -289  -296  -256  -175  -69  61  204  333  462  654  896  1103  1242  1365  1514  1663  1777  1878  2007  2151  2280  2400  2507  2570  2529  2338  2029  1717  1503  1415  1409  1386  1247  964  639  424  364  388  418  408  339  222  107  24  -47  -151  -309  -484  -606  -653  -666  -684  -722  -772  -807  -791  -700  -558  -421  -319  -251  -214  -199  -188  -180  -207  -286  -384  -453  -487  -515  -548  -577  -600  -618  -637  -653  -633  -511  -269  15  239  364  411  417  407  378  321  256  206  125  -65  -343  -584  -713  -749  -738  -705  -646  -547  -426  -325  -264  -242  -254  -290  -320  -303  -227  -111  11  107  157  164  152  144  160  190  204  189  163  145  127  99  50  -22  -88  -108  -106  -170  -355  -593  -757  -787  -715  -600  -500  -457  -535  -810  -1233  -1609  -1800  -1827  -1760  -1644  -1513  -1393  -1315  -1287  -1137  -505  841  2690  4466  5604  5800  5037  3601  1938  321  -1083  -2010  -2306  -2081  -1602  -1179  -955  -881  -903  -1014  -1166  -1263  -1268  -1222  -1184  -1168  -1145  -1077  -960  -844  -778  -766  -779  -768  -680  -506  -308  -169  -128  -192  -352  -534  -598  -471  -238  -56  6  -17  -90  -181  -250  -253  -143  83  343  527  607  612  587  617  737  862  925  957  1015  1103  1181  1218  1203  1141  1061  999  937  826  674  548  475  425  353  226  67  -48  -85  -74  -66  -105  -215  -383  -610  -927  -1286  -1542  -1627  -1618  -1609  -1625  -1620  -1486  -1134  -640  -220  -20  -20  -155  -373  -613  -817  -939  -931  -792  -558  -218  235  681  958  1038  1010  947  882  834  810  802  804  809  810  801  780  746  718  732  813  958  1145  1328  1452  1480  1384  1135  734  239  -271  -724  -1092  -1395  -1622  -1696  -1560  -1293  -1049  -896  -772  -610  -439  -356  -404  -511  -582  -577  -512  -434  -384  -369  -386  -433  -501  -565  -589  -513  -286  26  270  364  318  143  -124  -401  -608  -716  -734  -688  -581  -408  -219  -116  -148  -258  -358  -398  -349  -182  74  343  595  826  983  1007  894  698  498  319  135  -55  -208  -282  -285  -274  -330  -458  -575  -632  -669  -726  -793  -821  -786  -726  -719  -819  -976  -1132  -1208  -832  434  2520  4877  6795  7638  7161  5622  3585  1547  -196  -1358  -1743  -1519  -1070  -744  -740  -972  -1191  -1293  -1327  -1331  -1305  -1264  -1228  -1175  -1051  -860  -686  -599  -601  -661  -756  -866  -957  -972  -854  -626  -400  -278  -254  -255  -227  -169  -100  -21  65  135  182  217  258  341  495  691  865  981  1087  1251  1449  1591  1652  1690  1738  1778  1796  1802  1802  1777  1703  1588  1456  1310  1163  1055  1002  976  938  860  757  663  563  421  257  124  43  1  -46  -145  -282  -394  -451  -489  -565  -680  -787  -855  -889  -893  -846  -730  -586  -484  -450  -459  -495  -576  -699  -793  -767  -636  -507  -454  -457  -454  -421  -382  -362  -359  -362  -364  -369  -380  -394  -408  -418  -428  -433  -434  -445  -487  -558  -623  -661  -680  -689  -679  -610  -433  -182  21  69  -55  -272  -483  -617  -585  -393  -174  -18  80  130  103  -42  -292  -539  -685  -724  -707  -667  -583  -421  -205  -15  99  129  67  -77  -255  -391  -445  -416  -334  -253  -217  -253  -402  -643  -856  -965  -1003  -1011  -952  -772  -520  -330  -263  -276  -313  -356  -396  -421  -408  -339  -233  -137  -81  -54  -43  -54  -104  -185  -249  -260  -235  -204  -183  -170  -162  -177  -259  -408  -564  -663  -699  -699  -687  -670  -651  -638  -641  -670  -723  -784  -814  -780  -745  -760  -627  2  1327  3196  5115  6478  6903  6347  4951  3004  955  -729  -1696  -1857  -1443  -838  -410  -320  -442  -568  -616  -595  -521  -418  -325  -270  -253  -268  -312  -366  -405  -420  -420  -414  -403  -389  -368  -305  -163  27  173  226  200  112  -13  -124  -169  -122  11  194  401  639  869  995  979  898  851  873  925  976  1063  1244  1492  1715  1871  1985  2067  2107  2092  2003  1852  1676  1516  1401  1347  1336  1337  1316  1218  995  698  427  200  4  -129  -192  -245  -347  -450  -446  -333  -225  -206  -266  -343  -404  -448  -466  -464  -469  -476  -474  -477  -492  -510  -519  -519  -518  -517  -508  -500  -524  -586  -648  -679  -682  -671  -659  -651  -642  -617  -567  -500  -421  -322  -220  -166  -179  -220  -255  -274  -276  -250  -194  -124  -71  -47  -58  -119  -237  -384  -522  -624  -678  -692  -691  -680  -648  -581  -488  -404  -362  -373  -413  -441  -443  -455  -486  -507  -490  -436  -379  -354  -353  -353  -354  -393  -513  -684  -814  -849  -802  -708  -582  -411  -207  -57  -17  -14  16  13  -79  -215  -360  -530  -690  -753  -709  -634  -576  -527  -483  -457  -458  -478  -489  -421  -217  62  266  298  169  -45  -242  -360  -414  -433  -435  -418  -380  -336  -326  -369  -437  -481  -485  -462  -438  -424  -415  -404  -390  -404  -496  -673  -829  -813  -480  354  1801  3679  5548  6871  7191  6371  4672  2534  455  -1090  -1890  -2000  -1656  -1236  -1003  -945  -953  -950  -914  -853  -782  -716  -656  -590  -520  -453  -402  -372  -350  -301  -212  -133  -118  -138  -144  -152  -155  -114  -53  -13  31  118  223  272  247  216  233  268  275  267  297  399  556  712  850  1003  1174  1325  1434  1514  1566  1573  1572  1664  1866  2063  2168  2218  2263  2266  2145  1874  1537  1258  1097  1040  1038  1027  949  798  635  510  416  309  164  4  -122  -184  -193  -190  -211  -258  -314  -378  -470  -593  -707  -770  -781  -774  -773  -775  -737  -610  -413  -227  -114  -71  -68  -83  -106  -131  -158  -206  -294  -400  -477  -507  -499  -465  -413  -359  -321  -322  -402  -579  -787  -906  -874  -729  -565  -461  -428  -447  -507  -608  -750  -880  -908  -832  -713  -588  -509  -513  -562  -606  -624  -618  -602  -571  -508  -414  -315  -235  -174  -135  -140  -193  -273  -354  -429  -510  -579  -548  -310  111  531  788  859  759  487  133  -129  -228  -235  -244  -312  -457  -632  -760  -810  -803  -741  -606  -437  -326  -341  -477  -674  -850  -995  -1116  -1075  -650  298  1820  3790  5771  7175  7505  6519  4445  1934  -316  -1778  -2176  -1666  -804  -171  -5  -183  -496  -823  -1087  -1250  -1328  -1355  -1340  -1260  -1101  -918  -791  -738  -729  -767  -885  -1068  -1230  -1304  -1309  -1312  -1361  -1450  -1499  -1388  -1041  -539  -99  126  183  228  350  477  479  358  251  264  379  508  590  656  779  989  1239  1452  1567  1593  1585  1584  1593  1576  1477  1287  1074  920  820  706  567  460  415  412  422  426  408  356  259  117  -30  -152  -278  -430  -571  -663  -710  -734  -745  -732  -697  -662  -641  -625  -605  -574  -538  -510  -498  -488  -462  -423  -390  -377  -381  -393  -404  -408  -399  -378  -349  -318  -306  -318  -336  -345  -351  -363  -394  -447  -515  -564  -537  -429  -331  -306  -334  -379  -411  -409  -374  -342  -346  -377  -409  -439  -471  -516  -583  -652  -689  -690  -686  -714  -799  -923  -1022  -1034  -935  -754  -559  -418  -354  -345  -355  -367  -380  -384  -339  -209  -6  203  338  328  175  -62  -334  -594  -773  -833  -784  -654  -483  -305  -90  214  549  771  820  752  649  561  505  462  367  127  -250  -634  -915  -1079  -1130  -1084  -985  -860  -675  -406  -111  136  306  387  357  215  -18  -365  -766  -893  -344  1023  3018  5162  6815  7473  7027  5718  3945  2087  416  -835  -1500  -1573  -1210  -692  -327  -234  -302  -408  -540  -692  -812  -864  -850  -765  -601  -404  -253  -168  -112  -54  5  58  86  30  -189  -549  -887  -1071  -1120  -1102  -1008  -795  -520  -314  -219  -153  -32  179  459  729  947  1150  1350  1488  1532  1524  1507  1500  1504  1520  1537  1538  1567  1673  1764  1726  1610  1537  1540  1582  1608  1592  1514  1330  1049  781  627  572  530  434  273  67  -151  -339  -459  -501  -494  -464  -423  -379  -340  -312  -299  -303  -328  -382  -457  -522  -558  -567  -561  -547  -520  -470  -402  -338  -293  -271  -264  -260  -252  -240  -221  -202  -200  -229  -277  -317  -335  -337  -347  -379  -426  -457  -451  -407  -343  -272  -193  -112  -35  40  110  155  153  107  46  -2  -31  -57  -105  -200  -328  -436  -526  -653  -796  -816  -610  -274  -12  81  42  -95  -300  -492  -604  -642  -647  -640  -626  -634  -728  -954  -1236  -1408  -1393  -1251  -1088  -986  -978  -1040  -1123  -1180  -1199  -1198  -1190  -1172  -1133  -1067  -980  -887  -788  -691  -621  -585  -582  -637  -790  -1003  -1157  -1158  -994  -755  -591  -572  -635  -696  -724  -730  -741  -766  -799  -839  -870  -863  -783  -594  -325  -72  109  257  435  633  788  865  831  584  83  -493  -878  -965  -790  -409  48  396  516  414  173  -89  -275  -369  -416  -441  -463  -545  -759  -1111  -1513  -1816  -1877  -1628  -1055  -95  1304  3017  4750  6193  6987  6710  5298  3309  1482  307  -24  225  456  354  110  -44  -120  -197  -286  -346  -339  -239  -48  172  327  387  390  382  372  362  360  354  297  141  -89  -324  -494  -558  -507  -378  -192  58  307  436  456  456  444  400  325  221  124  72  52  38  31  50  136  345  715  1216  1693  1977  2047  2001  1913  1794  1625  1374  1056  787  685  732  840  966  1094  1182  1199  1145  1042  938  875  854  849  847  843  793  629  336  5  -237  -347  -364  -326  -221  -47  132  251  305  324  315  272  193  85  -31  -124  -164  -154  -148  -203  -364  -645  -977  -1237  -1371  -1407  -1373  -1260  -1084  -900  -757  -663  -622  -668  -826  -1040  -1208  -1272  -1234  -1107  -940  -816  -771  -773  -785  -791  -786  -768  -745  -727  -718  -714  -726  -781  -883  -994  -1064  -1087  -1072  -1021  -940  -860  -813  -791  -771  -754  -751  -755  -752  -743  -747  -782  -852  -913  -899  -807  -704  -638  -610  -601  -601  -616  -663  -734  -788  -769  -638  -414  -186  -34  26  -4  -144  -376  -614  -782  -874  -926  -925  -841  -700  -581  -527  -512  -462  -335  -207  -214  -365  -516  -545  -436  -263  -126  -64  -55  -70  -102  -170  -312  -569  -946  -1355  -1669  -1855  -1928  -1803  -1335  -367  1241  3400  5602  7088  7237  5884  3498  973  -931  -1859  -1904  -1570  -1273  -1040  -820  -625  -420  -206  -38  80  189  271  252  105  -101  -273  -360  -375  -354  -318  -274  -214  -129  -53  -30  -50  -73  -87  -92  -72  -1  114  230  308  346  353  345  361  452  624  821  983  1106  1228  1385  1566  1737  1882  2001  2073  2060  1936  1731  1532  1413  1391  1470  1658  1916  2141  2234  2110  1717  1165  712  513  505  552  559  472  292  78  -99  -214  -270  -298  -339  -398  -441  -454  -461  -492  -535  -517  -393  -273  -380  -809  -1406  -1943  -2265  -2318  -2183  -1999  -1810  -1580  -1303  -1036  -849  -779  -800  -855  -877  -818  -668  -475  -302  -185  -140  -180  -276  -387  -515  -671  -828  -952  -1022  -1018  -923  -732  -462  -163  79  205  214  147  43  -63  -137  -164  -164  -173  -212  -286  -374  -436  -458  -460  -465  -470  -455  -425  -420  -455  -489  -463  -342  -137  72  194  183  63  -74  -129  -82  8  110  219  316  390  441  467  453  377  239  74  -66  -159  -217  -258  -276  -275  -269  -306  -405  -478  -451  -396  -411  -472  -505  -512  -566  -731  -934  -892  -220  1295  3473  5741  7362  7744  6730  4722  2445  507  -796  -1435  -1598  -1538  -1363  -1094  -807  -596  -493  -473  -495  -534  -579  -605  -587  -526  -470  -474  -534  -614  -707  -787  -789  -650  -376  -81  100  151  139  121  113  110  107  105  119  166  245  326  379  417  484  615  805  987  1106  1175  1239  1296  1312  1280  1260  1338  1540  1784  1952  2009  1998  1969  1942  1917  1879  1796  1643  1437  1234  1078  970  862  700  497  328  234  154  6  -198  -381  -486  -510  -491  -507  -592  -699  -757  -736  -665  -603  -553  -468  -341  -235  -210  -248  -299  -343  -380  -400  -378  -306  -229  -229  -341  -525  -702  -808  -833  -797  -707  -559  -389  -251  -155  -101  -111  -191  -299  -383  -424  -469  -604  -851  -1122  -1321  -1434  -1498  -1539  -1572  -1605  -1619  -1588  -1507  -1377  -1225  -1110  -1053  -1033  -1016  -985  -957  -971  -1055  -1178  -1273  -1311  -1306  -1225  -978  -548  -69  289  446  390  144  -190  -448  -552  -534  -434  -260  -30  204  367  419  368  245  106  14  -19  -20  0  49  109  142  127  48  -134  -425  -738  -961  -1053  -1052  -1004  -940  -879  -829  -793  -772  -761  -746  -738  -784  -936  -1159  -1341  -1391  -1297  -1128  -962  -792  -572  -295  9  287  487  599  599  405  37  -261  -199  417  1678  3438  5281  6776  7577  7364  6059  4018  1851  148  -705  -749  -430  -158  -13  28  -45  -184  -301  -372  -413  -429  -401  -284  -80  137  294  382  420  425  394  317  205  101  38  21  53  145  279  396  441  400  299  191  130  132  171  222  298  449  711  1012  1181  1118  885  649  530  521  578  750  1099  1533  1850  1968  1966  1939  1914  1872  1793  1651  1407  1088  815  678  637  591  470  277  88  -32  -97  -162  -274  -456  -660  -770  -720  -565  -416  -341  -338  -391  -493  -632  -776  -870  -879  -824  -763  -738  -744  -740  -706  -669  -660  -672  -677  -659  -636  -634  -653  -684  -717  -744  -754  -719  -610  -452  -320  -259  -261  -298  -349  -409  -467  -504  -518  -540  -591  -644  -649  -611  -581  -583  -604  -632  -656  -666  -664  -656  -645  -630  -604  -571  -545  -542  -572  -624  -647  -606  -537  -496  -489  -497  -504  -513  -543  -605  -667  -687  -674  -661  -639  -546  -316  0  250  344  334  325  344  342  292  204  76  -114  -370  -630  -797  -849  -842  -826  -800  -747  -673  -601  -549  -520  -511  -521  -555  -608  -643  -588  -386  -91  155  268  268  227  202  204  214  229  240  213  100  -92  -281  -388  -427  -461  -519  -587  -647  -687  -700  -685  -654  -614  -561  -482  -328  0  521  974  899  236  -337  -33  1396  3616  5788  7016  6956  5786  3920  1907  208  -977  -1553  -1572  -1362  -1201  -1099  -1005  -943  -955  -1022  -1079  -1077  -1032  -991  -969  -932  -868  -809  -782  -785  -797  -790  -754  -708  -686  -674  -616  -511  -446  -490  -599  -661  -592  -405  -193  -46  9  -5  -39  -33  26  109  187  262  378  564  766  887  926  1016  1302  1755  2182  2450  2594  2711  2837  2938  2979  2928  2748  2460  2141  1841  1590  1419  1280  1059  734  401  150  0  -86  -165  -284  -479  -708  -868  -911  -881  -833  -795  -765  -739  -732  -757  -792  -789  -706  -561  -408  -259  -44  306  724  1033  1147  1073  807  376  -81  -413  -574  -633  -666  -690  -696  -690  -693  -740  -852  -986  -1043  -964  -802  -665  -603  -588  -572  -535  -492  -467  -466  -467  -437  -348  -200  -45  51  63  8  -78  -157  -204  -218  -232  -269  -317  -364  -418  -479  -532  -563  -568  -559  -546  -540  -540  -544  -539  -514  -460  -388  -316  -267  -246  -238  -234  -245  -295  -387  -485  -545  -557  -533  -472  -378  -284  -228  -229  -291  -401  -513  -578  -587  -562  -529  -508  -514  -553  -609  -658  -674  -631  -508  -338  -204  -145  -134  -123  -84  -4  100  192  248  283  299  253  89  -164  -381  -464  -440  -406  -410  -409  -349  -261  -211  -208  -215  -215  -227  -289  -419  -615  -834  -943  -795  -245  924  2671  4496  5907  6608  6347  5149  3401  1469  -288  -1375  -1605  -1249  -628  -88  36  -214  -542  -771  -877  -891  -845  -753  -641  -550  -500  -481  -476  -460  -403  -295  -162  -60  -45  -124  -277  -504  -762  -939  -962  -829  -595  -361  -208  -139  -114  -104  -95  -91  -105  -154  -228  -283  -271  -155  42  240  372  468  619  871  1161  1377  1471  1485  1471  1453  1434  1409  1376  1346  1316  1279  1254  1247  1185  950  516  46  -248  -328  -289  -212  -129  -64  -27  -20  -53  -140  -282  -449  -585  -662  -686  -678  -667  -693  -785  -918  -1028  -1072  -1021  -840  -538  -169  217  545  727  759  701  605  506  416  326  222  79  -122  -325  -459  -514  -526  -543  -595  -645  -631  -562  -511  -534  -635  -795  -984  -1145  -1213  -1163  -1030  -868  -719  -587  -446  -294  -187  -152  -158  -170  -167  -131  -42  84  171  144  39  -38  -55  -49  -43  -17  58  164  242  247  177  67  -36  -118  -184  -235  -272  -297  -294  -263  -226  -217  -281  -443  -649  -793  -835  -819  -793  -765  -721  -678  -657  -601  -380  42  502  791  872  825  702  534  379  284  237  196  132  52  -35  -169  -384  -651  -918  -1170  -1392  -1539  -1589  -1545  -1413  -1251  -1133  -1057  -975  -840  -648  -559  -749  -1067  -1058  -307  1292  3501  5824  7589  8233  7602  5805  3226  687  -1105  -1990  -2134  -1910  -1657  -1449  -1300  -1263  -1303  -1329  -1293  -1216  -1140  -1082  -1031  -978  -906  -775  -570  -348  -204  -179  -229  -283  -313  -340  -383  -424  -423  -383  -351  -336  -269  -64  249  536  709  794  839  857  851  836  827  827  834  852  882  919  954  996  1071  1174  1264  1324  1368  1433  1559  1730  1864  1883  1772  1573  1366  1216  1136  1111  1152  1278  1450  1583  1629  1581  1410  1074  599  97  -311  -565  -690  -752  -765  -693  -542  -385  -309  -340  -425  -508  -600  -754  -996  -1269  -1474  -1575  -1619  -1628  -1532  -1257  -883  -606  -504  -502  -537  -605  -673  -679  -613  -519  -411  -291  -177  -93  -42  -19  -15  -21  -26  -10  43  125  203  256  278  256  179  66  -59  -202  -337  -394  -347  -264  -225  -264  -384  -577  -796  -990  -1139  -1186  -1053  -766  -470  -291  -234  -235  -248  -256  -258  -261  -293  -407  -630  -885  -1042  -1059  -984  -854  -705  -596  -548  -542  -560  -598  -654  -716  -818  -1053  -1399  -1620  -1405  -506  1068  3003  4857  6176  6591  5975  4415  2223  -41  -1785  -2584  -2322  -1425  -608  -270  -330  -509  -629  -704  -792  -866  -860  -778  -688  -623  -569  -518  -461  -404  -388  -430  -447  -346  -162  -16  29  10  -15  -26  -36  -82  -193  -366  -566  -733  -822  -833  -803  -758  -686  -534  -274  44  315  463  505  503  500  526  625  820  1065  1286  1446  1530  1537  1513  1507  1499  1427  1243  997  807  727  710  708  710  697  619  452  255  126  85  77  54  20  -11  -53  -105  -150  -184  -210  -228  -233  -204  -115  8  108  147  120  30  -74  -93  37  254  423  473  420  290  132  18  -19  3  69  155  212  183  45  -143  -280  -326  -318  -308  -324  -366  -409  -428  -415  -388  -364  -346  -335  -353  -424  -525  -595  -592  -512  -388  -258  -133  -6  104  155  115  -9  -189  -376  -490  -442  -183  203  526  659  580  284  -173  -623  -912  -1035  -1067  -1066  -1062  -1088  -1150  -1176  -1119  -1052  -1052  -1090  -1118  -1128  -1126  -1106  -1064  -1071  -1270  -1668  -2045  -2172  -1901  -1077  436  2516  4748  6636  7622  7247  5552  3111  705  -954  -1572  -1471  -1207  -1089  -1134  -1247  -1337  -1366  -1317  -1167  -907  -596  -337  -190  -159  -257  -482  -747  -926  -982  -969  -927  -856  -737  -555  -309  -41  163  259  274  269  284  337  421  504  555  570  560  532  488  457  480  562  674  783  877  963  1047  1116  1136  1087  1003  962  1015  1139  1295  1450  1537  1518  1453  1413  1410  1427  1439  1408  1304  1155  1024  931  812  607  347  135  17  -44  -104  -190  -331  -513  -666  -744  -767  -772  -766  -735  -677  -616  -583  -611  -718  -869  -977  -959  -797  -565  -401  -410  -601  -873  -1065  -1075  -915  -688  -529  -513  -623  -782  -893  -890  -765  -571  -389  -250  -152  -111  -145  -231  -319  -382  -433  -485  -511  -483  -431  -403  -422  -495  -601  -712  -815  -904  -961  -962  -897  -773  -631  -525  -470  -442  -409  -361  -298  -208  -87  55  184  259  250  151  -7  -159  -269  -358  -440  -499  -525  -529  -538  -566  -606  -633  -639  -642  -678  -765  -876  -962  -1016  -1080  -1195  -1326  -1352  -1206  -966  -661  -135  800  2186  3891  5578  6757  7001  6121  4285  2005  -126  -1658  -2325  -2165  -1523  -816  -367  -237  -235  -217  -200  -198  -164  -70  58  174  248  285  288  202  -21  -317  -526  -568  -479  -341  -217  -115  -29  24  31  -7  -87  -192  -295  -365  -397  -401  -362  -242  -34  190  340  392  385  374  415  538  700  812  843  827  820  877  1035  1261  1461  1578  1626  1651  1678  1693  1675  1610  1480  1294  1093  902  734  613  549  540  549  477  220  -179  -543  -743  -794  -782  -774  -795  -834  -863  -875  -878  -881  -869  -811  -671  -458  -246  -112  -67  -65  -70  -70  -71  -84  -116  -157  -188  -215  -270  -365  -446  -423  -282  -117  -21  -1  -6  -2  7  -17  -124  -307  -518  -714  -855  -901  -878  -885  -972  -1075  -1124  -1132  -1136  -1143  -1107  -964  -715  -451  -276  -219  -252  -318  -348  -304  -211  -110  0  120  206  184  4  -288  -556  -690  -689  -606  -495  -406  -358  -351  -389  -482  -627  -772  -807  -631  -273  98  337  435  456  450  440  434  433  447  478  495  459  364  210  4  -188  -275  -231  -119  -25  13  -10  -121  -319  -543  -715  -749  -582  -336  -240  -215  233  1539  3634  5930  7582  7938  6891  4874  2577  585  -775  -1455  -1618  -1438  -1074  -789  -716  -679  -538  -372  -259  -193  -159  -146  -144  -154  -190  -247  -279  -243  -159  -67  11  77  133  154  119  64  34  34  50  58  32  -45  -147  -211  -203  -141  -44  85  218  305  331  322  310  325  397  533  705  872  1016  1161  1319  1445  1505  1516  1493  1404  1208  937  704  585  560  581  635  722  806  832  770  600  310  -18  -243  -318  -309  -283  -264  -252  -244  -245  -268  -321  -396  -477  -556  -611  -593  -482  -324  -191  -126  -121  -152  -207  -290  -415  -581  -769  -970  -1161  -1286  -1284  -1119  -821  -518  -322  -230  -176  -123  -73  -33  0  40  86  124  138  119  55  -44  -133  -177  -182  -175  -172  -178  -200  -248  -318  -416  -562  -732  -854  -890  -848  -722  -475  -109  259  492  529  348  -47  -509  -822  -941  -977  -1033  -1119  -1170  -1134  -1033  -905  -778  -697  -710  -831  -1007  -1129  -1095  -867  -538  -269  -142  -123  -154  -222  -359  -576  -790  -886  -829  -698  -594  -555  -554  -573  -625  -715  -813  -867  -858  -843  -894  -1040  -1227  -1363  -1451  -1574  -1693  -1556  -937  194  1717  3275  4382  4823  4671  3996  2813  1256  -417  -1881  -2768  -2874  -2378  -1733  -1303  -1164  -1222  -1380  -1586  -1767  -1817  -1735  -1637  -1601  -1612  -1630  -1641  -1659  -1701  -1790  -1935  -2092  -2195  -2226  -2219  -2192  -2122  -1976  -1784  -1634  -1577  -1607  -1711  -1859  -1989  -2032  -1878  -1446  -869  -432  -273  -381  -758  -1326  -1850  -2144  -2231  -2231  -2197  -2080  -1816  -1418  -991  -673  -559  -648  -842  -1034  -1186  -1312  -1437  -1588  -1769  -1964  -2195  -2502  -2843  -3102  -3231  -3162  -2479  -610  2209  4765  6084  6125  5423  4696  4427  4525  4596  4393  3873  3223  2786  2707  2848  2970  2904  2670  2457  2425  2497  2482  2314  2086  1939  1916  1941  1945  1925  1901  1863  1777  1622  1438  1304  1236  1194  1154  1127  1119  1120  1120  1121  1126  1135  1144  1143  1110  1022  904  820  800  825  862  890  909  916  881  767  590  435  360  354  375  395  407  411  408  400  397  425  514  669  836  934  937  891  848  825  812  791  738  631  438  144  -167  -355  -373  -303  -239  -212  -213  -241  -306  -389  -451  -476  -471  -432  -348  -259  -266  -463  -735  -741  -189  1038  2882  4936  6523  7133  6639  5179  3118  1029  -557  -1397  -1552  -1287  -929  -708  -673  -728  -772  -783  -783  -787  -791  -763  -677  -556  -458  -411  -412  -459  -532  -585  -596  -573  -541  -510  -475  -434  -403  -403  -439  -488  -519  -521  -504  -474  -400  -217  71  348  502  536  513  461  379  307  320  455  666  869  979  976  955  1027  1181  1324  1404  1442  1471  1512  1569  1591  1495  1267  996  786  666  582  442  195  -108  -347  -454  -466  -463  -488  -532  -561  -580  -639  -769  -933  -1056  -1109  -1118  -1106  -1063  -971  -851  -756  -719  -722  -732  -738  -748  -760  -766  -762  -751  -740  -729  -724  -750  -833  -956  -1044  -1030  -894  -675  -451  -291  -238  -295  -403  -488  -539  -580  -610  -615  -614  -622  -629  -628  -623  -627  -644  -664  -679  -683  -671  -654  -650  -671  -748  -888  -1014  -1034  -927  -759  -610  -502  -425  -392  -400  -426  -462  -501  -536  -558  -572  -579  -574  -548  -506  -459  -437  -458  -499  -530  -545  -551  -552  -550  -550  -551  -555  -558  -547  -507  -448  -401  -389  -411  -450  -468  -434  -368  -313  -286  -257  -190  -90  -9  27  33  26  17  7  1  11  37  63  65  42  16  4  -1  -20  -43  -63  -118  -256  -436  -557  -581  -558  -539  -534  -536  -539  -538  -528  -524  -580  -757  -972  -953  -394  871  2747  4827  6524  7288  6889  5486  3447  1286  -454  -1459  -1709  -1419  -939  -529  -257  -102  -30  -11  -49  -159  -311  -431  -485  -493  -485  -472  -457  -433  -397  -351  -292  -216  -151  -128  -149  -193  -226  -224  -192  -157  -145  -148  -146  -137  -115  -48  77  222  322  346  323  296  296  359  539  847  1204  1479  1599  1597  1559  1538  1530  1524  1542  1609  1704  1771  1783  1751  1692  1590  1424  1227  1070  972  897  796  633  438  290  207  141  64  -27  -139  -251  -337  -408  -501  -618  -710  -723  -667  -594  -525  -445  -343  -242  -198  -252  -383  -521  -608  -652  -706  -780  -833  -817  -733  -632  -543  -472  -429  -411  -380  -318  -274  -310  -414  -511  -558  -570  -573  -573  -557  -515  -459  -419  -407  -413  -423  -426  -403  -336  -244  -177  -158  -176  -212  -245  -263  -266  -266  -277  -308  -364  -441  -513  -542  -508  -437  -371  -329  -295  -263  -243  -235  -229  -226  -233  -243  -246  -244  -256  -310  -413  -527  -604  -633  -626  -583  -501  -408  -346  -328  -337  -356  -377  -387  -370  -320  -257  -212  -196  -197  -211  -242  -285  -322  -343  -351  -350  -337  -307  -262  -225  -213  -215  -217  -220  -228  -237  -242  -244  -249  -255  -233  -160  -51  42  81  67  34  16  35  100  187  251  279  287  277  213  60  -165  -397  -565  -643  -660  -656  -655  -645  -600  -510  -409  -333  -275  -225  -276  -540  -901  -952  -232  1377  3504  5546  6956  7378  6717  5141  3071  1025  -582  -1457  -1529  -1114  -647  -342  -245  -325  -462  -556  -576  -532  -472  -434  -413  -399  -391  -391  -393  -395  -394  -392  -393  -407  -439  -470  -465  -428  -405  -417  -434  -401  -302  -174  -62  22  91  151  189  192  166  127  102  148  309  541  757  899  956  958  972  1063  1232  1414  1555  1651  1714  1753  1774  1775  1745  1688  1605  1473  1271  1042  862  757  695  639  561  431  260  102  -12  -112  -232  -372  -502  -605  -683  -745  -798  -833  -795  -634  -401  -218  -146  -181  -344  -628  -910  -1045  -1025  -950  -885  -818  -733  -643  -579  -559  -588  -652  -721  -763  -777  -779  -772  -746  -697  -644  -611  -599  -591  -566  -506  -427  -369  -349  -357  -376  -397  -410  -410  -412  -440  -509  -592  -660  -683  -617  -489  -397  -379  -396  -409  -413  -414  -421  -440  -470  -484  -451  -373  -297  -286  -361  -467  -521  -483  -388  -296  -236  -210  -214  -250  -319  -410  -487  -478  -334  -107  85  180  186  130  46  -25  -57  -46  0  76  170  235  239  174  46  -105  -218  -294  -394  -516  -582  -544  -431  -320  -281  -324  -406  -505  -620  -719  -773  -839  -942  -879  -287  1056  3019  5085  6523  6789  5849  4100  2172  655  -262  -722  -897  -955  -990  -966  -879  -788  -707  -643  -607  -580  -544  -494  -434  -377  -326  -281  -252  -254  -282  -310  -318  -304  -272  -225  -179  -149  -140  -143  -151  -160  -153  -109  -40  9  13  -4  -2  62  210  418  621  773  869  921  942  949  976  1056  1190  1351  1518  1661  1741  1761  1752  1738  1723  1711  1706  1706  1691  1630  1507  1326  1112  927  833  797  703  458  92  -248  -441  -492  -490  -503  -553  -628  -695  -710  -653  -558  -485  -459  -471  -508  -554  -585  -570  -490  -375  -294  -313  -454  -654  -795  -790  -636  -419  -265  -243  -328  -449  -537  -570  -563  -518  -425  -303  -205  -178  -226  -304  -368  -414  -459  -517  -579  -601  -555  -482  -442  -440  -442  -428  -410  -413  -425  -397  -322  -253  -261  -372  -512  -571  -535  -458  -387  -358  -381  -423  -453  -465  -470  -483  -486  -431  -307  -172  -90  -100  -185  -300  -383  -389  -331  -269  -235  -222  -221  -234  -262  -297  -343  -414  -501  -563  -578  -557  -521  -469  -384  -273  -154  -20  121  219  240  204  153  118  105  95  87  110  200  333  425  418  308  122  -105  -311  -415  -414  -380  -362  -345  -285  -175  -104  -190  -398  -540  -493  -359  -384  -639  -911  -937  -487  595  2238  4109  5718  6588  6484  5409  3572  1490  -199  -1156  -1398  -1156  -814  -671  -691  -705  -679  -667  -673  -669  -624  -521  -375  -236  -160  -166  -240  -338  -410  -445  -474  -511  -543  -561  -561  -546  -520  -464  -352  -214  -106  -45  -18  -18  -29  -20  46  183  345  464  520  544  565  583  593  599  629  710  832  968  1113  1246  1364  1484  1568  1553  1444  1300  1165  1045  945  868  826  853  921  940  890  805  707  597  455  249  -8  -251  -424  -541  -633  -705  -730  -693  -616  -541  -484  -432  -380  -359  -432  -622  -850  -1017  -1100  -1106  -1040  -943  -872  -838  -809  -763  -711  -674  -655  -646  -641  -639  -637  -634  -634  -647  -669  -682  -679  -664  -648  -632  -609  -579  -560  -564  -577  -561  -498  -405  -304  -212  -155  -159  -224  -320  -399  -435  -439  -416  -362  -288  -232  -216  -247  -319  -382  -368  -269  -156  -101  -116  -161  -190  -196  -198  -196  -192  -198  -209  -224  -251  -291  -356  -462  -584  -667  -682  -651  -611  -575  -521  -418  -273  -130  -40  -27  -57  -72  -56  -47  -105  -206  -251  -179  -14  190  366  470  511  479  307  -36  -423  -670  -735  -710  -683  -697  -765  -865  -937  -922  -783  -548  -297  -113  -104  -349  -733  -922  -564  496  2147  4070  5794  6806  6803  5794  4062  2119  478  -565  -992  -1054  -1049  -1070  -1077  -1049  -983  -868  -706  -535  -414  -358  -340  -329  -304  -278  -301  -414  -579  -705  -757  -772  -773  -733  -616  -439  -270  -143  -39  39  74  70  24  -56  -122  -127  -69  9  76  160  311  498  638  696  702  710  781  936  1110  1241  1379  1562  1706  1760  1773  1777  1767  1749  1740  1746  1749  1730  1686  1600  1439  1199  926  675  468  317  219  151  80  -4  -98  -204  -339  -500  -647  -731  -728  -652  -538  -482  -569  -767  -962  -1050  -1000  -856  -685  -540  -454  -426  -430  -438  -441  -438  -434  -435  -445  -456  -455  -446  -455  -511  -607  -706  -782  -804  -757  -693  -686  -760  -872  -955  -988  -988  -965  -905  -808  -691  -567  -475  -476  -553  -608  -578  -507  -477  -509  -578  -669  -763  -805  -757  -639  -510  -413  -356  -329  -314  -305  -306  -317  -332  -361  -424  -505  -523  -377  -52  323  590  710  745  733  615  305  -134  -489  -621  -577  -476  -398  -360  -338  -306  -272  -284  -378  -511  -600  -626  -645  -716  -808  -813  -742  -731  -685  -194  1022  2850  4864  6429  6935  6175  4406  2120  -120  -1782  -2535  -2402  -1700  -910  -447  -394  -529  -629  -649  -635  -623  -621  -617  -600  -583  -586  -617  -657  -667  -630  -561  -461  -336  -228  -177  -170  -160  -114  -44  13  41  53  64  93  152  225  289  334  365  388  393  383  387  437  546  705  883  1052  1195  1305  1395  1501  1645  1795  1890  1912  1908  1937  2014  2060  1959  1665  1274  958  817  808  836  856  868  861  765  501  128  -178  -333  -386  -396  -392  -388  -393  -419  -480  -585  -720  -862  -982  -1054  -1053  -950  -754  -542  -407  -366  -382  -444  -552  -671  -750  -772  -749  -695  -626  -543  -437  -334  -287  -311  -373  -440  -498  -552  -603  -636  -643  -632  -621  -634  -691  -779  -859  -892  -843  -689  -483  -330  -268  -249  -226  -192  -150  -91  -6  71  89  58  21  -26  -98  -173  -239  -335  -508  -721  -871  -903  -842  -741  -639  -554  -486  -431  -390  -359  -324  -299  -382  -650  -1045  -1399  -1440  -851  520  2515  4624  6181  6661  5905  4153  1922  -198  -1775  -2574  -2566  -2014  -1330  -847  -686  -728  -799  -846  -887  -911  -897  -846  -781  -746  -765  -799  -797  -752  -684  -611  -545  -480  -416  -366  -316  -233  -117  -13  47  84  126  172  201  194  152  92  35  -15  -61  -80  -57  4  118  329  617  869  1033  1173  1328  1450  1512  1560  1643  1750  1841  1873  1820  1686  1529  1420  1373  1359  1351  1321  1230  1069  857  605  318  35  -185  -319  -393  -445  -467  -449  -424  -423  -461  -544  -674  -817  -922  -969  -972  -933  -836  -710  -614  -577  -583  -623  -702  -798  -864  -887  -889  -893  -888  -830  -696  -532  -423  -393  -392  -369  -328  -344  -463  -618  -709  -711  -654  -590  -565  -600  -676  -731  -712  -627  -533  -476  -462  -464  -465  -464  -460  -447  -430  -417  -413  -411  -405  -397  -397  -402  -378  -299  -189  -99  -53  -37  -28  -23  -30  -54  -117  -255  -453  -634  -731  -754  -752  -745  -716  -652  -593  -608  -717  -889  -1122  -1389  -1530  -1341  -681  491  2023  3630  5060  6082  6442  5982  4756  3026  1225  -218  -1102  -1460  -1427  -1146  -802  -576  -501  -495  -496  -496  -511  -549  -597  -630  -608  -496  -307  -129  -48  -75  -180  -337  -518  -652  -669  -587  -488  -425  -401  -385  -326  -180  19  177  241  240  217  187  149  109  83  95  164  313  556  857  1129  1303  1381  1404  1404  1398  1388  1375  1365  1360  1357  1359  1378  1421  1462  1450  1370  1266  1180  1091  917  602  219  -82  -231  -264  -246  -224  -230  -298  -444  -648  -861  -1020  -1078  -1004  -791  -504  -271  -180  -226  -359  -532  -695  -794  -812  -765  -684  -604  -543  -494  -460  -454  -474  -494  -471  -402  -338  -315  -324  -343  -378  -455  -573  -697  -796  -850  -849  -794  -700  -593  -501  -456  -479  -561  -630  -593  -452  -291  -174  -102  -58  -26  -19  -54  -112  -156  -170  -161  -148  -146  -157  -190  -270  -404  -553  -658  -705  -725  -748  -765  -762  -741  -682  -550  -382  -301  -391  -604  -825  -990  -1079  -1032  -744  -88  1082  2778  4689  6265  6961  6469  4905  2753  587  -1073  -1870  -1858  -1435  -973  -701  -686  -788  -819  -721  -567  -457  -438  -489  -559  -608  -636  -667  -704  -711  -660  -578  -519  -500  -496  -480  -450  -408  -347  -277  -217  -169  -122  -77  -53  -70  -132  -199  -196  -85  77  191  244  328  525  786  983  1055  1050  1032  1037  1074  1127  1183  1234  1266  1278  1296  1318  1317  1282  1217  1130  1036  942  845  733  601  479  408  383  340  217  27  -158  -300  -417  -533  -628  -673  -680  -687  -706  -713  -668  -542  -365  -213  -134  -114  -132  -188  -296  -447  -588  -669  -694  -708  -728  -702  -565  -342  -144  -37  -9  -33  -108  -236  -377  -467  -494  -501  -520  -552  -584  -599  -578  -502  -385  -282  -229  -217  -232  -284  -375  -465  -492  -429  -322  -246  -222  -214  -177  -111  -54  -19  13  43  61  76  101  141  187  216  211  175  115  44  -13  -42  -45  -36  -35  -77  -185  -326  -437  -490  -509  -527  -553  -569  -557  -570  -702  -988  -1305  -1283  -474  1269  3644  6038  7687  8005  6955  4951  2604  576  -737  -1329  -1367  -1084  -747  -546  -491  -488  -466  -433  -438  -515  -624  -685  -669  -606  -526  -450  -399  -378  -377  -396  -437  -487  -516  -508  -461  -351  -149  102  296  382  386  335  233  102  -21  -125  -181  -120  100  401  630  738  796  877  994  1111  1189  1226  1248  1275  1320  1399  1505  1606  1661  1658  1634  1621  1614  1584  1523  1458  1397  1297  1140  972  845  744  610  439  273  125  -14  -151  -288  -420  -510  -545  -540  -501  -443  -409  -432  -499  -566  -594  -576  -535  -499  -476  -465  -460  -456  -454  -455  -451  -438  -422  -411  -416  -419  -388  -323  -265  -267  -339  -430  -470  -437  -374  -343  -358  -369  -337  -303  -340  -467  -586  -601  -562  -580  -652  -719  -757  -761  -703  -549  -342  -188  -142  -180  -264  -359  -433  -461  -411  -247  -10  174  221  166  90  12  -92  -235  -397  -572  -749  -888  -954  -958  -939  -909  -859  -799  -772  -808  -895  -996  -1092  -1193  -1294  -1352  -1322  -1179  -875  -273  837  2446  4068  5113  5396  4897  3495  1437  -466  -1557  -1865  -1807  -1708  -1667  -1665  -1676  -1700  -1734  -1724  -1547  -1103  -449]
