reading_id,reading_time,wire_id,result_classification,heart_rate,heart_rate_alert,firmware_version,device_app_version,hardware_version,waveform_samples
b04a5400-cd12-11ed-8080-808080808080,Tue Mar 28 02:46:06 UTC 2023,e12964476439,NSR,73,NONE,20001.188.58,2.13.0,Charge 5,[0  -18  0  99  283  464  546  503  378  260  206  195  179  159  184  293  447  576  698  882  1107  1287  1407  1516  1641  1762  1847  1882  1886  1879  1875  1876  1880  1881  1864  1818  1730  1580  1353  1083  820  565  275  -69  -402  -611  -672  -661  -647  -639  -639  -696  -855  -1108  -1459  -1860  -2165  -2275  -2181  -1894  -1501  -1166  -987  -949  -983  -1024  -1053  -1052  -946  -653  -261  39  228  481  907  1413  1810  2002  2066  2171  2442  2850  3237  3474  3564  3583  3585  3583  3572  3563  3579  3627  3699  3785  3858  3866  3779  3639  3524  3471  3455  3450  3450  3434  3361  3221  3061  2954  2924  2942  2976  3005  2993  2887  2658  2340  2000  1717  1553  1507  1521  1545  1559  1563  1569  1577  1580  1561  1500  1381  1213  1036  888  786  721  662  590  501  391  277  201  179  187  204  227  256  282  282  216  47  -204  -451  -594  -601  -489  -306  -121  36  191  347  457  443  248  -53  -300  -423  -473  -506  -538  -559  -560  -540  -508  -488  -508  -582  -684  -778  -892  -1103  -1418  -1766  -2072  -2281  -2368  -2365  -2330  -2280  -2209  -2167  -2295  -2634  -2984  -3193  -3314  -3348  -3111  -2324  -774  1494  4082  6310  7514  7230  5386  2583  -220  -2283  -3221  -3116  -2540  -2153  -2178  -2374  -2484  -2485  -2434  -2370  -2312  -2263  -2184  -2003  -1713  -1430  -1271  -1238  -1274  -1345  -1420  -1453  -1421  -1355  -1303  -1278  -1261  -1240  -1222  -1199  -1162  -1107  -1016  -879  -738  -638  -556  -455  -338  -217  -99  -6  35  33  31  76  198  386  602  809  984  1113  1195  1256  1326  1408  1488  1575  1674  1784  1905  2025  2110  2133  2086  1952  1704  1313  780  197  -277  -538  -620  -630  -642  -671  -689  -677  -659  -667  -730  -882  -1102  -1292  -1387  -1411  -1415  -1425  -1458  -1526  -1613  -1687  -1739  -1774  -1795  -1799  -1786  -1760  -1739  -1738  -1747  -1754  -1764  -1802  -1887  -2000  -2097  -2169  -2246  -2343  -2434  -2485  -2481  -2424  -2337  -2260  -2224  -2214  -2192  -2144  -2110  -2125  -2154  -2129  -2014  -1812  -1560  -1330  -1169  -1074  -1029  -1040  -1092  -1146  -1177  -1190  -1194  -1184  -1148  -1082  -999  -918  -851  -796  -752  -715  -670  -624  -587  -547  -501  -446  -369  -272  -171  -72  13  79  136  189  213  181  91  -29  -141  -212  -246  -264  -268  -220  -81  107  247  297  304  337  430  573  732  874  974  998  898  667  374  127  -11  -58  -62  -63  -84  -128  -174  -214  -260  -314  -369  -419  -453  -470  -477  -466  -399  -283  -236  -376  -565  -400  503  2255  4588  6903  8473  8726  7507  5174  2452  142  -1140  -1309  -835  -252  182  363  262  46  -83  -98  -62  -22  5  18  39  107  240  392  489  493  423  346  302  294  333  425  542  670  801  901  936  889  754  583  468  471  587  750  885  992  1136  1339  1544  1680  1745  1786  1841  1927  2063  2270  2529  2762  2890  2917  2928  2983  3070  3133  3149  3130  3075  2961  2802  2648  2500  2318  2097  1871  1655  1446  1256  1108  999  884  729  559  436  381  348  261  63  -201  -397  -455  -415  -357  -364  -474  -644  -796  -884  -904  -868  -788  -684  -592  -533  -508  -519  -564  -624  -678  -727  -778  -826  -864  -893  -914  -922  -922  -933  -955  -955  -916  -862  -833  -850  -901  -965  -1017  -1038  -1021  -984  -952  -941  -960  -1016  -1093  -1152  -1176  -1176  -1163  -1133  -1081  -1025  -994  -991  -996  -995  -994  -1009  -1058  -1145  -1238  -1301  -1321  -1303  -1243  -1147  -1060  -1037  -1090  -1144  -1122  -1042  -973  -935  -883  -773  -622  -494  -400  -299  -187  -105  -72  -67  -68  -64  -57  -63  -87  -115  -129  -131  -129  -129  -138  -187  -308  -485  -653  -775  -849  -884  -891  -886  -869  -838  -809  -795  -783  -800  -916  -1153  -1400  -1337  -547  1123  3412  5773  7535  8112  7260  5184  2509  77  -1448  -1898  -1600  -1115  -843  -825  -902  -964  -995  -1004  -996  -979  -943  -874  -781  -701  -660  -652  -652  -643  -631  -630  -645  -666  -680  -664  -605  -541  -511  -508  -515  -516  -467  -325  -122  42  119  133  121  100  80  95  216  467  754  956  1064  1153  1285  1474  1675  1813  1871  1892  1926  1981  2040  2077  2076  2046  2005  1955  1891  1810  1699  1542  1332  1072  755  398  77  -116  -175  -184  -237  -366  -531  -658  -712  -726  -764  -858  -975  -1052  -1064  -1034  -997  -962  -917  -870  -836  -819  -816  -818  -816  -829  -867  -910  -927  -910  -880  -860  -823  -772  -763  -807  -856  -888  -919  -958  -979  -957  -896  -808  -697  -582  -507  -503  -590  -765  -976  -1161  -1281  -1314  -1260  -1167  -1090  -1044  -1008  -963  -901  -847  -833  -855  -884  -901  -909  -925  -944  -939  -887  -796  -697  -621  -581  -586  -655  -791  -945  -1043  -1046  -954  -799  -638  -525  -474  -462  -464  -485  -549  -659  -776  -825  -745  -560  -382  -288  -263  -260  -253  -240  -225  -215  -223  -248  -256  -207  -89  59  133  52  -145  -371  -590  -779  -893  -896  -791  -626  -480  -410  -428  -515  -601  -622  -592  -560  -556  -613  -759  -887  -686  155  1723  3856  6162  8041  8890  8401  6620  3958  1203  -812  -1638  -1374  -580  74  196  -112  -446  -574  -550  -467  -350  -225  -140  -123  -159  -218  -259  -265  -258  -259  -266  -266  -241  -179  -82  15  75  92  86  75  51  3  -30  36  215  399  515  584  649  736  855  1004  1181  1348  1455  1512  1572  1657  1772  1939  2164  2391  2559  2650  2671  2641  2587  2530  2470  2419  2399  2401  2354  2168  1828  1412  1008  682  487  406  353  278  200  120  4  -145  -292  -436  -585  -709  -782  -809  -813  -810  -807  -806  -805  -806  -810  -826  -859  -901  -921  -895  -850  -820  -805  -781  -729  -659  -596  -548  -504  -463  -433  -422  -430  -438  -418  -350  -257  -187  -160  -156  -158  -170  -203  -247  -281  -293  -295  -292  -279  -241  -169  -67  50  147  185  170  152  160  183  205  210  167  51  -107  -225  -268  -262  -243  -224  -212  -230  -303  -418  -523  -580  -601  -610  -617  -635  -676  -730  -765  -765  -747  -726  -708  -711  -751  -811  -843  -821  -764  -691  -590  -464  -353  -291  -272  -277  -293  -315  -354  -427  -555  -739  -923  -1035  -1065  -1058  -1043  -1018  -983  -971  -999  -1047  -1101  -1177  -1283  -1410  -1453  -1128  -111  1698  4048  6398  8084  8562  7659  5624  2985  495  -1113  -1595  -1245  -576  -65  12  -278  -608  -737  -675  -541  -425  -350  -295  -239  -179  -122  -80  -59  -51  -41  -10  42  105  181  278  379  443  456  443  446  506  630  766  848  866  859  862  898  972  1069  1156  1219  1262  1294  1332  1410  1556  1765  1983  2165  2336  2540  2766  2959  3068  3094  3080  3065  3063  3042  2920  2644  2296  2012  1816  1642  1468  1296  1074  755  360  -73  -524  -946  -1290  -1539  -1707  -1840  -1958  -2044  -2100  -2132  -2120  -2051  -1953  -1878  -1857  -1863  -1862  -1855  -1858  -1888  -1937  -1965  -1977  -2028  -2104  -2145  -2132  -2083  -2034  -2003  -1983  -1967  -1962  -1968  -1979  -1991  -2002  -2000  -1949  -1818  -1643  -1508  -1442  -1405  -1365  -1339  -1352  -1393  -1419  -1398  -1346  -1301  -1294  -1351  -1451  -1540  -1592  -1629  -1677  -1732  -1773  -1789  -1790  -1787  -1785  -1785  -1783  -1780  -1777  -1778  -1775  -1758  -1721  -1677  -1645  -1626  -1591  -1507  -1368  -1208  -1086  -1025  -990  -939  -874  -824  -776  -679  -521  -334  -148  8  103  138  151  174  213  245  230  140  11  -87  -131  -145  -150  -146  -125  -90  -60  -51  -71  -118  -177  -228  -270  -331  -420  -482  -447  -213  428  1666  3484  5687  7853  9273  9268  7660  4920  1925  -370  -1360  -1137  -379  255  536  511  311  120  55  117  249  382  460  482  482  478  464  439  420  424  460  540  653  749  795  802  802  821  880  969  1048  1093  1123  1169  1245  1332  1398  1421  1417  1429  1511  1674  1859  1996  2081  2161  2274  2423  2585  2735  2867  2978  3069  3143  3216  3313  3442  3586  3713  3787  3779  3675  3477  3189  2808  2383  1996  1684  1445  1278  1164  1046  894  731  585  437  261  55  -156  -329  -444  -532  -610  -666  -695  -710  -715  -716  -740  -812  -916  -996  -1020  -1012  -1037  -1134  -1261  -1345  -1356  -1315  -1248  -1162  -1066  -987  -952  -971  -1054  -1180  -1300  -1379  -1420  -1436  -1438  -1435  -1435  -1437  -1437  -1430  -1426  -1455  -1549  -1686  -1799  -1851  -1862  -1862  -1849  -1804  -1714  -1611  -1542  -1522  -1542  -1592  -1653  -1694  -1704  -1699  -1694  -1682  -1646  -1585  -1519  -1462  -1403  -1319  -1224  -1160  -1153  -1197  -1260  -1303  -1297  -1235  -1146  -1083  -1100  -1209  -1362  -1476  -1516  -1512  -1501  -1496  -1496  -1499  -1507  -1520  -1534  -1550  -1579  -1622  -1643  -1634  -1700  -1917  -2150  -2150  -1650  -399  1642  4127  6402  7757  7690  6120  3497  727  -1262  -2112  -2100  -1695  -1296  -1151  -1244  -1387  -1463  -1490  -1507  -1525  -1506  -1408  -1256  -1128  -1062  -1039  -1032  -1027  -1024  -1025  -1023  -1017  -1014  -1006  -968  -866  -699  -531  -420  -357  -302  -251  -212  -180  -154  -140  -126  -78  43  237  454  631  743  832  955  1127  1313  1480  1628  1768  1909  2054  2201  2325  2408  2454  2479  2495  2523  2568  2586  2515  2336  2072  1775  1509  1296  1104  902  680  455  255  82  -54  -131  -149  -149  -162  -188  -211  -223  -225  -218  -209  -208  -218  -242  -279  -321  -355  -377  -383  -372  -346  -314  -278  -246  -225  -219  -224  -234  -245  -249  -236  -204  -180  -191  -235  -305  -377  -421  -437  -429  -392  -352  -335  -332  -326  -316  -307  -312  -334  -363  -388  -400  -398  -393  -396  -404  -396  -341  -233  -114  -39  -22  -43  -89  -154  -223  -266  -270  -245  -216  -204  -225  -297  -408  -506  -558  -564  -537  -477  -370  -240  -151  -136  -192  -298  -413  -467  -411  -267  -100  30  106  146  166  162  134  92  56  41  28  -18  -90  -153  -202  -249  -307  -373  -436  -482  -505  -513  -520  -534  -553  -577  -611  -669  -766  -858  -808  -391  670  2525  4969  7431  9137  9428  8135  5663  2799  395  -974  -1282  -951  -453  -108  -64  -248  -472  -647  -774  -854  -883  -866  -786  -641  -481  -371  -323  -315  -342  -411  -502  -569  -586  -559  -481  -350  -212  -126  -95  -79  -54  -23  18  90  186  269  309  321  350  427  530  603  619  610  629  718  864  1012  1135  1251  1376  1500  1589  1621  1611  1610  1658  1739  1819  1883  1904  1812  1570  1263  1047  963  906  760  483  110  -269  -557  -714  -779  -798  -796  -812  -881  -991  -1075  -1092  -1061  -1017  -976  -950  -939  -939  -956  -1000  -1056  -1082  -1043  -952  -847  -765  -726  -724  -742  -756  -751  -734  -720  -726  -753  -772  -761  -749  -741  -714  -669  -636  -628  -643  -668  -692  -712  -730  -744  -755  -769  -783  -790  -789  -779  -760  -737  -717  -706  -702  -701  -701  -706  -721  -747  -772  -784  -781  -777  -770  -741  -686  -633  -599  -581  -567  -552  -538  -541  -582  -663  -754  -798  -773  -720  -684  -664  -643  -616  -585  -557  -528  -499  -484  -491  -508  -528  -551  -556  -522  -467  -422  -394  -353  -272  -163  -70  -30  -63  -179  -337  -460  -514  -529  -548  -583  -612  -605  -568  -550  -595  -707  -853  -946  -891  -701  -468  -340  -487  -891  -1287  -1276  -449  1333  3754  6219  8103  8870  8250  6384  3774  1197  -594  -1300  -1145  -692  -473  -575  -730  -765  -724  -679  -648  -611  -571  -556  -586  -635  -647  -605  -550  -514  -487  -458  -434  -420  -412  -392  -335  -238  -127  -19  99  211  267  266  251  257  284  316  351  411  512  668  889  1128  1311  1423  1503  1569  1619  1688  1827  2022  2199  2313  2374  2415  2480  2594  2737  2855  2916  2922  2902  2868  2761  2505  2144  1817  1570  1338  1103  915  766  583  348  113  -69  -195  -266  -280  -250  -193  -130  -87  -71  -68  -70  -92  -141  -205  -271  -331  -374  -396  -389  -332  -237  -160  -133  -133  -127  -100  -60  -29  -15  -15  -30  -35  -6  35  54  51  45  52  53  19  -38  -83  -94  -73  -29  14  53  98  146  182  187  137  35  -61  -102  -78  -11  59  107  132  146  133  59  -78  -239  -352  -369  -331  -317  -341  -376  -405  -431  -464  -507  -557  -599  -622  -640  -663  -689  -696  -667  -624  -605  -643  -744  -863  -937  -966  -978  -987  -990  -986  -982  -984  -988  -983  -973  -966  -976  -1046  -1218  -1455  -1652  -1763  -1814  -1836  -1835  -1815  -1784  -1758  -1749  -1759  -1795  -1875  -2007  -2133  -2125  -1870  -1245  -88  1657  3808  5846  7029  6777  5008  2264  -498  -2393  -3037  -2735  -2123  -1689  -1581  -1659  -1745  -1774  -1744  -1656  -1516  -1365  -1269  -1246  -1259  -1274  -1295  -1338  -1379  -1355  -1226  -1031  -858  -766  -743  -755  -803  -894  -966  -909  -700  -432  -217  -105  -76  -85  -97  -97  -75  -27  33  95  149  197  273  427  641  826  948  1090  1332  1646  1917  2063  2103  2106  2115  2127  2121  2091  2057  2036  1990  1838  1555  1233  994  857  742  571  337  89  -142  -358  -542  -661  -716  -754  -799  -838  -858  -863  -857  -859  -880  -896  -890  -874  -867  -882  -906  -916  -903  -882  -873  -881  -882  -857  -802  -724  -647  -590  -559  -560  -567  -544  -502  -468  -442  -425  -418  -415  -409  -406  -428  -498  -595  -670  -694  -665  -592  -496  -387  -288  -262  -318  -407  -502  -577  -602  -562  -473  -390  -366  -384  -402  -407  -417  -451  -504  -545  -540  -480  -387  -306  -262  -245  -236  -217  -181  -132  -76  -17  44  97  127  138  144  149  151  137  86  -12  -149  -283  -365  -385  -374  -374  -413  -491  -572  -620  -631  -619  -595  -573  -575  -619  -722  -827  -734  -199  893  2522  4508  6443  7803  8130  7187  5139  2576  276  -1118  -1421  -977  -331  117  182  -67  -352  -476  -461  -400  -353  -335  -339  -353  -361  -326  -219  -68  55  128  184  237  269  278  296  358  456  553  620  641  601  520  441  400  415  483  592  707  791  854  940  1058  1154  1183  1156  1111  1074  1078  1163  1342  1578  1812  2016  2173  2254  2258  2229  2209  2211  2213  2162  2007  1752  1467  1224  1057  949  857  744  591  380  123  -113  -262  -329  -375  -441  -514  -571  -614  -646  -665  -675  -691  -718  -738  -724  -670  -592  -519  -466  -437  -430  -439  -450  -453  -458  -483  -529  -568  -571  -543  -503  -462  -430  -408  -397  -415  -475  -555  -605  -600  -561  -519  -480  -445  -421  -414  -418  -425  -431  -429  -411  -377  -353  -362  -389  -408  -411  -405  -401  -411  -441  -483  -510  -510  -493  -474  -457  -440  -413  -364  -297  -232  -194  -195  -228  -277  -328  -387  -461  -537  -596  -627  -635  -627  -605  -576  -563  -602  -709  -843  -939  -982  -1016  -1090  -1214  -1349  -1444  -1476  -1454  -1415  -1395  -1410  -1458  -1539  -1679  -1789  -1569  -723  824  2900  5045  6680  7362  6861  5219  2847  438  -1300  -1997  -1807  -1240  -786  -700  -923  -1173  -1270  -1256  -1217  -1187  -1179  -1212  -1291  -1362  -1344  -1244  -1146  -1094  -1057  -998  -916  -845  -810  -805  -809  -814  -820  -827  -818  -766  -656  -524  -427  -386  -378  -349  -260  -131  -18  70  182  315  425  514  639  824  1034  1211  1312  1339  1329  1309  1299  1332  1444  1610  1751  1814  1821  1805  1773  1714  1627  1522  1375  1108  711  310  45  -74  -132  -203  -314  -440  -542  -624  -712  -794  -841  -853  -853  -850  -832  -782  -711  -652  -623  -616  -615  -610  -605  -611  -617  -583  -504  -428  -388  -376  -380  -413  -498  -610  -693  -717  -705  -689  -680  -672  -652  -606  -538  -470  -420  -391  -402  -454  -514  -554  -557  -531  -499  -480  -475  -482  -497  -514  -522  -518  -514  -523  -530  -526  -518  -512  -513  -514  -504  -487  -465  -428  -371  -303  -232  -170  -134  -127  -120  -87  -32  29  84  108  54  -123  -381  -599  -715  -753  -753  -723  -664  -599  -554  -538  -537  -540  -536  -504  -445  -454  -686  -1149  -1512  -1228  66  2275  4894  7253  8702  8846  7688  5547  2993  721  -751  -1280  -1109  -697  -432  -454  -653  -822  -835  -693  -490  -344  -294  -299  -321  -358  -409  -456  -484  -494  -496  -479  -426  -338  -245  -167  -99  -36  15  54  85  121  167  214  246  269  293  333  401  486  556  607  662  728  803  904  1059  1250  1407  1493  1549  1636  1767  1912  2045  2157  2236  2276  2288  2284  2250  2156  1982  1731  1439  1163  970  872  804  675  430  94  -215  -399  -482  -546  -629  -707  -751  -760  -742  -694  -629  -574  -542  -527  -522  -527  -557  -631  -765  -926  -1027  -1013  -928  -831  -744  -675  -631  -610  -611  -630  -659  -697  -745  -793  -816  -801  -771  -757  -758  -762  -765  -781  -829  -902  -951  -911  -747  -519  -353  -308  -347  -412  -469  -514  -559  -602  -635  -649  -651  -652  -655  -659  -666  -691  -757  -875  -1014  -1119  -1169  -1189  -1198  -1180  -1126  -1057  -1010  -996  -1008  -1037  -1070  -1086  -1075  -1052  -1035  -1011  -952  -855  -748  -662  -613  -592  -569  -526  -464  -395  -329  -282  -263  -272  -300  -339  -383  -432  -496  -572  -621  -616  -589  -585  -612  -648  -675  -702  -729  -742  -743  -795  -1010  -1374  -1596  -1294  -271  1457  3664  5890  7630  8439  7947  6153  3574  1007  -781  -1397  -1105  -577  -287  -278  -390  -506  -614  -713  -773  -771  -703  -593  -495  -445  -437  -444  -453  -462  -467  -449  -394  -306  -218  -159  -133  -113  -68  -2  58  107  151  182  197  214  259  341  429  502  570  640  697  748  820  929  1100  1350  1632  1865  2031  2166  2275  2346  2377  2387  2390  2389  2384  2377  2372  2372  2378  2388  2383  2318  2142  1857  1534  1252  1042  877  713  528  329  127  -51  -164  -188  -155  -116  -96  -91  -94  -106  -131  -152  -143  -118  -97  -67  -30  -2  6  -9  -60  -151  -261  -349  -394  -410  -412  -385  -299  -169  -55  -16  -69  -197  -349  -445  -450  -395  -347  -330  -300  -236  -194  -221  -292  -352  -389  -429  -480  -546  -648  -757  -820  -833  -827  -825  -819  -774  -663  -525  -447  -475  -589  -739  -874  -955  -979  -973  -951  -911  -865  -827  -787  -759  -782  -840  -875  -861  -815  -779  -776  -792  -801  -785  -734  -658  -576  -508  -461  -427  -384  -313  -219  -144  -118  -131  -162  -183  -188  -194  -204  -215  -247  -337  -496  -675  -803  -858  -866  -860  -853  -844  -836  -845  -883  -948  -1030  -1152  -1356  -1596  -1674  -1308  -249  1537  3796  6038  7635  8025  6989  4773  2055  -325  -1765  -2122  -1740  -1192  -819  -647  -602  -612  -632  -652  -666  -679  -706  -752  -806  -854  -886  -904  -914  -910  -882  -824  -745  -672  -616  -575  -535  -498  -469  -443  -409  -360  -291  -220  -180  -175  -153  -56  113  285  379  384  351  344  416  596  867  1152  1365  1480  1529  1557  1595  1651  1713  1765  1808  1876  1996  2137  2243  2291  2273  2174  2009  1823  1624  1369  1055  724  411  158  19  -22  -75  -240  -491  -700  -788  -788  -770  -783  -842  -921  -983  -1020  -1035  -1034  -1028  -1029  -1039  -1056  -1067  -1044  -962  -847  -758  -720  -712  -712  -715  -732  -774  -841  -910  -940  -914  -859  -805  -742  -633  -483  -352  -295  -334  -447  -571  -664  -729  -767  -764  -732  -699  -682  -676  -669  -661  -649  -610  -523  -416  -353  -370  -453  -564  -665  -724  -742  -740  -732  -713  -672  -614  -554  -505  -472  -455  -434  -397  -350  -293  -232  -185  -161  -150  -143  -138  -134  -135  -163  -237  -342  -450  -565  -692  -799  -858  -890  -938  -995  -1018  -988  -933  -863  -769  -705  -778  -985  -1112  -806  199  1922  4136  6342  7802  7945  6692  4408  1788  -331  -1415  -1548  -1213  -813  -517  -379  -382  -445  -508  -546  -532  -471  -416  -412  -462  -533  -583  -605  -614  -617  -592  -513  -391  -266  -172  -123  -120  -162  -231  -267  -225  -125  6  168  342  476  529  512  471  441  440  476  547  660  809  980  1168  1346  1471  1541  1607  1714  1842  1938  1996  2057  2135  2205  2242  2241  2214  2171  2113  2021  1872  1664  1417  1157  893  622  361  141  -29  -174  -333  -511  -648  -704  -700  -675  -646  -627  -633  -689  -811  -968  -1090  -1134  -1096  -977  -814  -682  -626  -632  -662  -694  -725  -754  -767  -757  -744  -744  -743  -732  -713  -684  -635  -573  -530  -530  -582  -662  -726  -759  -776  -787  -791  -790  -786  -780  -768  -751  -738  -744  -767  -788  -794  -787  -776  -764  -742  -712  -698  -699  -668  -582  -483  -424  -424  -464  -504  -529  -545  -558  -561  -549  -525  -499  -472  -449  -440  -458  -498  -542  -563  -551  -522  -490  -453  -412  -376  -364  -383  -415  -423  -374  -257  -113  3  74  113  130  133  134  130  87  -51  -306  -586  -763  -814  -810  -816  -832  -828  -790  -747  -730  -729  -693  -631  -665  -875  -1139  -1214  -813  282  2059  4244  6400  8033  8688  8101  6357  3912  1475  -262  -1019  -1042  -749  -427  -269  -317  -427  -478  -475  -454  -431  -413  -407  -416  -430  -436  -427  -404  -379  -359  -347  -349  -360  -351  -287  -180  -82  -38  -37  -36  -13  22  57  75  85  115  169  237  323  406  460  511  610  762  920  1051  1164  1295  1458  1617  1731  1801  1846  1872  1883  1910  1999  2152  2303  2389  2411  2407  2368  2209  1863  1396  973  702  573  516  445  299  89  -103  -230  -328  -459  -621  -753  -797  -752  -672  -612  -592  -594  -610  -645  -702  -753  -752  -694  -620  -577  -584  -622  -654  -668  -667  -658  -641  -624  -610  -590  -547  -489  -476  -555  -675  -756  -782  -779  -759  -708  -621  -521  -450  -436  -464  -502  -523  -504  -458  -434  -447  -478  -516  -556  -607  -671  -724  -741  -720  -666  -598  -547  -524  -524  -544  -580  -615  -638  -645  -640  -619  -573  -512  -453  -391  -331  -309  -367  -491  -613  -672  -679  -672  -655  -625  -598  -587  -588  -593  -599  -598  -578  -531  -474  -437  -429  -442  -461  -475  -474  -447  -390  -316  -252  -217  -204  -188  -151  -98  -49  -26  -42  -108  -224  -356  -456  -508  -538  -586  -678  -793  -873  -892  -871  -837  -807  -781  -772  -837  -1037  -1322  -1455  -1097  -13  1795  4089  6421  8180  8770  7919  5851  3183  716  -856  -1344  -1138  -777  -543  -487  -575  -714  -812  -854  -861  -854  -865  -898  -920  -915  -874  -787  -683  -617  -599  -605  -612  -612  -608  -593  -535  -407  -244  -107  -26  6  12  7  -7  -43  -92  -115  -78  18  139  260  390  522  626  709  791  867  940  1031  1163  1316  1438  1519  1604  1718  1825  1882  1889  1874  1859  1854  1861  1871  1843  1705  1438  1127  838  527  175  -115  -284  -384  -472  -548  -600  -632  -659  -690  -724  -750  -763  -765  -761  -756  -752  -742  -723  -713  -745  -830  -933  -1004  -1030  -1038  -1037  -996  -871  -679  -485  -343  -269  -253  -286  -371  -481  -565  -599  -601  -592  -581  -562  -523  -452  -368  -305  -278  -274  -277  -282  -295  -324  -361  -389  -400  -402  -401  -387  -350  -301  -269  -270  -295  -335  -395  -464  -506  -502  -469  -436  -413  -394  -360  -312  -272  -269  -328  -428  -507  -510  -430  -307  -197  -128  -92  -76  -79  -114  -176  -230  -251  -254  -263  -290  -318  -329  -328  -332  -334  -324  -307  -278  -225  -148  -69  -13  22  65  116  154  184  237  324  424  512  557  502  300  13  -210  -300  -313  -332  -373  -409  -429  -447  -475  -510  -546  -564  -536  -465  -434  -552  -805  -934  -545  609  2506  4858  7118  8615  8836  7672  5455  2822  508  -902  -1294  -1069  -743  -584  -609  -708  -784  -808  -783  -729  -683  -655  -618  -563  -510  -478  -469  -493  -572  -694  -807  -855  -808  -677  -509  -359  -245  -162  -114  -97  -94  -100  -125  -173  -223  -240  -198  -77  114  313  451  531  590  630  651  685  773  911  1058  1188  1332  1527  1749  1922  2005  2021  2013  2014  2038  2078  2110  2094  1999  1838  1660  1462  1184  847  551  318  103  -89  -235  -330  -396  -457  -524  -581  -624  -668  -714  -743  -742  -718  -692  -683  -687  -689  -688  -699  -739  -805  -881  -955  -1017  -1046  -1043  -1031  -1016  -977  -894  -796  -745  -756  -789  -811  -817  -821  -830  -843  -845  -824  -795  -771  -745  -708  -669  -648  -651  -665  -682  -711  -747  -774  -779  -767  -750  -734  -719  -703  -688  -679  -687  -726  -783  -816  -802  -765  -740  -735  -739  -740  -741  -756  -775  -769  -710  -605  -493  -412  -366  -319  -259  -227  -262  -325  -329  -251  -139  -17  121  260  341  339  294  249  202  126  32  -39  -100  -207  -365  -503  -570  -582  -576  -575  -584  -604  -633  -663  -690  -722  -762  -783  -794  -828  -758  -297  772  2476  4615  6703  8038  8053  6605  4052  1235  -894  -1839  -1719  -1024  -313  51  45  -153  -371  -510  -557  -555  -531  -482  -402  -312  -249  -243  -278  -316  -342  -365  -404  -456  -501  -520  -519  -514  -513  -515  -519  -524  -534  -541  -525  -465  -367  -264  -187  -142  -111  -51  57  193  322  438  549  659  769  897  1065  1243  1358  1390  1401  1462  1573  1676  1731  1756  1772  1791  1807  1799  1745  1618  1414  1187  973  735  451  160  -92  -287  -436  -573  -724  -881  -1008  -1082  -1119  -1145  -1150  -1118  -1071  -1045  -1047  -1064  -1087  -1117  -1152  -1177  -1182  -1175  -1162  -1143  -1115  -1092  -1072  -1016  -897  -743  -622  -565  -552  -560  -592  -657  -730  -751  -690  -584  -503  -463  -433  -400  -392  -420  -454  -461  -454  -462  -492  -517  -507  -452  -367  -283  -231  -203  -167  -112  -72  -97  -186  -247  -199  -99  -47  -57  -78  -51  32  122  188  250  331  425  511  584  632  618  526  396  271  151  15  -131  -262  -360  -418  -440  -443  -450  -476  -527  -580  -613  -638  -691  -778  -841  -862  -931  -1004  -758  123  1725  3879  6081  7616  7961  6999  5015  2607  466  -886  -1345  -1223  -916  -678  -579  -541  -503  -481  -486  -505  -529  -554  -574  -571  -533  -477  -437  -426  -431  -438  -435  -418  -404  -411  -407  -344  -252  -191  -185  -229  -298  -319  -239  -106  3  70  109  136  169  214  269  340  436  552  657  741  837  997  1229  1482  1682  1788  1829  1860  1901  1941  1978  2022  2049  2016  1911  1769  1642  1561  1501  1384  1146  810  470  182  -58  -256  -395  -469  -495  -511  -537  -569  -599  -629  -657  -678  -697  -715  -723  -716  -693  -669  -659  -671  -713  -772  -826  -856  -859  -837  -787  -703  -589  -473  -395  -372  -393  -444  -508  -556  -557  -504  -423  -349  -302  -283  -281  -300  -352  -431  -505  -545  -552  -546  -541  -540  -536  -525  -501  -460  -409  -368  -354  -398  -522  -689  -815  -866  -872  -863  -855  -852  -853  -857  -862  -865  -848  -797  -727  -678  -664  -668  -673  -674  -675  -676  -670  -645  -595  -535  -494  -482  -484  -482  -476  -478  -497  -510  -488  -434  -373  -329  -313  -351  -471  -653  -817  -919  -983  -1030  -1067  -1094  -1105  -1118  -1137  -1113  -1036  -965  -931  -926  -986  -1190  -1534  -1754  -1413  -278  1569  3874  6200  7943  8563  7807  5799  3106  605  -978  -1472  -1245  -819  -525  -462  -551  -684  -827  -951  -1015  -1033  -1033  -1006  -925  -795  -664  -581  -545  -532  -521  -509  -497  -486  -479  -474  -450  -387  -300  -216  -145  -101  -89  -84  -66  -21  72  207  333  404  422  425  463  576  755  938  1091  1238  1393  1525  1600  1635  1684  1787  1934  2063  2126  2136  2129  2126  2128  2137  2159  2167  2069  1774  1342  952  687  491  310  139  -17  -158  -274  -366  -450  -530  -591  -617  -616  -608  -612  -640  -691  -748  -799  -845  -871  -866  -838  -791  -730  -674  -625  -570  -508  -455  -424  -416  -430  -469  -533  -592  -616  -600  -561  -522  -499  -486  -476  -465  -451  -440  -459  -531  -633  -712  -736  -703  -615  -496  -402  -380  -433  -514  -568  -583  -579  -573  -571  -572  -571  -566  -557  -550  -544  -531  -512  -494  -481  -470  -456  -442  -427  -402  -364  -338  -355  -411  -475  -522  -538  -520  -483  -437  -367  -265  -162  -96  -64  -27  37  111  145  112  46  -9  -62  -145  -251  -346  -432  -521  -594  -621  -617  -645  -707  -733  -692  -614  -540  -502  -479  -489  -659  -993  -1236  -1078  -261  1394  3754  6303  8359  9271  8679  6731  4036  1435  -340  -1056  -1010  -672  -356  -188  -172  -247  -364  -476  -543  -568  -575  -575  -568  -546  -504  -443  -365  -285  -223  -192  -183  -181  -185  -209  -270  -363  -446  -476  -436  -343  -227  -120  -38  22  69  114  170  232  275  294  322  400  541  707  863  1014  1155  1251  1292  1332  1443  1652  1896  2083  2170  2184  2174  2166  2159  2145  2122  2083  1997  1829  1585  1314  1057  798  514  241  55  -41  -130  -281  -473  -623  -681  -670  -641  -623  -620  -622  -612  -575  -507  -449  -464  -548  -628  -660  -660  -654  -648  -631  -590  -532  -491  -490  -533  -600  -653  -672  -674  -659  -620  -595  -621  -664  -683  -681  -669  -643  -612  -583  -550  -516  -496  -497  -511  -527  -544  -579  -648  -755  -854  -878  -817  -690  -516  -371  -334  -403  -516  -604  -643  -647  -639  -640  -649  -648  -614  -551  -500  -493  -525  -577  -634  -687  -715  -658  -491  -293  -168  -133  -141  -161  -197  -261  -350  -449  -548  -649  -762  -872  -957  -1012  -1038  -1042  -1041  -1059  -1098  -1139  -1155  -1131  -1054  -969  -1008  -1210  -1387  -1272  -645  623  2496  4672  6579  7599  7310  5604  2894  125  -1793  -2542  -2347  -1695  -1133  -958  -1019  -1032  -956  -914  -959  -1049  -1117  -1140  -1137  -1132  -1128  -1119  -1097  -1047  -953  -824  -704  -629  -590  -572  -564  -561  -558  -548  -530  -494  -426  -335  -248  -161  -41  106  226  285  312  353  424  514  605  713  885  1125  1353  1479  1508  1532  1647  1859  2086  2259  2363  2413  2425  2424  2416  2395  2357  2286  2147  1942  1707  1446  1167  939  776  599  364  101  -158  -384  -533  -591  -593  -579  -571  -580  -602  -613  -602  -591  -607  -662  -742  -827  -899  -946  -976  -1010  -1033  -976  -789  -533  -341  -280  -300  -325  -327  -320  -328  -359  -390  -381  -332  -298  -305  -338  -377  -399  -408  -439  -503  -574  -634  -685  -718  -720  -692  -640  -577  -518  -460  -416  -419  -484  -597  -721  -817  -867  -865  -812  -704  -553  -415  -359  -384  -430  -455  -462  -465  -461  -426  -342  -233  -149  -120  -160  -273  -419  -522  -561  -592  -669  -774  -834  -816  -755  -701  -665  -642  -633  -639  -663  -710  -803  -1002  -1301  -1524  -1423  -782  556  2513  4727  6686  7804  7635  6146  3731  1124  -837  -1688  -1571  -1006  -510  -342  -441  -597  -682  -684  -614  -514  -460  -474  -521  -562  -564  -524  -484  -466  -454  -424  -381  -354  -355  -367  -367  -349  -308  -240  -152  -60  17  81  149  230  306  352  362  351  337  355  449  625  820  971  1087  1205  1324  1418  1471  1502  1550  1632  1741  1881  2044  2181  2259  2289  2289  2254  2179  2082  1983  1857  1647  1369  1108  881  625  339  92  -64  -145  -203  -278  -363  -432  -485  -517  -517  -506  -526  -587  -680  -801  -926  -996  -959  -820  -650  -532  -477  -447  -433  -454  -504  -555  -587  -600  -602  -580  -520  -432  -360  -328  -325  -334  -342  -346  -350  -360  -374  -393  -433  -501  -577  -631  -656  -662  -661  -642  -587  -496  -409  -357  -338  -342  -381  -473  -575  -612  -572  -518  -493  -491  -497  -501  -505  -502  -480  -435  -388  -364  -362  -373  -396  -415  -389  -267  -69  107  200  237  254  253  244  241  230  167  16  -195  -392  -521  -597  -644  -662  -648  -626  -613  -610  -627  -674  -741  -797  -826  -866  -990  -1219  -1386  -1188  -394  1113  3291  5745  7821  8874  8512  6811  4281  1656  -321  -1238  -1247  -879  -575  -450  -436  -455  -488  -548  -632  -701  -729  -724  -713  -711  -714  -696  -636  -554  -490  -464  -457  -444  -405  -352  -313  -297  -277  -220  -125  -31  20  28  20  24  56  121  200  270  332  391  430  448  485  588  757  925  1028  1073  1105  1153  1224  1330  1503  1718  1878  1936  1926  1891  1854  1814  1741  1582  1310  976  681  482  355  243  91  -124  -377  -622  -832  -993  -1117  -1250  -1401  -1525  -1589  -1605  -1595  -1567  -1526  -1478  -1430  -1384  -1352  -1336  -1331  -1329  -1326  -1323  -1321  -1319  -1319  -1330  -1364  -1417  -1469  -1502  -1508  -1463  -1351  -1207  -1107  -1078  -1088  -1103  -1111  -1114  -1118  -1129  -1148  -1158  -1106  -949  -735  -574  -511  -511  -538  -587  -657  -733  -796  -837  -857  -860  -837  -775  -693  -629  -602  -599  -608  -628  -655  -667  -665  -693  -767  -858  -946  -1005  -1014  -994  -987  -1008  -1034  -1036  -1014  -988  -972  -963  -959  -960  -968  -979  -978  -944  -852  -706  -548  -415  -324  -277  -262  -258  -256  -253  -247  -249  -273  -321  -385  -446  -504  -578  -671  -773  -859  -891  -877  -861  -867  -883  -887  -890  -915  -941  -923  -902  -1003  -1236  -1361  -1059  -118  1464  3468  5536  7227  8073  7732  6160  3734  1217  -611  -1391  -1298  -815  -445  -424  -624  -797  -840  -787  -709  -658  -643  -648  -652  -649  -641  -641  -653  -665  -651  -593  -489  -373  -286  -249  -246  -252  -251  -242  -231  -229  -236  -245  -232  -151  34  272  444  504  500  481  468  469  503  586  705  829  957  1126  1338  1531  1657  1730  1784  1833  1877  1921  1975  2038  2093  2118  2107  2077  2025  1908  1686  1369  1011  688  467  321  157  -70  -317  -508  -605  -633  -628  -608  -586  -570  -560  -561  -589  -656  -743  -812  -844  -851  -841  -812  -766  -705  -630  -559  -496  -425  -359  -325  -310  -293  -280  -279  -271  -235  -196  -180  -179  -177  -172  -164  -153  -148  -164  -198  -224  -228  -229  -259  -335  -429  -495  -510  -485  -428  -346  -250  -172  -133  -116  -87  -36  9  8  -60  -165  -242  -254  -215  -162  -123  -96  -77  -70  -79  -110  -154  -189  -200  -183  -136  -49  64  145  138  40  -92  -194  -244  -267  -283  -301  -323  -340  -341  -318  -267  -193  -117  -57  -14  12  9  -24  -58  -56  4  119  245  328  360  368  373  384  404  425  409  306  111  -108  -276  -364  -400  -428  -463  -487  -492  -496  -507  -518  -531  -549  -543  -518  -615  -894  -1054  -679  428  2238  4497  6707  8197  8428  7255  4924  2119  -225  -1476  -1593  -1030  -419  -153  -224  -406  -545  -618  -645  -647  -635  -620  -606  -592  -578  -555  -499  -409  -313  -245  -213  -211  -230  -278  -364  -443  -432  -316  -160  -32  47  89  96  69  35  40  118  260  417  554  687  821  931  1003  1063  1144  1265  1420  1594  1771  1928  2029  2070  2091  2150  2262  2391  2493  2546  2543  2499  2429  2301  2069  1770  1506  1327  1191  1028  786  451  96  -154  -254  -271  -295  -354  -429  -491  -525  -541  -570  -638  -732  -807  -843  -862  -875  -882  -882  -881  -879  -885  -911  -950  -975  -969  -946  -930  -933  -938  -908  -816  -691  -615  -629  -696  -749  -758  -742  -728  -719  -716  -733  -783  -852  -905  -926  -925  -907  -870  -821  -784  -770  -771  -789  -839  -914  -968  -973  -961  -962  -966  -968  -986  -1036  -1098  -1116  -1059  -967  -900  -869  -852  -848  -869  -908  -939  -930  -880  -817  -787  -806  -846  -874  -888  -892  -880  -840  -775  -704  -636  -569  -510  -463  -412  -337  -256  -199  -164  -138  -122  -122  -137  -158  -192  -246  -316  -390  -473  -564  -624  -627  -611  -639  -746  -895  -995  -1004  -969  -927  -842  -697  -617  -790  -1133  -1179  -456  1145  3419  5848  7607  7988  6812  4448  1693  -548  -1717  -1837  -1426  -1037  -870  -828  -782  -716  -665  -651  -678  -730  -769  -769  -742  -708  -665  -615  -568  -533  -521  -534  -559  -578  -575  -543  -493  -431  -358  -291  -244  -203  -170  -142  -86  32  182  293  338  355  400  512  679  845  961  1046  1147  1277  1407  1494  1525  1546  1641  1875  2189  2437  2545  2573  2599  2642  2682  2689  2622  2444  2187  1954  1810  1693  1469  1092  696  447  339  245  83  -114  -274  -362  -399  -427  -470  -532  -602  -674  -756  -857  -943  -952  -871  -768  -704  -683  -679  -678  -674  -669  -662  -654  -647  -642  -635  -625  -610  -588  -540  -461  -376  -319  -298  -298  -301  -303  -314  -341  -376  -405  -429  -462  -496  -510  -508  -502  -488  -447  -383  -324  -300  -318  -361  -400  -420  -430  -444  -473  -518  -569  -604  -603  -563  -512  -477  -457  -441  -433  -447  -478  -511  -541  -564  -566  -546  -517  -498  -489  -480  -488  -540  -612  -660  -673  -672  -681  -698  -696  -656  -570  -430  -260  -130  -77  -72  -77  -79  -79  -78  -82  -103  -151  -207  -261  -324  -396  -471  -552  -644  -758  -882  -965  -982  -959  -931  -902  -844  -750  -646  -574  -585  -742  -1062  -1403  -1432  -794  640  2672  4861  6744  7945  8141  7127  5045  2464  150  -1258  -1568  -1145  -573  -242  -210  -319  -437  -540  -629  -689  -714  -729  -755  -788  -811  -820  -829  -832  -800  -705  -590  -537  -562  -595  -567  -467  -342  -253  -218  -214  -216  -200  -146  -71  0  69  137  189  225  267  345  475  630  758  832  866  913  1031  1232  1439  1558  1580  1581  1659  1850  2081  2241  2295  2294  2285  2279  2243  2117  1868  1549  1252  1015  827  677  543  403  262  124  -33  -221  -395  -504  -559  -608  -654  -670  -652  -621  -588  -551  -509  -466  -448  -500  -635  -802  -914  -931  -880  -789  -679  -582  -521  -495  -493  -499  -503  -498  -479  -450  -430  -446  -516  -616  -696  -723  -686  -578  -438  -345  -336  -384  -439  -467  -469  -468  -468  -455  -436  -428  -428  -418  -390  -372  -400  -472  -570  -659  -691  -665  -629  -622  -640  -652  -639  -621  -618  -612  -569  -491  -422  -426  -520  -647  -755  -838  -876  -853  -790  -720  -675  -677  -706  -725  -726  -719  -717  -742  -806  -885  -914  -850  -724  -606  -513  -403  -266  -156  -102  -85  -80  -75  -70  -67  -70  -87  -124  -182  -263  -371  -489  -582  -650  -728  -826  -904  -928  -912  -886  -863  -843  -831  -840  -866  -889  -964  -1180  -1501  -1729  -1522  -538  1303  3711  6173  8060  8754  8020  6131  3628  1221  -458  -1234  -1329  -1086  -836  -729  -726  -767  -820  -857  -868  -851  -799  -705  -590  -498  -451  -443  -462  -499  -540  -574  -597  -610  -618  -610  -569  -492  -407  -342  -294  -240  -178  -132  -112  -91  -33  62  163  247  325  423  536  622  665  694  748  844  982  1141  1283  1387  1485  1633  1856  2098  2267  2336  2371  2426  2473  2446  2321  2115  1860  1581  1336  1180  1084  940  681  354  62  -139  -261  -332  -375  -397  -403  -406  -416  -438  -460  -464  -456  -479  -572  -712  -830  -890  -908  -903  -857  -743  -588  -470  -435  -481  -591  -711  -758  -702  -619  -612  -689  -772  -810  -816  -810  -784  -724  -646  -589  -568  -572  -590  -622  -658  -669  -629  -551  -487  -465  -465  -456  -432  -419  -436  -484  -537  -567  -557  -505  -436  -383  -358  -347  -352  -385  -435  -475  -481  -433  -339  -252  -237  -313  -436  -534  -574  -575  -565  -546  -509  -455  -400  -365  -381  -458  -549  -598  -598  -561  -482  -373  -279  -236  -229  -231  -228  -204  -148  -76  -22  1  3  0  26  116  252  365  411  401  364  301  183  1  -192  -325  -384  -422  -467  -507  -529  -541  -548  -547  -534  -509  -493  -550  -719  -938  -1062  -896  -193  1191  3150  5354  7279  8233  7720  5810  3090  453  -1273  -1826  -1530  -942  -571  -542  -590  -548  -480  -435  -400  -390  -429  -482  -495  -474  -454  -445  -441  -436  -425  -402  -373  -360  -369  -383  -388  -378  -352  -303  -222  -107  9  83  93  76  87  153  275  417  514  547  561  606  702  829  955  1069  1178  1290  1415  1566  1741  1931  2122  2277  2370  2424  2478  2537  2582  2608  2608  2546  2382  2140  1899  1714  1559  1347  1030  670  367  148  -12  -159  -343  -552  -701  -745  -726  -700  -700  -743  -825  -920  -987  -1011  -1008  -984  -936  -877  -831  -812  -810  -823  -860  -917  -961  -967  -936  -891  -857  -842  -837  -834  -837  -853  -880  -907  -925  -932  -919  -885  -836  -781  -733  -705  -702  -712  -717  -720  -752  -815  -873  -902  -909  -902  -866  -808  -771  -780  -806  -821  -823  -812  -800  -798  -801  -800  -795  -793  -789  -772  -738  -704  -677  -654  -624  -577  -518  -474  -455  -446  -426  -390  -348  -309  -272  -232  -190  -156  -144  -182  -283  -411  -500  -544  -601  -704  -826  -913  -940  -914  -865  -811  -751  -700  -701  -797  -979  -1149  -1221  -1276  -1348  -1155  -357  1135  3199  5449  7201  7743  6736  4435  1617  -738  -1906  -1862  -1235  -680  -436  -424  -492  -559  -616  -661  -683  -687  -688  -694  -694  -676  -643  -610  -580  -537  -470  -387  -297  -200  -103  -31  -1  -5  -34  -74  -100  -91  -41  29  101  179  257  317  353  384  430  519  666  859  1060  1228  1342  1401  1412  1401  1442  1621  1933  2245  2433  2494  2506  2520  2540  2551  2553  2549  2513  2382  2140  1869  1664  1529  1384  1165  886  597  326  86  -99  -225  -344  -526  -748  -915  -988  -1004  -989  -920  -755  -512  -295  -212  -298  -516  -758  -908  -935  -877  -786  -706  -661  -635  -604  -557  -523  -527  -550  -558  -563  -577  -588  -587  -574  -557  -540  -522  -507  -495  -475  -444  -416  -409  -426  -461  -499  -519  -516  -503  -495  -496  -501  -503  -489  -455  -412  -383  -371  -371  -387  -427  -480  -526  -557  -572  -569  -532  -463  -397  -376  -399  -445  -500  -559  -620  -676  -702  -659  -538  -386  -256  -174  -141  -152  -187  -212  -194  -121  -6  96  109  -5  -228  -496  -734  -894  -970  -985  -964  -920  -863  -801  -746  -712  -712  -747  -806  -862  -939  -1135  -1444  -1609  -1294  -326  1331  3529  5787  7494  8184  7583  5718  3091  536  -1216  -1842  -1544  -921  -509  -459  -612  -764  -838  -857  -844  -808  -761  -723  -699  -673  -634  -586  -547  -529  -527  -512  -477  -447  -441  -448  -453  -440  -394  -313  -233  -198  -200  -199  -171  -106  -16  86  190  271  323  357  373  375  400  490  641  792  899  978  1084  1260  1506  1765  1956  2046  2061  2052  2043  2024  1987  1945  1901  1834  1745  1657  1552  1354  1022  619  258  10  -120  -172  -221  -329  -488  -632  -708  -720  -706  -695  -702  -720  -733  -739  -733  -707  -662  -629  -630  -648  -659  -660  -667  -689  -721  -747  -762  -764  -749  -719  -689  -669  -652  -636  -635  -655  -689  -717  -721  -691  -617  -517  -430  -384  -379  -405  -444  -472  -481  -484  -509  -568  -650  -714  -722  -677  -610  -542  -475  -419  -390  -392  -408  -419  -421  -426  -450  -495  -541  -568  -572  -566  -559  -555  -553  -554  -554  -542  -506  -456  -422  -419  -436  -441  -408  -350  -304  -287  -279  -256  -183  -37  144  264  264  157  -17  -209  -359  -451  -534  -669  -840  -963  -997  -985  -977  -977  -949  -858  -723  -600  -527  -544  -715  -1012  -1271  -1206  -483  1049  3224  5626  7634  8594  8151  6371  3744  1122  -723  -1512  -1466  -1065  -727  -613  -679  -787  -835  -819  -777  -743  -721  -697  -666  -633  -602  -560  -499  -429  -369  -329  -308  -306  -313  -316  -305  -284  -272  -283  -305  -320  -318  -288  -215  -73  135  342  468  512  535  589  693  827  948  1034  1103  1176  1258  1363  1493  1624  1743  1873  2014  2142  2252  2359  2455  2515  2530  2486  2353  2119  1836  1592  1425  1312  1211  1074  889  690  487  256  21  -157  -287  -411  -528  -602  -639  -674  -720  -756  -769  -770  -767  -765  -761  -756  -753  -752  -754  -752  -737  -707  -672  -643  -627  -621  -618  -623  -654  -717  -792  -841  -854  -846  -833  -821  -810  -793  -768  -754  -770  -804  -830  -823  -760  -645  -531  -482  -515  -597  -688  -775  -851  -896  -885  -815  -717  -642  -609  -609  -641  -721  -827  -913  -954  -963  -955  -937  -907  -875  -850  -836  -836  -855  -897  -955  -1012  -1053  -1066  -1050  -1022  -1005  -1006  -1013  -1015  -1015  -1021  -1027  -1001  -913  -766  -607  -511  -511  -584  -686  -802  -954  -1150  -1341  -1477  -1551  -1583  -1592  -1588  -1588  -1613  -1675  -1762  -1833  -1866  -1864  -1847  -1866  -1983  -2190  -2344  -2160  -1284  432  2702  4910  6366  6566  5423  3260  681  -1569  -2928  -3308  -3019  -2486  -2069  -1921  -1952  -2009  -2027  -2002  -1957  -1949  -2040  -2201  -2336  -2396  -2399  -2355  -2256  -2133  -2046  -2016  -2019  -2032  -2054  -2085  -2108  -2101  -2051  -1970  -1903  -1876  -1868  -1870  -1895  -1927  -1944  -1921  -1800  -1530  -1184  -925  -830  -836  -856  -831  -734  -584  -431  -287  -123  68  261  433  589  748  901  994  958  774  524  347  290  284  246  150  6  -172  -373  -603  -871  -1147  -1400  -1631  -1843  -2012  -2127  -2216  -2324  -2446  -2536  -2569  -2566  -2560  -2571  -2594  -2586  -2520  -2436  -2377  -2344  -2336  -2362  -2406  -2440  -2442  -2417  -2387  -2359  -2303  -2196  -2061  -1946  -1879  -1856  -1856  -1861  -1865  -1865  -1860  -1849  -1834  -1814  -1771  -1692  -1602  -1540  -1519  -1523  -1529  -1518  -1472  -1391  -1294  -1201  -1129  -1076  -1033  -1002  -991  -992  -978  -917  -793  -612  -414  -260  -167  -113  -67  -3  91  208  312  376  428  544  758  1026  1276  1464  1582  1636  1645  1637  1628  1624  1630  1655  1698  1739  1785  1874  2022  2214  2432  2632  2767  2828  2858  2914  3031  3194  3361  3495  3636  3994  4881  6445  8482  10459  11816  12344  12050  10850  8972  7241  6331  6108  6053  5923  5789  5722]
