reading_id,reading_time,wire_id,result_classification,heart_rate,heart_rate_alert,firmware_version,device_app_version,hardware_version,waveform_samples
616700c0-5d84-11ed-8080-808080808080,Sun Nov 06 03:37:46 UTC 2022,e101e3752439,NSR,66,NONE,20001.171.50,2.10.0,Charge 5,[-8815  -9843  -10380  -10360  -10031  -9635  -9297  -9025  -8705  -8213  -7462  -6266  -4503  -2435  -322  2068  4880  7810  10624  13097  14829  15818  16592  17577  18672  19524  20070  20507  20894  21268  21808  22503  23236  24001  24869  26072  27599  28967  29700  29396  27875  25672  23721  22588  22333  22800  23667  24435  24900  25348  25879  26240  26351  26344  26299  26194  25986  25716  25490  25355  25284  25200  24901  24186  23154  22117  21152  20059  18767  17452  16268  15211  14144  12878  11448  10126  9061  8223  7518  6717  5506  3797  1933  476  -253  -401  -328  -270  -315  -488  -720  -871  -869  -754  -592  -414  -242  -70  210  750  1495  2183  2687  3074  3380  3604  3842  4204  4616  4896  5001  5037  5108  5241  5416  5602  5763  5896  6020  6101  6072  5938  5749  5562  5422  5309  5185  5062  4973  4938  4967  5045  5124  5077  4698  3940  3124  2613  2405  2237  1978  1716  1539  1411  1260  1077  912  815  782  777  774  772  791  831  824  613  102  -542  -1020  -1211  -1218  -1184  -1228  -1412  -1671  -1864  -1931  -1924  -1905  -1905  -1942  -2013  -2082  -2136  -2213  -2350  -2536  -2708  -2824  -2888  -2853  -2693  -2496  -2493  -2914  -3543  -3642  -2649  -676  1699  3732  4761  4573  3475  1870  -10  -1907  -3362  -3947  -3583  -2590  -1476  -740  -575  -704  -714  -435  0  312  307  -19  -482  -831  -963  -930  -799  -655  -604  -692  -849  -966  -1003  -995  -981  -971  -968  -987  -1041  -1113  -1154  -1125  -1026  -861  -636  -390  -186  -52  30  80  117  190  335  475  485  359  209  128  114  76  -71  -307  -532  -694  -825  -960  -1101  -1243  -1382  -1508  -1635  -1841  -2153  -2459  -2631  -2668  -2645  -2616  -2605  -2639  -2745  -2888  -2992  -3022  -3009  -3000  -3035  -3122  -3221  -3293  -3347  -3385  -3381  -3326  -3247  -3188  -3155  -3125  -3099  -3109  -3167  -3228  -3230  -3169  -3092  -3032  -2994  -2992  -3043  -3125  -3190  -3217  -3229  -3254  -3285  -3287  -3236  -3115  -2912  -2688  -2527  -2433  -2350  -2240  -2092  -1934  -1817  -1773  -1787  -1821  -1873  -1950  -1977  -1881  -1736  -1640  -1578  -1504  -1443  -1462  -1572  -1697  -1771  -1820  -1900  -2005  -2055  -2000  -1881  -1774  -1696  -1603  -1484  -1377  -1304  -1256  -1220  -1198  -1195  -1205  -1199  -1094  -810  -408  -78  72  103  108  132  194  290  392  465  502  514  469  308  42  -215  -368  -421  -431  -432  -449  -526  -683  -885  -1061  -1163  -1211  -1240  -1217  -1045  -715  -362  -34  306  677  1412  2851  4607  5961  6406  5633  3799  1601  -254  -1412  -1827  -1668  -1203  -714  -473  -575  -822  -978  -1007  -953  -826  -653  -492  -375  -289  -223  -184  -163  -137  -127  -160  -212  -249  -274  -280  -206  10  309  547  671  744  810  861  894  914  946  1055  1304  1663  2012  2259  2384  2437  2507  2653  2842  2982  3026  2976  2839  2628  2404  2240  2114  1922  1631  1319  1066  880  753  655  520  310  78  -92  -211  -339  -470  -555  -587  -608  -635  -656  -664  -670  -688  -716  -737  -728  -682  -614  -550  -498  -451  -405  -377  -410  -509  -629  -730  -764  -664  -415  -118  88  165  167  110  -56  -329  -595  -737  -750  -703  -657  -617  -563  -495  -438  -403  -387  -382  -382  -387  -395  -406  -422  -438  -446  -448  -441  -422  -403  -419  -459  -465  -418  -353  -313  -329  -397  -480  -565  -651  -711  -716  -645  -503  -315  -106  83  199  235  244  274  336  411  465  473  415  277  101  -24  -63  -50  -32  -46  -113  -225  -346  -429  -396  -148  272  595  591  307  -50  -250  -24  817  2265  4064  5672  6488  6176  4701  2457  235  -1354  -2151  -2262  -1984  -1667  -1472  -1352  -1205  -977  -685  -437  -338  -378  -449  -477  -475  -493  -555  -631  -699  -762  -793  -738  -582  -368  -159  4  115  172  195  228  294  378  450  506  569  667  810  1002  1243  1530  1837  2161  2548  2950  3212  3253  3128  2952  2823  2765  2741  2695  2560  2315  2020  1738  1482  1277  1160  1106  1048  939  783  607  421  205  -40  -282  -462  -545  -548  -535  -561  -649  -775  -869  -874  -769  -551  -283  -93  -43  -95  -192  -310  -464  -673  -910  -1100  -1195  -1218  -1213  -1189  -1133  -1055  -983  -942  -949  -1012  -1098  -1153  -1162  -1150  -1142  -1142  -1132  -1090  -1035  -1044  -1149  -1268  -1320  -1320  -1325  -1354  -1368  -1343  -1331  -1361  -1384  -1376  -1365  -1377  -1431  -1531  -1646  -1727  -1758  -1762  -1761  -1764  -1770  -1768  -1748  -1710  -1668  -1642  -1634  -1612  -1536  -1398  -1224  -1046  -890  -757  -636  -549  -558  -690  -882  -1029  -1080  -1076  -1078  -1097  -1113  -1118  -1124  -1167  -1273  -1404  -1488  -1504  -1511  -1597  -1787  -2007  -2153  -2197  -2155  -2037  -1917  -1956  -2143  -2242  -2062  -1471  -343  1193  2748  3976  4617  4366  3101  1109  -1055  -2796  -3675  -3646  -3029  -2245  -1604  -1232  -1082  -1044  -1058  -1113  -1164  -1154  -1051  -871  -670  -497  -382  -338  -378  -518  -743  -972  -1118  -1170  -1160  -1095  -951  -719  -433  -163  28  124  141  117  109  160  290  517  804  1089  1379  1710  2039  2279  2398  2432  2426  2394  2331  2242  2142  2051  2007  2037  2128  2184  2093  1884  1706  1630  1602  1517  1305  1013  758  594  503  468  463  463  455  432  392  342  291  240  192  147  107  84  114  224  377  489  528  529  522  503  448  366  312  319  359  391  406  422  457  506  555  598  632  663  711  776  833  863  870  870  872  874  861  818  759  724  741  790  803  738  638  586  622  665  608  491  426  439  499  564  609  643  668  692  735  802  879  955  1031  1104  1135  1039  746  328  -37  -253  -350  -379  -364  -324  -289  -270  -244  -200  -168  -166  -171  -192  -252  -318  -331  -277  -195  -137  -118  -113  -99  -80  -72  -76  -79  -91  -143  -263  -419  -536  -585  -592  -574  -532  -477  -440  -430  -432  -434  -445  -478  -536  -623  -753  -897  -997  -1037  -1055  -1086  -1150  -1195  -990  -253  1085  2850  4655  5963  6314  5530  3806  1643  -435  -1965  -2577  -2321  -1688  -1168  -958  -970  -1014  -1003  -961  -914  -861  -811  -772  -725  -664  -604  -554  -502  -445  -398  -382  -390  -400  -398  -391  -392  -408  -444  -496  -550  -600  -624  -558  -332  0  284  471  677  979  1284  1466  1535  1606  1766  2005  2262  2487  2627  2639  2531  2345  2112  1880  1720  1637  1577  1504  1418  1267  973  575  213  -19  -126  -150  -144  -149  -198  -320  -501  -672  -778  -813  -801  -778  -763  -754  -746  -738  -737  -749  -781  -839  -924  -1020  -1102  -1149  -1168  -1174  -1160  -1087  -960  -888  -955  -1078  -1126  -1072  -971  -898  -893  -951  -1032  -1098  -1138  -1172  -1217  -1253  -1229  -1117  -952  -797  -704  -678  -687  -711  -744  -789  -834  -858  -843  -784  -686  -575  -489  -439  -395  -341  -302  -321  -398  -465  -483  -497  -533  -548  -530  -508  -498  -493  -477  -449  -433  -469  -568  -670  -695  -648  -596  -575  -585  -621  -672  -713  -714  -675  -626  -577  -503  -412  -340  -299  -285  -289  -310  -357  -431  -512  -565  -564  -512  -444  -387  -343  -302  -259  -185  -39  139  254  263  197  114  51  5  -36  -67  -85  -105  -140  -192  -260  -331  -394  -449  -499  -531  -545  -557  -578  -617  -662  -668  -609  -383  326  1760  3709  5650  6978  7180  6142  4219  1897  -371  -2042  -2705  -2443  -1703  -944  -493  -426  -555  -678  -747  -771  -732  -604  -386  -139  44  126  134  100  30  -84  -236  -373  -428  -358  -168  66  247  346  395  418  430  440  448  449  463  543  733  1044  1418  1754  2022  2276  2527  2713  2781  2749  2677  2614  2576  2543  2495  2434  2385  2354  2322  2234  2020  1668  1295  1055  985  1013  1047  986  747  372  -1  -312  -571  -758  -846  -853  -817  -773  -742  -730  -734  -743  -740  -720  -700  -710  -759  -819  -863  -884  -894  -895  -869  -789  -671  -568  -528  -567  -635  -620  -492  -340  -239  -203  -242  -371  -555  -709  -778  -764  -697  -626  -584  -569  -563  -551  -522  -482  -451  -453  -491  -547  -593  -617  -617  -600  -582  -575  -574  -569  -560  -560  -580  -630  -712  -802  -862  -892  -923  -959  -965  -908  -806  -702  -609  -520  -452  -422  -422  -437  -456  -474  -492  -511  -534  -557  -575  -584  -586  -580  -556  -508  -448  -397  -362  -341  -331  -333  -347  -371  -399  -408  -393  -375  -379  -401  -418  -419  -422  -426  -399  -328  -225  -122  -41  20  69  105  125  128  107  69  27  -14  -47  -64  -76  -102  -139  -171  -218  -312  -439  -548  -611  -625  -582  -476  -319  -187  -222  -501  -900  -1069  -589  750  2764  4905  6444  6831  5991  4196  1890  -335  -1978  -2830  -2877  -2310  -1589  -1122  -952  -913  -897  -888  -891  -909  -934  -950  -911  -763  -526  -308  -194  -175  -206  -261  -322  -365  -380  -369  -330  -264  -186  -106  -23  58  143  251  396  547  660  768  960  1272  1643  1976  2206  2345  2463  2627  2856  3095  3262  3336  3330  3238  3070  2880  2714  2533  2234  1816  1439  1242  1194  1168  1053  806  445  50  -248  -382  -406  -412  -428  -427  -395  -385  -465  -607  -715  -757  -773  -806  -865  -920  -940  -937  -939  -944  -937  -909  -860  -804  -768  -766  -801  -855  -902  -928  -934  -911  -816  -626  -446  -438  -589  -718  -708  -578  -421  -318  -273  -253  -244  -259  -336  -501  -725  -937  -1082  -1143  -1129  -1048  -892  -663  -417  -240  -182  -232  -341  -452  -540  -601  -635  -635  -597  -530  -455  -408  -401  -411  -416  -416  -417  -418  -408  -379  -338  -304  -283  -267  -246  -226  -213  -221  -250  -279  -295  -299  -299  -299  -300  -302  -304  -303  -298  -281  -252  -218  -193  -181  -181  -186  -191  -186  -162  -128  -121  -159  -206  -221  -184  -81  68  201  276  306  312  301  285  283  304  335  344  310  251  208  210  250  283  272  218  120  -23  -180  -302  -377  -431  -483  -529  -570  -611  -639  -628  -561  -459  -407  -512  -761  -853  -305  1136  3245  5415  6920  7200  6111  3993  1494  -751  -2279  -2882  -2770  -2353  -1871  -1430  -1114  -907  -745  -631  -581  -573  -573  -572  -573  -587  -622  -683  -749  -791  -807  -810  -810  -805  -791  -758  -707  -652  -603  -528  -382  -194  -50  22  64  123  233  387  522  598  674  879  1269  1727  2083  2280  2360  2370  2346  2309  2270  2218  2110  1916  1664  1438  1296  1231  1199  1156  1043  795  445  134  -40  -119  -198  -328  -504  -683  -810  -872  -920  -988  -1030  -1015  -987  -962  -911  -846  -803  -779  -758  -738  -730  -737  -743  -733  -713  -696  -691  -693  -687  -655  -598  -528  -469  -434  -422  -419  -420  -424  -433  -424  -355  -200  -9  131  199  226  230  212  177  136  87  41  44  129  259  357  386  358  287  185  80  21  33  87  121  86  -29  -182  -297  -343  -347  -339  -333  -324  -293  -230  -150  -82  -38  -23  -37  -66  -97  -127  -156  -195  -251  -319  -380  -400  -370  -322  -278  -215  -116  4  117  200  256  298  313  277  188  85  8  -34  -61  -80  -102  -149  -237  -343  -422  -453  -449  -425  -392  -355  -314  -271  -235  -244  -346  -512  -635  -547  6  1186  2850  4591  5838  6041  4981  2856  239  -2034  -3328  -3493  -2829  -1979  -1462  -1303  -1278  -1224  -1121  -1032  -980  -914  -822  -754  -727  -713  -665  -576  -502  -478  -481  -461  -393  -310  -273  -293  -324  -328  -315  -305  -292  -245  -152  -17  175  422  682  916  1110  1285  1484  1728  1974  2150  2238  2296  2377  2479  2566  2602  2581  2525  2443  2324  2172  2008  1836  1633  1390  1124  859  630  473  383  296  146  -75  -314  -518  -674  -778  -819  -812  -788  -761  -732  -701  -672  -642  -607  -583  -588  -604  -620  -643  -679  -725  -777  -811  -800  -732  -630  -537  -468  -412  -370  -346  -341  -371  -453  -565  -653  -683  -657  -579  -474  -395  -377  -413  -468  -502  -506  -492  -488  -538  -663  -799  -864  -860  -842  -826  -802  -761  -708  -665  -648  -650  -652  -642  -612  -561  -495  -434  -410  -431  -473  -506  -537  -589  -659  -716  -753  -783  -799  -799  -813  -839  -835  -796  -744  -683  -619  -557  -479  -371  -248  -149  -100  -89  -93  -116  -171  -245  -300  -319  -317  -311  -312  -336  -388  -461  -544  -652  -790  -901  -899  -788  -653  -542  -453  -384  -340  -360  -517  -806  -1087  -1174  -864  103  1822  3942  5795  6744  6341  4582  2063  -378  -2096  -2779  -2540  -1825  -1123  -715  -592  -577  -547  -488  -423  -357  -283  -202  -140  -119  -116  -86  -27  31  57  30  -35  -102  -147  -167  -160  -114  -20  110  241  323  346  337  349  426  570  713  800  849  928  1084  1336  1676  2036  2304  2448  2528  2588  2578  2446  2248  2099  2033  1986  1911  1799  1637  1420  1164  870  557  297  141  68  7  -108  -275  -437  -559  -661  -769  -854  -862  -778  -636  -496  -410  -385  -393  -410  -443  -512  -612  -706  -756  -764  -756  -750  -750  -748  -732  -690  -623  -546  -477  -431  -396  -352  -299  -254  -219  -204  -203  -201  -224  -302  -393  -435  -415  -349  -277  -244  -261  -316  -382  -426  -443  -455  -483  -533  -576  -565  -502  -441  -408  -383  -347  -305  -275  -262  -265  -286  -329  -365  -365  -355  -377  -417  -443  -452  -459  -466  -470  -461  -421  -335  -242  -233  -354  -525  -610  -550  -409  -283  -196  -129  -75  -42  -37  -68  -146  -254  -352  -434  -528  -607  -611  -515  -342  -163  -53  -26  -35  -35  -13  14  32  60  120  195  257  282  262  221  174  102  14  -51  -79  -81  -79  -100  -169  -275  -366  -405  -372  -234  -22  56  -201  -666  -952  -700  330  2132  4296  6174  7154  6867  5338  3002  536  -1412  -2417  -2436  -1866  -1208  -793  -705  -786  -841  -818  -759  -707  -679  -667  -663  -667  -678  -692  -702  -705  -705  -705  -707  -703  -666  -573  -453  -367  -327  -283  -192  -53  102  257  432  623  766  832  867  905  957  1067  1314  1692  2054  2270  2358  2395  2423  2470  2566  2695  2785  2744  2513  2148  1813  1607  1468  1291  1065  844  650  450  218  -1  -138  -184  -200  -249  -341  -441  -517  -572  -614  -636  -632  -613  -603  -618  -644  -655  -652  -665  -706  -732  -702  -637  -582  -553  -541  -540  -567  -640  -738  -809  -837  -845  -848  -819  -742  -685  -725  -815  -865  -845  -791  -769  -819  -894  -912  -835  -701  -580  -510  -476  -451  -429  -420  -431  -455  -475  -476  -464  -453  -442  -419  -381  -340  -305  -283  -275  -287  -334  -422  -520  -584  -602  -582  -525  -446  -377  -344  -339  -334  -306  -268  -236  -204  -168  -139  -120  -110  -110  -119  -131  -127  -85  -11  48  61  49  51  47  -19  -136  -205  -169  -88  -33  -2  21  29  0  -86  -197  -286  -336  -354  -343  -304  -219  -76  75  157  145  87  38  16  16  43  109  201  278  318  331  325  282  183  47  -69  -127  -135  -124  -121  -146  -208  -280  -314  -283  -193  -91  -109  -392  -872  -1218  -1020  9  1842  4011  5864  6945  7010  5945  3916  1455  -769  -2201  -2565  -2062  -1285  -732  -516  -521  -598  -658  -692  -705  -673  -578  -452  -364  -334  -337  -350  -363  -377  -388  -390  -383  -376  -376  -378  -372  -342  -276  -187  -90  15  127  231  341  476  632  783  900  972  1038  1163  1393  1702  1980  2137  2192  2212  2213  2175  2119  2094  2117  2148  2118  1976  1720  1424  1187  1029  870  653  393  129  -103  -266  -356  -417  -502  -628  -763  -854  -889  -897  -888  -848  -776  -690  -595  -501  -443  -448  -522  -638  -743  -798  -813  -812  -803  -782  -748  -719  -720  -729  -699  -609  -475  -343  -266  -283  -395  -547  -657  -692  -677  -638  -596  -573  -577  -593  -598  -584  -563  -541  -513  -485  -471  -467  -468  -469  -478  -496  -517  -535  -571  -640  -721  -758  -722  -646  -587  -566  -568  -578  -592  -605  -602  -570  -518  -475  -460  -468  -483  -487  -464  -409  -344  -300  -290  -301  -320  -335  -330  -286  -199  -105  -45  -25  -25  -25  -14  -4  -26  -88  -157  -212  -247  -268  -294  -334  -368  -365  -331  -309  -324  -349  -339  -280  -199  -128  -90  -99  -161  -256  -346  -405  -427  -400  -312  -192  -98  -56  -54  -78  -113  -142  -144  -85  46  203  316  371  391  376  277  57  -216  -410  -479  -489  -503  -532  -574  -613  -638  -638  -584  -466  -373  -413  -530  -617  -632  -425  253  1514  3247  5076  6366  6590  5596  3628  1323  -646  -1950  -2488  -2379  -2024  -1734  -1488  -1213  -950  -754  -646  -602  -580  -580  -609  -625  -581  -488  -403  -358  -346  -349  -357  -370  -381  -379  -350  -281  -190  -121  -98  -97  -69  21  149  251  310  370  478  631  778  902  1057  1270  1485  1654  1853  2203  2653  3001  3146  3157  3102  2979  2798  2606  2412  2146  1764  1364  1108  1025  1017  1015  994  871  540  69  -311  -487  -543  -582  -629  -691  -786  -906  -1013  -1076  -1093  -1077  -1035  -975  -925  -910  -926  -944  -942  -924  -901  -872  -833  -779  -717  -684  -702  -746  -783  -809  -837  -865  -872  -833  -735  -581  -412  -285  -242  -293  -405  -523  -606  -648  -649  -603  -516  -424  -361  -335  -342  -373  -418  -472  -538  -596  -615  -599  -579  -562  -539  -515  -505  -500  -486  -473  -486  -525  -557  -549  -512  -464  -408  -352  -300  -234  -166  -133  -169  -287  -443  -556  -598  -606  -599  -541  -394  -202  -71  -51  -93  -137  -159  -163  -158  -150  -145  -168  -238  -336  -406  -411  -352  -263  -191  -156  -156  -188  -248  -304  -307  -248  -155  -61  11  45  26  -45  -143  -224  -276  -309  -319  -290  -217  -113  -17  31  38  65  174  352  515  595  582  496  384  303  262  225  160  66  -57  -232  -422  -537  -547  -501  -447  -409  -405  -439  -485  -515  -588  -766  -881  -625  235  1785  3793  5690  6866  6903  5709  3617  1232  -852  -2187  -2595  -2278  -1668  -1169  -944  -892  -864  -802  -712  -619  -543  -487  -449  -435  -449  -486  -499  -466  -433  -421  -385  -290  -153  -26  44  54  31  2  -17  -24  -17  12  76  172  278  370  447  558  774  1095  1421  1667  1842  1992  2138  2291  2461  2627  2734  2737  2640  2497  2378  2305  2232  2098  1885  1627  1350  1039  702  417  252  176  96  -43  -220  -380  -498  -581  -630  -651  -654  -653  -659  -672  -692  -726  -789  -875  -959  -1029  -1087  -1123  -1126  -1089  -1005  -886  -764  -676  -644  -662  -702  -751  -814  -893  -955  -935  -782  -557  -384  -324  -346  -416  -509  -592  -645  -666  -671  -678  -699  -733  -765  -780  -772  -743  -706  -679  -659  -629  -587  -557  -549  -548  -529  -474  -406  -365  -363  -384  -414  -443  -460  -473  -491  -509  -519  -522  -525  -515  -491  -470  -461  -425  -305  -130  -13  0  -37  -75  -105  -140  -196  -257  -298  -301  -255  -166  -66  9  57  87  84  1  -170  -364  -486  -510  -467  -391  -294  -163  0  159  253  245  174  138  202  331  447  513  546  563  560  525  456  376  308  233  113  -49  -209  -322  -383  -410  -418  -413  -398  -379  -357  -333  -355  -486  -613  -408  419  1916  3848  5663  6681  6445  4928  2562  104  -1691  -2446  -2332  -1811  -1256  -866  -719  -746  -825  -896  -940  -957  -963  -976  -989  -967  -859  -662  -440  -278  -208  -205  -230  -256  -270  -274  -274  -271  -265  -256  -259  -303  -389  -443  -360  -102  272  628  837  884  854  864  1013  1327  1729  2094  2327  2422  2459  2510  2581  2641  2666  2626  2477  2232  1980  1802  1700  1603  1437  1224  1058  957  845  679  499  336  172  -13  -188  -307  -381  -459  -561  -663  -736  -777  -794  -798  -797  -796  -798  -804  -809  -810  -812  -822  -842  -863  -865  -816  -708  -579  -477  -410  -365  -340  -351  -409  -507  -620  -726  -810  -857  -856  -782  -618  -422  -294  -296  -418  -588  -711  -751  -744  -732  -728  -727  -719  -707  -695  -680  -643  -545  -382  -211  -88  -18  6  -25  -128  -269  -383  -450  -487  -506  -508  -511  -534  -584  -648  -686  -654  -560  -459  -392  -370  -400  -492  -615  -708  -747  -751  -737  -703  -652  -612  -612  -637  -657  -665  -665  -649  -605  -542  -493  -477  -482  -480  -452  -391  -316  -277  -297  -326  -306  -234  -159  -123  -111  -74  -9  52  97  119  114  78  5  -116  -294  -486  -630  -705  -741  -747  -701  -591  -456  -359  -319  -329  -420  -627  -845  -810  -249  962  2680  4452  5709  6053  5369  3784  1686  -347  -1778  -2304  -2014  -1343  -763  -491  -459  -521  -599  -663  -694  -674  -599  -499  -425  -382  -337  -279  -227  -190  -162  -143  -126  -101  -72  -59  -63  -55  -23  10  31  59  114  182  242  305  416  604  868  1166  1426  1583  1639  1682  1816  2055  2320  2522  2625  2651  2649  2648  2636  2576  2443  2280  2169  2116  2003  1705  1243  782  456  290  242  252  274  289  273  185  17  -165  -285  -332  -341  -334  -326  -331  -358  -399  -415  -376  -319  -289  -291  -301  -309  -325  -368  -422  -457  -467  -469  -476  -492  -516  -539  -531  -465  -359  -279  -250  -250  -249  -241  -237  -258  -312  -381  -445  -494  -524  -541  -555  -561  -539  -463  -328  -185  -98  -88  -137  -220  -324  -452  -579  -659  -682  -676  -664  -654  -656  -685  -734  -747  -644  -411  -148  13  24  -78  -220  -323  -355  -326  -247  -153  -112  -162  -271  -368  -419  -438  -436  -402  -336  -259  -192  -155  -153  -171  -199  -245  -301  -359  -417  -482  -543  -580  -590  -583  -576  -597  -666  -758  -789  -698  -539  -448  -470  -513  -490  -427  -384  -368  -357  -348  -350  -368  -389  -396  -371  -296  -180  -68  -1  14  3  -15  -37  -52  -53  -34  5  49  78  88  86  66  0  -140  -340  -535  -670  -729  -720  -649  -530  -410  -336  -305  -285  -289  -410  -740  -1169  -1321  -771  628  2603  4565  5925  6340  5746  4314  2385  321  -1515  -2691  -2932  -2400  -1552  -836  -507  -523  -649  -728  -744  -717  -645  -554  -524  -591  -655  -601  -460  -347  -314  -325  -335  -336  -344  -360  -374  -378  -365  -313  -202  -40  130  271  363  418  467  515  565  666  892  1229  1552  1752  1833  1888  2005  2178  2321  2385  2396  2399  2408  2416  2425  2435  2416  2302  2042  1688  1387  1213  1077  832  463  111  -108  -214  -282  -339  -368  -362  -346  -350  -379  -432  -514  -616  -695  -726  -714  -671  -617  -579  -575  -607  -658  -697  -684  -577  -382  -182  -62  -30  -58  -137  -265  -397  -480  -508  -513  -515  -502  -454  -381  -306  -226  -125  -22  30  1  -88  -217  -351  -447  -491  -519  -568  -641  -685  -650  -545  -403  -282  -244  -283  -352  -430  -495  -526  -540  -559  -585  -598  -585  -547  -495  -433  -363  -293  -226  -155  -85  -37  -22  -42  -102  -198  -312  -416  -485  -511  -518  -531  -545  -526  -449  -334  -226  -151  -107  -94  -135  -252  -404  -513  -559  -571  -559  -501  -379  -226  -119  -111  -204  -354  -488  -558  -572  -545  -498  -458  -444  -449  -458  -462  -466  -477  -492  -511  -533  -544  -526  -489  -456  -438  -427  -413  -403  -411  -432  -437  -403  -337  -250  -156  -76  -35  -41  -79  -113  -128  -134  -138  -134  -97  -12  87  140  122  45  -89  -281  -478  -604  -643  -635  -609  -569  -533  -536  -581  -629  -649  -635  -621  -684  -881  -1172  -1336  -993  134  1985  4184  6130  7190  7006  5672  3619  1410  -442  -1649  -2153  -2093  -1762  -1433  -1171  -925  -685  -496  -393  -361  -363  -375  -384  -369  -300  -190  -106  -102  -145  -177  -180  -165  -142  -116  -79  -36  -9  -10  -30  -31  17  104  198  308  454  605  730  843  985  1175  1403  1623  1810  1971  2119  2255  2370  2464  2560  2659  2735  2772  2785  2782  2744  2619  2355  1971  1570  1260  1076  978  895  776  610  431  285  176  50  -127  -304  -390  -372  -334  -344  -397  -465  -541  -618  -685  -733  -764  -785  -801  -824  -854  -877  -861  -781  -653  -541  -486  -470  -463  -457  -464  -485  -513  -539  -559  -575  -585  -584  -560  -506  -449  -427  -445  -481  -513  -525  -495  -407  -288  -196  -156  -154  -195  -304  -465  -613  -703  -739  -736  -691  -614  -534  -486  -476  -477  -444  -349  -228  -161  -188  -265  -332  -381  -442  -520  -587  -630  -648  -638  -592  -521  -461  -427  -400  -360  -302  -238  -191  -170  -157  -147  -164  -227  -303  -346  -353  -343  -339  -355  -384  -430  -488  -540  -574  -594  -604  -591  -529  -414  -280  -159  -60  -14  -38  -81  -95  -92  -93  -96  -81  -32  35  95  146  197  220  170  47  -103  -229  -305  -354  -413  -496  -581  -637  -640  -599  -547  -520  -562  -701  -853  -902  -836  -606  -31  1041  2552  4185  5433  5776  4987  3310  1280  -579  -1925  -2579  -2537  -2061  -1546  -1193  -985  -865  -793  -746  -723  -721  -722  -707  -677  -645  -598  -507  -367  -220  -116  -92  -170  -324  -470  -543  -537  -471  -359  -214  -59  69  159  232  314  413  524  637  739  836  963  1151  1390  1639  1870  2074  2246  2401  2548  2657  2699  2686  2650  2597  2505  2377  2237  2085  1897  1681  1455  1225  999  813  681  552  356  104  -125  -295  -433  -558  -657  -726  -772  -767  -698  -613  -560  -551  -577  -643  -758  -882  -932  -870  -777  -768  -852  -942  -983  -990  -990  -974  -915  -806  -675  -551  -455  -408  -416  -456  -506  -555  -587  -597  -595  -588  -578  -573  -601  -692  -822  -916  -906  -770  -572  -434  -419  -477  -547  -602  -633  -640  -640  -654  -690  -739  -777  -789  -776  -724  -630  -524  -460  -459  -503  -548  -549  -507  -464  -456  -498  -582  -682  -763  -808  -807  -734  -574  -379  -243  -202  -216  -239  -251  -248  -233  -218  -213  -221  -251  -318  -423  -517  -531  -443  -292  -133  -24  22  34  47  67  83  86  74  49  15  -23  -60  -95  -122  -127  -96  -30  28  13  -91  -225  -328  -387  -410  -412  -402  -383  -359  -334  -319  -354  -505  -808  -1137  -1179  -629  582  2257  4060  5561  6293  6019  4821  2932  753  -1173  -2388  -2676  -2188  -1376  -687  -367  -400  -556  -645  -651  -626  -601  -585  -578  -580  -585  -575  -536  -473  -406  -350  -308  -269  -228  -200  -194  -200  -195  -159  -85  18  131  224  293  352  400  425  446  510  650  878  1195  1539  1784  1883  1930  2050  2270  2510  2684  2775  2809  2817  2802  2728  2531  2191  1790  1452  1219  1031  821  588  384  254  190  161  140  100  24  -82  -211  -360  -517  -652  -733  -751  -737  -722  -702  -662  -623  -630  -687  -745  -771  -773  -761  -731  -684  -639  -617  -619  -625  -614  -576  -523  -478  -447  -423  -403  -401  -440  -539  -672  -777  -822  -822  -805  -785  -760  -716  -655  -591  -532  -464  -381  -318  -339  -453  -585  -662  -678  -672  -663  -637  -577  -503  -457  -427  -374  -314  -278  -255  -227  -198  -180  -170  -166  -160  -143  -112  -71  -35  -23  -30  -39  -56  -106  -211  -345  -436  -438  -369  -286  -212  -136  -82  -94  -161  -232  -268  -265  -239  -204  -166  -135  -125  -144  -182  -216  -232  -234  -232  -231  -233  -237  -243  -246  -227  -171  -94  -38  -19  -20  -20  -11  -1  1  -14  -50  -96  -129  -138  -131  -120  -104  -87  -75  -82  -109  -133  -104  9  169  287  327  327  326  329  308  233  107  -35  -163  -252  -290  -286  -254  -212  -185  -212  -315  -456  -562  -600  -590  -545  -489  -510  -695  -993  -1203  -1060  -297  1205  3221  5208  6587  6931  6065  4165  1727  -588  -2192  -2821  -2609  -1956  -1330  -983  -838  -695  -506  -361  -318  -349  -402  -458  -515  -562  -574  -574  -599  -639  -645  -577  -435  -258  -101  -3  31  30  21  19  25  43  77  132  201  274  359  470  600  740  909  1097  1257  1383  1530  1741  1991  2218  2394  2546  2690  2793  2814  2748  2636  2529  2439  2350  2253  2145  1993  1728  1323  894  587  404  249  82  -58  -131  -135  -115  -116  -154  -208  -242  -243  -238  -274  -386  -539  -652  -693  -697  -701  -714  -728  -738  -737  -715  -663  -600  -552  -536  -552  -597  -649  -670  -649  -610  -573  -536  -504  -486  -474  -464  -465  -487  -521  -549  -563  -570  -574  -575  -570  -553  -524  -491  -465  -450  -427  -374  -300  -241  -203  -167  -140  -164  -271  -424  -554  -626  -663  -704  -750  -774  -757  -691  -598  -517  -473  -458  -455  -457  -467  -495  -532  -555  -552  -535  -525  -525  -529  -530  -527  -520  -513  -504  -501  -507  -515  -512  -494  -455  -402  -356  -333  -333  -345  -358  -371  -383  -380  -346  -289  -241  -227  -248  -297  -364  -436  -502  -545  -541  -488  -409  -322  -242  -187  -165  -160  -156  -151  -160  -196  -237  -252  -243  -239  -255  -284  -308  -318  -319  -304  -269  -225  -195  -167  -108  -10  84  138  148  142  142  156  179  206  235  255  265  274  291  310  284  140  -133  -438  -662  -779  -824  -829  -798  -720  -616  -542  -545  -635  -778  -922  -986  -789  -48  1412  3380  5325  6718  7157  6433  4667  2276  -180  -2110  -3023  -2838  -2026  -1182  -639  -461  -529  -652  -724  -741  -721  -688  -653  -604  -519  -408  -317  -276  -274  -284  -293  -308  -340  -379  -395  -358  -261  -128  4  113  193  245  268  274  282  326  453  673  935  1184  1412  1623  1795  1908  1980  2075  2256  2538  2841  3048  3126  3127  3084  2981  2819  2633  2426  2174  1913  1722  1608  1474  1228  915  660  521  455  382  248  54  -146  -288  -367  -437  -526  -614  -695  -765  -794  -760  -691  -633  -594  -551  -496  -452  -435  -440  -453  -466  -480  -493  -503  -525  -576  -641  -673  -637  -549  -451  -379  -343  -334  -337  -354  -396  -447  -478  -479  -466  -456  -456  -482  -548  -643  -719  -731  -659  -524  -422  -421  -478  -538  -594  -636  -653  -663  -683  -700  -655  -527  -418  -428  -521  -609  -639  -612  -570  -550  -544  -536  -531  -536  -552  -568  -578  -580  -582  -602  -630  -624  -590  -581  -622  -686  -711  -653  -548  -459  -406  -382  -386  -411  -434  -452  -481  -532  -599  -661  -694  -670  -561  -395  -249  -179  -162  -154  -134  -100  -53  -2  33  45  46  52  70  92  75  -50  -294  -553  -713  -764  -760  -733  -676  -600  -547  -542  -570  -616  -672  -686  -617  -559  -626  -767  -796  -389  775  2574  4421  5743  6142  5379  3602  1320  -927  -2621  -3308  -2962  -2082  -1318  -981  -941  -970  -990  -994  -963  -888  -796  -723  -680  -633  -530  -375  -239  -178  -177  -193  -202  -203  -227  -298  -396  -469  -493  -491  -477  -424  -282  -67  126  244  315  381  461  585  759  950  1146  1371  1623  1857  2063  2253  2421  2556  2660  2726  2747  2732  2675  2551  2378  2208  2054  1878  1632  1303  960  705  565  495  446  399  351  282  163  -12  -246  -533  -818  -1007  -1068  -1047  -993  -920  -834  -744  -671  -633  -623  -628  -640  -659  -679  -682  -646  -569  -484  -427  -404  -398  -397  -405  -431  -469  -477  -424  -343  -293  -289  -299  -293  -271  -251  -241  -239  -248  -279  -329  -377  -409  -428  -450  -481  -504  -501  -479  -456  -441  -440  -445  -442  -420  -386  -361  -350  -347  -347  -358  -392  -441  -478  -478  -431  -345  -248  -182  -184  -245  -315  -346  -312  -227  -127  -44  -24  -102  -231  -336  -403  -451  -489  -517  -543  -572  -596  -605  -580  -502  -397  -317  -287  -301  -353  -437  -539  -637  -713  -761  -784  -785  -760  -692  -559  -362  -178  -129  -222  -335  -381  -374  -360  -385  -475  -594  -677  -701  -693  -682  -677  -682  -705  -750  -805  -850  -873  -883  -901  -944  -1000  -1049  -1080  -1096  -1106  -1154  -1308  -1539  -1597  -1147  -11  1745  3741  5368  6173  5982  4855  3083  1045  -886  -2297  -2860  -2610  -1911  -1186  -728  -583  -574  -539  -476  -433  -417  -408  -391  -368  -355  -353  -347  -327  -285  -233  -194  -181  -182  -170  -120  -41  28  67  80  81  77  67  44  22  48  192  467  778  1007  1132  1218  1343  1561  1863  2155  2338  2418  2489  2617  2767  2842  2796  2685  2577  2489  2411  2325  2204  2038  1856  1704  1595  1510  1386  1130  735  325  13  -176  -267  -288  -276  -258  -244  -244  -272  -335  -403  -420  -380  -331  -308  -303  -300  -305  -344  -431  -544  -628  -654  -638  -618  -605  -579  -506  -391  -266  -158  -84  -61  -74  -84  -77  -90  -164  -267  -325  -316  -286  -280  -297  -316  -326  -332  -339  -341  -333  -319  -305  -294  -290  -292  -289  -274  -256  -239  -229  -251  -333  -451  -535  -539  -483  -416  -358  -299  -249  -226  -225  -222  -210  -198  -194  -199  -222  -281  -377  -470  -522  -519  -472  -404  -332  -257  -200  -205  -283  -398  -490  -500  -434  -373  -388  -466  -533  -524  -461  -410  -393  -382  -358  -332  -320  -325  -341  -358  -363  -352  -331  -315  -299  -271  -253  -305  -455  -617  -626  -462  -285  -205  -196  -204  -204  -198  -202  -242  -321  -410  -473  -502  -510  -510  -504  -485  -453  -407  -336  -239  -140  -60  2  51  77  72  40  -17  -104  -199  -260  -265  -232  -211  -232  -282  -355  -465  -562  -588  -559  -509  -464  -462  -497  -523  -558  -720  -1060  -1358  -1202  -273  1408  3437  5262  6451  6746  6047  4458  2302  62  -1740  -2722  -2810  -2282  -1559  -975  -718  -772  -917  -980  -959  -894  -784  -622  -465  -411  -471  -549  -574  -551  -516  -478  -417  -333  -264  -240  -264  -307  -326  -306  -267  -234  -194  -107  30  171  262  297  338  467  712  1014  1312  1577  1804  1977  2088  2169  2275  2410  2527  2603  2651  2668  2633  2555  2460  2358  2232  2059  1854  1668  1514  1356  1154  926  716  520  302  68  -135  -280  -378  -454  -505  -529  -541  -558  -580  -595  -600  -591  -573  -560  -555  -558  -570  -589  -607  -607  -589  -573  -582  -612  -657  -708  -752  -780  -786  -729  -571  -360  -214  -201  -285  -372  -408  -419  -423  -406  -383  -378  -388  -408  -443  -502  -577  -627  -609  -523  -411  -322  -265  -226  -205  -210  -241  -272  -275  -253  -232  -225  -223  -223  -240  -288  -358  -418  -445  -428  -380  -340  -336  -356  -370  -370  -363  -364  -378  -398  -410  -417  -436  -470  -492  -473  -427  -382  -346  -307  -258  -220  -210  -210  -222  -270  -348  -425  -480  -495  -442  -335  -238  -192  -188  -194  -187  -179  -200  -266  -356  -427  -457  -456  -424  -345  -229  -127  -78  -72  -82  -94  -98  -84  -42  14  58  84  102  116  111  77  26  -28  -103  -226  -395  -573  -716  -784  -771  -715  -660  -616  -566  -479  -408  -520  -855  -1123  -898  56  1637  3516  5210  6128  5928  4687  2694  456  -1412  -2526  -2818  -2491  -1921  -1395  -1023  -833  -790  -813  -852  -884  -897  -892  -867  -803  -681  -527  -403  -343  -336  -363  -407  -435  -417  -346  -237  -135  -100  -130  -174  -207  -211  -138  62  331  535  619  650  709  811  931  1061  1220  1419  1631  1826  2019  2220  2425  2651  2889  3071  3145  3104  2945  2703  2465  2279  2128  1973  1771  1520  1284  1120  1014  917  806  678  532  372  203  49  -59  -142  -252  -388  -492  -535  -543  -562  -617  -683  -717  -710  -659  -566  -496  -513  -572  -597  -566  -509  -464  -448  -453  -461  -439  -363  -257  -181  -158  -160  -159  -151  -155  -190  -241  -288  -355  -478  -629  -746  -799  -793  -734  -634  -532  -461  -414  -377  -350  -335  -332  -349  -401  -475  -540  -571  -573  -556  -521  -462  -387  -324  -280  -237  -203  -194  -203  -213  -222  -234  -258  -295  -350  -420  -479  -515  -547  -586  -615  -613  -577  -534  -513  -510  -498  -468  -434  -398  -355  -306  -266  -244  -244  -293  -418  -585  -709  -743  -718  -685  -668  -663  -652  -627  -605  -581  -525  -440  -352  -304  -376  -587  -809  -911  -879  -790  -713  -656  -598  -534  -481  -451  -445  -450  -464  -483  -497  -484  -415  -264  -67  81  114  58  -22  -91  -146  -197  -262  -336  -390  -427  -480  -556  -628  -675  -699  -698  -665  -601  -519  -446  -391  -390  -533  -823  -1098  -1131  -679  439  2156  4089  5692  6508  6258  4913  2867  734  -1029  -2113  -2386  -2123  -1753  -1449  -1191  -980  -843  -755  -681  -614  -551  -492  -453  -442  -442  -420  -352  -276  -252  -271  -282  -273  -256  -244  -238  -230  -203  -149  -85  -45  -34  -22  33  156  326  485  579  646  789  1058  1379  1640  1796  1863  1888  1927  2024  2171  2322  2451  2572  2691  2773  2783  2709  2561  2379  2206  2048  1884  1714  1562  1420  1243  1003  726  484  321  201  90  10  -30  -73  -163  -304  -456  -571  -613  -586  -526  -463  -405  -373  -408  -542  -726  -860  -894  -851  -777  -698  -611  -529  -477  -452  -422  -378  -346  -345  -368  -403  -466  -575  -722  -864  -950  -952  -863  -708  -539  -412  -348  -333  -333  -335  -359  -432  -538  -617  -624  -584  -537  -498  -472  -475  -518  -589  -654  -687  -691  -681  -666  -641  -594  -506  -378  -255  -186  -190  -253  -336  -395  -414  -409  -394  -372  -347  -324  -307  -296  -292  -312  -371  -457  -532  -571  -574  -550  -512  -476  -449  -420  -367  -297  -250  -239  -245  -258  -278  -311  -348  -374  -384  -397  -420  -431  -401  -350  -315  -322  -374  -438  -464  -450  -431  -428  -440  -455  -466  -478  -495  -512  -513  -475  -372  -215  -81  -79  -227  -438  -629  -758  -810  -765  -602  -364  -158  -53  -34  -60  -103  -129  -114  -68  0  87  173  232  249  214  128  29  -36  -61  -81  -149  -304  -519  -710  -810  -821  -770  -681  -588  -528  -516  -551  -616  -691  -799  -925  -833  -165  1183  2976  4805  6180  6663  6098  4655  2652  500  -1287  -2271  -2373  -1912  -1319  -866  -652  -642  -708  -756  -771  -766  -734  -653  -521  -377  -265  -196  -162  -172  -232  -319  -380  -374  -293  -138  46  175  209  176  120  75  52  45  51  90  185  309  415  521  713  1010  1317  1538  1685  1860  2127  2405  2579  2657  2734  2840  2928  2968  2970  2931  2823  2641  2429  2246  2080  1845  1518  1203  990  862  767  693  631  526  325  66  -155  -304  -397  -458  -493  -501  -486  -469  -464  -462  -450  -443  -471  -541  -622  -674  -688  -684  -677  -670  -665  -661  -638  -578  -494  -428  -401  -392  -381  -386  -424  -474  -502  -503  -492  -487  -493  -492  -463  -417  -379  -362  -355  -349  -345  -352  -378  -419  -459  -494  -518  -531  -537  -534  -526  -523  -529  -539  -536  -508  -468  -440  -431  -432  -432  -430  -433  -444  -457  -465  -472  -478  -478  -455  -401  -337  -293  -280  -289  -310  -336  -357  -366  -361  -342  -310  -280  -276  -297  -326  -365  -418  -468  -497  -495  -455  -365  -232  -96  1  52  65  45  -22  -133  -240  -283  -247  -184  -150  -144  -124  -85  -70  -101  -144  -154  -126  -96  -90  -100  -109  -97  -54  4  34  2  -81  -166  -212  -240  -296  -376  -438  -464  -468  -462  -459  -486  -567  -686  -782  -825  -876  -1016  -1219  -1261  -802  394  2206  4161  5668  6228  5646  4079  1878  -454  -2289  -3173  -3113  -2465  -1622  -914  -589  -632  -790  -885  -895  -849  -782  -721  -681  -665  -662  -656  -639  -609  -576  -543  -514  -480  -430  -369  -325  -311  -316  -321  -312  -275  -209  -129  -43  58  174  277  365  475  630  791  916  1011  1112  1265  1513  1850  2192  2431  2529  2547  2550  2560  2565  2558  2541  2494  2357  2086  1745  1458  1285  1185  1061  850  590  377  258  214  196  141  16  -172  -361  -466  -489  -501  -539  -584  -605  -598  -598  -621  -648  -656  -643  -628  -629  -628  -609  -576  -541  -513  -491  -468  -442  -420  -409  -409  -413  -418  -423  -426  -425  -421  -414  -404  -380  -344  -324  -331  -326  -286  -244  -230  -237  -250  -267  -306  -358  -377  -332  -267  -237  -242  -265  -300  -336  -359  -355  -314  -240  -153  -80  -36  -21  -31  -70  -151  -275  -415  -508  -521  -485  -438  -390  -350  -329  -324  -322  -323  -322  -301  -244  -165  -97  -55  -39  -68  -154  -263  -339  -362  -358  -350  -346  -346  -347  -347  -347  -344  -343  -351  -375  -408  -431  -427  -400  -369  -339  -305  -278  -283  -331  -398  -441  -452  -446  -439  -433  -433  -445  -468  -489  -492  -470  -420  -339  -233  -128  -40  34  103  158  178  151  103  66  45  22  -14  -70  -162  -288  -408  -494  -548  -580  -593  -591  -582  -567  -547  -527  -503  -478  -473  -542  -738  -1021  -1196  -899  212  2053  4045  5577  6294  6049  4912  3163  1131  -847  -2300  -2817  -2475  -1707  -946  -586  -734  -1058  -1235  -1222  -1090  -886  -671  -522  -460  -443  -435  -434  -448  -477  -506  -514  -485  -433  -374  -305  -228  -159  -108  -67  -27  10  33  40  51  96  191  310  407  467  523  641  888  1235  1535  1702  1814  1995  2264  2535  2717  2795  2824  2842  2835  2775  2684  2599  2488  2255  1869  1446  1135  977  917  897  874  788  594  331  100  -44  -114  -147  -179  -226  -300  -404  -527  -641  -711  -729  -711  -676  -660  -681  -723  -759  -788  -814  -830  -827  -805  -780  -762  -746  -728  -719  -721  -708  -666  -621  -591  -573  -558  -550  -555  -565  -554  -513  -480  -513  -602  -683  -720  -723  -695  -618  -504  -405  -356  -343  -343  -364  -435  -559  -682  -753  -767  -755  -731  -684  -601  -504  -439  -430  -463  -508  -541  -554  -554  -541  -500  -415  -311  -249  -286  -420  -540  -507  -336  -184  -141  -189  -283  -396  -495  -540  -512  -443  -378  -336  -313  -299  -296  -317  -364  -410  -411  -352  -254  -154  -93  -87  -122  -171  -204  -211  -214  -224  -224  -187  -124  -109  -162  -203  -218  -276  -359  -408  -418  -409  -366  -249  -67  102  197  224  216  180  113  28  -38  -68  -64  -38  28  152  302  414  466  478  473  464  461  476  524  587  621  597  527  434  321  201  105  38  -48  -174  -293  -357  -369  -363  -363  -370  -362  -293  -184  -185  -399  -693  -782  -351  757  2409  4266  5894  6814  6674  5455  3535  1454  -377  -1688  -2316  -2330  -1964  -1418  -882  -540  -425  -415  -401  -361  -320  -293  -274  -256  -234  -210  -198  -213  -247  -279  -301  -314  -321  -312  -270  -199  -140  -105  -58  33  156  262  306  293  287  353  494  650  781  900  1028  1173  1345  1545  1753  1936  2063  2160  2299  2513  2740  2899  2958  2914  2767  2560  2382  2283  2253  2226  2073  1699  1184  734  446  280  183  123  63  -34  -165  -276  -330  -340  -337  -343  -385  -479  -601  -710  -795  -862  -916  -948  -939  -923  -959  -1023  -1037  -957  -793  -615  -500  -462  -464  -487  -532  -597  -659  -685  -659  -603  -549  -518  -511  -523  -550  -581  -588  -560  -520  -508  -537  -608  -730  -875  -980  -1010  -983  -919  -831  -746  -694  -677  -669  -655  -647  -661  -685  -703  -725  -767  -826  -875  -888  -875  -862  -859  -863  -865  -856  -831  -805  -797  -795  -768  -719  -673  -645  -639  -647  -657  -662  -667  -679  -694  -701  -696  -687  -685  -680  -662  -640  -621  -600  -577  -556  -531  -497  -468  -465  -482  -491  -483  -468  -460  -461  -457  -443  -431  -430  -428  -403  -331  -212  -79  12  48  51  29  -23  -115  -255  -424  -559  -621  -637  -657  -705  -768  -818  -844  -851  -832  -765  -654  -547  -547  -762  -1117  -1310  -990  48  1720  3647  5296  6147  5931  4717  2793  610  -1259  -2368  -2628  -2250  -1632  -1210  -1107  -1110  -1053  -962  -891  -831  -755  -670  -592  -522  -458  -409  -380  -357  -312  -235  -152  -97  -79  -79  -81  -83  -83  -70  -34  14  50  65  74  109  204  358  533  688  796  861  929  1052  1253  1510  1759  1946  2075  2187  2313  2445  2553  2619  2643  2620  2533  2387  2241  2133  2035  1895  1727  1592  1491  1340  1075  725  395  188  111  80  9  -154  -402  -610  -633  -490  -344  -307  -374  -479  -555  -591  -614  -651  -724  -841  -957  -1025  -1053  -1073  -1086  -1033  -855  -597  -415  -390  -459  -542  -613  -666  -696  -681  -600  -479  -374  -319  -312  -330  -362  -412  -479  -544  -579  -572  -527  -460  -389  -337  -319  -354  -457  -598  -707  -749  -733  -672  -586  -510  -469  -460  -464  -464  -455  -437  -413  -384  -356  -333  -309  -291  -285  -288  -295  -306  -316  -323  -321  -301  -259  -206  -165  -147  -144  -148  -167  -211  -274  -328  -361  -383  -375  -300  -185  -103  -83  -103  -129  -142  -131  -86  -18  42  71  56  -4  -92  -170  -215  -231  -232  -228  -226  -225  -225  -228  -241  -266  -283  -269  -234  -190  -136  -88  -63  -62  -80  -107  -137  -168  -208  -256  -278  -223  -105  -3  39  43  28  -23  -123  -232  -288  -265  -194  -102  20  163  263  268  179  39  -93  -204  -318  -447  -574  -657  -671  -640  -617  -606  -590  -625  -838  -1232  -1473  -1075  181  2102  4166  5759  6470  6158  4940  3128  1090  -773  -2060  -2523  -2237  -1624  -1162  -1046  -1166  -1285  -1229  -979  -661  -438  -363  -388  -465  -576  -689  -751  -732  -674  -621  -563  -503  -474  -481  -507  -527  -520  -480  -408  -313  -222  -162  -137  -128  -110  -68  8  114  242  382  513  642  819  1078  1384  1668  1883  2034  2144  2226  2297  2377  2455  2507  2508  2430  2254  1997  1716  1486  1361  1328  1323  1289  1201  1013  669  222  -162  -388  -489  -552  -646  -767  -858  -893  -898  -899  -894  -874  -853  -856  -875  -894  -910  -924  -929  -901  -821  -715  -642  -616]
