reading_id,reading_time,wire_id,result_classification,heart_rate,heart_rate_alert,firmware_version,device_app_version,hardware_version,waveform_samples
f076ac70-5884-11ed-8080-808080808080,Sun Oct 30 18:59:11 UTC 2022,e101e3752439,NSR,61,NONE,20001.171.50,2.10.0,Charge 5,[-15615  -17680  -19611  -21044  -21980  -22780  -23523  -24090  -24603  -25222  -25771  -25854  -25218  -23853  -21960  -20203  -19513  -20291  -22202  -24484  -26139  -26297  -24867  -22676  -20796  -19754  -19324  -18982  -18390  -17499  -16465  -15461  -14554  -13828  -13376  -13119  -12868  -12535  -12172  -11859  -11578  -11266  -10919  -10559  -10194  -9832  -9418  -8834  -8031  -7144  -6335  -5533  -4512  -3156  -1512  156  1452  2259  2869  3522  4273  5287  6659  8045  8999  9513  9941  10582  11493  12601  13783  14908  15964  17010  18029  18975  19831  20560  21104  21502  21951  22625  23445  24220  24909  25492  25863  26034  26121  26098  25737  24910  23851  22845  21783  20489  19266  18588  18420  18191  17415  16254  15297  14826  14639  14410  13916  13173  12451  11940  11510  10982  10431  10033  9778  9526  9192  8762  8231  7635  7086  6663  6369  6197  6107  5992  5752  5399  5040  4732  4471  4257  4103  4019  3996  4007  4013  3974  3897  3864  3932  4045  4129  4183  4240  4310  4378  4435  4486  4529  4572  4619  4641  4591  4473  4344  4254  4197  4136  4070  4025  4015  4049  4116  4192  4264  4331  4394  4471  4569  4662  4744  4841  4937  4982  4967  4920  4874  4848  4839  4817  4764  4696  4648  4630  4625  4624  4647  4726  4846  4931  4865  4579  4156  3798  3637  3688  3900  4166  4374  4489  4516  4401  4071  3602  3215  3041  3024  3037  2994  2860  2641  2387  2189  2095  2068  2056  2003  1828  1520  1245  1181  1251  1213  964  695  856  1818  3500  5369  6633  6733  5758  4121  2268  693  -344  -931  -1214  -1252  -1114  -943  -837  -784  -747  -739  -847  -1143  -1530  -1816  -1970  -2085  -2178  -2219  -2225  -2226  -2229  -2231  -2261  -2367  -2556  -2777  -2971  -3103  -3162  -3160  -3123  -3075  -3039  -3025  -3045  -3117  -3239  -3374  -3473  -3518  -3515  -3478  -3414  -3336  -3265  -3226  -3216  -3194  -3107  -2934  -2720  -2543  -2419  -2295  -2151  -2036  -1977  -1941  -1898  -1854  -1836  -1868  -1939  -2001  -2021  -2013  -2015  -2051  -2108  -2173  -2292  -2521  -2806  -3017  -3102  -3105  -3063  -2972  -2845  -2739  -2710  -2765  -2884  -3062  -3288  -3520  -3698  -3747  -3646  -3487  -3385  -3399  -3541  -3788  -4091  -4395  -4633  -4765  -4811  -4808  -4785  -4767  -4777  -4830  -4918  -5015  -5092  -5123  -5081  -4948  -4744  -4519  -4314  -4158  -4081  -4077  -4093  -4048  -3890  -3672  -3512  -3450  -3426  -3370  -3240  -3019  -2757  -2540  -2382  -2231  -2062  -1916  -1826  -1754  -1651  -1520  -1403  -1306  -1194  -1045  -857  -657  -480  -344  -272  -280  -330  -364  -365  -331  -266  -181  -101  -52  -41  -52  -73  -96  -113  -122  -118  -91  -37  7  -22  -158  -345  -490  -569  -636  -747  -874  -937  -922  -912  -987  -1118  -1218  -1261  -1339  -1596  -2069  -2601  -2991  -3196  -3312  -3403  -3462  -3488  -3529  -3634  -3829  -4115  -4435  -4678  -4780  -4792  -4791  -4812  -4845  -4850  -4793  -4686  -4563  -4433  -4299  -4177  -4072  -3983  -3912  -3844  -3770  -3719  -3759  -3921  -4121  -4191  -3928  -3157  -1892  -312  1302  2564  3105  2748  1524  -313  -2277  -3813  -4571  -4502  -3894  -3251  -2907  -2842  -2893  -2981  -3105  -3247  -3374  -3457  -3428  -3232  -2896  -2521  -2227  -2065  -1999  -1981  -1983  -1990  -2000  -2008  -1991  -1912  -1753  -1547  -1357  -1231  -1178  -1158  -1102  -945  -684  -398  -183  -22  163  385  607  788  906  999  1128  1303  1509  1782  2163  2592  2954  3195  3334  3393  3389  3363  3407  3627  4024  4426  4661  4719  4705  4688  4663  4597  4489  4366  4248  4114  3942  3766  3655  3622  3629  3640  3648  3660  3677  3666  3570  3366  3127  2969  2941  3031  3205  3404  3552  3599  3553  3470  3421  3431  3475  3516  3545  3558  3514  3358  3128  2946  2900  2987  3137  3257  3300  3268  3179  3072  3000  2967  2925  2859  2804  2772  2740  2676  2589  2519  2490  2495  2504  2477  2375  2213  2036  1863  1714  1636  1640  1686  1726  1742  1737  1706  1643  1567  1500  1453  1427  1421  1429  1442  1450  1448  1441  1435  1425  1404  1368  1327  1298  1289  1294  1307  1321  1321  1287  1220  1149  1102  1072  1041  997  949  913  894  892  906  921  921  896  847  771  643  479  351  292  263  238  227  236  246  225  155  66  12  0  0  0  -8  -36  -89  -149  -187  -192  -187  -210  -282  -381  -469  -545  -626  -696  -722  -701  -657  -623  -606  -602  -610  -643  -711  -802  -878  -901  -876  -825  -755  -699  -726  -886  -1145  -1410  -1628  -1801  -1937  -2050  -2153  -2234  -2289  -2324  -2344  -2374  -2454  -2629  -2874  -3065  -3128  -3162  -3307  -3546  -3740  -3728  -3300  -2274  -691  1095  2525  3067  2455  853  -1185  -3046  -4309  -4884  -5001  -4952  -4874  -4820  -4873  -5046  -5233  -5359  -5440  -5505  -5558  -5594  -5619  -5642  -5669  -5720  -5831  -6003  -6168  -6275  -6345  -6405  -6451  -6484  -6531  -6615  -6724  -6825  -6903  -6944  -6943  -6911  -6905  -6998  -7177  -7314  -7324  -7248  -7167  -7118  -7097  -7090  -7084  -7066  -7029  -6981  -6922  -6834  -6725  -6611  -6474  -6318  -6183  -6054  -5885  -5687  -5507  -5347  -5164  -4943  -4740  -4628  -4608  -4622  -4614  -4559  -4484  -4429  -4389  -4315  -4198  -4090  -4033  -3988  -3891  -3740  -3573  -3395  -3201  -3038  -2932  -2825  -2653  -2423  -2155  -1836  -1464  -1060  -639  -238  68  228  303  448  759  1183  1597  1945  2232  2452  2588  2670  2738  2812  2922  3108  3360  3663  4040  4438  4713  4833  4940  5190  5608  6076  6426  6584  6617  6689  6974  7511  8104  8513  8699  8800  8942  9164  9420  9626  9726  9705  9565  9334  9052  8724  8333  7916  7572  7368  7272  7206  7139  7092  7092  7145  7218  7270  7271  7194  7004  6716  6428  6263  6260  6370  6483  6490  6375  6198  5989  5747  5494  5271  5069  4788  4371  3915  3528  3170  2783  2452  2275  2233  2254  2320  2437  2563  2618  2571  2475  2405  2388  2399  2411  2414  2404  2379  2353  2347  2350  2300  2127  1864  1634  1516  1487  1495  1511  1536  1583  1651  1732  1775  1693  1556  1529  1515  1368  1327  1796  2993  4737  6351  7138  6821  5413  3310  1317  -19  -630  -597  -170  271  497  526  509  531  575  608  615  602  573  507  412  350  394  521  633  668  638  567  451  287  140  99  170  273  344  371  373  342  249  106  -12  -42  24  153  292  382  407  385  340  289  250  234  265  373  542  703  805  854  873  877  876  890  942  1036  1139  1201  1188  1105  997  924  888  832  709  524  281  -3  -283  -521  -718  -866  -962  -1023  -1059  -1083  -1128  -1204  -1290  -1368  -1429  -1468  -1498  -1559  -1684  -1846  -1996  -2118  -2173  -2139  -2094  -2139  -2289  -2462  -2555  -2562  -2550  -2556  -2560  -2541  -2510  -2490  -2488  -2494  -2490  -2455  -2354  -2182  -2001  -1888  -1870  -1929  -2047  -2195  -2308  -2310  -2188  -2007  -1844  -1752  -1760  -1862  -2011  -2133  -2190  -2197  -2185  -2164  -2133  -2100  -2076  -2056  -2026  -1967  -1882  -1793  -1710  -1621  -1569  -1606  -1702  -1773  -1783  -1756  -1725  -1688  -1638  -1589  -1556  -1538  -1531  -1532  -1531  -1528  -1528  -1523  -1485  -1393  -1272  -1176  -1118  -1075  -1045  -1036  -1033  -1025  -1022  -1031  -1047  -1047  -1022  -995  -1004  -1077  -1195  -1261  -1233  -1179  -1143  -1089  -998  -902  -840  -822  -823  -817  -797  -776  -769  -775  -762  -686  -574  -503  -497  -518  -533  -533  -538  -571  -624  -668  -701  -770  -916  -1090  -1195  -1212  -1195  -1195  -1225  -1265  -1297  -1310  -1277  -1154  -989  -975  -1175  -1282  -837  408  2266  4137  5368  5596  4829  3324  1485  -214  -1349  -1679  -1301  -721  -434  -523  -796  -1034  -1133  -1136  -1117  -1089  -1029  -926  -812  -733  -700  -691  -702  -740  -778  -755  -663  -557  -477  -445  -458  -485  -502  -516  -528  -502  -394  -231  -108  -72  -82  -73  -5  105  210  273  298  317  354  417  502  610  726  821  895  992  1132  1306  1500  1670  1762  1784  1806  1889  2025  2154  2232  2252  2199  2018  1681  1293  1022  902  832  747  665  608  561  495  393  272  172  91  4  -81  -134  -155  -182  -237  -298  -331  -328  -307  -289  -286  -307  -350  -396  -424  -433  -429  -424  -432  -446  -459  -483  -536  -617  -702  -757  -777  -779  -778  -776  -765  -735  -687  -629  -575  -538  -526  -554  -632  -735  -810  -838  -843  -842  -812  -722  -585  -454  -372  -338  -328  -311  -274  -226  -182  -164  -189  -252  -340  -418  -437  -391  -325  -279  -258  -245  -213  -145  -53  26  65  29  -105  -283  -388  -362  -256  -154  -96  -69  -49  -29  -21  -31  -56  -86  -116  -150  -188  -224  -255  -266  -237  -166  -96  -65  -64  -73  -82  -86  -77  -41  13  61  93  120  149  172  182  182  177  168  158  150  146  143  125  88  46  7  -40  -87  -103  -63  33  133  170  136  61  -27  -99  -126  -82  55  243  377  397  318  204  126  117  167  237  286  299  288  275  289  365  503  656  773  843  863  825  734  606  461  335  265  247  233  178  71  -52  -147  -194  -195  -149  -54  25  13  -37  -61  -164  -325  -237  387  1680  3536  5435  6682  6870  6003  4395  2538  921  -116  -501  -394  -70  175  211  152  130  145  159  153  125  87  52  29  20  26  46  71  82  65  18  -39  -86  -113  -127  -145  -180  -229  -278  -312  -326  -333  -368  -447  -531  -602  -681  -751  -768  -729  -675  -661  -690  -680  -576  -421  -291  -225  -206  -194  -166  -123  -68  1  86  204  376  564  700  761  783  806  832  820  724  549  341  158  47  12  18  17  -26  -124  -247  -354  -438  -513  -595  -698  -802  -858  -863  -860  -879  -914  -939  -947  -957  -985  -1022  -1034  -993  -896  -785  -715  -696  -684  -647  -594  -571  -608  -696  -788  -854  -893  -909  -895  -836  -736  -625  -535  -485  -495  -571  -693  -820  -911  -953  -958  -940  -894  -789  -606  -400  -266  -258  -357  -494  -591  -624  -624  -618  -612  -602  -579  -526  -430  -331  -284  -307  -377  -445  -487  -522  -568  -606  -604  -546  -461  -394  -368  -368  -372  -364  -355  -366  -396  -417  -395  -326  -233  -146  -83  -48  -38  -55  -99  -156  -180  -157  -142  -170  -203  -208  -195  -182  -179  -180  -177  -178  -192  -208  -215  -218  -218  -211  -189  -153  -124  -117  -107  -64  -10  20  29  32  32  8  -63  -164  -239  -253  -209  -133  -62  -25  -21  -19  38  179  321  330  187  13  -96  -137  -147  -154  -157  -137  -97  -61  -50  -60  -81  -116  -171  -205  -140  2  38  -116  -373  -655  -747  -236  1030  2767  4533  5833  6187  5397  3669  1529  -374  -1565  -1852  -1367  -645  -250  -218  -272  -299  -336  -387  -407  -365  -277  -183  -101  -34  33  108  166  177  139  76  28  21  55  120  200  276  336  402  509  636  712  695  625  558  513  478  446  426  447  547  723  901  1010  1056  1089  1136  1184  1214  1222  1235  1311  1508  1803  2079  2238  2288  2285  2269  2256  2235  2181  2088  1979  1881  1795  1703  1602  1520  1467  1419  1328  1134  810  430  128  -20  -52  -44  -59  -116  -189  -238  -252  -245  -237  -248  -296  -380  -471  -545  -615  -696  -742  -694  -558  -409  -321  -304  -311  -308  -285  -250  -221  -215  -234  -300  -405  -478  -479  -449  -429  -423  -423  -427  -436  -454  -484  -526  -577  -625  -660  -683  -690  -666  -612  -556  -523  -536  -591  -626  -574  -424  -242  -112  -61  -79  -186  -396  -635  -791  -836  -814  -767  -715  -678  -662  -640  -571  -459  -354  -295  -271  -249  -225  -225  -291  -422  -532  -537  -462  -393  -379  -413  -458  -483  -488  -486  -470  -418  -333  -252  -215  -229  -289  -385  -491  -570  -598  -575  -517  -448  -384  -338  -333  -352  -358  -339  -263  -115  34  116  124  71  -11  -74  -95  -92  -83  -77  -80  -107  -177  -280  -378  -444  -492  -534  -553  -539  -525  -547  -588  -613  -608  -586  -557  -512  -495  -632  -975  -1258  -1004  16  1635  3485  5080  5935  5867  5038  3710  2146  618  -581  -1226  -1334  -1072  -604  -192  -69  -161  -269  -333  -376  -401  -387  -322  -226  -142  -92  -77  -98  -140  -171  -179  -176  -191  -242  -312  -361  -378  -385  -407  -444  -477  -494  -494  -469  -411  -316  -197  -92  -34  -12  15  73  144  202  242  270  276  268  295  404  610  900  1188  1372  1432  1422  1391  1371  1396  1488  1597  1609  1490  1340  1256  1236  1239  1228  1169  1057  929  834  749  586  287  -95  -438  -655  -740  -745  -727  -715  -713  -725  -750  -779  -800  -806  -790  -742  -661  -554  -458  -417  -447  -527  -629  -738  -839  -908  -934  -920  -876  -827  -794  -772  -746  -717  -697  -667  -611  -550  -506  -494  -536  -610  -644  -600  -504  -422  -417  -469  -509  -538  -597  -671  -719  -738  -747  -757  -756  -721  -660  -613  -597  -599  -604  -605  -606  -604  -597  -575  -536  -493  -446  -386  -331  -302  -291  -283  -301  -383  -511  -611  -642  -623  -582  -535  -489  -446  -409  -396  -420  -454  -458  -416  -348  -290  -263  -260  -270  -273  -241  -158  -56  24  68  57  1  -62  -111  -121  -85  -26  23  48  57  82  150  247  320  321  240  117  22  -13  -7  19  71  161  271  350  371  350  314  287  291  340  439  562  655  687  644  515  338  194  122  106  120  136  103  -19  -193  -322  -364  -356  -340  -339  -361  -394  -410  -401  -386  -350  -290  -311  -513  -723  -438  738  2686  4818  6349  6684  5812  4228  2486  925  -258  -908  -995  -686  -296  -101  -117  -191  -228  -232  -232  -241  -248  -243  -242  -270  -319  -361  -386  -394  -366  -272  -126  6  74  85  70  53  45  39  34  39  69  137  230  312  353  365  377  394  411  439  490  557  625  676  707  735  780  850  930  1011  1096  1194  1324  1474  1607  1695  1747  1794  1854  1910  1937  1935  1921  1911  1890  1819  1670  1464  1260  1106  995  881  736  574  425  292  150  -6  -167  -335  -482  -547  -515  -446  -413  -428  -445  -428  -395  -390  -451  -573  -692  -729  -695  -669  -665  -637  -582  -528  -485  -460  -452  -450  -447  -454  -494  -584  -721  -866  -957  -949  -840  -685  -564  -519  -535  -588  -657  -714  -741  -729  -673  -592  -530  -518  -574  -704  -863  -966  -976  -935  -897  -879  -873  -872  -879  -884  -851  -731  -539  -369  -296  -323  -403  -483  -544  -608  -667  -696  -684  -642  -598  -577  -571  -558  -531  -511  -520  -553  -591  -608  -579  -517  -465  -445  -445  -443  -448  -470  -495  -492  -453  -390  -307  -206  -129  -136  -245  -403  -522  -554  -503  -371  -162  70  229  247  102  -164  -438  -605  -654  -632  -567  -454  -318  -218  -188  -204  -247  -327  -443  -556  -620  -605  -495  -318  -156  -69  -51  -70  -101  -129  -143  -132  -79  24  163  292  348  298  175  30  -112  -238  -336  -420  -495  -539  -536  -511  -492  -479  -461  -427  -383  -345  -369  -576  -954  -1228  -1108  -466  743  2388  4078  5372  5933  5620  4513  2851  1003  -571  -1487  -1639  -1253  -728  -376  -277  -324  -401  -478  -579  -681  -706  -603  -428  -287  -218  -197  -199  -220  -258  -308  -354  -385  -393  -374  -321  -232  -129  -47  11  58  90  90  48  -20  -66  -70  -60  -53  -32  22  111  187  206  194  236  408  683  941  1099  1173  1211  1238  1264  1292  1331  1388  1465  1544  1599  1630  1666  1723  1763  1718  1594  1454  1327  1188  1012  816  646  505  356  200  77  5  -51  -155  -338  -536  -648  -667  -662  -667  -679  -692  -703  -714  -727  -728  -698  -642  -592  -569  -572  -594  -636  -694  -741  -761  -765  -762  -736  -658  -523  -387  -310  -298  -316  -338  -363  -385  -394  -393  -406  -463  -555  -641  -698  -726  -702  -589  -410  -276  -311  -489  -659  -736  -747  -725  -647  -484  -290  -182  -213  -326  -433  -501  -542  -575  -592  -580  -524  -418  -290  -193  -159  -190  -272  -369  -443  -481  -487  -461  -413  -370  -364  -394  -420  -402  -345  -265  -176  -95  -44  -26  -29  -38  -47  -52  -39  1  60  105  121  114  69  -41  -193  -310  -355  -355  -343  -332  -326  -323  -323  -333  -361  -402  -436  -456  -469  -503  -587  -670  -660  -532  -194  580  1875  3457  4840  5481  5040  3553  1503  -399  -1645  -2089  -1879  -1349  -815  -456  -325  -335  -360  -357  -337  -317  -308  -316  -338  -358  -359  -333  -270  -168  -67  -22  -45  -104  -159  -191  -199  -184  -151  -110  -71  -37  -7  22  44  44  27  26  62  132  221  315  416  522  614  667  682  679  680  709  786  887  967  1042  1167  1348  1519  1624  1674  1701  1736  1799  1871  1896  1828  1658  1418  1171  970  834  763  734  685  543  302  42  -176  -357  -516  -635  -730  -847  -986  -1085  -1096  -1033  -946  -873  -822  -792  -783  -810  -886  -989  -1063  -1077  -1043  -990  -938  -886  -826  -738  -623  -519  -451  -406  -391  -435  -532  -635  -700  -714  -675  -570  -413  -269  -197  -206  -270  -356  -451  -553  -626  -622  -547  -423  -263  -125  -69  -83  -121  -145  -143  -127  -123  -155  -233  -321  -362  -332  -263  -207  -186  -186  -195  -210  -234  -269  -320  -381  -408  -335  -155  47  159  125  4  -98  -134  -130  -120  -105  -72  -22  19  29  -1  -65  -136  -189  -185  -67  135  303  375  383  367  337  302  286  305  344  392  445  511  611  760  896  932  869  793  766  790  841  901  963  1028  1099  1166  1208  1218  1218  1242  1307  1366  1352  1266  1172  1079  947  791  687  676  720  767  789  764  664  501  347  265  244  237  213  189  190  218  202  9  -397  -846  -1063  -753  317  2070  3997  5425  5949  5523  4314  2692  1093  -200  -972  -1075  -664  -137  176  216  100  -42  -129  -141  -95  -19  77  197  320  411  470  517  553  551  522  538  608  655  656  662  700  759  824  880  917  923  898  860  818  763  726  778  960  1187  1315  1311  1248  1181  1143  1132  1125  1118  1123  1123  1073  954  816  703  584  463  412  444  517  615  702  730  695  628  585  580  553  480  415  398  403  373  271  134  27  -64  -214  -415  -580  -675  -742  -809  -878  -930  -935  -895  -829  -744  -654  -603  -614  -663  -717  -766  -816  -863  -899  -918  -920  -905  -869  -802  -714  -645  -623  -642  -687  -739  -777  -793  -799  -820  -876  -957  -1021  -1041  -1027  -1020  -1057  -1127  -1175  -1162  -1094  -1013  -949  -917  -919  -950  -998  -1046  -1089  -1126  -1172  -1243  -1327  -1388  -1398  -1359  -1292  -1232  -1204  -1211  -1245  -1300  -1369  -1440  -1485  -1493  -1495  -1518  -1554  -1569  -1564  -1560  -1565  -1579  -1596  -1601  -1575  -1509  -1437  -1403  -1399  -1393  -1378  -1371  -1382  -1403  -1415  -1417  -1418  -1408  -1364  -1285  -1185  -1081  -994  -941  -920  -925  -945  -944  -891  -819  -785  -811  -879  -930  -922  -873  -805  -725  -646  -568  -492  -447  -446  -456  -403  -231  5  180  239  232  219  217  210  167  65  -94  -242  -288  -230  -154  -117  -113  -126  -159  -214  -281  -347  -399  -434  -462  -493  -532  -577  -583  -514  -435  -402  -325  -2  798  2158  3819  5270  5984  5638  4292  2380  488  -901  -1538  -1416  -879  -466  -355  -346  -310  -273  -265  -278  -290  -296  -302  -313  -322  -295  -197  -40  98  155  116  20  -64  -125  -164  -99  91  281  377  399  394  392  404  435  480  547  649  755  788  725  634  575  559  567  591  638  724  835  945  1079  1294  1562  1768  1852  1854  1829  1795  1760  1735  1723  1720  1722  1725  1724  1694  1611  1468  1292  1136  1050  1022  945  697  286  -153  -502  -698  -734  -711  -736  -799  -845  -870  -888  -896  -889  -881  -914  -1027  -1199  -1353  -1432  -1430  -1383  -1335  -1311  -1314  -1333  -1356  -1380  -1399  -1375  -1263  -1095  -974  -955  -1002  -1037  -1022  -988  -968  -961  -956  -952  -954  -960  -971  -996  -1035  -1063  -1047  -976  -856  -718  -620  -589  -606  -655  -728  -804  -849  -835  -756  -645  -555  -506  -490  -500  -513  -489  -428  -369  -334  -318  -316  -346  -426  -525  -559  -477  -331  -220  -182  -187  -199  -206  -206  -194  -159  -92  4  111  176  161  93  42  46  90  144  182  197  202  202  180  121  41  -19  -61  -127  -236  -362  -469  -539  -546  -468  -332  -211  -153  -143  -152  -187  -299  -482  -659  -776  -721  -268  755  2308  4054  5422  5857  5125  3452  1345  -576  -1711  -1848  -1343  -706  -239  -68  -130  -198  -160  -103  -90  -84  -67  -50  -38  -20  13  49  72  85  96  105  111  110  102  88  75  66  58  51  51  67  102  140  162  164  171  215  300  389  444  458  450  444  462  524  612  691  752  820  916  1049  1213  1373  1482  1533  1550  1562  1589  1626  1652  1656  1653  1657  1660  1622  1508  1345  1186  1023  800  524  269  100  23  -20  -94  -210  -356  -518  -658  -720  -691  -638  -637  -695  -766  -812  -806  -748  -681  -647  -645  -656  -663  -664  -669  -676  -673  -659  -662  -715  -802  -870  -895  -898  -901  -893  -840  -705  -492  -274  -139  -102  -114  -142  -175  -201  -223  -262  -323  -371  -377  -336  -261  -154  0  168  271  294  288  288  292  295  297  293  279  256  230  211  204  198  164  83  4  4  95  211  303  358  378  370  351  336  327  319  310  313  352  430  507  542  549  559  569  535  448  363  332  358  411  453  484  527  570  580  559  542  552  562  537  492  477  526  619  697  720  690  634  603  626  668  689  692  697  709  717  703  647  546  404  234  73  -24  -52  -47  -39  -26  3  41  57  28  -38  -124  -220  -317  -403  -468  -511  -531  -537  -584  -712  -840  -855  -684  -205  706  2035  3557  4885  5606  5436  4419  2909  1255  -255  -1294  -1729  -1701  -1360  -887  -574  -551  -669  -755  -777  -774  -778  -788  -788  -771  -748  -720  -687  -675  -704  -740  -722  -618  -472  -358  -283  -198  -93  -5  45  70  86  115  161  210  246  263  270  293  357  434  466  447  433  485  632  848  1047  1162  1198  1189  1155  1115  1097  1122  1185  1256  1329  1438  1590  1739  1847  1922  1973  1995  1959  1826  1604  1348  1120  946  812  679  508  303  105  -41  -121  -144  -138  -118  -87  -46  -5  13  -9  -81  -186  -281  -335  -346  -329  -289  -240  -204  -186  -180  -184  -193  -164  -49  106  162  46  -145  -277  -309  -284  -245  -198  -129  -54  -19  -57  -140  -217  -264  -285  -277  -230  -160  -124  -179  -299  -408  -464  -463  -430  -391  -349  -311  -290  -288  -299  -330  -391  -466  -538  -608  -660  -655  -595  -537  -513  -512  -512  -507  -510  -558  -679  -836  -946  -962  -894  -770  -638  -551  -516  -497  -466  -435  -430  -474  -557  -623  -618  -534  -413  -324  -292  -301  -338  -406  -501  -600  -670  -697  -688  -670  -668  -667  -629  -537  -411  -294  -242  -264  -330  -409  -459  -469  -475  -479  -449  -403  -385  -405  -431  -407  -324  -242  -204  -194  -179  -164  -191  -297  -459  -594  -644  -625  -571  -491  -398  -332  -332  -412  -547  -675  -746  -754  -724  -688  -656  -614  -561  -512  -475  -445  -409  -367  -344  -367  -431  -466  -393  -247  -142  -131  -187  -277  -396  -544  -714  -892  -1063  -1196  -1269  -1286  -1268  -1234  -1183  -1118  -1054  -1014  -1011  -1043  -1095  -1139  -1166  -1215  -1273  -1182  -750  182  1653  3338  4645  5118  4609  3308  1656  73  -1170  -1894  -2083  -1899  -1544  -1211  -1036  -984  -954  -914  -873  -838  -816  -816  -839  -879  -922  -951  -936  -839  -661  -460  -318  -273  -327  -456  -601  -692  -689  -584  -414  -258  -170  -146  -152  -160  -156  -127  -77  -30  0  28  67  122  200  293  381  461  565  706  839  922  967  1015  1076  1134  1188  1251  1325  1403  1464  1488  1489  1519  1627  1792  1910  1845  1519  1038  648  480  469  498  494  427  312  180  24  -170  -350  -425  -373  -258  -170  -140  -151  -185  -228  -254  -233  -146  -24  68  97  68  -10  -117  -220  -293  -332  -338  -302  -210  -89  1  31  22  9  7  12  11  0  -9  -7  1  4  0  -6  1  34  97  195  295  330  276  167  41  -58  -98  -81  -29  33  83  109  120  125  129  129  118  90  55  31  24  26  32  38  32  -5  -80  -167  -229  -250  -240  -223  -204  -166  -102  -22  43  65  31  -28  -74  -95  -108  -126  -136  -126  -110  -102  -88  -40  59  185  279  310  278  184  60  -33  -65  -46  2  58  95  106  100  89  82  91  117  148  177  216  260  289  284  241  173  101  55  38  31  29  38  47  51  68  116  181  216  190  110  6  -94  -167  -213  -241  -232  -145  -7  92  93  24  -35  -37  -5  39  100  140  130  102  92  96  100  102  106  113  108  67  -28  -157  -269  -349  -421  -506  -582  -614  -614  -619  -636  -650  -652  -627  -551  -440  -403  -546  -831  -1029  -737  359  2092  3918  5316  5827  5179  3619  1753  97  -1044  -1509  -1395  -1081  -873  -812  -823  -835  -800  -699  -562  -460  -424  -429  -441  -448  -459  -493  -562  -650  -733  -799  -822  -782  -708  -648  -596  -512  -406  -335  -318  -330  -345  -353  -345  -299  -200  -64  76  188  251  266  256  244  247  287  383  528  681  803  904  1013  1130  1237  1322  1392  1461  1523  1562  1584  1618  1683  1755  1813  1860  1883  1860  1799  1715  1614  1489  1312  1074  805  546  313  112  -36  -129  -194  -261  -334  -388  -410  -416  -422  -433  -439  -436  -432  -435  -438  -431  -409  -374  -341  -322  -317  -320  -331  -350  -372  -384  -386  -394  -417  -430  -409  -375  -360  -365  -368  -361  -350  -343  -343  -339  -319  -286  -263  -256  -238  -203  -177  -178  -200  -222  -232  -242  -268  -306  -336  -347  -338  -310  -271  -244  -266  -342  -412  -429  -414  -396  -398  -455  -543  -591  -570  -495  -408  -339  -295  -287  -317  -356  -382  -382  -377  -392  -417  -430  -433  -441  -451  -450  -435  -418  -409  -403  -405  -430  -490  -552  -568  -535  -489  -442  -379  -303  -237  -196  -176  -170  -191  -254  -332  -377  -382  -373  -366  -357  -346  -339  -338  -325  -291  -254  -237  -236  -233  -207  -155  -99  -61  -47  -46  -41  -23  8  40  66  96  125  154  193  231  247  231  192  158  151  160  134  18  -200  -474  -700  -777  -688  -514  -364  -308  -327  -355  -355  -333  -293  -224  -182  -310  -592  -814  -744  -137  1162  2928  4577  5523  5486  4507  2887  1132  -330  -1282  -1608  -1411  -996  -620  -412  -383  -427  -462  -490  -510  -508  -485  -443  -396  -349  -286  -201  -128  -96  -91  -81  -39  27  89  127  143  139  116  75  30  0  -8  12  72  160  249  339  444  544  606  620  612  601  583  556  535  541  589  693  841  996  1132  1261  1397  1562  1759  1936  2031  2047  2031  2015  2004  1982  1939  1856  1715  1547  1412  1313  1176  952  672  410  227  120  40  -41  -116  -173  -227  -290  -387  -554  -751  -858  -815  -705  -644  -664  -715  -748  -756  -758  -777  -819  -863  -881  -868  -839  -809  -766  -697  -616  -562  -560  -618  -717  -804  -819  -733  -583  -439  -331  -255  -213  -224  -296  -398  -471  -488  -464  -431  -411  -408  -403  -385  -379  -406  -451  -489  -519  -535  -526  -507  -499  -499  -487  -445  -385  -333  -300  -294  -311  -328  -331  -332  -337  -347  -358  -363  -362  -356  -341  -307  -256  -208  -178  -166  -166  -174  -185  -195  -196  -193  -192  -198  -210  -224  -237  -245  -252  -263  -280  -294  -294  -300  -327  -341  -321  -262  -159  -70  -53  -99  -167  -220  -242  -247  -254  -260  -256  -230  -180  -125  -87  -76  -87  -118  -157  -185  -195  -192  -186  -183  -195  -235  -294  -333  -309  -209  -86  -26  -44  -83  -103  -115  -144  -187  -208  -165  -48  109  251  324  326  300  276  252  226  202  179  155  125  68  -40  -206  -385  -492  -491  -435  -383  -349  -331  -327  -338  -369  -406  -420  -396  -393  -516  -747  -811  -345  799  2461  4248  5637  6176  5741  4518  2825  1055  -387  -1215  -1363  -1011  -519  -228  -227  -347  -406  -355  -252  -178  -160  -171  -182  -190  -220  -291  -381  -450  -487  -509  -520  -497  -415  -292  -180  -112  -87  -94  -124  -161  -188  -197  -197  -196  -191  -166  -113  -34  52  120  156  173  194  244  353  527  704  802  827  842  873  921  999  1102  1213  1335  1466  1568  1617  1637  1655  1666  1653  1617  1556  1477  1409  1376  1364  1317  1168  894  556  245  13  -127  -187  -194  -185  -209  -299  -431  -533  -575  -586  -592  -596  -597  -598  -605  -619  -632  -630  -606  -579  -572  -589  -606  -583  -510  -441  -441  -506  -552  -520  -462  -441  -452  -460  -452  -427  -388  -346  -328  -343  -376  -413  -450  -484  -527  -573  -607  -625  -644  -665  -631  -468  -212  -9  55  16  -64  -129  -144  -134  -143  -178  -225  -276  -328  -377  -395  -356  -288  -245  -238  -245  -248  -241  -232  -225  -223  -232  -252  -296  -365  -425  -442  -408  -348  -314  -337  -385  -417  -436  -457  -474  -468  -425  -355  -288  -240  -207  -178  -150  -129  -108  -80  -39  7  34  24  -3  -36  -80  -124  -141  -129  -130  -170  -217  -221  -160  -64  6  25  15  5  2  2  2  7  18  29  12  -50  -136  -230  -331  -405  -421  -403  -383  -369  -348  -302  -243  -205  -198  -188  -126  -13  80  90  34  -28  -65  -77  -78  -75  -61  -32  2  19  2  -47  -117  -201  -311  -446  -569  -644  -671  -674  -666  -637  -571  -482  -396  -324  -301  -424  -709  -998  -1089  -810  29  1478  3269  4902  5880  5894  4925  3321  1585  54  -1012  -1453  -1404  -1101  -728  -484  -446  -494  -518  -514  -504  -490  -468  -446  -433  -425  -419  -412  -398  -376  -353  -329  -300  -264  -220  -185  -176  -195  -227  -246  -224  -162  -79  0  59  91  103  99  79  46  12  8  90  294  551  731  791  781  754  736  757  860  1049  1260  1412  1486  1524  1573  1640  1707  1763  1816  1880  1945  1991  1997  1922  1734  1492  1294  1147  983  791  620  490  365  232  126  56  -33  -202  -421  -588  -655  -657  -642  -624  -595  -553  -522  -528  -561  -575  -553  -517  -497  -499  -524  -573  -633  -674  -672  -624  -554  -503  -496  -535  -607  -678  -706  -661  -542  -399  -301  -264  -260  -263  -258  -241  -223  -218  -230  -251  -258  -244  -234  -238  -229  -200  -181  -186  -183  -131  -46  -1  -47  -152  -250  -316  -373  -421  -441  -438  -443  -465  -490  -507  -514  -523  -546  -587  -632  -653  -632  -584  -554  -571  -619  -676  -732  -764  -732  -605  -426  -286  -230  -263  -399  -622  -826  -903  -857  -771  -707  -678  -655  -608  -534  -460  -398  -351  -324  -316  -315  -317  -328  -358  -398  -425  -434  -447  -483  -524  -527  -460  -320  -136  22  89  66  10  -43  -99  -147  -161  -127  -66  -32  -65  -128  -170  -185  -198  -235  -304  -386  -450  -490  -522  -569  -642  -743  -849  -904  -825  -587  -352  -355  -573  -802  -881  -574  357  1886  3672  5163  5803  5333  3899  1969  130  -1148  -1658  -1529  -1109  -703  -473  -423  -452  -480  -485  -460  -394  -297  -218  -200  -244  -298  -319  -309  -285  -231  -134  -27  42  64  57  30  -15  -56  -58  -27  6  26  24  18  34  63  91  145  253  401  539  637  708  752  760  761  788  826  860  915  1029  1217  1443  1632  1745  1788  1792  1783  1777  1775  1781  1800  1819  1796  1693  1529  1374  1272  1194  1100  976  828  669  508  345  177  19  -115  -224  -323  -431  -555  -682  -792  -874  -919  -918  -879  -822  -766  -717  -685  -695  -768  -869  -913  -837  -691  -578  -540  -547  -561  -564  -549  -514  -474  -429  -380  -350  -345  -367  -424  -489  -525  -534  -536  -531  -493  -402  -294  -241  -261  -313  -356  -377  -376  -370  -379  -403  -408  -351  -235  -114  -42  -23  -30  -56  -113  -215  -340  -439  -483  -490  -484  -465  -421  -363  -322  -315  -330  -347  -360  -373  -380  -383  -385  -375  -346  -312  -289  -280  -279  -279  -280  -288  -308  -327  -325  -301  -282  -293  -327  -347  -326  -283  -246  -221  -213  -227  -247  -258  -264  -276  -301  -330  -326  -254  -136  -41  -2  -2  -38  -123  -230  -290  -269  -201  -142  -112  -101  -93  -70  -15  59  128  198  279  353  400  432  466  502  521  482  350  162  9  -62  -76  -68  -62  -73  -112  -176  -246  -301  -344  -374  -369  -327  -275  -216  -142  -119  -285  -643  -872  -550  454  1971  3682  5152  5978  5994  5177  3631  1759  113  -896  -1113  -717  -186  70  30  -95  -163  -170  -158  -142  -114  -75  -58  -89  -142  -181  -203  -222  -244  -276  -321  -360  -364  -304  -195  -103  -80  -103  -125  -128  -121  -114  -126  -181  -270  -330  -300  -199  -93  -3  106  250  399  503  530  493  456  465  513  595  728  897  1053  1167  1236  1270  1282  1282  1287  1301  1322  1353  1387  1412  1426  1422  1370  1237  1036  833  683  598  544  467  357  229  68  -135  -341  -500  -608  -685  -744  -796  -831  -828  -805  -792  -775  -745  -727  -739  -774  -810  -831  -841  -852  -859  -841  -779  -679  -580  -515  -489  -487  -504  -549  -636  -747  -827  -844  -805  -737  -667  -615  -595  -606  -628  -637  -628  -611  -600  -598  -599  -595  -581  -562  -549  -542  -529  -504  -471  -451  -456  -471  -483  -498  -526  -551  -557  -546  -529  -505  -474  -445  -426  -414  -409  -412  -415  -399  -354  -293  -229  -157  -76  -13  3  -32  -101  -167  -210  -242  -283  -337  -391  -425  -400  -277  -90  68  146  153  100  -17  -163  -268  -302  -293  -274  -257  -248  -250  -260  -272  -282  -297  -332  -378  -405  -394  -347  -262  -154  -74  -62  -106  -155  -163  -134  -108  -100  -94  -81  -77  -94  -110  -79  27  170  273  309  303  268  195  91  -8  -88  -157  -218  -260  -280  -306  -378  -511  -663  -760  -758  -668  -544  -456  -428  -441  -471  -497  -525  -628  -831  -992  -841  -57  1499  3483  5215  6131  5972  4802  3005  1111  -415  -1299  -1515  -1266  -881  -671  -705  -791  -759  -622  -468  -369  -327  -303  -272  -255  -268  -292  -303  -304  -304  -304  -298  -291  -293  -303  -301  -274  -238  -212  -191  -166  -136  -103  -76  -55  -12  84  210  304  333  318  307  355  504  702  833  867  863  871  907  969  1040  1112  1213  1382  1602  1805  1925  1948  1910  1857  1802  1769  1773  1796  1801  1746  1625  1460  1267  1059  875  743  634  499  329  157  22  -65  -142  -235  -325  -391  -460  -582  -740  -853  -861  -770  -639  -539  -491  -481  -509  -579  -653  -681  -661  -641  -650  -676  -693  -706  -722  -729  -720  -695  -646  -570  -480  -397  -349  -352  -393  -441  -471  -488  -499  -502  -500  -504  -524  -558  -593  -618  -634  -633  -582  -460  -328  -299  -399  -549  -671  -734  -751  -754  -757  -741  -680  -590  -515  -475  -456  -446  -442  -441  -440  -446  -472  -535  -627  -710  -748  -724  -655  -582  -522  -451  -356  -252  -179  -189  -272  -351  -380  -373  -365  -387  -451  -526  -568  -562  -521  -473  -431  -396  -372  -361  -362  -371  -384  -392  -372  -303  -193  -91  -31  -18  -32  -55  -81  -132  -236  -390  -552  -673  -736  -762  -776  -784  -778  -764  -762  -774  -779  -767  -748  -721  -674  -597  -561  -652  -743  -547  132  1357  2991  4566  5523  5472  4260  2195  0  -1652  -2371  -2176  -1524  -931  -602  -465  -378  -283  -206  -166  -151  -157  -200  -284  -369  -411  -407  -389  -383  -389  -392  -384  -375  -360  -311  -206  -73  33  97  143  177  194  193  184  183  218  307  433  557  656  726  764  782  810  870  945  995  1007  1005  1040  1151  1321  1483  1592  1664  1723  1766  1792  1809  1825  1848  1894  1981  2090  2178  2214  2172  2021  1777  1507  1246  1000  780  604  468  341  211  116  71  43  3  -46  -88  -111  -126  -147  -168  -181  -184  -181  -179  -186  -210  -251  -291  -313  -317  -317  -317  -314  -298  -264  -224  -187  -156  -129  -98  -84  -154  -318  -467  -517  -481  -388  -275  -189  -144  -113  -67  -4  50  86  113  130  126  99  48  -16  -80  -145  -223  -308  -387  -452  -500  -525  -526  -507  -479  -441  -399  -370  -356  -328  -264  -182  -132  -132  -159  -194  -249  -326  -378  -370  -330  -303  -292  -284  -279  -265  -222  -160  -118  -111  -120  -134  -180  -289  -435  -541  -577  -576  -568  -562  -557  -548  -523  -479  -431  -390  -348  -311  -300  -320  -353  -360  -335  -308  -298  -282  -224  -111  40  162  164  46  -99  -214  -293  -334  -345  -343  -340  -336  -331  -326  -326  -335  -357  -396  -438  -471  -509  -571  -644  -754  -964  -1215  -1244  -719  490  2243  4153  5632  6175  5671  4384  2763  1198  -45  -811  -1132  -1155  -1013  -831  -671  -545  -479  -465  -469  -475  -479  -478  -466  -436  -397  -368  -361  -376  -396  -393  -368  -352  -339  -303  -280  -301  -336  -362  -373  -351  -273  -140  -1  83  104  94  85  94  125  165  190  194  196  222  283  374  493  649  819  956  1033  1063  1077  1112  1198  1313  1400  1446  1492  1555  1615  1658  1674  1640  1531  1358  1163  975  793  630  515  433  336  210  81  -50  -198  -345  -455  -535  -607  -659  -673  -661  -645  -632  -621  -601  -575  -579  -636  -703  -736  -742  -744  -745  -732  -690  -617  -524  -439  -384  -357  -353  -362  -383  -421  -476  -549  -653  -769  -819  -723  -475  -188  -3  48  11  -73  -170  -227  -227  -195  -170  -171  -194  -242  -318  -404  -468  -493  -491  -474  -442  -394  -340  -298  -269  -241  -212  -191  -192  -235  -319  -396  -423  -401  -365  -363  -410  -467  -491  -477  -433  -369  -291  -218  -172  -156  -152  -148  -140  -125  -97  -70  -68  -97  -132  -170  -243  -360  -466  -481  -398  -289  -205  -147  -108  -89  -90  -112  -169  -268  -391  -488  -504  -415  -268  -155  -120  -132  -161  -209  -275  -337  -375  -388  -366  -283  -139  25  152  205  182  119  59  15  -28  -81  -131  -163  -170  -175  -231  -355  -494  -602  -669  -707  -729  -751  -764  -720  -564  -343  -228  -313  -551  -852  -1005  -684  318  1924  3770  5337  6113  5806  4511  2671  843  -529  -1212  -1244  -952  -704  -630  -642  -649  -645  -635  -593  -493  -387  -377  -482  -606  -670  -664  -617  -564  -526  -505  -485  -453  -409  -334  -193  -20  93  93  3  -109  -197  -254  -268  -231  -163  -82  10  105  180  219  228  215  189  166  164  201  312  509  723  865  927  966  1024  1129  1302  1501  1640  1688  1697  1713  1736  1732  1678  1607  1557  1518  1444  1310  1126  937  773  613  443  279  125  -31  -169  -260  -306  -324  -328  -327  -328  -333  -338  -338  -336  -347  -389  -466  -566  -657  -711  -725  -720  -716  -707  -681  -633  -569  -494  -422  -374  -359  -363  -376  -394  -412  -426  -435  -444  -446  -429  -375  -292  -205  -140  -109  -109  -123  -136  -142  -148  -169  -221  -309  -414  -506  -545  -513  -434  -346  -277  -259  -290  -330  -353  -359  -362  -364  -366  -367  -381  -421  -473  -504  -504  -489  -474  -463  -467  -499  -562  -601  -544  -419  -321  -281  -272  -282  -301  -291  -204  -67  30  55  43  32  26  21  18  29  50  62  57  34  -6  -63  -138  -221  -290  -336  -369  -402  -436  -467  -490  -508  -541  -603  -680  -705  -633  -590  -738  -984  -1000  -450  793  2504  4190  5359  5671  4979  3416  1408  -496  -1785  -2153  -1680  -826  -150  51  -134  -418  -580  -591  -506  -385  -280  -213  -175  -166  -186  -211  -215  -194  -155  -115  -69  -1  73  120  133  130  123  113  99  91  96  110  141  195  260  329  401  464  522  574  605  607  601  629  719  846  960  1062  1186  1331  1463  1555  1597  1617  1654  1737  1873  2025  2130  2156  2122  2047  1940  1796  1621  1448  1318  1221  1092  886  631  387  188  39  -60  -140  -230  -322  -382  -410  -448  -535  -658  -779  -893  -1004  -1074  -1073  -1021  -965  -924  -874  -817  -778  -765  -762  -753  -736  -729  -758  -804  -819  -803  -791  -783  -758  -727  -701  -672  -628  -573  -532  -518  -520  -529  -543  -563  -584  -600  -612  -624  -631  -620  -589  -550  -512  -479  -443  -401  -364  -351  -384  -471  -573  -628  -618  -578  -555  -571  -601  -608  -569  -487  -388  -307  -261  -248  -269  -339  -440  -513  -509  -430  -335  -296  -323  -367  -391  -398  -398  -398  -401  -405  -404  -387  -354  -338  -364  -407  -421  -382  -304  -206  -84  51  149  174  129  21  -132  -269  -307  -234  -115  -17  34  47  35  1  -53  -119  -183  -241  -291  -331  -371  -411  -437  -444  -451  -483  -544  -624  -721  -807  -844  -886  -996  -1057  -781  81  1540  3309  4899  5792  5703  4713  3134  1376  -153  -1145  -1442  -1172  -699  -303  -117  -152  -276  -354  -374  -372  -369  -370  -376  -379  -364  -315  -247  -201  -203  -239  -271  -277  -262  -210  -89  72  189  215  171  108  65  50  48  50  68  119  199  278  333  360  376  409  464  527  592  657  717  769  821  883  969  1084  1210  1312  1366  1386  1400  1421  1454  1499  1545  1574  1575  1546  1495  1438  1380  1300  1167  978  764  564  375  176  -29  -206  -313  -350  -347  -334  -321  -313  -306  -294  -280  -261  -235  -213  -231  -313  -432  -524  -560  -565  -563  -565  -564  -545  -498  -437  -391  -377  -397  -449  -515  -562  -571  -547  -508  -473  -455  -452  -456  -459  -462  -466  -463  -437  -397  -372  -373  -390  -413  -437  -458  -473  -485  -491  -490  -477  -452  -411  -361  -323  -307  -309  -329  -354  -364  -358  -349  -347  -350  -355  -361  -364  -351  -312  -258  -219  -217  -247  -289  -320  -337  -353  -369  -373  -354  -314  -287  -301  -338  -360  -354  -331  -307  -281  -252  -228  -219  -216  -212  -216  -245  -306  -369  -410  -429  -428  -414  -404  -406  -415  -411  -363  -278  -237  -299  -400  -457  -466  -457  -446  -434  -422  -413  -408  -411  -425  -451  -455  -398  -288  -189  -143  -138  -139  -126  -95  -59  -34  -27  -23  -2  33  49  24  -12  -36  -55  -87  -130  -179  -226  -259  -281  -306  -328  -334  -324  -312  -300  -299  -336  -430  -577  -760  -937  -1038  -931  -364  854  2620  4502  5923  6425  5851  4397  2539  774  -535  -1171  -1163  -824  -519  -403  -406  -383  -262  -93  28  73  69  10  -136  -333  -468  -458  -312  -150  -116  -218  -331  -346  -252  -115  -12  43  92  144  184  206  193  157  134  140  168  211  261  308  343  371  397  418  438  472  534  615  702  781  847  918  1029  1162  1259  1299  1321  1379  1511  1686  1829  1905  1936  1944  1909  1801  1644  1491  1354  1209  1056  917  791  651  475  288  139  32  -77  -191  -252  -243  -219  -234  -295  -372  -439  -491  -547  -617  -687  -737  -765  -772  -747  -691  -627  -582  -552  -523  -510  -530  -550  -536  -494  -450  -425  -424  -446  -485  -530  -573  -606  -609  -559  -442  -304  -213  -201  -250  -327  -398  -446  -470  -483  -491  -498  -515  -548  -577  -544  -411  -221  -79  -47  -89  -135  -155  -165  -204  -299  -407  -452  -419  -370  -357  -380  -407  -396  -336  -262  -217  -203  -189  -144  -78  -31  -31  -79  -163  -258  -327  -338  -284  -194  -111  -52  -15  -8  -34  -80  -132  -181  -214  -229  -244  -276  -320  -349  -346  -312  -265  -216  -167  -127  -113  -135  -198  -285  -359  -392  -394  -387  -382  -380  -377  -373  -372  -372  -369  -354  -326  -290  -255  -229  -216  -214  -215  -214  -212  -213  -225  -255  -299  -336  -341  -306  -244  -160  -66  11  49  43  0  -59  -114  -152  -166  -163  -166  -177  -176  -166  -176  -235  -342  -455  -529  -559  -570  -576  -582  -589  -597  -585  -523  -430  -361  -348  -373  -422  -535  -755  -1000  -1079  -796  59  1572  3405  4941  5658  5254  3835  1963  287  -806  -1246  -1213  -995  -814  -739  -722  -722  -747  -795  -856  -917  -957  -966  -949  -906  -840  -756  -657  -553  -468  -420  -402  -403  -415  -434  -447  -429  -364  -255  -118  12  93  92  0  -151  -290  -347  -308  -207  -92  6  95  186  272  340  383  410  466  606  812  1000  1117  1173  1194  1200  1203  1228  1311  1455  1603  1693  1723  1730  1737  1741  1712  1611  1431  1229  1061  919  768  600  424  255  118  24  -33  -74  -115  -167  -242  -365  -528  -669  -738  -750  -744  -738  -722  -679  -618  -564  -518  -470  -423  -395  -395  -439  -529  -640  -728  -765  -749  -697  -614  -510  -400  -292  -218  -213  -251  -279  -284  -286  -303  -336  -372  -397  -405  -375  -284  -138  7  103  138  112  23  -105  -218  -282  -294  -253  -145  -4  99  134  122  90  51  20  12  40  102  161  169  112  15  -66  -96  -76  -29  18  59  104  150  177  180  162  138  129  142  164  167  141  120  116  92  37  -16  -55  -102  -165  -228  -276  -296  -287  -269  -252  -215  -132  -22  58  86  84  78  71  52  11  -45  -105  -156  -194  -222  -225  -183  -97  -2  60  90  114  161  225  273  290  284  272  269  293  359  456  539  569  544  482  412  331  197  0]
