reading_id,reading_time,wire_id,result_classification,heart_rate,heart_rate_alert,firmware_version,device_app_version,hardware_version,waveform_samples
43f84da0-d2a0-11ed-8080-808080808080,Tue Apr 04 04:22:09 UTC 2023,e12964476439,NSR,60,NONE,20001.188.58,2.13.0,Charge 5,[487  840  1110  1303  1456  1566  1635  1700  1772  1828  1869  1929  2015  2098  2167  2230  2281  2315  2337  2345  2317  2225  2077  1914  1762  1643  1584  1581  1596  1579  1484  1308  1074  799  537  367  312  322  337  332  308  270  228  202  190  170  125  65  9  -44  -114  -205  -306  -381  -406  -376  -297  -202  -134  -107  -101  -107  -146  -234  -336  -386  -376  -351  -329  -302  -268  -237  -221  -223  -228  -233  -234  -205  -131  -35  44  88  98  98  97  72  -9  -149  -295  -384  -411  -410  -400  -372  -314  -244  -196  -180  -185  -194  -198  -173  -103  -15  36  31  -14  -93  -195  -286  -337  -324  -239  -113  1  100  196  268  295  301  318  337  314  237  160  128  124  106  63  31  43  73  78  38  -27  -66  -50  -12  8  10  9  15  31  57  73  29  -112  -312  -467  -518  -467  -323  -94  155  318  346  275  175  105  80  79  91  124  184  245  251  164  4  -164  -292  -376  -458  -572  -690  -766  -793  -799  -804  -821  -868  -950  -1040  -1124  -1205  -1245  -1216  -1165  -1148  -1195  -1286  -1347  -1351  -1343  -1324  -1207  -799  106  1411  2767  3839  4278  3843  2660  1120  -401  -1587  -2159  -2112  -1765  -1400  -1106  -908  -804  -796  -887  -1006  -1037  -974  -908  -893  -902  -887  -817  -703  -597  -540  -529  -545  -576  -614  -639  -633  -591  -532  -484  -453  -430  -420  -438  -488  -539  -555  -540  -515  -490  -472  -463  -432  -341  -181  -13  84  101  82  59  49  85  202  381  548  654  696  699  686  670  671  726  856  1016  1135  1209  1288  1379  1440  1470  1528  1651  1776  1804  1736  1647  1570  1491  1395  1275  1133  955  747  566  461  384  282  183  122  84  29  -73  -199  -283  -302  -288  -273  -263  -262  -287  -354  -433  -455  -402  -346  -347  -380  -388  -357  -320  -302  -294  -265  -218  -205  -267  -370  -453  -501  -523  -523  -486  -378  -210  -67  -11  -34  -104  -168  -185  -175  -183  -230  -312  -402  -461  -476  -441  -344  -213  -110  -58  -46  -69  -124  -210  -303  -366  -374  -324  -214  -72  44  100  76  -38  -198  -309  -294  -130  127  354  454  444  397  357  320  286  262  244  213  167  125  102  99  116  157  224  295  319  274  208  169  151  119  51  -39  -103  -114  -85  -37  25  109  206  288  343  379  392  364  294  188  78  9  -4  7  24  35  37  32  25  21  20  21  20  15  1  -17  -30  0  122  324  527  658  707  711  703  686  650  599  557  537  534  535  531  518  502  491  464  389  266  129  5  -92  -159  -192  -210  -230  -240  -224  -206  -216  -233  -230  -207  -175  -147  -145  -170  -185  -100  261  1045  2199  3491  4532  4859  4248  2832  972  -746  -1716  -1771  -1197  -429  105  211  65  -84  -186  -272  -318  -281  -178  -92  -70  -90  -108  -109  -114  -140  -175  -205  -224  -230  -212  -155  -68  26  105  156  179  171  119  36  -6  39  138  219  250  251  242  222  189  153  119  86  75  96  117  113  104  110  140  209  312  416  500  583  695  830  937  984  988  984  987  996  1002  1018  1064  1139  1214  1265  1290  1292  1281  1260  1225  1170  1090  976  840  713  606  510  408  283  144  24  -70  -156  -240  -324  -407  -479  -522  -543  -553  -554  -549  -538  -530  -527  -530  -539  -550  -561  -571  -575  -553  -476  -357  -239  -156  -125  -168  -299  -492  -669  -764  -777  -748  -700  -631  -550  -484  -452  -444  -446  -445  -429  -393  -348  -317  -316  -337  -359  -350  -302  -240  -197  -183  -182  -174  -155  -136  -143  -191  -247  -262  -257  -286  -335  -364  -367  -361  -356  -357  -375  -435  -544  -636  -613  -492  -356  -238  -144  -90  -78  -93  -115  -134  -159  -210  -305  -445  -589  -664  -629  -517  -388  -286  -229  -209  -205  -224  -290  -401  -495  -516  -466  -387  -303  -233  -194  -182  -169  -146  -159  -278  -475  -613  -615  -523  -414  -338  -286  -226  -139  -12  139  260  294  255  201  173  163  157  146  127  85  10  -75  -118  -101  -94  -170  -304  -407  -446  -457  -476  -495  -499  -514  -583  -694  -756  -699  -552  -377  -221  -197  -436  -888  -1275  -1210  -438  958  2593  3981  4768  4783  3958  2449  677  -903  -1901  -2073  -1581  -935  -529  -363  -252  -158  -137  -171  -200  -211  -214  -201  -146  -50  55  142  201  224  190  83  -59  -167  -210  -218  -212  -178  -95  34  147  171  115  30  -58  -112  -98  -32  48  112  143  147  147  154  173  203  244  292  345  397  443  480  494  498  521  561  586  580  552  529  583  838  1322  1837  2109  2062  1859  1694  1618  1570  1510  1466  1492  1595  1690  1659  1505  1320  1141  971  850  800  785  767  726  647  544  452  379  285  142  8  -31  -17  -47  -141  -277  -435  -582  -707  -814  -897  -929  -880  -732  -520  -324  -186  -107  -117  -249  -445  -592  -642  -626  -578  -515  -461  -438  -443  -446  -433  -412  -398  -405  -432  -466  -512  -568  -599  -564  -456  -313  -196  -155  -185  -240  -284  -308  -315  -315  -325  -346  -365  -371  -374  -395  -444  -484  -458  -364  -267  -224  -238  -273  -304  -328  -348  -365  -388  -424  -456  -443  -379  -308  -266  -244  -209  -150  -90  -40  4  34  39  25  -4  -42  -77  -106  -139  -180  -217  -248  -280  -305  -316  -337  -398  -485  -543  -528  -450  -360  -280  -193  -116  -93  -129  -193  -246  -269  -269  -260  -253  -264  -315  -409  -525  -627  -666  -600  -441  -262  -140  -100  -145  -280  -466  -618  -690  -705  -679  -589  -415  -205  -60  -27  -71  -135  -178  -196  -205  -201  -132  55  321  536  619  590  498  371  227  83  -60  -201  -333  -455  -568  -674  -746  -744  -681  -619  -594  -594  -602  -613  -627  -622  -548  -381  -240  -339  -731  -1210  -1487  -1300  -452  1046  2834  4351  5095  4789  3572  1932  320  -985  -1777  -1990  -1795  -1421  -1035  -749  -551  -356  -195  -183  -315  -473  -593  -676  -704  -663  -587  -532  -521  -524  -492  -404  -304  -248  -231  -220  -200  -163  -104  -23  67  109  37  -130  -295  -341  -215  2  175  246  252  242  235  231  220  198  175  173  208  282  382  499  611  684  707  701  687  678  698  773  904  1059  1205  1325  1436  1558  1655  1699  1710  1706  1694  1680  1672  1668  1636  1553  1466  1428  1427  1422  1376  1250  1014  710  436  243  95  -37  -148  -217  -243  -247  -257  -282  -310  -339  -389  -464  -533  -568  -572  -570  -567  -545  -486  -411  -372  -383  -416  -444  -458  -470  -486  -478  -384  -214  -87  -106  -254  -426  -532  -567  -568  -561  -546  -526  -518  -532  -544  -526  -472  -395  -321  -276  -254  -228  -191  -164  -181  -253  -348  -407  -412  -395  -385  -387  -393  -405  -437  -492  -522  -463  -317  -153  -52  -35  -75  -148  -239  -322  -368  -364  -316  -242  -172  -132  -136  -174  -221  -256  -283  -314  -352  -383  -370  -263  -80  82  163  182  173  126  8  -144  -251  -279  -269  -282  -353  -462  -540  -529  -419  -263  -142  -90  -84  -109  -170  -253  -309  -304  -248  -179  -133  -118  -126  -151  -192  -237  -269  -284  -288  -296  -307  -290  -181  61  354  512  441  226  10  -155  -274  -341  -333  -240  -71  124  262  281  220  160  118  84  73  100  150  173  143  112  128  172  237  373  589  798  915  937  900  829  746  682  638  555  364  92  -133  -231  -234  -209  -194  -213  -283  -386  -477  -533  -558  -552  -494  -361  -167  -38  -132  -359  -459  -334  52  851  2029  3218  4069  4418  4079  2976  1395  -149  -1227  -1643  -1430  -866  -332  -58  -67  -234  -359  -342  -255  -174  -95  -4  76  86  -11  -168  -286  -329  -331  -320  -273  -132  119  374  450  263  -72  -349  -476  -495  -447  -325  -127  88  238  295  292  281  290  315  321  278  215  178  164  160  168  175  179  233  407  686  950  1095  1129  1117  1099  1071  1024  970  930  909  895  882  871  870  901  991  1157  1396  1648  1819  1874  1828  1694  1512  1352  1241  1152  1062  954  814  656  499  329  150  9  -67  -99  -130  -199  -295  -380  -445  -495  -531  -557  -572  -579  -579  -566  -528  -474  -446  -477  -537  -578  -589  -596  -635  -701  -752  -767  -760  -752  -748  -745  -744  -752  -778  -818  -856  -869  -821  -662  -392  -152  -124  -280  -444  -551  -633  -672  -633  -553  -502  -498  -466  -335  -145  -6  24  -48  -194  -354  -465  -531  -603  -723  -910  -1099  -1156  -1054  -892  -736  -603  -517  -531  -661  -813  -893  -912  -920  -936  -956  -997  -1074  -1141  -1091  -888  -639  -505  -528  -618  -681  -709  -732  -755  -767  -772  -792  -851  -952  -1081  -1218  -1328  -1351  -1240  -1033  -830  -703  -659  -665  -686  -704  -700  -672  -640  -637  -690  -810  -958  -1066  -1088  -1004  -816  -574  -355  -204  -129  -118  -149  -200  -249  -300  -349  -321  -185  -25  94  190  263  287  264  212  142  15  -226  -520  -720  -779  -766  -731  -680  -619  -576  -561  -568  -586  -606  -587  -464  -210  71  146  -150  -686  -1044  -758  333  1904  3403  4411  4707  4283  3356  2202  1043  63  -587  -830  -807  -730  -552  -204  139  332  417  456  433  329  198  136  162  214  263  326  399  443  448  434  411  380  341  305  275  246  224  218  219  224  253  337  487  683  872  979  952  813  645  531  481  450  417  401  401  400  389  397  509  799  1186  1466  1530  1424  1255  1123  1059  1024  986  947  921  910  906  932  1024  1158  1288  1418  1552  1641  1632  1519  1368  1264  1220  1178  1096  965  785  602  478  414  356  260  120  -44  -215  -399  -578  -690  -696  -625  -535  -485  -511  -609  -755  -876  -866  -711  -507  -324  -174  -54  14  5  -100  -279  -466  -616  -726  -781  -740  -578  -355  -194  -159  -220  -318  -400  -439  -433  -399  -362  -330  -281  -187  -78  -49  -141  -270  -347  -368  -341  -231  -33  165  263  208  18  -156  -167  -68  6  24  22  24  20  -23  -129  -276  -406  -469  -468  -444  -412  -357  -281  -214  -163  -119  -92  -109  -170  -233  -257  -234  -188  -161  -167  -184  -195  -198  -178  -121  -45  10  34  50  68  74  55  30  21  28  27  -17  -124  -254  -322  -296  -234  -202  -201  -192  -150  -102  -81  -79  -73  -61  -43  -27  -26  -54  -114  -183  -235  -260  -258  -220  -140  -42  29  53  33  -13  -68  -109  -121  -85  -11  62  120  183  262  325  350  351  349  352  365  385  379  278  24  -309  -544  -602  -553  -477  -396  -322  -269  -239  -224  -228  -265  -334  -405  -450  -480  -531  -581  -581  -645  -884  -1024  -596  552  2140  3694  4738  4927  4289  3084  1524  -61  -1245  -1788  -1714  -1301  -912  -697  -589  -505  -420  -337  -267  -227  -235  -284  -344  -386  -399  -393  -384  -375  -352  -296  -201  -88  -3  35  37  18  1  3  9  14  36  84  141  153  96  26  3  19  41  62  88  126  165  183  186  210  270  340  386  399  391  381  390  447  552  663  732  753  746  724  693  669  703  853  1102  1346  1496  1543  1522  1480  1441  1397  1335  1255  1172  1103  1040  973  913  869  827  760  653  509  357  239  170  125  68  -5  -90  -207  -361  -503  -579  -594  -588  -594  -610  -587  -476  -343  -335  -474  -616  -652  -602  -534  -490  -478  -493  -536  -595  -635  -619  -533  -414  -328  -308  -335  -375  -402  -407  -393  -361  -306  -235  -196  -222  -279  -333  -386  -434  -469  -496  -512  -517  -516  -513  -510  -507  -510  -525  -540  -506  -358  -103  140  254  229  124  -41  -263  -469  -584  -608  -578  -520  -444  -352  -249  -172  -143  -151  -177  -218  -276  -336  -372  -381  -387  -403  -420  -429  -429  -433  -454  -485  -479  -405  -336  -357  -436  -471  -399  -239  -98  -75  -151  -248  -319  -352  -361  -362  -348  -293  -191  -66  41  95  70  -41  -191  -301  -334  -313  -265  -203  -142  -99  -74  -53  -17  53  164  271  327  339  336  325  293  224  121  8  -76  -111  -112  -104  -104  -124  -155  -161  -123  -73  -45  -35  -26  -23  -72  -225  -441  -603  -639  -571  -501  -579  -779  -848  -617  -67  854  2080  3233  3957  4141  3658  2490  1041  -239  -1206  -1704  -1534  -933  -426  -213  -167  -169  -181  -204  -234  -264  -304  -363  -432  -490  -507  -451  -328  -194  -116  -111  -142  -161  -114  -21  -12  -142  -285  -339  -335  -329  -332  -315  -252  -164  -103  -88  -92  -76  -16  76  161  196  176  136  105  85  69  74  133  263  423  547  607  617  609  624  703  840  988  1100  1136  1070  921  767  721  863  1154  1464  1689  1822  1880  1819  1623  1396  1241  1150  1068  982  895  787  652  515  398  304  236  190  159  146  172  235  275  203  -20  -312  -516  -572  -557  -580  -695  -842  -869  -691  -404  -170  -51  -35  -117  -257  -378  -436  -442  -421  -381  -318  -246  -200  -195  -218  -238  -237  -223  -212  -210  -213  -222  -248  -297  -352  -390  -409  -423  -435  -419  -363  -296  -268  -290  -328  -357  -380  -401  -414  -405  -372  -337  -307  -268  -218  -170  -129  -100  -65  3  86  106  3  -182  -355  -454  -470  -413  -320  -242  -207  -199  -195  -177  -141  -97  -65  -54  -60  -84  -144  -258  -398  -510  -570  -594  -597  -585  -555  -515  -484  -470  -468  -470  -475  -490  -520  -566  -623  -680  -725  -748  -737  -686  -601  -513  -458  -433  -395  -318  -209  -101  -36  -37  -98  -182  -241  -254  -226  -176  -121  -71  -38  -20  -11  -7  -18  -62  -140  -234  -320  -384  -438  -490  -526  -541  -543  -536  -512  -459  -387  -355  -416  -527  -682  -975  -1260  -1110  -255  1221  2886  4153  4607  4151  3026  1666  372  -718  -1467  -1785  -1679  -1269  -799  -472  -299  -198  -128  -86  -63  -48  -66  -135  -208  -211  -134  -40  24  62  92  120  145  155  125  33  -98  -210  -268  -289  -290  -252  -150  9  171  261  262  227  206  208  215  219  219  219  219  220  223  232  258  318  406  493  551  575  575  576  629  777  976  1116  1138  1081  1023  1032  1119  1231  1326  1417  1512  1584  1614  1615  1627  1685  1778  1875  1933  1851  1585  1249  980  802  669  542  419  297  162  13  -114  -179  -172  -129  -99  -104  -126  -143  -151  -160  -189  -258  -353  -436  -487  -508  -510  -515  -534  -547  -524  -466  -403  -361  -344  -342  -353  -391  -466  -570  -675  -740  -734  -646  -509  -392  -337  -314  -275  -214  -167  -177  -255  -361  -439  -478  -512  -556  -578  -544  -457  -340  -232  -170  -178  -247  -328  -370  -383  -399  -399  -362  -315  -290  -286  -289  -293  -295  -296  -291  -275  -253  -238  -236  -238  -229  -194  -142  -96  -71  -70  -88  -120  -170  -229  -278  -312  -328  -301  -227  -156  -121  -107  -90  -73  -76  -115  -180  -239  -272  -280  -274  -266  -257  -236  -202  -172  -152  -141  -133  -126  -120  -118  -127  -166  -260  -384  -479  -513  -495  -429  -326  -215  -130  -90  -91  -109  -128  -150  -196  -266  -323  -303  -154  80  267  329  302  262  282  383  530  673  785  830  750  516  187  -102  -258  -292  -256  -192  -138  -108  -90  -72  -47  -11  -9  -130  -387  -669  -883  -1015  -1087  -1077  -824  -175  768  1797  2800  3606  3985  3823  3105  1960  692  -447  -1305  -1740  -1749  -1415  -821  -212  116  113  -88  -345  -538  -619  -624  -597  -549  -490  -446  -449  -494  -541  -550  -508  -397  -251  -157  -144  -160  -167  -167  -187  -248  -333  -401  -445  -469  -462  -425  -386  -335  -239  -108  0  61  87  74  18  -62  -147  -204  -217  -191  -114  22  165  261  339  470  638  736  734  746  844  960  1015  1019  1030  1096  1215  1339  1404  1361  1255  1190  1158  1110  1090  1084  1001  867  779  759  778  796  765  639  428  187  -37  -221  -337  -371  -323  -211  -82  1  10  -45  -129  -203  -259  -299  -313  -311  -315  -327  -352  -404  -474  -522  -507  -426  -329  -298  -378  -555  -738  -789  -660  -397  -109  31  -28  -150  -216  -226  -220  -219  -223  -215  -168  -79  12  66  73  38  -38  -133  -202  -235  -260  -301  -349  -389  -429  -487  -528  -484  -354  -212  -124  -99  -96  -70  -24  13  29  16  -44  -165  -305  -379  -348  -260  -184  -138  -102  -87  -117  -184  -252  -287  -277  -241  -201  -179  -181  -196  -206  -208  -212  -224  -230  -187  -60  102  198  195  134  46  -54  -150  -236  -307  -346  -333  -262  -165  -97  -92  -147  -223  -279  -299  -295  -273  -231  -180  -144  -114  -62  13  83  123  137  134  125  119  138  212  333  448  514  539  554  568  564  521  417  256  89  -35  -103  -124  -121  -114  -110  -112  -147  -245  -397  -535  -577  -512  -445  -524  -752  -906  -813  -593  -413  -188  296  1150  2322  3530  4263  4123  3126  1595  -19  -1274  -1902  -1902  -1504  -1024  -659  -452  -335  -220  -121  -97  -136  -197  -253  -300  -331  -308  -202  -37  122  213  201  92  -80  -252  -367  -411  -399  -342  -264  -199  -171  -181  -220  -283  -355  -406  -425  -411  -365  -310  -265  -192  -29  187  341  389  382  353  299  257  277  364  470  541  555  527  492  512  622  770  891  976  1028  1037  999  936  903  963  1112  1275  1381  1430  1472  1516  1526  1484  1405  1335  1321  1330  1246  980  588  244  72  38  41  22  -23  -65  -76  -66  -68  -107  -202  -350  -520  -673  -777  -826  -846  -864  -874  -835  -709  -532  -392  -343  -397  -556  -768  -932  -998  -988  -926  -813  -660  -498  -356  -247  -211  -278  -394  -472  -484  -473  -483  -510  -532  -542  -543  -534  -507  -463  -414  -369  -336  -323  -330  -342  -332  -280  -213  -187  -228  -303  -382  -484  -605  -676  -640  -519  -386  -298  -261  -247  -229  -208  -219  -279  -343  -410  -526  -649  -689  -648  -566  -444  -267  -67  64  92  66  27  -49  -196  -368  -487  -519  -493  -435  -356  -265  -180  -127  -127  -164  -201  -220  -232  -241  -227  -171  -86  -19  3  8  45  141  271  383  457  507  542  541  480  351  131  -160  -415  -554  -595  -564  -486  -415  -382  -379  -391  -403  -405  -390  -346  -274  -258  -403  -622  -686  -430  323  1626  3044  3974  4189  3728  2631  1178  -48  -762  -1110  -1175  -1050  -951  -896  -817  -750  -679  -559  -430  -344  -306  -294  -285  -262  -209  -127  -50  -9  0  6  18  16  -33  -147  -313  -496  -655  -741  -709  -552  -326  -97  134  368  539  597  540  365  127  -57  -108  -43  59  147  232  335  437  508  543  548  516  437  348  351  516  772  971  1052  1052  975  792  559  447  588  935  1301  1538  1642  1696  1773  1882  1982  2036  1989  1743  1281  789  489  395  367  320  273  245  204  99  -60  -203  -278  -293  -283  -263  -229  -193  -185  -240  -365  -517  -629  -683  -708  -721  -714  -682  -639  -610  -606  -610  -590  -525  -443  -403  -424  -451  -438  -407  -407  -460  -538  -598  -628  -633  -601  -512  -384  -262  -177  -153  -203  -294  -365  -385  -368  -346  -336  -338  -343  -348  -352  -355  -357  -353  -338  -313  -287  -266  -255  -258  -275  -298  -318  -324  -306  -257  -192  -142  -115  -101  -84  -57  -20  0  -36  -135  -255  -333  -346  -313  -263  -236  -247  -270  -294  -318  -310  -258  -209  -202  -236  -287  -336  -393  -471  -558  -618  -612  -557  -522  -506  -440  -340  -276  -258  -258  -266  -293  -352  -419  -448  -409  -311  -165  29  236  379  434  435  414  388  361  334  305  275  234  160  56  -35  -93  -141  -212  -297  -359  -383  -380  -355  -303  -239  -192  -172  -169  -191  -259  -365  -461  -466  -361  -313  -517  -838  -822  -152  1071  2555  3928  4682  4535  3673  2370  852  -522  -1425  -1802  -1747  -1386  -888  -463  -239  -153  -110  -87  -71  -40  10  69  106  78  -30  -171  -259  -265  -230  -193  -169  -176  -238  -370  -518  -580  -527  -416  -312  -236  -174  -98  -3  90  155  177  171  150  124  113  119  142  197  262  295  299  293  280  250  197  127  60  13  1  50  190  402  637  861  1041  1140  1160  1144  1137  1184  1298  1407  1398  1277  1140  1040  986  990  1039  1078  1047  953  844  717  531  326  202  175  187  199  185  120  25  -64  -131  -164  -162  -161  -225  -388  -593  -737  -788  -794  -779  -704  -535  -318  -151  -74  -57  -67  -91  -132  -201  -299  -402  -476  -511  -524  -533  -553  -582  -598  -591  -580  -584  -601  -628  -657  -673  -653  -569  -427  -286  -201  -174  -172  -175  -195  -261  -361  -434  -438  -379  -275  -150  -43  13  -19  -160  -342  -475  -542  -566  -563  -536  -479  -406  -349  -329  -336  -347  -349  -343  -335  -330  -329  -326  -321  -314  -308  -308  -325  -371  -440  -502  -526  -505  -469  -435  -386  -322  -261  -207  -153  -98  -60  -55  -73  -95  -117  -137  -170  -235  -323  -390  -412  -394  -343  -279  -234  -218  -210  -200  -201  -212  -204  -155  -77  4  81  167  254  307  314  295  276  290  342  398  434  456  482  503  458  271  -34  -315  -446  -440  -390  -356  -347  -353  -353  -341  -317  -280  -232  -189  -178  -201  -240  -317  -492  -725  -820  -535  266  1540  3030  4294  4864  4485  3217  1429  -322  -1555  -2022  -1737  -1021  -368  -85  -135  -340  -555  -691  -727  -697  -624  -508  -375  -274  -231  -230  -228  -199  -152  -120  -124  -158  -175  -139  -78  -45  -50  -91  -177  -286  -368  -401  -402  -375  -306  -194  -51  113  259  314  256  159  132  193  259  271  249  229  222  218  209  204  232  320  457  594  690  733  741  748  786  873  999  1111  1180  1211  1207  1187  1180  1188  1232  1320  1379  1338  1199  1020  878  805  773  734  641  478  279  111  20  0  7  11  0  -27  -67  -129  -206  -263  -284  -283  -278  -288  -339  -444  -580  -696  -740  -694  -602  -520  -472  -446  -433  -435  -454  -480  -494  -499  -515  -548  -588  -616  -608  -569  -514  -449  -383  -340  -329  -331  -325  -297  -245  -184  -144  -139  -163  -195  -218  -225  -226  -228  -227  -209  -163  -109  -73  -53  -62  -126  -237  -368  -497  -576  -564  -458  -313  -207  -173  -186  -226  -280  -326  -328  -290  -252  -236  -230  -217  -191  -150  -95  -54  -61  -131  -238  -330  -373  -374  -353  -319  -268  -216  -228  -353  -530  -604  -484  -247  -52  31  43  41  50  51  23  -21  -51  -51  -37  -21  0  25  39  32  6  -25  -38  18  193  436  622  692  674  606  512  423  354  309  283  266  228  148  27  -115  -235  -296  -311  -328  -377  -442  -474  -460  -432  -423  -419  -370  -278  -300  -592  -931  -818  -48  1197  2683  4047  4797  4686  3752  2153  282  -1292  -2148  -2177  -1606  -935  -593  -572  -616  -597  -498  -340  -202  -141  -130  -132  -136  -132  -104  -57  -43  -106  -207  -285  -324  -322  -288  -245  -207  -191  -196  -180  -129  -77  -44  -31  -35  -48  -55  -56  -54  -58  -77  -109  -132  -127  -98  -36  81  230  345  397  407  394  368  343  359  458  620  770  873  939  991  1058  1135  1200  1242  1261  1277  1328  1431  1548  1623  1641  1624  1591  1533  1432  1298  1177  1103  1072  1049  983  832  631  466  370  295  199  76  -53  -189  -353  -536  -686  -763  -756  -682  -578  -494  -459  -459  -464  -473  -488  -503  -512  -520  -549  -610  -675  -721  -750  -762  -739  -675  -576  -475  -426  -453  -508  -534  -530  -519  -512  -500  -471  -434  -413  -407  -391  -364  -358  -402  -481  -524  -464  -325  -190  -118  -108  -117  -111  -98  -103  -146  -232  -335  -411  -469  -556  -654  -645  -445  -142  61  73  -32  -143  -217  -284  -377  -459  -449  -351  -257  -226  -238  -256  -269  -278  -281  -295  -353  -446  -518  -523  -464  -383  -323  -292  -280  -282  -296  -317  -326  -302  -258  -231  -238  -249  -230  -191  -161  -150  -150  -151  -156  -174  -205  -236  -237  -161  17  232  362  365  292  216  165  134  118  117  123  123  100  41  -42  -124  -187  -248  -338  -450  -521  -509  -445  -409  -433  -464  -460  -434  -394  -371  -439  -633  -878  -969  -566  535  2096  3586  4475  4403  3404  1954  597  -405  -1015  -1241  -1187  -1070  -969  -797  -552  -344  -235  -213  -257  -358  -480  -566  -596  -592  -567  -497  -359  -181  -21  79  130  155  157  117  21  -105  -202  -246  -267  -285  -300  -304  -280  -224  -148  -64  24  119  220  312  373  407  445  506  562  539  374  121  -87  -170  -142  -47  102  318  583  822  968  1019  1027  1037  1074  1137  1224  1340  1476  1587  1640  1650  1645  1630  1591  1523  1448  1385  1332  1278  1218  1149  1065  966  858  750  657  584  507  392  252  141  73  0  -125  -305  -484  -597  -631  -620  -592  -533  -404  -222  -70  -14  -49  -127  -189  -213  -225  -242  -249  -248  -262  -293  -340  -400  -443  -439  -379  -283  -215  -231  -289  -311  -248  -116  -33  -102  -264  -370  -360  -277  -197  -171  -207  -268  -284  -224  -156  -140  -155  -170  -195  -257  -342  -406  -430  -427  -410  -377  -336  -304  -295  -305  -311  -284  -224  -176  -168  -176  -177  -181  -190  -193  -189  -192  -221  -286  -367  -425  -438  -398  -320  -260  -267  -310  -339  -343  -341  -353  -385  -397  -318  -165  -67  -85  -149  -191  -200  -192  -175  -135  -51  58  134  116  -6  -168  -269  -282  -257  -241  -238  -235  -218  -188  -154  -118  -83  -52  -16  41  124  207  259  289  337  420  509  573  597  565  459  308  175  86  26  -30  -120  -272  -457  -603  -668  -648  -541  -372  -212  -138  -176  -308  -498  -688  -796  -774  -612  -418  -372  -504  -671  -614  -13  1228  2766  4058  4667  4323  3109  1513  53  -965  -1448  -1524  -1394  -1099  -666  -281  -84  -51  -59  -34  -67  -218  -389  -479  -457  -358  -270  -261  -337  -460  -577  -658  -698  -680  -583  -416  -250  -153  -130  -158  -225  -307  -366  -386  -384  -382  -388  -394  -393  -382  -363  -337  -297  -235  -162  -102  -64  -50  -58  -72  -44  93  348  625  807  864  834  754  643  527  445  411  418  488  642  843  1010  1102  1131  1129  1122  1125  1141  1153  1122  1033  918  823  772  762  772  791  805  775  649  430  209  75  33  25  -7  -90  -197  -281  -317  -315  -295  -274  -254  -236  -228  -239  -263  -292  -322  -335  -304  -230  -150  -109  -128  -204  -331  -478  -573  -585  -551  -512  -488  -492  -525  -559  -564  -543  -521  -501  -449  -342  -207  -102  -59  -65  -92  -139  -229  -358  -472  -526  -528  -503  -465  -405  -295  -153  -43  1  -4  -44  -115  -194  -251  -283  -304  -315  -301  -264  -203  -114  -13  60  88  87  82  87  101  115  111  53  -88  -308  -547  -723  -792  -735  -521  -198  78  189  150  62  7  -2  9  28  49  61  41  -28  -127  -207  -244  -250  -241  -218  -185  -158  -146  -144  -144  -141  -136  -132  -126  -115  -88  -31  59  172  304  456  608  718  764  724  577  366  194  109  77  47  -2  -68  -141  -210  -265  -291  -272  -202  -107  -33  -2  -9  -46  -118  -216  -347  -555  -818  -998  -1027  -939  -693  -176  682  1823  3065  4140  4666  4341  3223  1659  95  -1003  -1410  -1312  -1029  -773  -653  -640  -636  -590  -517  -458  -434  -438  -448  -439  -395  -331  -284  -268  -272  -286  -303  -309  -300  -288  -288  -290  -272  -220  -158  -115  -98  -99  -115  -133  -137  -111  -53  14  70  105  116  100  66  33  13  22  51  73  68  48  49  98  181  262  334  421  530  621  673  706  731  741  749  786  888  1059  1243  1373  1440  1469  1471  1460  1456  1465  1457  1398  1308  1238  1189  1098  918  659  395  222  168  181  197  159  34  -145  -301  -385  -406  -404  -410  -443  -502  -574  -637  -676  -689  -672  -615  -520  -413  -325  -274  -260  -275  -324  -417  -547  -678  -760  -777  -757  -729  -681  -589  -479  -408  -386  -382  -373  -373  -407  -491  -590  -636  -594  -501  -419  -364  -312  -255  -204  -183  -240  -371  -474  -482  -434  -392  -370  -349  -330  -338  -391  -466  -521  -531  -509  -477  -447  -412  -358  -265  -122  -7  -45  -222  -393  -469  -482  -489  -510  -529  -526  -489  -430  -376  -347  -349  -368  -384  -391  -399  -419  -437  -412  -333  -239  -166  -116  -80  -59  -60  -102  -187  -273  -313  -318  -316  -290  -229  -168  -128  -92  -41  29  124  250  389  497  555  581  575  501  323  68  -164  -304  -397  -519  -656  -714  -634  -466  -303  -203  -174  -203  -265  -334  -384  -411  -438  -516  -636  -693  -693  -786  -915  -804  -279  738  2158  3573  4512  4661  3840  2204  324  -1261  -2176  -2186  -1554  -904  -529  -347  -282  -314  -398  -476  -495  -452  -379  -289  -191  -109  -44  12  49  43  -8  -82  -142  -179  -203  -217  -221  -223  -228  -235  -236  -228  -222  -213  -154  8  232  395  430  359  254  183  196  299  445  551  565  493  376  273  220  212  238  307  425  561  664  724  766  799  820  830  831  847  915  1043  1188  1301  1373  1422  1475  1552  1655  1743  1729  1550  1271  1046  956  954  963  946  905  854  790  672  477  269  141  109  124  131  99  20  -82  -179  -268  -355  -437  -496  -497  -428  -308  -179  -107  -127  -199  -257  -271  -253  -233  -211  -155  -66  -6  -30  -131  -253  -322  -323  -320  -319  -264  -185  -150  -156  -145  -45  173  446  654  741  732  661  559  469  422  404  368  290  192  121  70  -3  -99  -173  -222  -286  -371  -441  -480  -504  -518  -518  -508  -498  -502  -541  -637  -763  -848  -858  -825  -792  -771  -764  -764  -760  -743  -714  -689  -668  -634  -596  -588  -633  -712  -785  -824  -825  -803  -776  -753  -729  -706  -694  -718  -807  -945  -1069  -1129  -1096  -951  -726  -518  -392  -324  -273  -237  -221  -209  -192  -182  -194  -218  -241  -275  -338  -415  -485  -572  -690  -794  -848  -863  -860  -859  -902  -1022  -1185  -1303  -1344  -1337  -1317  -1285  -1212  -1077  -930  -851  -821  -674  -182  764  2044  3329  4125  4048  3139  1732  200  -1134  -1989  -2162  -1764  -1185  -717  -426  -274  -182  -99  -40  -24  -36  -60  -84  -104  -113  -96  -38  55  153  231  288  337  375  374  331  271  201  100  -11  -3  224  541  681  529  215  -39  -143  -139  -74  48  203  332  407  449  488  522  530  521  526  563  645  757  846  877  877  897  955  1018  1042  1036  1059  1176  1385  1590  1713  1779  1849  1885  1783  1542  1293  1152  1153  1250  1366  1448  1493  1507  1476  1366  1177  970  793  645  488  282  49  -131  -221  -255  -284  -336  -417  -507  -592  -659  -661  -549  -353  -170  -76  -88  -152  -197  -209  -237  -331  -470  -567  -579  -550  -535  -546  -558  -552  -540  -537  -535  -539  -567  -599  -580  -477  -326  -210  -164  -160  -169  -193  -249  -326  -395  -446  -484  -499  -483  -455  -438  -436  -442  -453  -469  -472  -411  -241  -10  162  209  139  -13  -196  -340  -408  -417  -408  -406  -408  -397  -346  -247  -93  109  310  428  417  284  95  -60  -151  -202  -241  -263  -261  -243  -223  -204  -169  -97  -7  53  73  74  73  60  10  -73  -152  -206  -258  -309  -334  -306  -202  -40  109  172  136  66  18  -1  -9  -15  -16  7  85  226  404  564  654  675  673  678  672  598  410  138  -120  -287  -359  -372  -383  -422  -463  -477  -468  -458  -473  -504  -521  -539  -604  -676  -609  -374  -146  -60  -53  170  937  2159  3334  3928  3669  2720  1473  228  -799  -1454  -1712  -1599  -1207  -830  -664  -525  -248  22  128  61  -128  -342  -476  -509  -495  -458  -383  -285  -219  -230  -311  -394  -389  -288  -163  -77  -40  -38  -52  -72  -92  -126  -210  -350  -484  -549  -554  -534  -471  -322  -124  22  79  79  55  0  -77  -126  -106  -30  69  166  242  311  395  496  592  657  693  721  747  765  776  779  790  843  946  1078  1212  1333  1425  1474  1458  1366  1230  1104  1007  906  776  635  536  501  499  484  424  312  167  -2  -211  -436  -601  -672  -679  -648  -575  -471  -382  -328  -302  -316  -379  -449  -489  -500  -502  -506  -520  -544  -569  -579  -569  -553  -553  -596  -700  -838  -931  -900  -720  -471  -292  -235  -248  -268  -263  -225  -165  -106  -64  -68  -149  -296  -434  -487  -448  -375  -310  -238  -145  -33  70  123  97  11  -81  -134  -147  -153  -163  -162  -142  -109  -77  -49  -22  -1  -9  -66  -154  -224  -249  -240  -201  -131  -48  1  -4  -51  -116  -187  -243  -251  -163  19  205  283  233  125  46  31  36  28  25  35  47  47  27  -22  -91  -141  -143  -95  -24  21  0  -91  -188  -200  -106  45  234  438  582  614  571  525  505  486  448  405  362  295  169  -27  -249  -399  -431  -372  -282  -225  -252  -382  -563  -699  -746  -724  -649  -539  -429  -365  -357  -389  -492  -662  -699  -320  606  1957  3335  4216  4243  3399  1999  507  -723  -1500  -1739  -1572  -1254  -933  -687  -562  -522  -499  -460  -404  -342  -273  -199  -148  -140  -167  -206  -235  -244  -231  -195  -154  -147  -200  -287  -359  -395  -400  -345  -195  6  153  200  192  185  201  230  234  169  33  -111  -198  -227  -248  -286  -296  -202  13  293  555  743  830  821  741  638  561  526  521  561  677  853  1009  1102  1167  1240  1322  1394  1432  1444  1466  1478  1413  1267  1110  1010  986  1014  1065  1121  1159  1140  1015  787  537  339  197  71  -64  -191  -284  -355  -402  -395  -317  -206  -125  -108  -145  -210  -283  -351  -406  -444  -460  -451  -413  -344  -258  -192  -185  -281  -482  -712  -866  -912  -863  -730  -552  -393  -272  -176  -120  -116  -134  -148  -172  -235  -330  -412  -452  -463  -463  -455  -426  -364  -296  -259  -251  -244  -232  -228  -223  -201  -165  -154  -243  -484  -807  -1034  -1041  -837  -550  -348  -300  -357  -442  -498  -508  -476  -410  -324  -239  -190  -204  -279  -382  -447  -437  -373  -317  -314  -353  -387  -393  -386  -390  -412  -435  -434  -416  -412  -433  -454  -437  -365  -271  -210  -200  -216  -237  -253  -264  -289  -333  -343  -254  -86  58  116  103  67  40  48  118  248  387  492  551  579  590  582  547  495  458  455  475  479  393  170  -128  -368  -486  -517  -512  -494  -456  -398  -334  -285  -263  -270  -280  -243  -157  -178  -453  -849  -1035  -780  -43  1118  2529  3819  4561  4457  3465  1848  82  -1329  -2038  -1977  -1400  -734  -275  -129  -251  -445  -542  -535  -469  -342  -188  -95  -120  -222  -283  -230  -103  8  73  88  21  -171  -439  -636  -650  -456  -133  166  333  376  349  285  210  159  137  124  105  89  95  131  174  188  164  122  85  71  68  79  155  322  533  715  807  816  835  904  971  1002  1017  1025  1018  997  989  1069  1293  1591  1804  1846  1758  1632  1546  1522  1538  1569  1588  1536  1362  1105  888  758  651  533  433  352  246  97  -56  -173  -246  -292  -327  -358  -377  -382  -386  -402  -423  -413  -361  -304  -276  -266  -260  -281  -369  -530  -701  -807  -822  -771  -679  -546  -396  -316  -341  -400  -424  -407  -373  -349  -341  -343  -345  -333  -291  -231  -183  -161  -157  -177  -242  -354  -478  -558  -563  -527  -509  -534  -569  -533  -377  -185  -92  -132  -224  -281  -291  -301  -353  -434  -495  -517  -516  -501  -468  -422  -380  -353  -339  -338  -361  -418  -501  -578  -642  -705  -754  -744  -667  -566  -487  -441  -408  -360  -294  -219  -134  -46  14  36  38  34  29  29  51  104  154  146  70  -37  -151  -256  -341  -400  -432  -443  -460  -510  -587  -659  -708  -735  -740  -715  -665  -611  -557  -496  -478  -621  -930  -1187  -1143  -633  398  1797  3180  4083  4153  3347  1947  380  -926  -1686  -1869  -1640  -1224  -811  -524  -405  -392  -402  -409  -418  -430  -443  -449  -442  -418  -389  -376  -394  -427  -453  -462  -466  -477  -482  -442  -322  -163  -52  -20  -31  -48  -57  -44  8  102  207  261  215  92  -24  -82  -87  -77  -75  -70  -26  81  230  358  438  496  553  611  679  756  817  846  846  838  845  896  1010  1176  1347  1464  1508  1509  1492  1470  1446  1425  1413  1408  1407  1410  1422  1441  1436  1335  1087  754  480  342  297  269  243  237  222  146  19  -106  -194  -237  -268  -331  -426  -505  -527  -488  -411  -322  -240  -180  -148  -134  -128  -122  -114  -101  -89  -102  -187  -366  -588  -757  -826  -808  -717  -550  -345  -179  -63  39  124  158  133  72  5  -51  -106  -180  -262  -296  -247  -153  -91  -92  -108  -83  -36  -8  -2  -1  -3  -20  -74  -158  -234  -282  -312  -314  -253  -104  94  248  307  301  270  240  197  87  -102  -299  -413  -423  -381  -343  -324  -309  -303  -340  -423  -496  -488  -371  -200  -81  -106  -286  -519  -660  -676  -633  -586  -560  -547  -510  -415  -287  -186  -135  -131  -215  -421  -618  -572  -265  59  214  221  179  149  140  140  142  152  176  201  204  176  127  73  21  -41  -125  -209  -272  -318  -352  -376  -389  -393  -420  -503  -611  -687  -729  -755  -746  -641  -458  -367  -486  -735  -970  -965  -427  688  2077  3341  4149  4208  3455  2184  790  -395  -1153  -1461  -1447  -1256  -1019  -815  -651  -526  -454  -440  -465  -484  -463  -399  -311  -230  -182  -158  -127  -79  -27  14  32  -9  -141  -314  -420  -390  -257  -124  -95  -165  -241  -274  -284  -288  -275  -227  -135  -16  91  160  179  154  106  57  8  -44  -86  -102  -81  -15  88  193  262  285  286  316  421  609  845  1079  1238  1252  1147  1038  995  1008  1051  1111  1179  1250  1338  1436  1497  1481  1396  1289  1189  1082  967  884  855  860  855  780  597  353  156  65  62  91  76  -26  -174  -279  -314  -310  -297  -285  -268  -236  -196  -166  -155  -159  -188  -256  -361  -464  -512  -493  -453  -431  -424  -426  -451  -516  -594  -633  -611  -553  -497  -449  -378  -258  -132  -73  -97  -156  -207  -251  -310  -376  -416  -425  -421  -420  -425  -425  -397  -324  -225  -152  -130  -154  -212  -291  -374  -429  -431  -398  -375  -373  -370  -347  -307  -268  -231  -199  -185  -199  -223  -226  -199  -156  -115  -90  -83  -86  -90  -93  -85  -60  -22  7  -7  -102  -267  -428  -517  -527  -493  -444  -397  -356  -326  -312  -309  -312  -315  -305  -243  -90  128  319  387  320  202  135  171  324  535  703  784  797  751  626  427  204  -13  -227  -425  -561  -620  -628  -614  -592  -566  -548  -549  -575  -618  -656  -646  -535  -339  -214  -290  -467  -511  -217  529  1652  2845  3746  4078  3697  2669  1264  -154  -1298  -1989  -2155  -1938  -1584  -1227  -970  -874  -875  -894  -913  -930  -937  -916  -829  -646  -400  -180  -65  -86  -226  -418  -565  -621  -598  -497  -328  -158  -81  -137  -283  -449  -570  -583  -459  -260  -105  -42  -36  -44  -49  -44  -25  1  24  33  27  14  22  88  209  346  460  538  575  584  589  602  618  650  743  905  1078  1210  1308  1392  1485  1619  1768  1832  1752  1595  1481  1452  1467  1500  1550  1576  1527  1406  1252  1097  963  863  788  727  679  619  502  311  80  -117  -218  -236  -228  -222  -216  -220  -255  -335  -447  -544  -576  -549  -511  -491  -488  -498  -526  -573  -625  -664  -671  -634  -547  -415  -277  -181  -136  -122  -120  -128  -164  -241  -343  -432  -474  -470  -440  -398  -355  -318  -288  -259  -245  -261  -303  -328  -299  -254  -236  -227  -228  -269  -328  -359  -363  -367  -387  -404  -358  -221  -61  28  37  10  -29  -111  -274  -475  -607  -628  -560  -443  -361  -378  -455  -518  -545  -550  -545  -527  -490  -458  -476  -554  -661  -755  -818  -844  -841  -822  -797  -769  -729  -661  -567  -438  -238  11  216  312  302  209  75  -29  -71  -66  -52  -72  -153  -276  -382  -473  -601  -758  -881  -948  -972  -962  -922  -852  -770  -712  -693  -699  -710  -701  -644  -563  -582  -740  -800  -434  503  1916  3429  4479  4645  3845  2317  529  -1031  -2004  -2233  -1849  -1181  -554  -168  -50  -76  -121  -168  -244  -338  -402  -424  -427  -426  -419  -403  -348  -209  -6  162  216  143  5  -107  -154  -155  -149  -150  -144  -112  -62  -8  84  251  413  460  409  346  309  295  293  293  290  294  333  420  527  613  677  720  738  743  751  765  777  802  899  1113  1372  1532  1544  1489  1459  1476  1504  1525  1551  1591  1632  1646  1614  1548  1496  1492  1526  1538  1458  1244  930  634  471  435  427  372  278  192  119  28  -83  -206  -347  -505  -638  -704  -700  -638  -543  -448  -376  -332  -326  -376  -486  -617  -717  -768  -794  -819  -839  -833  -783  -680  -521  -312  -116  -31  -63  -125  -167  -224  -360  -557  -719  -784  -766  -708  -645  -597  -558  -523  -498  -489  -490  -494  -500  -505  -500  -483  -465  -457  -458  -461  -461  -458  -452  -436  -389  -304  -208  -142  -114  -115  -151  -235  -338  -402  -401  -365  -333  -310  -277  -234  -200  -188  -190  -200  -214  -221  -193  -100  34  150  217  244  254  267  279  232  58  -217  -469  -608  -658  -678  -688  -667  -607  -540  -513  -531  -568  -611  -646  -662  -663  -663  -670  -686  -704  -729  -769  -747  -596  -352  75  875  1997  3161  3998  4068  3137  1463  -346  -1729  -2349  -2145  -1416  -651  -184  -96  -265  -455  -497  -388  -229  -134  -157  -280  -453  -618  -707  -695  -608  -487  -370  -284  -220  -185  -243  -405  -549  -537  -360  -136  -6  -24  -143  -272  -329  -304  -251  -220  -210  -185  -108  23  163  262  334  418  521  615  672  655  541  377  258  220  237  304  471  740  1005  1152  1184  1178  1193  1231  1262  1273  1284  1335  1454  1614  1743  1808  1804  1696  1447  1141  931  867  877  880  838  745  608  455  326  219  104  -21  -148  -291  -445  -562  -618  -638  -638  -601  -513  -402  -322  -288  -280  -280  -279  -286  -328  -435  -591  -719  -769  -763  -732  -667  -556  -426  -312  -235  -210  -241  -297  -337  -348  -345  -347  -364  -392  -417  -429  -431  -425  -410  -392  -382  -384  -395  -405  -409  -400  -373  -336  -316  -336  -402  -503  -600  -633  -568  -440  -325  -251  -185  -102  -11  66  105  92  61  58  105  206  322  415  452  350  90  -188  -350  -403  -428  -469  -511  -545  -583  -627  -649  -611  -500  -342  -170  2  140  151  -20  -298  -545  -762  -1053  -1301  -1201  -644  229  1288  2428  3421  3938  3755  2827  1370  -110  -1136  -1533  -1391  -977  -587  -383  -354  -404  -469  -541  -604  -633  -631  -621  -596  -517  -396  -305  -283  -297  -295  -270  -263  -265  -211  -98  -9  2  -39  -81  -93  -81  -67  -73  -112  -179  -226  -217  -175  -111  -1  141  254  308  320  301  235  120  25  48  173  305  396  437  432  409  423  533  741  968  1132  1231  1301  1355  1390  1417  1465  1536  1599  1636  1655  1667  1670  1659  1634  1563  1412  1183  882  573  401  406  486  529  451  256  44  -117  -217  -247  -197  -88  28  97  80  -52  -290  -575  -813  -915  -850  -666  -455  -295  -205  -158  -120  -66  -11  6  -39  -159  -330  -499  -624  -688  -705  -705  -701  -676  -607  -514  -451  -440  -458  -475  -488  -509  -542  -569  -553  -460  -299  -132  -17  28  29  23  17  -9  -57  -112  -171  -230  -270  -284  -284  -281  -270  -245  -212  -191  -184  -170  -127  -67  -18  29  113  231  337  410  458  479  473  464  462  415  258  9  -224  -375  -467  -544  -588  -584  -578  -596  -612  -609  -599  -586  -559  -502  -424  -371  -399  -574  -873  -1097  -1037  -642  83  1112  2242  3144  3536  3324  2583  1427  109  -968  -1567  -1664  -1381  -988  -714  -625  -672  -760  -814  -795  -676  -513  -436  -491  -599  -670  -675  -636  -592  -551  -488  -391  -290  -210  -165  -208  -368  -595  -808  -935  -938  -813  -617  -436  -315  -236  -176  -155  -201  -281  -347  -384  -398  -394  -373  -341  -303  -258  -223  -217  -245  -279  -263  -168  -13  172  345  451  482  480  475  467  448  428  424  437  457  499  585  712  833  902  898  804  628  424  250  104  -33  -163  -280  -388  -477  -535  -553  -507  -350  -95]
