reading_id,reading_time,wire_id,result_classification,heart_rate,heart_rate_alert,firmware_version,device_app_version,hardware_version,waveform_samples
9c84abc0-5803-11ed-8080-808080808080,Sun Oct 30 03:33:25 UTC 2022,e101e3752439,UNREADABLE,0,NONE,20001.171.50,2.10.0,Charge 5,[-2927  -3099  -3217  -3311  -3445  -3640  -3856  -4024  -4114  -4156  -4179  -4184  -4179  -4182  -4217  -4303  -4438  -4551  -4535  -4400  -4270  -4214  -4208  -4215  -4226  -4235  -4202  -4077  -3870  -3661  -3557  -3705  -4243  -5049  -5740  -6085  -6183  -6237  -6314  -6369  -6414  -6573  -6958  -7523  -8071  -8433  -8593  -8576  -8264  -7459  -6095  -4325  -2500  -916  638  2807  5839  9192  12090  14052  14962  15004  14441  13498  12498  11786  11466  11395  11409  11457  11579  11847  12277  12769  13162  13269  12748  11164  8418  5099  2306  816  439  493  560  525  357  97  -141  -284  -345  -359  -335  -262  -127  58  265  486  705  880  939  717  38  -935  -1737  -2169  -2446  -2733  -2951  -3040  -3074  -3117  -3076  -2709  -1887  -863  -49  426  672  745  646  423  93  -389  -960  -1398  -1640  -2042  -3037  -4430  -5436  -5508  -4587  -2889  -856  1078  2666  3511  2979  877  -2017  -4464  -5603  -5300  -4200  -3282  -2983  -2982  -2863  -2605  -2413  -2398  -2542  -2748  -2905  -2956  -2892  -2706  -2443  -2185  -1936  -1648  -1350  -1147  -1072  -1078  -1144  -1289  -1476  -1612  -1662  -1668  -1670  -1679  -1698  -1729  -1756  -1761  -1755  -1757  -1766  -1765  -1724  -1616  -1437  -1233  -1049  -870  -675  -502  -386  -311  -258  -255  -394  -757  -1313  -1941  -2499  -2885  -3082  -3153  -3190  -3308  -3625  -4201  -5022  -5960  -6778  -7311  -7578  -7725  -7962  -8458  -9179  -9902  -10405  -10599  -10535  -10365  -10228  -10178  -10224  -10388  -10641  -10883  -11005  -10906  -10508  -9891  -9257  -8632  -7875  -6921  -5843  -4871  -4277  -4092  -4096  -4009  -3596  -2810  -1818  -808  134  901  1356  1503  1493  1459  1449  1453  1444  1407  1387  1531  1978  2620  3103  3095  2451  1348  305  -267  -418  -366  -146  282  767  1020  890  478  29  -249  -275  5  614  1430  2262  2972  3483  3771  3847  3739  3524  3298  3113  3033  3241  3897  4798  5466  5662  5482  5102  4690  4396  4267  4268  4364  4452  4320  3829  3074  2329  1841  1633  1556  1487  1465  1723  2484  3580  4538  5132  5471  5680  5797  5868  5998  6285  6705  7132  7458  7625  7630  7525  7403  7325  7262  7133  6924  6705  6529  6313  5813  4799  3335  1848  830  422  425  646  1037  1582  2290  3156  3992  4519  4665  4582  4444  4340  4309  4422  4756  5230  5626  5846  5954  6013  6035  6011  5901  5672  5322  4888  4474  4196  4053  3969  3922  3912  3905  3912  3951  3916  3667  3252  2966  3252  4404  6281  8390  10183  11188  11068  9790  7681  5305  3330  2265  2196  2814  3633  4167  4095  3415  2480  1730  1357  1262  1281  1356  1522  1782  2065  2264  2229  1838  1197  623  336  375  759  1468  2313  3020  3418  3534  3514  3469  3435  3419  3455  3592  3815  4027  4160  4236  4289  4269  4088  3729  3283  2880  2638  2622  2770  2888  2833  2626  2330  2007  1761  1689  1885  2410  3118  3757  4261  4677  4994  5229  5427  5587  5713  5837  5906  5823  5563  5173  4769  4492  4387  4397  4468  4567  4649  4677  4644  4579  4533  4530  4538  4514  4397  4008  3183  2097  1180  635  363  232  121  -109  -529  -1042  -1453  -1635  -1567  -1270  -844  -434  -80  235  484  660  792  721  -63  -1972  -4534  -6638  -7612  -7403  -6079  -4144  -2737  -2760  -4181  -6044  -7051  -6617  -5337  -4548  -5391  -7804  -10645  -12626  -12919  -11628  -9642  -7723  -6046  -4503  -3042  -1745  -714  16  459  685  861  1144  1518  1815  1923  1824  1505  997  427  -139  -781  -1498  -2087  -2379  -2434  -2401  -2376  -2416  -2559  -2786  -3055  -3369  -3738  -4142  -4539  -4863  -5096  -5372  -5859  -6513  -7042  -7047  -6098  -4120  -1882  -432  -109  -647  -1747  -3068  -4147  -4687  -4770  -4661  -4538  -4445  -4357  -4236  -4100  -4007  -3966  -3933  -3886  -3841  -3818  -3838  -3927  -4086  -4253  -4341  -4267  -3989  -3606  -3317  -3221  -3303  -3571  -4045  -4601  -5009  -5172  -5130  -4868  -4357  -3736  -3262  -3054  -3026  -3043  -3065  -3132  -3282  -3501  -3805  -4336  -5276  -6516  -7595  -8204  -8507  -8798  -9100  -9249  -9197  -9017  -8809  -8659  -8588  -8559  -8566  -8681  -9005  -9624  -10488  -11222  -11343  -10721  -9573  -8162  -6603  -4779  -2693  -941  -381  -1443  -3918  -6975  -9436  -10656  -10936  -10727  -10123  -9317  -8671  -8341  -8289  -8382  -8516  -8744  -9039  -9189  -9018  -8555  -8032  -7651  -7336  -6813  -5945  -4919  -3972  -3031  -1899  -594  692  1715  2295  2433  2280  2026  1803  1617  1401  1133  883  783  921  1246  1598  1850  1943  1754  1135  229  -524  -868  -921  -865  -720  -481  -241  -94  2  205  609  1091  1475  1852  2442  3166  3699  3840  3537  2818  1945  1341  1250  1693  2553  3531  4264  4593  4634  4590  4579  4613  4655  4677  4683  4667  4554  4251  3757  3205  2733  2411  2309  2519  3045  3738  4354  4717  4839  4846  4840  4822  4695  4362  3893  3523  3406  3466  3573  3711  3916  4178  4432  4611  4703  4748  4787  4823  4786  4590  4235  3830  3477  3176  2898  2684  2650  3002  3907  5180  6293  6860  6946  6830  6679  6491  6164  5676  5194  4915  4872  4977  5146  5322  5474  5578  5577  5431  5210  5048  4996  5000  5003  4986  4949  4910  4886  4861  4714  4122  2729  669  -1429  -3021  -3913  -4234  -4303  -4343  -4386  -4400  -4378  -4332  -4288  -4325  -4555  -5023  -5656  -6293  -6731  -6740  -6068  -4615  -2716  -999  104  635  911  1190  1519  1805  1961  1994  1950  1863  1764  1697  1703  1810  2009  2231  2422  2577  2703  2773  2731  2498  2033  1445  963  729  705  805  990  1233  1511  1830  2161  2422  2572  2643  2682  2704  2714  2706  2667  2582  2429  2186  1868  1535  1228  971  789  703  736  903  1136  1313  1391  1412  1412  1383  1301  1168  1006  802  516  62  -706  -1655  -2120  -1442  501  3286  6149  8359  9476  9297  7719  4875  1359  -1875  -3813  -3789  -2063  176  1548  1332  -29  -1386  -2066  -2316  -2638  -3115  -3495  -3635  -3627  -3600  -3613  -3646  -3643  -3594  -3560  -3564  -3486  -3141  -2525  -1902  -1515  -1332  -1184  -954  -588  -113  398  896  1301  1520  1546  1452  1330  1244  1200  1180  1192  1283  1498  1803  2109  2361  2618  3018  3584  4118  4421  4477  4336  4010  3581  3207  2972  2922  3222  4013  5035  5773  6007  5865  5485  4955  4360  3709  2997  2347  1890  1575  1272  929  550  126  -387  -970  -1484  -1823  -2000  -2054  -1980  -1753  -1347  -720  161  1233  2220  2807  2956  2862  2673  2434  2191  1983  1800  1633  1536  1600  1875  2255  2528  2581  2461  2285  2167  2165  2269  2417  2531  2585  2584  2485  2245  1966  1866  2020  2260  2375  2306  2108  1840  1516  1098  533  -133  -714  -1048  -1156  -1128  -921  -448  141  520  546  367  183  78  45  70  167  352  575  740  797  740  546  194  -261  -683  -925  -892  -526  137  949  1740  2367  2745  2899  2895  2782  2601  2351  1957  1423  899  546  398  375  330  104  -373  -1059  -1872  -2669  -3233  -3450  -3350  -2989  -2499  -2099  -1923  -2033  -2521  -3369  -4342  -5140  -5587  -5708  -5620  -5396  -5112  -4893  -4870  -5158  -5824  -6786  -7760  -8458  -8856  -9092  -9227  -9260  -9210  -9143  -9241  -9793  -10874  -12068  -12842  -13066  -12870  -12333  -11635  -11022  -10380  -9361  -8026  -6888  -6375  -6658  -7724  -9133  -10184  -10637  -10750  -10729  -10609  -10426  -10228  -9962  -9537  -9016  -8539  -7997  -7066  -5665  -4127  -2857  -2033  -1632  -1520  -1597  -1957  -2779  -4006  -5223  -5947  -5975  -5369  -4395  -3503  -3037  -3080  -3613  -4512  -5450  -6115  -6422  -6461  -6318  -5967  -5346  -4616  -4139  -4179  -4698  -5237  -5155  -4137  -2251  134  2467  4418  5891  6716  6743  5887  4155  2000  232  -459  363  2577  5257  7413  8728  9408  9744  9979  10263  10593  10873  11026  11021  10813  10341  9676  8966  8173  7173  6139  5449  5214  5224  5283  5374  5596  6009  6501  6877  7062  7090  6934  6528  5970  5509  5298  5337  5615  6101  6675  7239  7825  8543  9417  10241  10723  10768  10448  9919  9401  9014  8682  8337  8050  7880  7760  7590  7347  7087  6876  6727  6612  6481  6281  5897  5189  4253  3431  2950  2780  2778  2812  2812  2769  2715  2633  2354  1610  321  -1183  -2372  -2964  -3078  -2934  -2618  -2121  -1430  -604  163  694  984  1117  1170  1244  1448  1762  2046  2218  2323  2436  2580  2712  2766  2732  2664  2616  2588  2567  2554  2549  2544  2528  2490  2375  2058  1430  578  -213  -717  -952  -1072  -1177  -1285  -1425  -1659  -1993  -2331  -2554  -2618  -2547  -2377  -2180  -2042  -1987  -1989  -2043  -2148  -2238  -2200  -1986  -1676  -1409  -1264  -1230  -1282  -1446  -1723  -2012  -2204  -2327  -2475  -2699  -2990  -3283  -3497  -3606  -3645  -3698  -3842  -4051  -4231  -4344  -4407  -4441  -4510  -4705  -4975  -4985  -4268  -2551  21  2909  5436  7080  7475  6391  3942  534  -3161  -6072  -7294  -6931  -5927  -5305  -5742  -7307  -9294  -10693  -10852  -9467  -6722  -3755  -1878  -1280  -1262  -1291  -1304  -1377  -1475  -1509  -1459  -1352  -1205  -1053  -993  -1262  -2244  -4021  -6091  -7877  -9148  -9859  -9933  -9108  -7197  -4719  -2663  -1515  -1072  -974  -1002  -1068  -1140  -1180  -1130  -942  -625  -227  237  736  1131  1293  1234  1068  909  800  732  692  670  644  597  542  508  499  482  430  364  323  310  275  169  26  -90  -275  -817  -1868  -3083  -3892  -4105  -3911  -3517  -3072  -2697  -2487  -2496  -2690  -2953  -3199  -3451  -3778  -4144  -4403  -4500  -4496  -4422  -4262  -4021  -3751  -3508  -3325  -3172  -2976  -2719  -2451  -2218  -2034  -1906  -1883  -2060  -2460  -2933  -3256  -3328  -3128  -2647  -1981  -1368  -982  -716  -284  455  1351  2091  2475  2554  2510  2459  2425  2430  2542  2838  3303  3785  4117  4279  4364  4448  4565  4771  5092  5443  5700  5823  5834  5753  5603  5430  5262  5088  4856  4521  4145  3880  3785  3794  3827  3842  3808  3706  3575  3491  3461  3392  3193  2916  2708  2601  2475  2233  1937  1710  1582  1477  1311  1023  607  163  -152  -276  -273  -236  -211  -204  -224  -281  -356  -415  -447  -470  -487  -483  -462  -462  -528  -670  -834  -955  -1021  -1043  -1008  -890  -716  -554  -443  -382  -369  -451  -672  -950  -1091  -1016  -851  -714  -556  -245  251  805  1258  1569  1758  1817  1739  1562  1358  1193  1119  1211  1535  2004  2403  2624  2720  2780  2836  2841  2680  2299  1921  2066  3126  4977  7148  9093  10166  9864  8233  5703  2819  319  -1100  -1336  -857  -241  134  188  48  -123  -239  -286  -279  -220  -113  1  73  93  105  161  253  335  378  385  356  290  215  182  247  421  658  895  1110  1316  1500  1604  1593  1496  1393  1335  1294  1234  1123  920  663  470  399  428  535  693  837  910  893  818  751  742  810  946  1104  1233  1311  1340  1341  1357  1420  1523  1656  1843  2071  2259  2366  2416  2430  2397  2296  2138  1987  1896  1840  1753  1635  1541  1480  1402  1278  1123  932  675  394  199  129  132  167  243  374  529  654  705  638  366  -190  -1050  -2144  -3243  -4024  -4387  -4510  -4578  -4633  -4660  -4662  -4660  -4678  -4731  -4804  -4889  -5052  -5358  -5733  -6023  -6144  -6038  -5611  -4915  -4240  -3836  -3709  -3777  -4004  -4311  -4539  -4542  -4199  -3449  -2518  -1878  -1845  -2379  -3141  -3706  -3905  -3855  -3692  -3485  -3273  -3062  -2848  -2659  -2499  -2305  -2042  -1781  -1601  -1486  -1372  -1259  -1218  -1298  -1447  -1585  -1716  -1925  -2258  -2676  -3093  -3432  -3659  -3743  -3564  -2974  -2043  -1039  -130  635  1189  1524  1719  1823  1842  1775  1647  1516  1412  1346  1322  1301  1202  988  726  536  465  460  470  516  663  915  1170  1310  1299  1168  1003  890  872  1059  1696  2909  4616  6593  8393  9416  9232  7795  5415  2610  4  -1804  -2495  -2208  -1427  -683  -339  -437  -724  -984  -1196  -1373  -1504  -1608  -1696  -1671  -1333  -612  234  844  1111  1165  1155  1146  1124  1031  849  648  530  544  686  918  1157  1315  1319  1067  514  -144  -582  -615  -250  362  967  1373  1574  1698  1914  2329  2863  3300  3522  3615  3787  4203  4833  5431  5764  5810  5694  5538  5406  5306  5231  5187  5167  5139  5092  5043  4966  4745  4282  3687  3190  2835  2480  2016  1432  782  179  -243  -433  -452  -405  -356  -329  -343  -412  -533  -678  -812  -904  -943  -953  -961  -971  -945  -821  -589  -319  -95  45  114  142  137  28  -324  -985  -1786  -2437  -2812  -3003  -3158  -3304  -3342  -3204  -2901  -2484  -2086  -1854  -1779  -1714  -1547  -1323  -1167  -1144  -1238  -1417  -1643  -1857  -1993  -2041  -2030  -1967  -1828  -1608  -1332  -1069  -902  -868  -954  -1131  -1348  -1560  -1746  -1888  -1971  -1988  -1889  -1604  -1167  -746  -439  -113  393  997  1487  1782  1937  2013  2004  1832  1433  936  583  451  411  293  -15  -486  -1005  -1493  -1893  -2168  -2454  -3021  -3936  -4946  -5679  -5756  -4930  -3338  -1566  -338  -57  -758  -2261  -4139  -5904  -7277  -8181  -8666  -8831  -8761  -8412  -7603  -6302  -4929  -4061  -3820  -3885  -3958  -3936  -3824  -3589  -3142  -2490  -1849  -1425  -1183  -953  -650  -280  120  521  927  1386  1917  2440  2808  2959  2932  2757  2446  2069  1726  1483  1341  1266  1233  1222  1212  1201  1213  1270  1364  1456  1525  1579  1635  1671  1609  1359  942  520  230  130  368  1159  2396  3585  4329  4599  4536  4253  3846  3434  3111  2924  2857  2818  2640  2171  1469  789  327  113  70  96  129  146  118  16  -142  -299  -410  -470  -482  -430  -290  -121  -69  -229  -528  -841  -1155  -1484  -1772  -2009  -2288  -2618  -2855  -2848  -2557  -2098  -1702  -1502  -1446  -1434  -1431  -1433  -1419  -1344  -1173  -921  -658  -444  -250  -25  194  327  364  355  305  158  -105  -436  -806  -1222  -1594  -1762  -1683  -1486  -1325  -1237  -1176  -1107  -1011  -858  -625  -344  -114  -14  -27  -74  -91  -37  139  442  756  963  1066  1147  1290  1579  1993  2402  2699  2861  2916  2921  2919  2919  2888  2764  2476  1994  1383  759  208  -198  -412  -467  -455  -428  -403  -406  -469  -622  -876  -1194  -1481  -1643  -1611  -1326  -822  -301  37  187  248  276  285  285  286  293  300  282  209  82  -54  -148  -111  194  800  1471  1885  1932  1706  1375  1091  920  841  827  879  1004  1162  1282  1339  1363  1361  1271  966  334  -484  -912  -314  1384  3748  6212  8185  9126  8734  7001  4203  1080  -1299  -2263  -1948  -1003  -203  -31  -346  -683  -801  -757  -705  -837  -1360  -2281  -3261  -3847  -3731  -2805  -1358  -54  681  1002  1210  1353  1312  1016  427  -440  -1337  -1883  -1923  -1579  -1116  -798  -699  -717  -750  -776  -798  -799  -752  -679  -636  -622  -533  -270  122  494  760  917  994  1044  1118  1221  1319  1407  1538  1767  2058  2314  2493  2620  2717  2806  2912  3025  3099  3097  3014  2876  2680  2379  1948  1409  784  141  -414  -831  -1118  -1296  -1365  -1325  -1174  -915  -604  -355  -209  -97  35  153  216  223  188  103  -52  -312  -702  -1155  -1519  -1704  -1738  -1686  -1688  -2020  -2866  -3953  -4736  -4933  -4568  -3748  -2701  -1781  -1209  -939  -803  -682  -523  -313  -90  81  163  171  146  127  166  345  729  1302  1950  2501  2802  2799  2555  2227  1989  1917  1984  2155  2376  2589  2805  3060  3315  3474  3483  3352  3135  2867  2507  2046  1612  1363  1310  1359  1440  1557  1753  2078  2590  3340  4208  4887  5171  5117  4862  4449  3879  3229  2647  2255  2067  1975  1825  1485  884  29  -953  -1829  -2413  -2690  -2766  -2751  -2688  -2540  -2210  -1655  -1036  -616  -463  -364  -67  464  1034  1440  1657  1795  1921  2000  1985  1897  1791  1713  1677  1665  1643  1573  1428  1194  891  550  185  -164  -425  -566  -595  -457  -65  475  866  870  452  -190  -727  -982  -1017  -945  -854  -918  -1419  -2460  -3709  -4726  -5439  -5969  -6313  -6461  -6502  -6498  -6382  -6018  -5364  -4614  -4059  -3828  -3869  -4095  -4413  -4713  -4955  -5135  -5198  -5119  -5014  -5001  -5046  -5001  -4747  -4315  -3878  -3592  -3490  -3553  -3764  -4059  -4293  -4296  -3909  -3126  -2258  -1732  -1757  -2272  -2982  -3508  -3697  -3634  -3402  -3058  -2717  -2445  -2175  -1844  -1489  -1148  -826  -576  -487  -590  -803  -990  -1082  -1100  -1087  -1055  -1000  -937  -903  -947  -1096  -1317  -1532  -1714  -1930  -2230  -2543  -2767  -2898  -3006  -3132  -3240  -3227  -2958  -2335  -1404  -437  216  464  477  426  378  390  571  979  1474  1796  1786  1463  1015  691  597  686  905  1300  2011  3089  4263  5141  5600  5767  5741  5503  5021  4414  3939  3774  3893  4122  4208  3911  3110  1777  4  -1833  -3243  -3998  -3991  -3291  -2423  -1817  -1349  -724  124  926  1316  1252  1001  810  777  904  1171  1549  1949  2252  2417  2520  2658  2897  3290  3804  4261  4525  4657  4831  5159  5566  5852  5930  5873  5791  5729  5660  5536  5357  5140  4831  4374  3844  3370  2964  2536  2095  1775  1644  1630  1637  1634  1661  1793  2086  2494  2871  3090  3158  3159  3170  3227  3309  3390  3516  3759  4091  4380  4499  4398  4098  3679  3214  2704  2154  1632  1216  932  774  699  594  294  -254  -848  -1219  -1367  -1559  -2074  -3072  -4505  -5950  -6828  -6912  -6402  -5702  -5204  -5057  -5208  -5580  -6019  -6321  -6430  -6454  -6490  -6549  -6546  -6257  -5437  -4235  -3214  -2756  -2794  -3111  -3504  -3766  -3743  -3382  -2806  -2304  -2112  -2266  -2638  -3018  -3230  -3231  -3077  -2871  -2732  -2722  -2830  -2989  -3108  -3120  -2993  -2730  -2374  -2001  -1695  -1500  -1382  -1228  -900  -383  148  517  727  881  1029  1156  1248  1308  1298  1094  588  -128  -821  -1358  -1725  -1840  -1559  -878  -39  641  1001  1041  868  698  723  1028  1764  3095  4877  6620  7761  7881  6865  4978  2791  985  69  133  845  1658  2113  2157  2025  1844  1566  1187  843  667  641  691  860  1278  1898  2433  2660  2620  2489  2395  2359  2336  2283  2189  2095  2089  2186  2303  2384  2448  2543  2673  2787  2831  2824  2867  3068  3424  3804  4091  4281  4412  4505  4545  4479  4253  3928  3693  3741  4149  4773  5302  5549  5536  5302  4847  4238  3668  3330  3250  3311  3407  3420  3138  2394  1336  357  -261  -553  -892  -1783  -3290  -4813  -5674  -5625  -4740  -3368  -2084  -1225  -720  -418  -267  -235  -267  -342  -504  -795  -1166  -1507  -1784  -2059  -2454  -3167  -4302  -5584  -6559  -7105  -7405  -7604  -7744  -7791  -7545  -6752  -5466  -4108  -3098  -2561  -2314  -2100  -1823  -1515  -1248  -1075  -1004  -1006  -1053  -1150  -1343  -1675  -2070  -2355  -2400  -2146  -1627  -1060  -707  -623  -678  -736  -682  -412  66  613  1054  1297  1354  1292  1178  1068  998  979  993  1011  1026  1061  1090  899  86  -1665  -4096  -6296  -7505  -7784  -7564  -7005  -6024  -4640  -3221  -2299  -2020  -2074  -2142  -2115  -2029  -1966  -1953  -1965  -2015  -2200  -2591  -3077  -3449  -3619  -3607  -3405  -2974  -2365  -1802  -1543  -1652  -1982  -2344  -2618  -2769  -2824  -2832  -2788  -2643  -2388  -2064  -1700  -1328  -1028  -858  -787  -758  -811  -1068  -1401  -1172  226  2656  5423  7840  9491  10282  10193  9057  6772  3628  384  -2083  -3432  -4023  -4430  -4999  -5633  -5930  -5748  -5327  -4714  -3561  -1608  898  3331  5115  6044  6370  6491  6600  6712  6791  6740  6413  5776  4992  4247  3649  3257  3042  2874  2661  2417  2168  1889  1575  1296  1123  1049  1027  1021  1014  904  463  -515  -2029  -3772  -5229  -6051  -6274  -5995  -5107  -3668  -2183  -1208  -848  -852  -1008  -1269  -1591  -1875  -2084  -2263  -2452  -2663  -2930  -3292  -3754  -4260  -4693  -4932  -4923  -4625  -3982  -3033  -1946  -903  -31  584  946  1121  1177  1180  1218  1423  1963  2928  4174  5335  6095  6434  6537  6566  6590  6613  6644  6696  6705  6484  5883  5080  4485  4336  4643  5335  6212  6937  7292  7327  7219  7107  7033  6929  6692  6288  5673  4656  3059  1126  -466  -1286  -1540  -1634  -1767  -1980  -2266  -2573  -2831  -2992  -3034  -2888  -2455  -1756  -986  -341  120  432  627  722  744  673  440  24  -479  -949  -1298  -1490  -1562  -1557  -1452  -1255  -1065  -912  -685  -283  227  662  913  1042  1163  1359  1720  2260  2821  3226  3443  3541  3578  3514  3215  2634  1970  1481  1209  1056  976  944  908  831  736  688  789  1153  1763  2381  2782  2992  3127  3211  3246  3292  3399  3540  3637  3643  3558  3415  3256  3115  3051  3210  3735  4524  5229  5593  5575  5168  4378  3368  2465  1946  1829  1834  1460  296  -1382  -2759  -3438  -3690  -3854  -4014  -4098  -4083  -4062  -4136  -4166  -3623  -1936  708  3240  4755  5292  5363  5122  4191  2288  -141  -2260  -3596  -4199  -4387  -4467  -4582  -4759  -4967  -5129  -5171  -5019  -4623  -4077  -3597  -3296  -3154  -3272  -3979  -5476  -7431  -9124  -10044  -10200  -9777  -8891  -7856  -7147  -6919  -6965  -7092  -7251  -7326  -6884  -5414  -3095  -872  519  1171  1643  2362  3293  4140  4787  5323  5775  5984  5549  4072  1870  -108  -1286  -1779  -1888  -1699  -1043  248  2066  3968  5460  6266  6421  6492  7285  8901  10755  12230  12732  11858  9801  7244  4956  3537  3402  4491  6020  7131  7444  7010  6251  5663  5446  5430  5016  3447  672  -2331  -4465  -5372  -5319  -4654  -3684  -2815  -2355  -2311  -2626  -3456  -4938  -6755  -8302  -9294  -9889  -10346  -10782  -11190  -11554  -11883  -12147  -12274  -12161  -11684  -10864  -10099  -10005  -10786  -11946  -12608  -11923  -9716  -6902  -4669  -3597  -3872  -5531  -8215  -11171  -13631  -14736  -13474  -9869  -5669  -2866  -2031  -2272  -2422  -2127  -1659  -1251  -1023  -1187  -1992  -3353  -4744  -5664  -6023  -6036  -5915  -5688  -5197  -4239  -2783  -960  1063  2980  4391  5195  5652  5984  6207  6300  6321  6344  6379  6334  6047  5458  4725  4124  3820  3723  3562  3136  2549  2120  2021  2183  2462  2736  2954  3143  3304  3259  2747  1829  866  62  -553  -911  -965  -744  -289  264  795  1418  2239  3043  3536  3679  3613  3416  3016  2394  1779  1518  1875  2862  4081  4979  5357  5408  5370  5359  5358  5264  5007  4695  4502  4329  3776  2656  1384  594  533  1026  1691  2148  2283  2235  2162  2170  2360  2753  3201  3517  3640  3536  3079  2225  1212  436  185  499  1150  1699  1759  1275  515  55  834  3429  7181  10774  13247  14106  13056  10126  6324  3406  2440  3177  4579  5495  5291  4223  3092  2446  2310  2569  3172  3937  4525  4618  3912  2321  429  -872  -1242  -825  203  1471  2424  2765  2355  1019  -951  -2688  -3623  -3950  -4176  -4628  -5243  -5739  -5959  -5897  -5503  -4782  -4000  -3481  -3249  -3089  -2853  -2492  -1943  -1228  -569  -186  -72  -102  -232  -491  -848  -1165  -1302  -1224  -993  -666  -268  132  419  532  511  452  448  560  774  1034  1392  1973  2691  3220  3252  2608  1352  -78  -1203  -1884  -2232  -2394  -2473  -2537  -2641  -2822  -3045  -3215  -3249  -3166  -3064  -3000  -2986  -3083  -3360  -3740  -4014  -4051  -3884  -3636  -3416  -3229  -3061  -2980  -3070  -3275  -3352  -3129  -2746  -2436  -2265  -2197  -2196  -2235  -2306  -2407  -2513  -2583  -2582  -2497  -2356  -2225  -2158  -2142  -2141  -2149  -2211  -2358  -2509  -2546  -2497  -2483  -2524  -2573  -2619  -2632  -2444  -1825  -844  65  555  596  220  -477  -885  -32  2288  4943  6379  6085  4957  4248  4555  5610  6461  6102  4324  1849  -465  -2300  -3641  -4372  -4468  -4112  -3442  -2598  -1838  -1384  -1313  -1503  -1705  -1792  -1800  -1773  -1664  -1348  -736  66  774  1204  1436  1687  2098  2608  3037  3317  3534  3789  4169  4725  5338  5760  5917  5950  5994  6049  6015  5816  5512  5187  4804  4341  3926  3650  3443  3212  2921  2508  1853  916  -72  -714  -835  -587  -232  -2  -14  -244  -545  -784  -1038  -1463  -1887  -1918  -1540  -1148  -995  -1016  -1071  -1096  -1079  -1026  -974  -1006  -1173  -1404  -1571  -1668  -1754  -1822  -1895  -2199  -3058  -4441  -5785  -6571  -6750  -6383  -5413  -4025  -2664  -1783  -2098  -4227  -7636  -10707  -11845  -10422  -6998  -2843  670  2553  2325  -80  -4273  -9269  -13642  -16272  -16956  -16109  -14390  -12744  -11878  -11691  -11763  -11843  -11646  -10823  -9342  -7557  -5913  -4761  -4219  -4096  -4127  -4161  -4145  -4052  -3805  -3252  -2302  -1144  -138  542  987  1366  1808  2340  2833  3128  3232  3275  3331  3424  3578  3768  3908  3941  3867  3719  3611  3819  4635  5931  7116  7764  7945  7900  7784  7703  7702  7652  7236  6349  5681  6303  8311  10674  12388  13046  12868  12569  12656  12853  12425  10739  7582  3607  357  -914  -204  1564  3173  3504  2085  -303  -2119  -2399  -1230  625  2257  3262  3906  4629  5593  6642  7513  7991  7980  7503  6737  6001  5534  5346  5316  5359  5484  5726  6045  6320  6428  6350  6176  6003  5822  5585  5345  5211  5207  5233  5110  4686  3982  3168  2423  1861  1499  1288  1125  560  -1103  -3852  -6589  -8268  -8744  -8188  -6660  -4674  -3253  -3026  -3911  -5384  -6723  -7472  -7694  -7653  -7444  -6978  -6222  -5385  -4784  -4549  -4627  -4972  -5508  -6045  -6382  -6322  -5578  -4028  -2091  -516  224  136  -550  -1453  -2079  -2087  -1423  -337  709  1377  1574  1321  694  -193  -1252  -2302  -3032  -3298  -3195  -2850  -2374  -1797  -980  142  1363  2349  2880  3035  3077  3146  3219  3292  3432  3652  3872  3983  3855  3375  2627  1827  1016  147  -651  -1206  -1530  -1829  -2272  -2824  -3309  -3591  -3658  -3545  -3269  -2931  -2684  -2530  -2337  -2069  -1797  -1547  -1292  -1057  -895  -809  -770  -762  -759  -685  -477  -209  -77  -187  -432  -666  -908  -1252  -1634  -1873  -1844  -1548  -1135  -840  -797  -996  -1331  -1626  -1602  -886  709  2801  4586  5515  5558  4870  3670  2444  1676  1362  1180  925  568  137  -290  -599  -724  -662  -413  24  560  1014  1317  1563  1829  2075  2233  2299  2297  2215  2025  1741  1420  1126  903  746  617  452  113  -542  -1448  -2288  -2778  -2867  -2572  -1907  -1110  -562  -365  -318  -230  29  576  1353  2106  2622  2856  2884  2832  2808  2894  3164  3667  4364  5079  5591  5818  5856  5869  6006  6370  6941  7579  8125  8490  8692  8794  8763  8498  7988  7274  6283  4970  3607  2603  2062  1749  1309  518  -430  -1085  -1302  -1322  -1350  -1327  -1127  -880  -894  -1220  -1612  -1904  -2153  -2486  -2911  -3314  -3635  -3919  -4178  -4360  -4493  -4667  -4852  -4831  -4436  -3806  -3234  -2782  -2274  -1581  -809  -278  -379  -1410  -3237  -5168  -6503  -7087  -7213  -7171  -7102  -7144  -7455  -8133  -9182  -10351  -11190  -11403  -10857  -9528  -7843  -6533  -5922  -5720  -5415  -4644  -3493  -2466  -1953  -1899  -2064  -2279  -2455  -2541  -2528  -2458  -2499  -2963  -4053  -5543  -6862  -7538  -7408  -6518  -5206  -4025  -3287  -2906  -2660  -2403  -2122  -1893  -1769  -1732  -1761  -1851  -1988  -2183  -2549  -3209  -4033  -4600  -4482  -3516  -2054  -804  -127  156  298  393  502  751  1250  1897  2383  2402  1749  498  -823  -1620  -1719  -1270  -450  634  1882  3089  4016  4559  4815  4952  5025  4940  4600  4105  3736  3735  4153  4780  5280  5486  5399  5024  4432  3799  3373  3524  4538  6206  7915  9069  9253  8388  6847  5107  3392  1708  46  -1472  -2714  -3606  -3964  -3714  -3162  -2445  -1273  292  1602  2213  2275  2253  2793  4425  6820  8860  9821  9941  9764  9547  9285  8863  8099  6939  5705  4842  4374  3965  3441  2912  2516  2302  2256  2330  2418  2289  1639  402  -1071  -2259  -2844  -2849  -2480  -1995  -1628  -1498  -1681  -2260  -3088  -3770  -4073  -4060  -3857  -3552  -3271  -3176  -3406  -4055  -5144  -6460  -7568  -8216  -8514  -8674  -8840  -9058  -9292  -9496  -9643  -9727  -9777  -9789  -9649  -9230  -8636  -8159  -7998  -8236  -8922  -9860  -10613  -10766  -9919  -7833  -4879  -1896  417  1780  2342  2488  2523  2567  2607  2580  2425  2116  1711  1336  1098  1010  1004  997  947  872  777  515  -102  -937  -1577  -1803  -1664  -1221  -602  -47  325  643  1116  1802  2557  3165  3491  3555  3464  3295  3089  2876  2595  2107  1403  724  335  279  462  798  1198  1538  1722  1762  1752  1768  1825  1906  2004  2130  2300  2548  2905  3327  3690  3887  3801  3246  2199  1004  54  -550  -895  -1034  -905  -369  554  1601  2463  2987  3205  3254  3240  3187  3057  2818  2466  1995  1436  937  640  562  696  1070  1580  1980  2123  2054  1872  1662  1484  1356  1274  1231  1205  1174  1151  1151  1094  780  116  -661  -1150  -1116  -589  132  646  784  659  433  213  54  -11  71  375  908  1567  2157  2491  2528  2364  2137  1972  1918  1948  2024  2108  2177  2262  2435  2735  3203  3897  4689  5266  5471  5405  5203  4927  4636  4402  4205  3965  3696  3515  3515  3713  4084  4557  5002  5264  5243  4913  4389  3925  3683  3576  3452  3330  3382  3682  4083  4378  4592  4875  5124  5100  4896  4970  5725  6995  7980  7930  6633  4316  1708  -116  -706  -688  -890  -1525  -2442  -3313  -3615  -3016  -1347  1418  4566  6926  7996  8073  7389  5920  4090  2715  2070  1759  1419  967  256  -1100  -3148  -5161  -6359  -6709  -6649  -6447  -6093  -5609  -5179  -4961  -4953  -5106  -5389  -5750  -6086  -6223  -5915  -4996  -3669  -2486  -1898  -1999  -2652  -3513  -4161  -4472  -4637  -4836  -5075  -5266  -5363  -5388  -5376  -5329  -5175  -4818  -4285  -3737  -3325  -3105  -3047  -3069  -3091  -3034  -2827  -2465  -1960  -1290  -569  -30  325  737  1335  2035  2740  3422  4014  4425  4691  4937  5221  5495  5626  5425  4742  3665  2549  1742  1273  872  258  -595  -1580  -2623  -3551  -4106  -4268  -4249  -4224  -4227  -4229  -4210  -4150  -3973  -3529  -2725  -1738  -937  -533  -431  -393  -173  404  1261  2072  2590  2840  2944  2977  2979  2966  2933  2854  2621  2081  1203  77  -1155  -2250  -3047  -3700  -4351  -4859  -5083  -5090  -5001  -4852  -4588  -4122  -3503  -2968  -2700  -2656  -2694  -2744  -2794  -2792  -2592  -2074  -1356  -719  -323  -114  56  315  707  1166  1545  1755  1828  1843  1816  1688  1422  1102  890  889  1122  1527  1992  2467  2986  3608  4347  5062  5543  5735  5731  5581  5241  4689  4050  3497  2983  2285  1379  542  48  -113  -129  -125  -135  -147  -94  206  988  2218  3514  4525  5199  5649  5911  5972  5905  5806  5720  5678  5668  5513  4893  3572  1648  -455  -2351  -3915  -5076  -5654  -5500  -4629  -3409  -2457  -2048  -1957  -1914  -1882  -1923  -2029  -2201  -2468  -2778  -3069  -3460  -4124  -4956  -5630  -6060  -6506  -7193  -8002  -8611  -8969  -9450  -10240  -10970  -11230  -10864  -9658  -7472  -4711  -2085  -161  455  -850  -3957  -7889  -11512  -13787  -14011  -12538  -10670  -9574  -9605  -10459  -11631  -12743  -13657  -14362  -14827  -15087  -15312  -15588  -15789  -15770  -15524  -15090  -14447  -13526  -12404  -11421  -10893  -10755  -10662  -10317  -9698  -9017  -8452  -8013  -7667  -7419  -7310  -7427  -7830  -8380  -8798  -8940  -8827  -8442  -7749  -6922  -6242  -5727  -5152  -4402  -3515  -2562  -1596  -582  588  1846  2899  3561  3927  4158  4300  4391  4614  5190  6096  7097  8023  8778  9250  9421  9397  9305  9197  8959  8289  7037  5594  4581  4158  4046  4011  3991  3957  3872  3757  3734  3988  4616  5406  5987  6309  6624  7023  7367  7636  8044  8734  9565  10283  10759  10999  11056  10988  10840  10626  10361  10108  9966  10008  10261  10643  10941  10869  10177  8872  7252  5617  4255  3462  3235  3279  3417  3710  4221  4791  5139  5078  4595  3914  3386  3153  3100  3098  3100  3092  3064  3019  2979  2977  3062  3262  3530  3776  3995  4362  5172  6605  8405  9965  10905  11306  11347  10931  9804  8066  6235  4695  3539  2799  2437  2269  2141  2183  2888  4685  7391  10329  12658  13492  12445  10173  7898  6513  6291  7107  8601  10096  10583  9304  6436  3206  1197  1258  2910  4733  5419  4689  3321  2306  1967  2012  2128  2201  2180  1966  1519  996  645  587  821  1281  1795  2144  2136  1571  312  -1537  -3502  -4950  -5643  -5844  -5849  -5748  -5572  -5473  -5642  -6020  -6335  -6502  -6795  -7485  -8306  -8569  -8009  -6976  -5644  -3681  -809  2792  6493  9264  10087  8610  5350  1350  -2297  -4705  -5463  -5071  -4753  -5292  -6305  -7023  -7223  -7131  -6973  -6897  -7117  -7811  -8774  -9511  -9753  -9519  -8883  -8047  -7311  -6781  -6372  -6043  -5819  -5726  -5808  -6153  -6823  -7756  -8669  -9210  -9301  -9148  -8889  -8425  -7635  -6688  -5949  -5587  -5438  -5192  -4575  -3507  -2195  -985  -131  335  597  861  1216  1650  2060  2308  2365  2299  2166  2009  1945  2241  3109  4273  5143  5527  5696  5898  6222  6721  7354  7949  8396  8756  9128  9506  9779  9821  9496  8731  7711  6741  5915  5159  4465  3860  3324  2790  2127  1204  45  -1105  -1941  -2359  -2501  -2550  -2561  -2497  -2331  -2076  -1800  -1611  -1540  -1537  -1545  -1534  -1461  -1256  -899  -519  -300  -289  -387  -489  -533  -453  -176  259  726  1179  1627  2004  2229  2302  2233  1975  1508  910  278  -317  -830  -1256  -1602  -1824  -1893  -1834  -1684  -1496  -1331  -1212  -1156  -1202  -1411  -1855  -2501  -3118  -3456  -3494  -3419  -3483  -3887  -4590  -5265  -5631  -5699  -5624  -5488  -5309  -5114  -4931  -4766  -4620  -4471  -4204  -3705  -2968  -2148  -1495  -1122  -918  -799  -825  -1004  -1238  -1475  -1716  -1838  -1473  -309  1300  2519  2932  2666  1903  869  -132  -955  -1569  -1901  -1838  -1289  -357  557  1089  1169  845  71  -1194  -2754  -4100  -4809  -4912  -4694  -4375  -4064  -3794  -3529  -3206  -2748  -2110  -1432  -956  -762  -761  -896  -1148  -1443  -1674  -1804  -1862  -1944  -2222  -2803  -3518  -3992  -3857  -2936  -1521  -308  266  305  33  -445  -990  -1386  -1509  -1422  -1298  -1215  -935  20  1924  4552  7242  9067  9277  7852  5414  2687  303  -1239  -1853  -1874  -1588  -1087  -578  -330  -415  -906  -1909  -3129  -3972  -4157  -3819  -3237  -2714  -2444  -2392  -2403  -2376  -2271  -2065  -1746  -1339  -923  -558  -223  137  556  1008  1412  1690  1827  1833  1699  1428  1051  579  -4  -668  -1231  -1451  -1267  -889  -571  -344  -68  321  771  1270  1885  2573  3131  3446  3557  3517  3399  3303  3268  3278  3319  3388  3492  3630  3761  3783  3520  2858  1989  1267  813  523  305  99  -165  -497  -806  -990  -1048  -1025  -917  -657  -206  310  668  786  778  814  1062  1576  2165  2557  2687  2691  2698  2732  2761  2777  2810  2853  2810  2605  2323  2057  1611  653  -772  -2108  -2831  -2894  -2551  -2089  -1746  -1616  -1677  -1902  -2271  -2684  -3012  -3190  -3217  -3135  -3007  -2876  -2748  -2605  -2450  -2320  -2178  -1866  -1264  -475  317  1084  1804  2308  2471  2327  1984  1620  1413  1363  1282  1005  588  202  -109  -386  -574  -578  -355  62  595  1155  1632  1913  1971  1829  1422  560  -743  -2023  -2745  -2710  -1977  -811  368  1308  1997  2432  2573  2445  2153  1788  1383  996  714  540  454  483  604  703  702  622  520  410  277  152  83  83  159  340  679  1214  1948  2830  3678  4273  4584  4696  4547  3942  2911  1884  1284  1140  1224  1341  1414  1441  1425  1307  1004  542  66  -349  -752  -1071  -1104  -842  -390  380  1613  3174  4869  6426  7555  8447  9407  10239  10652  10478  9472  7651  5460  3492  2343  2345  3095  3688  3534  2777  1944  1350  992  802  743  802  984  1233  1445  1576  1665  1757  1808  1556  621  -985  -2663  -3892  -4735  -5429  -5961  -6236  -6281  -6117  -5710  -5166  -4785  -4837  -5373  -6142  -6756  -7028  -6897  -6149  -4623  -2570  -555  947  1798  2094  1953  1450  781  263  42  25  100  244  451  669  814  840  758  603  403  226  293  890  1866  2468  2158  1135  -135  -1081  -1039  -55  950  1160  368  -1032  -2163  -2436  -2279  -2567  -3559  -4741  -5430  -5344  -4678  -3824  -3151  -2829  -2784  -2897  -3131  -3425  -3663  -3761  -3645  -3216  -2537  -1892  -1494  -1314  -1247  -1311  -1649  -2391  -3593  -5149  -6646  -7608  -7766  -6828  -4534  -1384  1355  2803  3127  2950  2618  2205  1812  1569  1464  1369  1201  986  800  653  496  325  195  138  139  173  234  316  381  327  22  -547  -1191  -1692  -2009  -2205  -2184  -1616  -342  1160  2152  2434  2349  2227  2172  2167  2176  2191  2220  2255  2263  2210  2114  2073  2152  2286  2370  2327  2026  1386  601  30  -185  -180  -124  -82  -68  -118  -279  -524  -724  -704  -299  496  1413  2088  2380  2413  2372  2358  2375  2351  2189  1859  1462  1091  726  369  138  112  275  598  1043  1517  1907  2107  2006  1536  840  209  -228  -553  -864  -1242  -1727  -2224  -2592  -2782  -2840  -2868  -2991  -3273  -3703  -4313  -5210  -6391  -7575  -8401  -8852  -9300  -10058  -11058  -11976  -12490  -12492  -12124  -11524  -10694  -9552  -8013  -6252  -4675  -3529  -3022  -3433  -4738  -6528  -8258  -9450  -9820  -9365  -8439  -7389  -5983  -3944  -1662  277  1622  2363  2657  2734  2769  2872  3051  3197  3217  3122  2941  2685  2419  2242  2229  2457  2988  3693  4261  4511  4482  4235  3828  3414  3127  2898  2564  2138  1790  1606  1563  1731  2236  2982  3655  4049  4183  4143  3992  3799  3671  3723  4005  4416  4776  5037  5291  5599  5939  6262  6540  6804  7069  7292  7432  7504  7533  7526  7441  7190  6728  6194  5837  5791  6029  6441  6894  7311  7649  7848  7860  7711  7515  7373  7167  6575  5392  3845  2449  1591  1278  1243  1234  1177  1120  1095  1076  1021  866  527  17  -469  -732  -722  -509  -220  4  110  90  -134  -661  -1408  -2091  -2453  -2406  -1981  -1352  -809  -519  -412  -370  -355  -350  -298  -120  210  612  934  1087  1092  997  810  463  -102  -782  -1355  -1707  -1879  -1990  -2169  -2452  -2773  -3055  -3314  -3670  -4196  -4753  -5110  -5126  -4736  -4010  -3372  -3410  -4133  -4834  -5041  -4849  -4211  -2896  -1088  466  825  -605  -3561  -6959  -9565  -10703  -10513  -9636  -8641  -7763  -6989  -6237  -5544  -5058  -4838  -4804  -4876  -4996  -4995  -4507  -3116  -556  3018  6619  8929  9504  8662  6718  4170  1864  416  -203  -431  -688  -1192  -1954  -2817  -3550  -3994  -4227  -4582  -5389  -6644  -7921  -8727  -8944  -8708  -8093  -7216  -6406  -5935  -5748  -5619  -5465  -5362  -5360  -5419  -5488  -5527  -5512  -5433  -5269  -5001  -4629  -4135  -3522  -2883  -2248  -1452  -362  884  1959  2621  2889  2938  2900  2828  2781  2917  3421  4253  5128  5778  6126  6269  6352  6420  6432  6371  6225  5911  5377  4756  4228  3815  3458  3153  3174  4027  5836  8179  10469  11942  11909  10328  7571  4060  469  -2409  -4142  -4657  -4122  -3095  -2296  -2020  -2108  -2362  -2656  -2880  -2985  -2999  -2964  -2914  -2865  -2808  -2712  -2542  -2237  -1759  -1236  -858  -535  16  796  1467  1815  1907  1880  1808  1762  1898  2400  3190  3902  4267  4281  3998  3401  2482  1385  448  -49  -135  13  276  553  736  796  814  952  1362  2028  2702  3147  3374  3502  3587  3711  3995  4414  4771  4921  4876  4708  4479  4261  4094  3927  3668  3300  2900  2536  2122  1514  750  74  -298  -352  -199  62  353  573  663  651  619  671  882  1212  1513  1686  1742  1738  1723  1717  1715  1673  1548  1379  1256  1209  1218  1294  1461  1640  1656  1393  886  314  -95  -215  30  714  1700  2584  3058  3097  2749  2009  915  -403  -1710  -2722  -3326  -3665  -3968  -4326  -4501  -3957  -2378  -238  1415  1893  1421  788  630  1021  1417  989  -642  -3001  -5142  -6351  -6500  -5926  -4994  -3803  -2444  -1271  -591  -331  -248  -233  -304  -471  -674  -834  -927  -948  -835  -513  -81  229  314  263  235  403  873  1494  1936  2063  2008  2005  2389  3440  4867  5897  6064  5503  4690  4129  4070  4443  4988  5383  5395  4939  4121  3256  2617  2258  2119  2074  1882  1319  490  -201  -526  -602  -602  -595  -669  -979  -1570  -2235  -2704  -2903  -2925  -2827  -2554  -2037  -1376  -839  -625  -835  -1499  -2370  -3005  -3254  -3317  -3384  -3508  -3675  -3890  -4282  -5091  -6371  -7772  -8808  -9335  -9572  -9703  -9709  -9590  -9456  -9380  -9357  -9352  -9313  -9168  -8880  -8471  -7944  -7135  -5809  -4099  -2575  -1662  -1326  -1469  -2246  -3760  -5624  -7142  -7928  -8064  -7655  -6632  -5138  -3680  -2708  -2305  -2270  -2377  -2526  -2705  -2911  -3132  -3341  -3521  -3642  -3495  -2624  -741  1637  3404  3861  3230  2416  2358  3275  4467  4795  3557  1134  -1410  -3091  -3366  -2509  -1512  -1118  -1205  -1145  -349  1420  3739  5643  6538  6658  6491  6238  5848  5157  4032  2634  1343  426  -6  127  836  1866  2790  3381  3674  3809  4077  4886  6354  8118  9754  11085  12006  12473  12647  12724  12588  11801  10081  7798  5825  4796  4671  5062  5629  6124  6415  6560  6654  6579  5954  4565  2895  1803  1733  2540  3672  4453  4494  3848  2905  2133  1681  1321  802  183  -247  -344  -171  208  743  1266  1599  1720  1736  1780  1943  2176  2276  2033  1392  487  -417  -1066  -1363  -1321  -871  3  977  1601  1801  1837  1904  1989  2000  1901  1619  955  -136  -1302  -2086  -2369  -2352  -2247  -2134  -2029  -1953  -1926  -1902  -1732  -1241  -414  522  1293  1855  2427  3163  3948  4598  5098  5510  5842  6110  6377  6637  6794  6712  6291  5626  5008  4634  4427  4153  3589  2603  1274  -203  -1763  -3383  -4948  -6324  -7396  -8093  -8429  -8489  -8355  -8047  -7617  -7185  -6813  -6457  -6085  -5736  -5480  -5409  -5622  -6107  -6649  -6985  -7032  -6883  -6668  -6461  -6258  -6068  -5926  -5733  -5275  -4478  -3645  -3217  -3077  -2456  -763  1942  5018  7421  8229  7235  4880  1783  -1382  -3892  -5440  -6397  -7226  -7967  -8475  -8720  -8767  -8598  -8025  -6845  -5075  -3062  -1352  -324  117  472  1191  2200  2958  2910  1766  -195  -2067  -3101  -3319  -3058  -2439  -1513  -473  430  1049  1382  1510  1522  1499  1486  1487  1467  1341  982  305  -664  -1759  -2689  -3211  -3335  -3253  -3121  -2996  -2889  -2799  -2701  -2537  -2288  -2001  -1736  -1549  -1494  -1636  -2040  -2733  -3664  -4664  -5476  -5893  -5802  -5155  -4116  -3102  -2447  -2159  -2104  -2214  -2528  -3078  -3768  -4396  -4815  -5042  -5174  -5288  -5414  -5508  -5378  -4787  -3759  -2687  -1963  -1657  -1592  -1589  -1580  -1513  -1202  -446  622  1619  2352  2864  3178  3295  3292  3265  3259  3269  3246  3073  2617  1856  923  54  -508  -682  -519  -84  500  1061  1548  2050  2572  2936  2945  2576  2057  1681  1527  1519  1641  1915  2288  2663  3004  3300  3497  3578  3589  3572  3559  3606  3770  4021  4237  4263  3930  3159  2112  1079  274  -198  -375  -395  -364  -309  -179  79  406  652  753  756  671  448  108  -210  -390  -445  -432  -355  -229  -124  -81  -50  75  376  768  1057  1170  1184  1154  1071  932  783  698  704  736  745  800  1030  1471  2013  2495  2821  3009  3166  3367  3590  3779  3891  3804  3270  2232  1080  275  -153  -403  -539  -605  -766  -1186  -1845  -2526  -2928  -2676  -1434  562  2392  3343  3492  3199  2603  1765  915  343  137  222  520  923  1266  1429  1320  814  -56  -986  -1629  -1885  -1916  -1977  -2200  -2510  -2758  -2893  -2934  -2900  -2788  -2533  -2103  -1626  -1282  -1123  -1110  -1199  -1258  -934  175  2004  3898  5222  5822  5871  5463  4589  3530  2797  2569  2631  2770  2921  3001  2706  1666  -23  -1685  -2740  -3204  -3442  -3738  -4109  -4377  -4341  -3869  -3050  -2254  -1793  -1590  -1253  -487  515  1235  1345  848  -91  -1264  -2443  -3377  -3933  -4245  -4515  -4808  -5109  -5477  -6016  -6649  -7171  -7611  -8188  -8875  -9397  -9649  -9673  -9309  -8273  -6689  -5089  -3733  -2485  -1323  -351  430  1016  1358  1523  1657  1863  2244  3000  4275  5955  7767  9475  11015  12501  13946  15158  16066  16986  18349  20053  21342  21490  20307  17992  15084  12452  10449  8504  6227  3911  1919  623  225  318  369  254  9  -542  -1677  -3243  -4593  -5235  -5067  -4089  -2502  -843  421  1213  1717  2136  2555  2961  3308  3533  3634  3734  3935  4248  4659  5070  5226  5014  4739  4790  5159  5430  5139  4175  2785  1414  613  417  55  -956  -2129  -2761  -2666  -2078  -1281  -458  326  1066  1682  2083  2289  2356  2174  1520  451  -555  -1085  -1165  -1046  -904  -834  -943  -1313  -1824  -2198  -2263  -2044  -1672  -1305  -1008  -701  -246  470  1422  2330  2880  3055  3029  2845  2328  1221  -603  -3015  -5488  -7244  -7952  -7949  -7613  -7074  -6498  -6186  -6314  -6793  -7394  -7936  -8352  -8642  -8753  -8482  -7633  -6451  -5525  -5124  -5029  -4897  -4496  -3847  -3227  -2853  -2613  -2261  -1803  -1472  -1373  -1355  -1169  -702  -99  399  694  807  767  584  202  -514  -1618  -2910  -3992  -4558  -4586  -4207  -3594  -2990  -2599  -2445  -2447  -2578  -2869  -3261  -3578  -3642  -3178  -1836  440  3247  5774  7147  7107  5969  4119  2067  416  -545  -828  -402  639  1848  2846  3658  4417  5066  5408  5253  4526  3489  2658  2302  2224  1983  1207  -107  -1541  -2607  -3168  -3419  -3542  -3476  -2894  -1538  195  1451  1859  1681  1235  740  428  475  906  1526  1983  1997  1465  474  -749  -1987  -3103  -4021  -4674  -5007  -5074  -5003  -4858  -4633  -4339  -4024  -3714  -3393  -3085  -2832  -2626  -2468  -2411  -2483  -2625  -2750  -2815  -2793  -2600  -2193  -1706  -1344  -1178  -1140  -1163  -1221  -1310  -1454  -1704  -2062  -2436  -2724  -2898  -2953  -2795  -2310  -1615  -1011  -638  -435  -339  -370  -571  -894  -1205  -1432  -1597  -1722  -1804  -1865  -1967  -2200  -2619  -3124  -3562  -3955  -4394  -4821  -5183  -5635  -6342  -7206  -7994  -8585  -8941  -8997  -8712  -8142  -7326  -6122  -4513  -2979  -2080  -1861  -2042  -2442  -2921  -3251  -3209  -2696  -1835  -879  73  1110  2236  3224  3750  3577  2665  1382  315  -345  -795  -1123  -1296  -1372  -1455  -1478  -1096  10  1562  2827  3348  3142  2486  1721  1213  1467  2923  5599  8971  11810  12664  11101  7977  4594  2016  647  200  205  448  1087  2284  3746  4948  5649  5933  5943  5674  5054  4248  3625  3317  3050  2405  1237  -68  -927  -1096  -617  377  1592  2708  3637  4385  4898  5200  5442  5753  6136  6518  6850  7133  7379  7533  7414  6735  5287  3119  610  -1575  -2858  -3244  -3182  -3042  -2956  -2925  -2914  -2897  -2888  -2968  -3234  -3674  -4107  -4349  -4415  -4473  -4632  -4812  -4842  -4640  -4123  -3043  -1352  420  1649  2257  2537  2687  2748  2742  2707  2728  2948  3591  4940  7014  9190  10683  11354  11593  11691  11679  11543  11324  11102  10948  10889  10897  10808  10215  8823  7037  5716  5247  5371  5736  6190  6655  7030  7220  7060  6265  4792  3138  1847  856  -295  -1706  -3006  -3953  -4635  -5153  -5483  -5513  -5133  -4350  -3230  -1860  -501  505  1093  1422  1574  1465  997  194  -929  -2578  -4741  -6766  -8031  -8518  -8263  -6977  -4514  -1249  2112  4981  6942  7634  7043  5641  3855  1624  -1177  -4177  -6732  -8296  -8505  -7489  -5918  -4512  -3631  -3234  -3097  -3048  -3014  -2942  -2685  -1941  -474  1455  3165  4197  4613  4734  4803  4902  5050  5263  5568  6065  6837  7720  8374  8661  8682  8517  8177  7757  7410  7194  7136  7479  8580  10360  12096  13124  13463  13383  12717  11022  8398  5734  3922  3142  3067  3538  4654  6163  7389  7859  7356  5779  3667  2137  1883  2833  4423  5834  6534  6637  6528  6444  6446  6547  6718  6832  6621  5855  4731  3801  3334  3128  2944  2738  2520  2231  1756  1047  283  -216  -324  -170  59  240  328  257  -137  -969  -2042  -2929  -3330  -3174  -2514  -1627  -950  -726  -1017  -1838  -2932  -3782  -4025  -3611  -2885  -2539  -2978  -3845  -4407  -4253  -3471  -2499  -2122  -3102  -5371  -7963  -9737  -10141  -9529  -8606  -7736  -7006  -6444  -5988  -5628  -5332  -4833  -3799  -2171  -227  1632  3059  3844  4008  3615  2545  779  -1171  -2541  -3074  -3124  -3072  -3017  -2885  -2547  -1922  -1127  -501  -310  -498  -832  -1180  -1533  -1981  -2710  -3754  -4783  -5392  -5396  -4739  -3552  -2328  -1600  -1494  -1859  -2521  -3277  -3886  -4199  -4255  -4197  -4134  -4148  -4346  -4769  -5305  -5829  -6359  -6910  -7345  -7503  -7363  -7048  -6742  -6602  -6787  -7399  -8235  -8835  -8928  -8591  -8082  -7624  -7270  -7037  -6916  -6516  -5173  -2813  -271  1533  2349  2474  2202  1610  814  2]
