reading_id,reading_time,wire_id,result_classification,heart_rate,heart_rate_alert,firmware_version,device_app_version,hardware_version,waveform_samples
a1137110-da78-11ed-8080-808080808080,Fri Apr 14 03:58:35 UTC 2023,e12964476439,NSR,75,NONE,20001.188.58,2.13.0,Charge 5,[0  -53  -108  -97  23  178  268  274  228  158  82  11  -22  -23  -55  -114  -108  -19  70  105  102  90  92  121  180  257  332  381  396  374  311  225  159  144  195  309  447  559  638  691  718  725  727  728  710  647  543  434  360  337  343  343  316  265  229  236  257  264  264  267  270  279  302  346  399  438  464  487  494  444  328  200  93  -21  -163  -360  -642  -952  -1185  -1300  -1318  -1277  -1235  -1224  -1219  -1198  -1189  -1231  -1356  -1561  -1798  -2019  -2198  -2285  -2116  -1396  43  2011  4067  5766  6720  6671  5680  4035  1992  -86  -1685  -2481  -2484  -1911  -1170  -703  -664  -859  -1036  -1133  -1196  -1218  -1182  -1130  -1112  -1122  -1126  -1102  -1055  -1001  -935  -860  -786  -711  -634  -581  -561  -559  -558  -565  -602  -682  -780  -849  -812  -589  -191  231  539  707  771  771  760  789  880  1014  1166  1345  1544  1702  1784  1830  1900  2004  2098  2144  2156  2157  2134  2061  1931  1748  1505  1216  909  615  371  219  138  74  15  -31  -80  -138  -218  -351  -524  -651  -660  -578  -517  -569  -730  -948  -1219  -1512  -1715  -1773  -1733  -1663  -1615  -1654  -1837  -2136  -2419  -2597  -2705  -2819  -2950  -3057  -3130  -3189  -3236  -3252  -3204  -3062  -2869  -2708  -2603  -2531  -2485  -2465  -2457  -2458  -2471  -2488  -2500  -2508  -2524  -2524  -2429  -2215  -1977  -1804  -1689  -1587  -1469  -1341  -1252  -1224  -1232  -1245  -1241  -1212  -1172  -1150  -1162  -1186  -1168  -1068  -923  -813  -783  -812  -852  -883  -936  -1033  -1127  -1139  -1068  -995  -986  -1052  -1149  -1222  -1248  -1248  -1250  -1267  -1288  -1277  -1209  -1108  -1023  -967  -919  -870  -828  -812  -828  -856  -876  -888  -894  -882  -829  -731  -608  -493  -421  -416  -462  -498  -476  -407  -317  -216  -116  -12  93  149  78  -105  -286  -342  -226  -9  173  258  274  256  212  143  67  14  -2  11  55  119  176  186  112  6  -2  149  549  1462  3053  5090  7046  8336  8512  7437  5407  3003  791  -732  -1259  -966  -370  135  407  466  458  488  558  644  726  803  900  994  1040  1041  1033  1053  1114  1175  1173  1107  1043  1018  1017  1027  1065  1154  1269  1366  1439  1528  1646  1773  1880  1948  1979  1988  1971  1950  2021  2264  2621  2935  3101  3150  3173  3227  3317  3418  3499  3546  3566  3570  3568  3559  3536  3498  3431  3300  3109  2914  2742  2541  2248  1881  1544  1319  1208  1146  1039  837  607  459  424  433  408  321  207  71  -102  -249  -297  -288  -282  -286  -288  -287  -287  -299  -321  -344  -367  -402  -436  -453  -455  -450  -443  -430  -414  -399  -392  -395  -410  -435  -472  -533  -619  -697  -721  -672  -589  -524  -489  -455  -420  -417  -469  -573  -696  -763  -731  -649  -577  -526  -491  -480  -519  -635  -794  -916  -958  -931  -859  -774  -713  -681  -655  -630  -630  -671  -726  -755  -780  -842  -901  -850  -634  -363  -235  -316  -492  -621  -629  -540  -431  -348  -280  -195  -77  14  -23  -210  -423  -532  -548  -551  -564  -573  -598  -677  -805  -926  -993  -1005  -965  -863  -737  -671  -713  -826  -962  -1146  -1393  -1597  -1558  -1002  293  2204  4251  5923  6807  6631  5429  3557  1468  -455  -1842  -2420  -2292  -1794  -1198  -778  -725  -885  -1000  -1021  -1025  -1054  -1091  -1078  -1010  -936  -882  -828  -757  -683  -630  -592  -556  -535  -531  -503  -457  -465  -546  -624  -607  -464  -258  -101  -37  -31  -44  -69  -97  -102  -56  50  224  459  706  901  1045  1164  1258  1334  1443  1608  1786  1917  1975  1963  1877  1717  1517  1337  1216  1158  1142  1128  1063  897  636  335  56  -162  -309  -393  -438  -463  -477  -482  -493  -524  -558  -594  -648  -686  -666  -615  -556  -482  -415  -399  -467  -623  -821  -989  -1083  -1107  -1068  -947  -756  -577  -488  -483  -506  -515  -482  -399  -295  -210  -147  -68  28  104  134  118  55  -48  -170  -277  -340  -351  -320  -270  -247  -282  -344  -370  -319  -185  -24  75  72  -7  -89  -118  -122  -143  -158  -116  -21  64  86  58  34  37  49  47  21  -37  -146  -317  -535  -732  -806  -685  -415  -146  -1  10  -54  -137  -197  -228  -248  -266  -280  -287  -296  -311  -327  -340  -347  -351  -355  -349  -317  -246  -142  -39  22  39  57  116  195  238  226  195  172  127  16  -161  -363  -537  -649  -691  -681  -646  -615  -599  -594  -595  -613  -667  -761  -873  -1002  -1195  -1438  -1575  -1487  -1154  -396  1017  2950  4942  6542  7336  6999  5590  3540  1346  -516  -1658  -1988  -1811  -1501  -1215  -1005  -893  -817  -733  -670  -651  -660  -681  -719  -791  -885  -951  -943  -860  -754  -685  -666  -666  -665  -645  -593  -515  -451  -436  -471  -524  -560  -555  -483  -364  -259  -198  -157  -108  -33  89  307  624  946  1166  1268  1307  1341  1418  1561  1734  1869  1939  1963  1970  1973  1966  1945  1930  1924  1885  1753  1521  1246  995  795  628  478  365  293  216  101  -19  -98  -125  -126  -135  -181  -264  -359  -435  -479  -501  -528  -574  -642  -730  -791  -752  -627  -516  -488  -533  -606  -667  -698  -707  -707  -709  -712  -704  -677  -659  -681  -722  -735  -690  -589  -475  -400  -376  -385  -429  -520  -647  -766  -842  -852  -799  -721  -655  -608  -570  -536  -476  -361  -215  -108  -70  -78  -118  -212  -376  -569  -706  -755  -740  -680  -575  -449  -346  -291  -272  -264  -262  -303  -424  -595  -722  -737  -649  -520  -420  -369  -337  -294  -235  -181  -172  -237  -351  -456  -524  -550  -522  -427  -296  -184  -120  -108  -170  -310  -462  -519  -447  -323  -229  -183  -178  -218  -312  -461  -633  -739  -673  -384  12  305  410  400  351  284  206  138  97  74  49  14  -29  -74  -115  -155  -212  -312  -437  -529  -559  -551  -534  -527  -555  -637  -751  -831  -820  -744  -735  -903  -1165  -1234  -746  500  2393  4606  6618  7830  7923  6860  4799  2255  -70  -1641  -2232  -2024  -1478  -1011  -794  -772  -815  -844  -851  -836  -796  -745  -713  -710  -717  -692  -603  -472  -364  -311  -297  -294  -297  -287  -246  -194  -151  -107  -65  -40  -33  -33  -34  -42  -56  -59  -36  15  106  276  553  854  1048  1100  1076  1047  1058  1147  1312  1500  1663  1816  1991  2163  2276  2319  2314  2249  2098  1895  1719  1604  1539  1492  1401  1205  921  628  367  146  -20  -126  -190  -229  -265  -316  -370  -403  -417  -434  -465  -500  -523  -532  -524  -488  -420  -346  -313  -324  -325  -284  -237  -225  -250  -293  -348  -435  -549  -619  -599  -549  -540  -570  -601  -604  -583  -569  -573  -577  -567  -554  -559  -595  -655  -720  -770  -789  -752  -640  -497  -408  -412  -467  -516  -534  -528  -502  -457  -404  -367  -373  -425  -489  -531  -541  -539  -557  -618  -701  -760  -777  -775  -767  -740  -671  -569  -474  -412  -396  -416  -440  -442  -431  -424  -422  -423  -421  -415  -412  -437  -512  -607  -648  -594  -485  -393  -344  -320  -309  -315  -334  -351  -344  -309  -262  -211  -168  -130  -86  -46  -22  3  65  151  218  241  215  121  -78  -367  -638  -788  -821  -788  -704  -558  -390  -282  -268  -303  -343  -403  -526  -697  -860  -1015  -1160  -1184  -938  -301  863  2596  4617  6392  7381  7180  5715  3424  1052  -745  -1644  -1745  -1487  -1233  -1047  -900  -795  -711  -638  -590  -571  -569  -583  -632  -721  -812  -868  -890  -901  -904  -860  -737  -572  -452  -410  -398  -364  -302  -239  -201  -193  -204  -219  -225  -205  -142  -46  70  211  366  495  584  658  748  867  992  1108  1222  1325  1424  1544  1670  1781  1892  2019  2169  2316  2390  2351  2213  1970  1587  1151  852  753  751  750  733  694  582  345  33  -228  -375  -439  -450  -413  -359  -339  -387  -511  -681  -824  -886  -882  -853  -822  -796  -786  -799  -836  -882  -926  -952  -920  -821  -720  -674  -679  -699  -721  -752  -788  -809  -799  -747  -666  -593  -546  -503  -427  -328  -269  -305  -418  -532  -598  -623  -632  -633  -592  -476  -320  -217  -224  -323  -461  -589  -679  -733  -746  -667  -470  -225  -58  -34  -142  -325  -493  -585  -601  -569  -505  -431  -370  -294  -145  54  219  307  343  338  234  -20  -347  -578  -645  -608  -537  -466  -425  -448  -552  -697  -802  -812  -727  -589  -456  -370  -344  -385  -476  -543  -538  -518  -491  -272  420  1779  3682  5556  6663  6551  5209  3062  813  -900  -1757  -1792  -1335  -805  -466  -377  -431  -455  -384  -291  -249  -299  -461  -681  -842  -881  -813  -675  -495  -298  -129  -27  4  -14  -71  -164  -267  -329  -335  -323  -324  -338  -317  -194  48  322  515  616  704  818  932  1024  1110  1208  1324  1457  1569  1611  1599  1611  1727  1993  2380  2768  3030  3135  3106  2916  2534  2040  1589  1267  1042  859  688  516  349  204  85  -11  -94  -192  -354  -581  -791  -906  -924  -897  -873  -868  -871  -858  -813  -751  -707  -696  -702  -704  -692  -665  -631  -604  -590  -590  -600  -613  -632  -660  -689  -716  -748  -779  -794  -771  -695  -582  -479  -415  -386  -382  -402  -451  -508  -527  -481  -400  -341  -321  -306  -263  -199  -147  -127  -137  -183  -298  -509  -763  -940  -980  -919  -814  -691  -536  -367  -248  -205  -194  -179  -146  -89  -20  25  22  -31  -106  -161  -180  -167  -128  -78  -41  -33  -63  -137  -250  -367  -434  -436  -413  -418  -462  -527  -590  -628  -637  -641  -649  -647  -620  -557  -493  -540  -762  -1010  -1026  -619  369  2024  4083  5967  7134  7271  6302  4431  2127  -62  -1696  -2476  -2366  -1699  -956  -492  -389  -473  -560  -609  -648  -690  -741  -797  -835  -819  -743  -653  -606  -621  -679  -755  -825  -851  -783  -607  -394  -249  -203  -218  -264  -329  -414  -534  -676  -791  -863  -893  -814  -512  -7  486  794  930  991  1042  1115  1201  1268  1313  1366  1445  1542  1641  1720  1762  1749  1671  1549  1426  1336  1280  1223  1106  918  712  521  333  155  16  -111  -305  -572  -816  -959  -1007  -1004  -984  -958  -934  -906  -859  -801  -761  -741  -702  -631  -583  -601  -638  -638  -603  -557  -519  -496  -487  -488  -510  -573  -673  -770  -820  -805  -722  -605  -504  -442  -412  -413  -464  -567  -686  -760  -762  -690  -548  -379  -260  -245  -346  -540  -755  -911  -981  -982  -945  -893  -819  -702  -564  -469  -440  -446  -460  -482  -519  -554  -558  -528  -477  -408  -333  -287  -286  -305  -295  -221  -93  38  127  139  66  -53  -184  -363  -624  -894  -1048  -1044  -940  -825  -760  -750  -762  -757  -706  -603  -473  -338  -206  -153  -362  -885  -1492  -1810  -1468  -269  1622  3750  5538  6477  6347  5288  3682  1943  362  -880  -1667  -1991  -1899  -1517  -1113  -901  -869  -887  -873  -818  -733  -613  -480  -396  -389  -436  -517  -636  -771  -869  -911  -924  -933  -916  -823  -637  -428  -283  -204  -141  -79  -58  -87  -117  -103  -66  -28  24  97  163  202  248  366  581  855  1126  1343  1483  1579  1673  1777  1864  1907  1917  1930  1961  1983  1944  1816  1641  1457  1257  1058  924  856  772  633  479  347  216  44  -157  -308  -346  -311  -296  -343  -401  -373  -244  -111  -49  -43  -54  -62  -65  -64  -53  -29  3  44  94  129  117  65  38  91  177  216  209  193  167  125  71  9  -61  -131  -181  -205  -214  -209  -156  -22  158  297  346  317  231  119  19  -45  -72  -72  -67  -65  -59  -24  49  154  282  410  490  471  336  141  -12  -70  -55  -2  76  177  273  328  339  338  336  321  276  197  99  16  -26  -37  -38  -37  -25  21  120  258  368  372  276  160  86  58  61  83  112  131  113  38  -75  -182  -257  -308  -366  -471  -641  -831  -959  -997  -974  -928  -898  -902  -921  -947  -1004  -1077  -1034  -575  624  2569  4742  6389  6989  6398  4799  2691  643  -977  -1970  -2250  -1921  -1311  -818  -625  -644  -745  -859  -946  -977  -951  -898  -851  -832  -852  -918  -1014  -1081  -1051  -889  -649  -453  -367  -360  -373  -369  -328  -259  -194  -156  -137  -106  -50  -7  -13  -32  -12  37  93  162  231  291  371  506  670  794  872  967  1119  1337  1626  1922  2116  2172  2135  2029  1844  1583  1277  1000  828  754  690  572  411  256  143  84  70  72  38  -82  -292  -545  -793  -1003  -1148  -1217  -1227  -1193  -1114  -977  -758  -449  -133  67  121  66  -63  -229  -379  -491  -574  -634  -671  -685  -688  -694  -702  -701  -674  -620  -566  -531  -510  -517  -567  -654  -728  -709  -599  -494  -454  -461  -476  -464  -403  -300  -194  -129  -129  -182  -249  -314  -397  -510  -596  -582  -472  -370  -413  -622  -857  -998  -1032  -964  -785  -553  -386  -327  -328  -347  -387  -458  -542  -605  -632  -635  -627  -608  -568  -506  -454  -453  -502  -556  -591  -614  -631  -627  -566  -421  -234  -101  -84  -169  -298  -412  -481  -487  -439  -402  -410  -422  -376  -255  -129  -78  -97  -131  -117  -19  95  85  -74  -260  -367  -395  -390  -389  -407  -428  -409  -348  -335  -457  -681  -894  -1012  -982  -764  -429  -208  -289  -622  -895  -704  216  1840  3842  5718  6970  7280  6540  4854  2578  297  -1381  -2137  -2081  -1566  -983  -632  -562  -628  -710  -777  -811  -783  -678  -537  -437  -403  -407  -431  -490  -596  -741  -906  -1039  -1082  -1038  -949  -817  -639  -450  -314  -270  -300  -344  -369  -381  -380  -314  -130  121  326  440  501  558  659  826  1028  1204  1307  1346  1362  1388  1457  1592  1771  1919  1968  1912  1820  1740  1672  1620  1595  1585  1533  1377  1119  854  667  570  528  498  447  343  179  -23  -211  -325  -358  -353  -346  -344  -346  -352  -366  -372  -325  -211  -78  6  10  -40  -87  -107  -119  -149  -191  -219  -227  -246  -303  -388  -462  -504  -512  -468  -364  -246  -191  -217  -253  -231  -154  -69  -43  -120  -251  -388  -525  -609  -591  -492  -335  -144  29  151  227  268  292  307  312  279  158  -68  -318  -475  -509  -456  -360  -257  -175  -108  -41  17  54  60  6  -130  -314  -456  -504  -483  -452  -441  -429  -381  -304  -234  -177  -123  -84  -82  -139  -251  -374  -456  -479  -445  -349  -221  -130  -126  -206  -320  -399  -423  -416  -401  -375  -323  -262  -219  -192  -151  -78  12  92  146  173  177  167  161  171  180  159  94  -5  -132  -308  -535  -755  -880  -869  -728  -505  -291  -164  -138  -219  -408  -597  -623  -548  -638  -942  -1041  -310  1502  3956  6157  7351  7302  6164  4279  2105  82  -1463  -2268  -2215  -1559  -845  -482  -477  -582  -634  -641  -645  -644  -626  -611  -619  -654  -704  -739  -734  -705  -662  -586  -466  -338  -253  -223  -230  -259  -301  -348  -386  -408  -416  -425  -428  -380  -222  34  305  509  612  617  556  470  405  414  547  804  1097  1325  1483  1644  1849  2056  2207  2277  2261  2159  2001  1851  1752  1694  1644  1572  1457  1288  1069  808  529  283  97  -83  -303  -507  -617  -625  -573  -510  -468  -454  -451  -453  -474  -527  -598  -651  -689  -743  -816  -872  -893  -893  -888  -887  -891  -898  -890  -842  -750  -651  -589  -571  -575  -567  -526  -465  -410  -366  -323  -286  -259  -244  -292  -478  -785  -1043  -1079  -927  -760  -679  -667  -675  -682  -690  -707  -723  -700  -624  -530  -453  -402  -370  -361  -377  -404  -421  -425  -427  -436  -456  -498  -578  -680  -754  -763  -707  -617  -540  -504  -507  -535  -572  -597  -584  -514  -404  -309  -273  -309  -406  -518  -591  -610  -600  -599  -644  -747  -869  -954  -986  -984  -970  -949  -922  -889  -860  -847  -880  -1021  -1252  -1253  -564  901  2786  4632  6002  6484  5929  4537  2609  494  -1277  -2227  -2337  -1945  -1413  -1010  -835  -796  -764  -677  -559  -475  -448  -442  -420  -383  -353  -346  -350  -347  -321  -268  -198  -131  -91  -79  -81  -86  -92  -101  -102  -62  42  179  283  353  434  526  588  610  620  654  730  825  897  943  1015  1168  1381  1565  1669  1745  1880  2075  2240  2313  2317  2298  2283  2283  2297  2281  2149  1852  1468  1146  949  822  706  606  548  529  510  458  380  303  228  114  -82  -356  -638  -844  -938  -950  -938  -932  -932  -930  -929  -957  -1028  -1104  -1108  -1011  -855  -705  -619  -636  -759  -932  -1055  -1060  -943  -761  -600  -505  -452  -414  -394  -405  -445  -521  -620  -664  -618  -551  -510  -486  -494  -551  -646  -744  -810  -841  -853  -849  -821  -760  -670  -575  -514  -533  -651  -821  -937  -930  -822  -690  -609  -598  -611  -578  -448  -258  -107  -43  -41  -83  -179  -303  -392  -413  -383  -334  -296  -293  -352  -484  -637  -740  -775  -774  -758  -715  -651  -619  -662  -738  -783  -784  -765  -799  -980  -1232  -1257  -731  530  2440  4543  6249  7130  7003  5882  3940  1561  -683  -2219  -2710  -2249  -1379  -750  -645  -844  -1003  -1018  -945  -812  -654  -545  -542  -640  -780  -887  -923  -889  -777  -605  -441  -346  -323  -321  -292  -236  -206  -244  -323  -382  -402  -393  -337  -196  5  179  276  333  430  628  884  1069  1137  1171  1275  1464  1652  1759  1809  1872  1962  2035  2064  2065  2058  2048  2040  2046  2072  2095  2023  1728  1218  714  431  362  375  376  338  260  144  -4  -149  -243  -297  -371  -480  -580  -639  -667  -687  -712  -734  -744  -731  -683  -609  -536  -503  -544  -624  -656  -656  -702  -784  -840  -863  -875  -883  -865  -796  -687  -577  -488  -427  -394  -385  -390  -403  -420  -448  -489  -519  -521  -509  -502  -514  -554  -604  -643  -673  -694  -703  -721  -748  -750  -698  -594  -471  -380  -343  -341  -347  -348  -346  -351  -371  -398  -411  -395  -354  -302  -251  -204  -172  -171  -236  -388  -573  -696  -707  -603  -399  -164  -1  50  34  5  -5  34  151  317  439  436  280  9  -288  -526  -654  -688  -696  -726  -776  -818  -835  -823  -774  -695  -612  -550  -525  -564  -705  -934  -1233  -1528  -1513  -799  750  2944  5272  7011  7610  6959  5341  3273  1263  -335  -1352  -1835  -1944  -1758  -1400  -1090  -927  -853  -810  -789  -782  -768  -730  -680  -645  -633  -631  -635  -644  -650  -654  -660  -669  -673  -643  -553  -424  -306  -207  -89  51  165  202  168  138  185  303  419  478  487  482  487  502  515  540  662  972  1430  1851  2099  2184  2186  2164  2156  2194  2287  2414  2530  2582  2502  2238  1846  1482  1259  1163  1119  1067  971  807  577  325  117  -9  -66  -83  -82  -80  -89  -128  -208  -312  -394  -430  -443  -465  -507  -551  -576  -551  -452  -310  -199  -155  -152  -151  -143  -167  -284  -505  -742  -894  -943  -928  -865  -741  -582  -481  -505  -617  -728  -781  -778  -732  -637  -514  -424  -410  -470  -582  -728  -900  -1063  -1152  -1126  -988  -807  -678  -645  -683  -756  -845  -933  -999  -1025  -1010  -960  -887  -813  -769  -774  -831  -917  -998  -1053  -1074  -1069  -1054  -1044  -1043  -1039  -988  -852  -674  -568  -603  -749  -932  -1081  -1129  -1020  -764  -474  -284  -225  -234  -237  -207  -164  -140  -130  -109  -75  -48  -47  -82  -158  -270  -391  -489  -554  -588  -582  -543  -500  -471  -465  -496  -586  -730  -873  -983  -1113  -1210  -1006  -259  1068  2826  4670  6252  7300  7490  6604  4823  2621  538  -917  -1484  -1404  -1161  -993  -862  -748  -664  -585  -501  -441  -421  -433  -467  -509  -538  -538  -507  -455  -401  -359  -337  -337  -358  -400  -449  -490  -503  -450  -298  -87  84  158  166  150  119  64  -6  -57  -73  -62  -29  32  128  273  496  798  1105  1339  1510  1663  1801  1917  2017  2092  2132  2130  2083  1997  1877  1713  1507  1274  1028  791  602  482  425  404  380  322  210  71  -35  -111  -223  -387  -560  -705  -797  -846  -890  -937  -962  -932  -822  -653  -497  -389  -317  -284  -303  -353  -406  -450  -478  -502  -543  -599  -638  -650  -657  -683  -727  -765  -767  -699  -553  -380  -255  -214  -230  -252  -266  -312  -424  -538  -532  -382  -200  -132  -253  -491  -682  -752  -741  -688  -586  -429  -271  -173  -146  -172  -248  -359  -456  -474  -393  -272  -192  -176  -194  -212  -221  -231  -260  -324  -406  -464  -473  -442  -396  -371  -390  -443  -480  -457  -378  -262  -142  -62  -42  -57  -82  -111  -154  -207  -247  -248  -197  -106  -10  63  113  145  142  57  -131  -355  -507  -553  -526  -457  -375  -317  -305  -336  -401  -503  -650  -811  -932  -986  -979  -963  -974  -805  -47  1490  3550  5580  7008  7472  6944  5647  3796  1633  -373  -1772  -2428  -2417  -1876  -1111  -549  -383  -449  -530  -558  -559  -566  -577  -563  -525  -506  -520  -538  -549  -559  -554  -511  -416  -298  -214  -180  -170  -165  -180  -209  -213  -177  -133  -108  -102  -89  -29  86  211  286  309  339  429  584  754  896  1014  1122  1228  1364  1585  1893  2216  2460  2586  2613  2541  2335  2042  1796  1666  1583  1454  1288  1168  1124  1091  994  821  622  442  278  123  -13  -110  -151  -154  -159  -185  -239  -356  -571  -831  -1020  -1076  -993  -786  -531  -359  -347  -471  -644  -765  -802  -792  -776  -769  -774  -789  -800  -757  -611  -393  -205  -111  -94  -135  -227  -332  -379  -349  -300  -290  -312  -329  -330  -330  -355  -418  -498  -555  -579  -596  -623  -643  -616  -508  -348  -212  -159  -224  -428  -701  -900  -944  -850  -668  -426  -140  139  338  432  456  423  286  25  -278  -509  -642  -734  -849  -1005  -1140  -1175  -1094  -955  -811  -695  -628  -623  -698  -854  -1045  -1197  -1272  -1283  -1267  -1300  -1486  -1767  -1832  -1298  45  2045  4194  5912  6812  6748  5715  3838  1456  -915  -2653  -3268  -2793  -1816  -958  -504  -474  -695  -922  -1047  -1095  -1117  -1130  -1117  -1064  -1000  -953  -926  -905  -881  -857  -827  -785  -741  -731  -790  -919  -1041  -1033  -890  -710  -529  -310  -81  67  111  96  70  58  96  221  405  558  632  670  737  864  1035  1190  1293  1392  1563  1804  2021  2137  2163  2152  2121  2014  1777  1470  1210  1045  941  872  834  808  737  577  363  175  57  2  -26  -98  -258  -481  -693  -823  -861  -841  -799  -730  -606  -445  -320  -272  -274  -287  -294  -287  -262  -229  -206  -200  -208  -232  -286  -365  -442  -494  -504  -431  -243  -2  177  238  177  -5  -251  -444  -512  -439  -241  -10  90  -22  -252  -435  -512  -529  -532  -530  -516  -478  -429  -392  -373  -370  -381  -400  -418  -419  -383  -309  -222  -149  -111  -134  -229  -360  -460  -502  -499  -465  -411  -343  -255  -153  -65  -1  60  127  172  172  127  59  2  -18  20  141  307  429  437  316  111  -95  -256  -371  -448  -489  -507  -514  -514  -508  -503  -517  -592  -735  -854  -902  -1000  -1138  -969  -122  1510  3719  5974  7611  8122  7330  5460  3066  765  -925  -1682  -1612  -1223  -964  -930  -988  -1029  -1034  -1014  -953  -839  -713  -643  -654  -706  -750  -771  -778  -764  -703  -581  -437  -332  -295  -300  -316  -337  -370  -414  -445  -432  -358  -244  -131  -44  11  29  30  66  195  403  596  699  736  764  822  930  1090  1289  1516  1767  2003  2155  2203  2167  2055  1879  1692  1552  1466  1416  1387  1359  1299  1182  1039  922  832  687  412  64  -199  -307  -317  -300  -287  -279  -274  -286  -341  -442  -544  -598  -600  -595  -611  -626  -605  -554  -506  -496  -526  -546  -506  -430  -390  -435  -552  -689  -816  -916  -951  -884  -731  -568  -465  -432  -447  -491  -548  -595  -619  -622  -592  -504  -378  -268  -222  -256  -352  -460  -543  -583  -583  -554  -514  -475  -436  -397  -366  -348  -337  -329  -329  -344  -378  -427  -494  -573  -649  -705  -726  -711  -678  -638  -590  -549  -537  -560  -592  -576  -476  -325  -208  -166  -193  -283  -418  -560  -675  -732  -718  -652  -567  -498  -444  -380  -315  -284  -299  -350  -411  -454  -466  -444  -386  -312  -250  -184  -65  96  214  210  115  35  31  56  48  2  -67  -146  -214  -267  -334  -441  -584  -716  -775  -761  -727  -709  -709  -715  -685  -548  -344  -336  -700  -1186  -1370  -940  289  2217  4355  6150  7229  7360  6501  4878  2837  797  -751  -1524  -1609  -1356  -1137  -1092  -1145  -1179  -1104  -907  -656  -441  -328  -344  -476  -652  -779  -824  -816  -781  -723  -656  -606  -584  -576  -560  -516  -431  -338  -279  -244  -180  -79  8  55  75  71  36  -2  13  110  255  416  586  761  923  1051  1146  1235  1352  1494  1641  1766  1856  1916  1965  1998  1995  1950  1876  1809  1769  1729  1647  1527  1416  1357  1347  1322  1178  870  493  215  102  96  123  150  157  112  -10  -167  -280  -328  -351  -403  -507  -619  -679  -687  -670  -618  -506  -367  -270  -250  -290  -355  -410  -438  -443  -433  -409  -378  -365  -398  -486  -592  -662  -678  -655  -610  -556  -506  -472  -461  -472  -487  -491  -476  -442  -399  -363  -348  -340  -295  -192  -105  -145  -305  -462  -547  -582  -590  -567  -501  -403  -315  -262  -225  -171  -108  -81  -118  -188  -246  -293  -365  -452  -505  -500  -455  -402  -361  -333  -324  -347  -393  -436  -466  -483  -490  -485  -476  -461  -431  -395  -381  -409  -460  -499  -515  -514  -502  -477  -446  -422  -408  -390  -356  -317  -290  -280  -277  -272  -272  -285  -302  -310  -302  -281  -255  -235  -223  -220  -231  -263  -310  -354  -393  -453  -546  -643  -726  -810  -871  -881  -860  -844  -850  -876  -889  -858  -870  -1020  -1099  -654  555  2405  4509  6295  7277  7276  6294  4463  2115  -176  -1740  -2217  -1841  -1197  -763  -664  -764  -921  -1077  -1184  -1196  -1118  -1008  -920  -858  -794  -717  -641  -592  -598  -633  -637  -594  -546  -520  -515  -531  -573  -626  -654  -635  -579  -501  -396  -271  -161  -88  -42  -6  42  128  252  384  492  582  672  764  875  1030  1201  1357  1568  1935  2378  2682  2736  2583  2325  2068  1877  1765  1717  1713  1726  1702  1579  1335  1009  679  433  284  174  73  -1  -52  -106  -182  -293  -423  -529  -577  -575  -556  -561  -602  -645  -648  -603  -532  -470  -435  -420  -416  -417  -398  -336  -245  -174  -136  -104  -71  -78  -163  -297  -414  -490  -530  -510  -416  -278  -155  -81  -37  3  42  68  76  64  21  -71  -196  -303  -378  -442  -489  -485  -426  -350  -280  -222  -188  -198  -258  -340  -402  -434  -457  -463  -427  -358  -309  -324  -384  -421  -387  -313  -253  -241  -304  -431  -581  -715  -806  -821  -724  -508  -230  22  189  259  263  246  235  233  235  234  226  209  164  65  -74  -207  -307  -377  -400  -371  -336  -350  -417  -488  -519  -519  -538  -619  -771  -948  -1080  -1153  -1186  -1185  -1166  -1088  -723  279  2076  4339  6399  7625  7619  6353  4202  1750  -434  -1952  -2647  -2641  -2259  -1811  -1448  -1198  -1024  -900  -829  -805  -801  -798  -788  -774  -763  -759  -761  -761  -749  -710  -640  -563  -516  -523  -562  -578  -532  -450  -381  -342  -326  -324  -329  -340  -351  -334  -250  -116  7  115  280  520  751  916  1065  1252  1438  1555  1592  1591  1582  1580  1607  1675  1761  1821  1842  1848  1857  1850  1781  1631  1461  1347  1258  1087  818  551  368  256  128  -102  -400  -625  -709  -699  -660  -606  -527  -457  -466  -554  -643  -688  -711  -748  -792  -811  -806  -823  -887  -949  -902  -694  -417  -213  -134  -147  -226  -350  -475  -551  -566  -544  -530  -571  -676  -761  -727  -597  -470  -388  -361  -371  -389  -414  -452  -506  -591  -693  -777  -840  -893  -911  -839  -658  -436  -289  -269  -349  -466  -555  -594  -600  -590  -560  -497  -412  -335  -286  -261  -249  -252  -301  -412  -515  -499  -370  -246  -195  -180  -151  -103  -61  -38  -26  -30  -80  -205  -384  -543  -636  -678  -702  -719  -727  -732  -737  -743  -751  -750  -706  -606  -544  -693  -1097  -1511  -1469  -564  1250  3555  5716  7184  7560  6693  4868  2683  674  -769  -1432  -1487  -1337  -1160  -966  -829  -820  -926  -1077  -1191  -1229  -1171  -1010  -804  -655  -574  -485  -356  -236  -170  -140  -111  -90  -108  -165  -242  -319  -372  -365  -281  -135  19  117  117  26  -105  -204  -212  -101  120  405  684  898  1023  1089  1146  1218  1303  1404  1528  1666  1790  1874  1931  1993  2062  2115  2141  2156  2152  2079  1877  1567  1258  1012  800  602  449  347  255  140  -3  -171  -330  -421  -423  -380  -350  -357  -396  -456  -527  -591  -621  -604  -557  -527  -536  -568  -598  -622  -645  -667  -682  -687  -687  -685  -682  -674  -667  -664  -658  -626  -547  -420  -278  -177  -147  -181  -246  -311  -370  -424  -481  -568  -691  -790  -804  -748  -688  -643  -587  -527  -519  -604  -735  -821  -823  -775  -715  -639  -533  -409  -304  -266  -312  -403  -481  -531  -580  -633  -658  -621  -528  -419  -339  -304  -311  -338  -355  -351  -332  -317  -318  -348  -415  -502  -569  -596  -581  -516  -402  -273  -167  -98  -60  -36  -12  -5  -30  -53  -4  149  363  535  583  470  197  -134  -366  -440  -425  -388  -345  -291  -237  -219  -283  -440  -621  -732  -755  -738  -689  -604  -589  -716  -766  -272  1052  3077  5379  7300  8093  7443  5649  3251  840  -963  -1764  -1659  -1168  -796  -684  -704  -749  -794  -843  -888  -924  -951  -976  -996  -996  -965  -901  -831  -791  -788  -790  -749  -613  -390  -177  -71  -93  -188  -286  -343  -366  -371  -373  -395  -453  -511  -508  -420  -263  -50  176  367  534  735  981  1196  1307  1324  1298  1264  1234  1220  1267  1425  1676  1931  2117  2219  2245  2197  2074  1910  1760  1589  1318  991  756  675  668  597  360  5  -298  -444  -456  -417  -412  -488  -617  -727  -782  -795  -789  -772  -744  -701  -632  -532  -431  -389  -440  -548  -641  -683  -687  -672  -633  -557  -457  -374  -331  -318  -316  -316  -322  -335  -357  -385  -409  -421  -438  -464  -462  -411  -350  -317  -300  -273  -250  -271  -352  -443  -478  -450  -427  -444  -437  -356  -279  -303  -397  -464  -468  -444  -430  -429  -416  -370  -301  -249  -246  -303  -405  -500  -541  -519  -467  -420  -392  -377  -375  -390  -422  -454  -473  -479  -481  -481  -461  -405  -332  -309  -390  -544  -673  -726  -723  -703  -680  -653  -624  -583  -501  -360  -205  -106  -80  -88  -93  -86  -73  -62  -39  19  102  166  179  125  -1  -163  -285  -332  -330  -313  -294  -287  -336  -477  -664  -783  -779  -701  -617  -551  -539  -673  -964  -1182  -910  174  2017  4186  6161  7493  7835  7066  5329  2951  467  -1416  -2183  -1920  -1202  -607  -404  -511  -686  -787  -822  -832  -841  -861  -885  -899  -885  -812  -684  -567  -499  -466  -447  -433  -425  -426  -419  -383  -328  -275  -223  -170  -135  -124  -127  -125  -110  -86  -51  11  120  264  422  573  706  805  866  894  888  845  819  916  1204  1591  1895  2038  2087  2132  2200  2260  2262  2185  2047  1858  1589  1279  1057  975  961  923  789  538  241  11  -122  -202  -261  -305  -326  -325  -323  -340  -385  -451  -507  -531  -532  -549  -616  -712  -772  -771  -764  -787  -806  -774  -683  -575  -491  -441  -433  -477  -553  -621  -646  -631  -615  -624  -647  -665  -677  -690  -700  -684  -619  -526  -456  -432  -433  -437  -446  -471  -515  -575  -645  -716  -760  -757  -713  -659  -629  -627  -634  -635  -631  -632  -654  -704  -747  -727  -646  -557  -491  -456  -451  -465  -473  -446  -388  -340  -332  -367  -426  -480  -521  -551  -573  -588  -587  -560  -496  -398  -314  -315  -393  -459  -467  -447  -447  -475  -491  -432  -264  -49  104  157  156  150  154  163  170  175  183  187  155  55  -94  -225  -289  -282  -231  -182  -171  -215  -313  -431  -520  -551  -525  -472  -440  -534  -877  -1396  -1745  -1516  -462  1390  3672  5803  7307  7882  7265  5470  3003  521  -1390  -2274  -2132  -1517  -1010  -780  -712  -700  -710  -716  -700  -654  -590  -537  -518  -554  -665  -817  -931  -953  -887  -767  -622  -456  -322  -303  -366  -397  -359  -291  -238  -227  -251  -271  -229  -119  -12  35  42  57  106  187  285  385  501  694  991  1311  1544  1658  1698  1714  1734  1755  1758  1770  1844  1969  2079  2133  2122  2030  1834  1566  1330  1193  1110  969  709  409  193  81  9  -58  -126  -201  -297  -434  -590  -714  -789  -833  -856  -863  -865  -872  -878  -876  -871  -879  -911  -965  -1001  -942  -757  -529  -381  -348  -392  -471  -557  -626  -657  -626  -516  -373  -294  -325  -415  -487  -512  -508  -499  -492  -481  -465  -458  -514  -680  -897  -1005  -921  -742  -623  -631  -722  -791  -762  -656  -547  -477  -435  -390  -331  -280  -278  -370  -565  -772  -835  -680  -404  -179  -72  -23  38  97  81  -27  -168  -263  -279  -254  -238  -236  -235  -245  -284  -367  -477  -567  -608  -617  -624  -637  -645  -642  -639  -634  -618  -611  -636  -703  -834  -1014  -1125  -940  -167  1373  3471  5533  6997  7521  6898  5194  2866  495  -1411  -2420  -2406  -1766  -1109  -761  -670  -651  -609  -552  -514  -502  -505  -520  -552  -587  -595  -559  -488  -433  -464  -575  -684  -746  -774  -770  -699  -556  -399  -297  -239  -162  -57  24  52  46  31  26  55  134  240  327  378  410  453  537  676  856  1044  1223  1423  1669  1921  2112  2223  2278  2274  2185  2031  1885  1803  1776  1746  1646  1464  1251  1050  850  641  435  234  40  -118  -221  -273  -309  -364  -448  -548  -645  -715  -748  -751  -734  -694  -624  -539  -489  -508  -567  -624  -676  -746  -830  -868  -803  -643  -467  -348  -299  -296  -318  -348  -368  -376  -381  -391  -414  -463  -548  -649  -714  -684  -535  -324  -174  -175  -325  -537  -693  -746  -720  -638  -524  -421  -363  -353  -374  -421  -511  -639  -767  -858  -888  -840  -721  -572  -450  -380  -336  -268  -144  6  113  145  130  109  95  75  33  -18  -49  -51  -37  -27  -53  -138  -260  -368  -437  -481  -539  -645  -787  -905  -960  -967  -956  -941  -931  -950  -1047  -1239  -1405  -1262  -528  887  2833  4951  6772  7797  7589  6060  3630  948  -1299  -2524  -2630  -2066  -1399  -947  -741  -680  -675  -671  -647  -616  -601  -625  -695  -791  -879  -938  -974  -996  -995  -964  -914  -854  -797  -752  -700  -604  -453  -297  -205  -189  -210  -230  -238  -238  -231  -210  -175  -120  -31  78  180  294  449  621  769  905  1057  1212  1331  1393  1423  1466  1544  1646  1754  1848  1913  1935  1912  1867  1815  1731  1574  1332  1051  807  620  444  266  126  47  0  -71  -172  -268  -355  -450  -538  -591  -599  -567  -522  -482  -447  -414  -391  -384  -384  -380  -363  -341  -334  -366  -452  -587  -734  -837  -875  -868  -837  -787  -725  -668  -639  -640  -655  -659  -629  -540  -384  -206  -84  -54  -90  -167  -269  -372  -460  -526  -562  -545  -460  -351  -279  -258  -261  -265  -267  -276  -295  -315  -331  -361  -451  -606  -743  -754  -648  -531  -461  -419  -381  -343  -317  -319  -336  -336  -317  -301  -304  -325  -348  -359  -346  -303  -244  -191  -149  -109  -78  -70  -87  -112  -112  -66  10  80  130  164  173  133  25  -112  -210  -244  -244  -252  -307  -419  -554  -661  -712  -719  -707  -672  -596  -488  -395  -388  -558  -924  -1250  -1082  -85  1667  3777  5766  7189  7702  7184  5736  3604  1203  -881  -2096  -2246  -1609  -762  -217  -125  -298  -509  -669  -784  -864  -890  -869  -847  -855  -881  -884  -826  -720  -608  -493  -373  -287  -259  -278  -334  -403  -450  -454  -424  -385  -358  -347  -329  -274  -161  4  171  279  309  294  284  315  401  523  637  710  802  1029  1398  1778  2040  2159  2180  2162  2138  2113  2082  2025  1927  1799  1667  1549  1462  1403  1306  1093  808  582  459  367  234  60  -121  -274  -382  -447  -479  -486  -480  -478  -521  -642  -811  -929  -907  -722  -459  -262  -195  -209  -235  -255  -307  -436  -617  -761  -823  -823  -797  -754  -675  -541  -374  -227  -146  -132  -183  -300  -464  -635  -771  -839  -837  -787  -721  -672  -648  -622  -566  -475  -380  -297  -212  -137  -118  -192  -341  -511  -647  -733  -791  -840  -842  -738  -543  -345  -222  -198  -267  -417  -599  -722  -736  -657  -547  -470  -454  -486  -535  -566  -546  -456  -327  -226  -198  -264  -425  -628  -777  -824  -790  -689  -515  -312  -177  -154  -215  -332  -481  -615  -685  -679  -617  -538  -479  -449  -427  -397  -360  -310  -232  -138  -57  0  18  -15  -87  -167  -247  -338  -443  -540  -613  -675  -734  -774  -784  -778  -786  -828  -901  -985  -1095  -1299  -1596  -1829  -1741  -1049  422  2541  4856  6801  7907  7923  6816  4778  2295  31  -1487  -2082  -1959  -1519  -1087  -848  -807  -831  -847  -891  -963  -1023  -1053  -1060  -1051  -1021  -968  -914  -887  -887  -883  -833  -732  -642  -624  -656  -685  -697  -698  -685  -644  -574  -495  -425  -357  -273  -183  -121  -80  2  150  309  412  459  475  472  485  589  840  1183  1478  1655  1765  1869  1967  2061  2163  2258  2320  2332  2276  2116  1858  1581  1364  1213  1103  1004  889  743  578  420  267  105  -52  -178  -264  -322  -366  -399  -419  -437  -478  -566  -681  -763  -786  -779  -786  -832  -905  -971  -996  -940  -770  -540  -370  -318  -358  -444  -534  -588  -586  -529  -437  -347  -282  -247  -232  -223  -222  -261  -375  -532  -648  -687  -678  -650  -600  -524  -447  -410  -428  -479  -534  -580  -614  -627  -616  -593  -574  -563  -564  -556  -518  -471  -446  -440  -442  -451  -475  -513  -553  -575  -540  -420  -260  -164  -183  -269  -343  -370  -351  -294  -217  -149  -102  -70  -45  -8  62  166  268  333  355  322  198  -6  -209  -329  -373  -396  -434  -472  -478  -468  -481  -507  -508  -483  -462  -451  -438  -492  -705  -973  -957  -325  1017  2887  4874  6446  7198  6966  5774  3842  1537  -618  -2015  -2353  -1888  -1150  -591  -373  -381  -435  -467  -482  -496  -502  -476  -384  -228  -70  25  34  -38  -184  -381  -588  -752  -842  -873  -848  -716  -452  -140  79  147  90  -40  -185  -280  -302  -248  -125  21  121  148  123  82  88  254  642  1110  1423  1503  1453  1409  1500  1816  2274  2652  2792  2678  2362  1974  1684  1557  1540  1563  1574  1537  1441  1309  1155  952  656  282  -63  -268  -319  -282  -226  -188  -173  -168  -181  -251  -440  -741  -1037  -1210  -1258  -1254  -1225  -1147  -999  -829  -707  -646  -606  -553  -492  -447  -428  -427  -434  -447  -461  -467  -458  -446  -445  -467  -518  -583  -630  -626  -562  -467  -401  -397  -430  -473  -518  -558  -579  -580  -566  -557  -586  -668  -764  -803  -770  -705  -633  -562  -499  -431  -345  -266  -220  -187  -110  38  211  294  219  32  -164  -316  -438  -560  -681  -770  -812  -809  -765  -679  -579  -512  -503  -557  -657  -763  -827  -821  -738  -634  -713  -1171  -1806  -1963  -1129  653  2976  5246  6819  7375  6936  5609  3648  1498  -394  -1683  -2246  -2232  -1833  -1248  -791  -640  -686  -772  -866  -990  -1130  -1230  -1259  -1223  -1140  -1032  -923  -836  -761  -676  -570  -444  -318  -239  -244  -332  -453  -539  -564  -546  -508  -435  -304  -147  -28  37  75  107  148  217  327  466  600  720  833  921  962  984  1058  1237  1499  1759  1956  2078  2133  2147  2148  2145  2107  1991  1772  1480  1189  967  835  747  604  347  57  -127  -173  -162  -194  -309  -471  -604  -670  -690  -701  -726  -777  -847  -912  -950  -970  -1003  -1044  -1030  -925  -798  -732  -738  -783  -824  -849  -875  -904  -911  -866  -757  -611  -490  -445  -478  -537  -562  -553  -553  -571  -584  -581  -561  -536  -511  -486  -470  -493  -595  -765  -932  -1019  -967  -740  -399  -111  19  19  -38  -106  -149  -149  -96  -5  71  104  102  44  -114  -346  -557  -673  -698  -667  -605  -538  -498  -521  -620  -754  -851  -884  -885  -900  -974  -1127  -1282  -1238  -744  361  1995  3852  5575  6833  7319  6754  5099  2770  423  -1343  -2155  -2086  -1547  -950  -575  -508  -606  -686  -699  -685  -674  -667  -661  -652  -652  -669  -673  -628  -554  -493  -477  -509  -548  -544  -484  -400  -329  -296  -299  -316  -330  -340  -345  -319  -229  -86  61  191  319  460  602  713  773  805  859  950  1037  1085  1121  1217  1405  1627  1792  1872  1889  1868  1839  1835  1860  1887  1871  1755  1522  1245  1032  902  771  555  246  -65  -300  -461  -579  -657  -690  -677  -614  -516  -427  -392  -424  -500  -579  -625  -635  -630  -624  -625  -637  -661  -684  -701  -722  -764  -809  -792  -659  -460  -304  -246  -277  -388  -545  -665  -688  -655  -651  -701  -756  -779  -772  -765  -781  -817  -819  -739  -616  -540  -518  -459  -328  -203  -156  -181  -222  -227  -188  -129  -62  9  67  70  -16  -189  -383  -518  -596  -691  -830  -957  -1026  -1047  -1050  -1039  -981  -845  -664  -538  -546  -680  -860  -1047  -1180  -991  -176  1324  3315  5384  7012  7768  7382  5807  3398  865  -1052  -1935  -1895  -1443  -1071  -939  -937  -936  -916  -900  -881  -853  -843  -864  -875  -847  -796  -758  -749  -757  -740  -651  -512  -417  -437  -530  -565  -475  -347  -280  -271  -265  -227  -159  -80  3  102  181  173  80  -12  -23  74  264  499  731  923  1077  1229  1413  1637  1855  1995  2051  2067  2068  2058  2061  2079  2073  2001  1847  1606  1300  990  749  597  490  374  215  -9  -271  -494  -646  -740  -780  -771  -740  -715  -707  -708  -711  -715  -719  -712  -678  -618  -551  -497  -468  -461  -471  -495  -526  -548  -553  -544  -533  -550  -628  -765  -902  -982  -1000  -978  -930  -873  -835  -822  -824  -829  -836  -840  -826  -776  -705  -643  -603  -585  -594  -625  -658  -679  -690  -702  -711  -688  -605  -489  -400  -365  -369  -408  -488  -582  -627  -582  -466  -330  -211  -119  -78  -103  -164  -222  -278  -345  -429  -539  -688  -866  -1013  -1052  -962  -828  -763  -785  -827  -843  -831  -787  -697  -566  -493  -649  -990  -1108  -535  954  3251  5775  7644  8235  7423  5421  2765  227  -1541  -2254  -2064  -1444  -876  -657  -803  -1056  -1178  -1142  -1011  -849  -725  -681  -730  -852  -991  -1073  -1047  -902  -702  -548  -469  -432  -409  -390  -370  -344  -309  -279  -285  -341  -428  -512  -570  -589  -525  -327  -39  210  349  423  524  697  885  1014  1086  1144  1211  1272  1310  1345  1433  1613  1836  1991  2019  1941  1824  1728  1683  1678  1667  1586  1397  1116  822  612  526  515  505  461  373  225  8  -230  -417  -519  -554  -559  -557  -549  -532  -514  -502  -494  -489  -487  -491  -499  -497  -483  -467  -458  -458  -470  -498  -538  -580  -620  -650  -655  -628  -579  -539  -525  -526  -513  -465  -395  -341  -338  -405  -527  -648  -707  -696  -655  -626  -620  -624  -611  -563  -492  -435  -410  -407  -410  -412  -411  -410  -413  -432  -479  -564  -679  -794  -868  -893  -885  -844  -762  -656  -561  -496  -463  -460  -460  -445  -411  -361  -308  -261  -230  -231  -272  -340  -411  -460  -455  -361  -181  9  127  158  137  91  30  -32  -96  -175  -285  -397  -458  -471  -485  -521  -565  -610  -676  -767  -852  -906  -932  -928  -852  -704  -661  -933  -1420  -1657  -1099  546  3099  5903  8101  8964  8204  6116  3403  823  -1092  -2150  -2436  -2201  -1729  -1276  -1013  -936  -927  -906  -867  -819  -755  -678  -621  -611  -647  -716  -795  -872  -937  -968  -926  -791  -610  -483  -446  -449  -452  -460  -468  -463  -447  -417  -363  -280  -173  -62  37  114  187  291  419  516  559  597  703  933  1271  1619  1891  2060  2124  2108  2054  1991  1937  1895  1850  1793  1727  1668  1640  1646  1655  1606  1457  1253  1096  1008  915  772  619  498  388  252  93  -50  -135  -156  -145  -134  -145  -187  -246  -287  -289  -258  -220  -203  -202  -196  -178  -156  -132  -79  41  210  350  434  488  527  547  553  554  552  534  494  452  417  378  349  344  347  348  367  430  528  620  679  706  725  759  802  840  873  896  898  888  899  977  1132  1298  1400  1428  1420  1401  1371  1340  1329  1359  1457  1641  1856  2003  2054  2061  2055  1992  1818  1582  1409  1349  1351  1362  1390  1469  1599  1727  1805  1831  1819  1771  1721  1684  1536  1219  1049  1386  2269  3642  5409  7266  8794  9566  9247  7815  5635  3290  1439  567  646  1229  1819  2120  2135  2039  1959  1935  1945  1951  1918  1838  1780  1843  2029  2231  2367  2435  2470  2506  2556  2604  2642  2708  2830  2968  3030  2974  2856  2762  2723  2713  2717  2766  2897  3072  3196  3233  3231  3254  3337  3498  3746  4030  4248  4364  4438  4529  4631  4709  4750  4768  4774  4776  4778  4782  4784  4773  4745  4685  4559  4351  4109  3906  3737  3534  3290  3064  2887  2727  2550  2377  2260  2195  2094  1874  1585  1377  1312  1324  1329  1286  1213  1154  1136  1171  1258  1362  1415  1369  1222  1020  836  721  669  646  639  646  652  622  524  383  259  177  117  61  2  -87  -247  -457  -643  -762  -829  -893  -993  -1126  -1269  -1408  -1545  -1669  -1781  -1909  -2067  -2240  -2428  -2655  -2924  -3208  -3448  -3588  -3635  -3648  -3681  -3777  -3993  -4325  -4655  -4846  -4879  -4831  -4793  -4873  -5164  -5618  -6081  -6463  -6749  -6938  -7094  -7325  -7668  -8053  -8383  -8635  -8918  -9365  -9936  -10430  -10697  -10755  -10762  -10950  -11475  -12199  -12797  -13125  -13283  -13393  -13472  -13358  -12762  -11563  -9973  -8301  -6679]
