reading_id,reading_time,wire_id,result_classification,heart_rate,heart_rate_alert,firmware_version,device_app_version,hardware_version,waveform_samples
10aa4b30-5805-11ed-8080-808080808080,Sun Oct 30 03:43:49 UTC 2022,e101e3752439,UNREADABLE,0,NONE,20001.171.50,2.10.0,Charge 5,[883  1577  2041  2217  2186  2015  1715  1319  928  628  370  14  -507  -1080  -1506  -1687  -1630  -1323  -788  -165  344  571  497  277  48  -150  -325  -525  -794  -1162  -1692  -2374  -3033  -3519  -3914  -4471  -5351  -6336  -7002  -7180  -6998  -6619  -6222  -5972  -5894  -5895  -5934  -6062  -6365  -6874  -7486  -8049  -8546  -9035  -9458  -9696  -9723  -9600  -9407  -9206  -9021  -8855  -8754  -8864  -9368  -10264  -11354  -12446  -13369  -13976  -14289  -14325  -13860  -12725  -11090  -9148  -6914  -4472  -2054  -143  394  -1111  -4306  -7794  -9977  -10063  -8430  -6203  -4479  -3672  -3429  -3074  -2134  -703  608  1293  1334  959  405  -83  -362  -449  -358  4  680  1566  2499  3314  3857  4092  4118  4047  3871  3438  2657  1725  1008  700  825  1397  2296  3189  3835  4260  4664  5315  6323  7412  8185  8560  8732  8857  8973  9068  9128  9166  9217  9239  9056  8497  7713  7114  6946  7209  7816  8566  9203  9585  9687  9557  9310  9000  8525  7858  7219  6825  6634  6391  5870  5158  4590  4365  4464  4859  5505  6254  6955  7511  7816  7797  7496  7075  6698  6355  5948  5363  4434  3138  1795  864  579  832  1273  1546  1528  1339  1116  843  401  -266  -980  -1430  -1544  -1606  -2029  -3085  -4649  -6161  -7019  -7005  -6288  -5322  -4658  -4566  -4938  -5461  -5831  -5950  -5905  -5775  -5604  -5468  -5427  -5431  -5315  -4885  -4107  -3249  -2675  -2520  -2741  -3282  -3944  -4413  -4576  -4557  -4486  -4433  -4495  -4806  -5364  -5924  -6213  -6179  -5944  -5596  -5145  -4650  -4261  -4072  -4042  -4080  -4116  -4056  -3748  -3129  -2389  -1816  -1456  -1168  -899  -719  -688  -760  -842  -957  -1205  -1558  -1826  -1868  -1829  -2078  -2654  -2962  -2442  -1077  952  3333  5486  6870  7128  5978  3467  303  -2417  -3877  -3948  -3192  -2510  -2508  -3035  -3478  -3389  -2698  -1705  -890  -467  -310  -261  -246  -234  -237  -318  -541  -872  -1186  -1388  -1489  -1499  -1297  -747  5  585  826  885  920  889  754  654  752  1010  1253  1360  1359  1346  1329  1261  1183  1180  1260  1396  1548  1674  1780  1888  1983  2047  2083  2105  2117  2099  2043  1968  1879  1756  1601  1444  1320  1265  1298  1401  1526  1621  1670  1666  1490  957  123  -681  -1276  -1790  -2341  -2861  -3262  -3529  -3678  -3736  -3707  -3569  -3323  -3028  -2785  -2649  -2581  -2518  -2483  -2513  -2583  -2642  -2640  -2565  -2494  -2452  -2251  -1684  -872  -203  99  99  -66  -341  -746  -1248  -1749  -2270  -2912  -3596  -4101  -4363  -4489  -4488  -4125  -3214  -2076  -1166  -495  53  472  870  1368  1820  1975  1673  802  -454  -1469  -1847  -1770  -1505  -1154  -780  -401  31  523  1012  1442  1758  1941  2097  2381  2762  3045  3138  3122  3105  3136  3231  3456  3974  4881  5934  6683  6928  6770  6351  5826  5328  4847  4351  3948  3742  3659  3497  3122  2626  2208  1942  1783  1713  1781  2025  2385  2725  2915  3013  3436  4611  6412  8264  9573  9841  8816  6740  4213  1723  -372  -1625  -1890  -1639  -1370  -1152  -829  -255  598  1621  2758  4057  5334  6191  6481  6309  5711  4726  3544  2424  1620  1243  1131  890  187  -821  -1582  -1707  -1181  -244  709  1364  1590  1209  61  -1473  -2592  -2927  -2716  -2272  -1724  -1134  -632  -356  -291  -312  -344  -406  -550  -811  -1159  -1508  -1776  -1901  -1824  -1526  -1126  -838  -749  -784  -842  -833  -646  -227  272  523  274  -332  -723  -499  67  644  1386  2549  4009  5092  4902  3046  84  -2506  -3137  -1501  1171  3386  4381  4209  3414  2502  1705  1086  602  164  -237  -554  -794  -1102  -1705  -2739  -4022  -5142  -5929  -6589  -7321  -8067  -8623  -8894  -8968  -8931  -8624  -7679  -5966  -3961  -2381  -1556  -1338  -1444  -1711  -2117  -2660  -3230  -3640  -3827  -3883  -3868  -3769  -3601  -3419  -3242  -3015  -2663  -2207  -1755  -1354  -953  -543  -185  94  428  1001  1732  2242  2199  1557  636  -108  -560  -892  -1135  -1201  -1134  -1050  -982  -905  -790  -643  -549  -660  -1073  -1640  -2056  -2191  -2150  -2062  -2008  -2110  -2495  -3106  -3611  -3480  -2157  317  2909  4501  4916  4469  3271  1504  -272  -1508  -2044  -2055  -1788  -1410  -1037  -757  -609  -569  -573  -580  -599  -668  -808  -1001  -1215  -1395  -1502  -1559  -1605  -1625  -1586  -1502  -1429  -1387  -1269  -923  -361  209  600  777  841  927  1099  1345  1633  1942  2254  2555  2822  3053  3273  3475  3586  3502  3079  2164  816  -588  -1673  -2327  -2645  -2762  -2727  -2440  -1808  -1002  -361  18  473  1381  2563  3431  3739  3737  3695  3682  3685  3719  3849  4119  4505  4981  5546  6102  6418  6402  6255  6196  6279  6502  6840  7299  7932  8508  8367  6938  4216  736  -2480  -4122  -3539  -1453  796  2348  2962  2841  2500  2366  2519  2861  3233  3474  3535  3441  3181  2723  2143  1640  1333  1187  1139  1161  1238  1337  1280  668  -735  -2444  -3598  -3898  -3682  -3359  -3147  -3118  -3307  -3721  -4245  -4690  -4962  -5081  -5088  -4939  -4538  -3921  -3290  -2815  -2509  -2236  -1861  -1424  -1081  -920  -967  -1314  -1998  -2807  -3413  -3688  -3734  -3638  -3321  -2688  -1877  -1233  -999  -1167  -1563  -1975  -2247  -2324  -2180  -1823  -1385  -1064  -957  -1100  -1571  -2378  -3288  -3945  -4163  -4018  -3712  -3419  -3231  -3230  -3528  -4110  -4732  -5129  -5258  -5243  -5199  -5164  -5127  -5166  -5522  -6327  -7181  -7385  -6583  -4768  -2299  42  1763  2922  3390  2823  1263  -942  -3241  -4730  -4671  -3271  -1506  -238  243  132  -159  -321  -237  106  578  952  1146  1261  1338  1271  1004  642  310  62  -102  -232  -394  -622  -918  -1210  -1396  -1454  -1433  -1344  -1155  -843  -453  -78  227  463  635  764  879  911  685  116  -646  -1366  -1864  -2026  -1856  -1534  -1261  -1076  -903  -680  -371  5  380  666  805  790  654  470  308  165  -5  -191  -337  -418  -434  -346  -114  191  424  516  496  388  207  17  -92  -95  -24  6  -261  -1072  -2230  -3165  -3459  -2874  -1293  807  2571  3726  4625  5566  6532  7289  7657  7702  7599  7450  7299  7234  7451  8116  9064  9878  10351  10614  10910  11346  11797  12077  12165  12150  12078  11955  11803  11654  11538  11350  10659  9043  6753  4621  3277  2752  2713  2855  3064  3285  3415  3366  3120  2710  2243  1871  1659  1567  1563  1709  2087  2632  3185  3663  4018  4166  4066  3761  3258  2520  1652  890  285  -311  -1018  -1900  -3062  -4541  -6113  -7371  -8015  -8056  -7717  -7265  -6904  -6684  -6548  -6468  -6423  -6367  -6279  -6172  -6061  -5965  -5907  -5881  -5851  -5806  -5781  -5825  -5944  -6091  -6213  -6298  -6347  -6318  -6160  -5870  -5497  -5146  -4929  -4872  -4922  -5023  -5069  -4765  -3750  -2100  -552  148  132  317  1468  3707  6669  9556  11425  11595  9811  6520  2852  -57  -1579  -1681  -994  -359  -86  24  196  466  745  958  1052  878  240  -847  -2110  -3248  -4078  -4573  -4818  -4866  -4717  -4405  -3926  -3235  -2465  -1875  -1531  -1378  -1435  -1639  -1814  -1931  -2164  -2632  -3233  -3788  -4202  -4397  -4227  -3601  -2750  -2123  -1930  -2059  -2355  -2682  -2922  -3025  -2989  -2812  -2521  -2177  -1857  -1669  -1735  -2044  -2437  -2769  -3004  -3191  -3390  -3566  -3619  -3543  -3455  -3431  -3416  -3279  -2955  -2639  -2669  -3112  -3714  -4231  -4573  -4733  -4732  -4599  -4346  -3971  -3540  -3189  -3007  -2964  -2985  -3012  -3027  -3044  -3082  -3133  -3161  -3044  -2522  -1424  82  1650  2971  3910  4761  6048  7769  9265  9880  9231  7314  4713  2266  558  -390  -998  -1276  -864  55  930  1506  1798  1878  1824  1680  1498  1372  1405  1644  2012  2323  2442  2341  2063  1726  1445  1173  768  278  -71  -196  -287  -632  -1333  -2184  -2861  -3183  -3189  -2984  -2524  -1698  -703  -15  84  -309  -893  -1376  -1688  -1932  -2137  -2245  -2247  -2158  -1958  -1672  -1396  -1201  -1119  -1124  -1125  -1058  -942  -852  -871  -991  -1103  -1125  -1059  -957  -857  -735  -552  -332  -148  -51  -31  -45  -59  -58  -32  34  160  318  372  222  -3  -60  199  769  1648  2877  4222  5208  5687  5970  6427  7052  7453  7326  6811  6443  6881  8388  10467  12195  12820  11973  9766  6913  4373  2773  2221  2318  2331  1839  1146  724  688  931  1311  1657  1851  1893  1819  1621  1253  727  207  -113  -224  -269  -353  -477  -577  -566  -322  347  1540  2912  3886  4309  4460  4564  4683  4822  4936  4995  5037  5093  5152  5098  4599  3328  1507  -156  -1202  -1716  -2039  -2429  -2871  -3176  -3262  -3184  -2871  -2171  -1254  -535  -154  105  439  802  1044  1085  901  462  -227  -1018  -1648  -1963  -2012  -1876  -1578  -1208  -919  -750  -626  -512  -442  -456  -570  -789  -1096  -1431  -1706  -1898  -2059  -2203  -2249  -2251  -2470  -2950  -3368  -3479  -3317  -3035  -2718  -2341  -1936  -1646  -1543  -1595  -1810  -2224  -2747  -3188  -3456  -3574  -3580  -3532  -3482  -3428  -3400  -3410  -3364  -3238  -3118  -2918  -2332  -1262  -115  597  795  740  651  589  552  538  551  593  623  508  92  -587  -1248  -1631  -1670  -1341  -639  229  939  1292  1265  957  534  161  -59  -134  -139  -82  137  608  1215  1682  1846  1734  1442  1102  848  730  707  752  907  1214  1601  1913  2050  2018  1885  1745  1662  1661  1739  1874  2018  2107  2089  1964  1795  1667  1584  1459  1242  990  788  631  446  213  9  -91  -84  2  151  337  476  396  -90  -967  -1916  -2568  -2765  -2538  -2039  -1475  -952  -500  -297  -395  -391  101  1230  3017  4955  6153  6107  4665  1954  -1219  -3861  -5547  -6191  -5938  -5419  -5205  -5244  -5233  -5113  -5004  -4968  -4981  -5031  -5123  -5242  -5320  -5255  -4946  -4351  -3464  -2275  -955  84  578  581  241  -265  -704  -938  -1008  -1006  -980  -937  -875  -787  -662  -536  -454  -325  43  690  1441  2189  2974  3774  4457  4929  5229  5435  5558  5579  5537  5540  5689  6010  6449  6932  7363  7620  7636  7435  7097  6690  6238  5810  5512  5319  5108  4823  4500  4174  3824  3450  3128  2945  2936  3078  3340  3700  4085  4338  4323  4169  4322  5071  6128  6929  7149  6871  6405  5927  5283  4185  2663  1186  174  -346  -568  -749  -1084  -1445  -1478  -1075  -486  -11  144  -111  -678  -1262  -1631  -1834  -2064  -2390  -2727  -3006  -3253  -3487  -3667  -3784  -3889  -4006  -4095  -4103  -4024  -3914  -3848  -3839  -3848  -3848  -3835  -3764  -3517  -2992  -2288  -1698  -1427  -1490  -1840  -2361  -2853  -3229  -3614  -4119  -4636  -4969  -5074  -5019  -4830  -4481  -3971  -3423  -3035  -2877  -2879  -2997  -3257  -3619  -3935  -4107  -4184  -4272  -4415  -4588  -4769  -4938  -5029  -4993  -4875  -4709  -4415  -3900  -3261  -2741  -2449  -2294  -2156  -2000  -1829  -1512  -772  540  2205  3705  4573  4677  4091  2936  1486  194  -629  -1071  -1368  -1585  -1696  -1721  -1661  -1469  -1160  -864  -720  -800  -1126  -1664  -2246  -2654  -2821  -2849  -2820  -2685  -2359  -1913  -1509  -1163  -749  -217  357  915  1464  1974  2345  2507  2481  2343  2205  2153  2172  2204  2198  2171  2351  2880  3254  2529  95  -3824  -7981  -10591  -10774  -9599  -9187  -10588  -12920  -14431  -13783  -10635  -6005  -1801  801  2067  2733  3152  3360  3405  3406  3434  3484  3503  3416  3171  2849  2615  2535  2544  2582  2646  2758  2924  3098  3186  3130  2934  2632  2282  1993  1844  1820  1882  2019  2188  2307  2340  2309  2248  2177  2113  2072  2083  2201  2469  2817  3103  3265  3325  3275  3096  2840  2597  2403  2236  2097  2025  2021  2036  2023  1989  1960  1888  1677  1333  1013  850  826  852  861  828  748  590  297  -122  -518  -725  -726  -637  -566  -527  -469  -352  -151  158  536  869  1088  1199  1176  929  430  -183  -716  -1052  -1189  -1203  -1172  -1121  -1059  -1006  -971  -948  -919  -850  -717  -564  -462  -437  -464  -512  -544  -484  -253  119  505  839  1118  1307  1368  1293  1100  867  706  651  649  651  656  692  787  919  1022  1051  988  827  644  652  987  1422  1581  1459  1492  2185  3687  5647  7446  8457  8277  6991  5029  2844  967  -126  -446  -327  56  618  1124  1366  1308  1017  643  382  301  326  369  372  278  51  -273  -594  -839  -1034  -1245  -1470  -1644  -1683  -1443  -816  10  635  845  708  371  8  -238  -375  -488  -591  -673  -809  -1113  -1572  -2051  -2437  -2695  -2828  -2829  -2631  -2169  -1492  -729  28  670  1038  1066  809  410  53  -155  -252  -301  -325  -309  -179  167  752  1495  2253  2832  3099  3040  2674  2076  1401  785  292  -28  -126  -9  218  417  527  599  741  1020  1370  1650  1756  1583  997  86  -753  -1220  -1389  -1455  -1487  -1488  -1485  -1481  -1422  -1244  -975  -708  -478  -289  -171  -158  -267  -506  -875  -1378  -1959  -2437  -2621  -2531  -2397  -2394  -2484  -2565  -2630  -2704  -2786  -2856  -2824  -2486  -1692  -686  1  21  -579  -1418  -2014  -2188  -2082  -1868  -1633  -1438  -1333  -1309  -1267  -1096  -820  -580  -455  -420  -443  -555  -799  -1108  -1326  -1399  -1413  -1458  -1530  -1576  -1592  -1632  -1752  -1966  -2221  -2510  -2940  -3530  -4081  -4418  -4542  -4454  -4032  -3192  -2056  -958  -216  127  265  375  508  605  608  507  309  66  -120  -200  -194  -136  -42  45  55  -80  -369  -713  -970  -1107  -1174  -1168  -1016  -658  -181  203  373  390  354  291  186  62  -74  -340  -771  -983  -315  1572  4372  7343  9617  10447  9589  7473  4850  2452  829  89  -87  -80  -37  189  710  1269  1526  1443  1199  968  781  554  211  -246  -760  -1253  -1685  -2022  -2215  -2266  -2231  -2144  -2031  -1936  -1896  -1908  -1935  -1946  -1944  -1954  -1997  -2076  -2169  -2247  -2267  -2175  -1919  -1517  -1092  -785  -647  -626  -642  -652  -650  -639  -624  -594  -501  -273  136  676  1173  1457  1525  1510  1509  1522  1625  2110  3178  4474  5355  5592  5426  5119  4753  4262  3613  2957  2483  2217  2035  1787  1383  828  180  -443  -874  -1038  -993  -811  -550  -289  -104  -48  -130  -278  -392  -430  -425  -436  -494  -581  -663  -740  -809  -731  -226  792  1940  2669  2749  2254  1421  635  224  280  720  1306  1716  1764  1475  1024  642  442  365  329  329  424  667  1018  1337  1534  1653  1759  1851  1923  1985  2043  2104  2168  2208  2196  2120  1991  1799  1463  912  203  -509  -1062  -1364  -1446  -1399  -1269  -1100  -947  -821  -661  -373  88  649  1130  1402  1502  1548  1581  1550  1423  1248  1101  999  907  807  706  592  435  250  91  -23  -131  -302  -574  -875  -1058  -1005  -695  -263  70  215  211  97  -83  -250  -350  -462  -735  -1173  -1585  -1811  -1827  -1620  -1183  -664  -304  -190  -220  -262  -216  -9  370  835  1266  1673  2187  2763  3161  3217  2900  2455  2529  3656  5682  7783  9009  8798  7127  4595  2122  318  -643  -804  -392  184  506  347  -267  -1148  -1973  -2449  -2569  -2530  -2484  -2455  -2423  -2436  -2741  -3676  -5165  -6559  -7285  -7344  -7052  -6702  -6461  -6314  -6108  -5710  -5119  -4465  -3877  -3413  -3121  -3036  -3092  -3152  -3130  -3052  -2967  -2881  -2800  -2758  -2775  -2832  -2897  -2959  -2997  -2927  -2627  -2083  -1453  -935  -623  -489  -460  -489  -550  -601  -574  -392  21  676  1400  1947  2271  2485  2624  2638  2491  2215  1917  1693  1554  1461  1373  1261  1072  709  116  -621  -1328  -1845  -2102  -2157  -2126  -2073  -2012  -1980  -2088  -2436  -2928  -3282  -3272  -2871  -2284  -1805  -1514  -1265  -978  -634  -88  766  1680  2255  2389  2254  2012  1736  1474  1280  1195  1222  1363  1641  1999  2250  2159  1591  708  -81  -517  -636  -572  -401  -188  -22  78  215  472  780  1004  1109  1146  1091  800  203  -482  -919  -974  -743  -413  -151  -7  44  5  -132  -322  -489  -595  -666  -744  -830  -888  -881  -806  -692  -572  -434  -245  -37  113  163  84  -150  -477  -727  -752  -473  87  768  1373  1785  1970  1914  1612  1130  615  191  -74  -183  -180  -72  171  527  894  1179  1348  1366  1102  405  -649  -1669  -2274  -2454  -2444  -2380  -2221  -1928  -1585  -1332  -1229  -1246  -1339  -1458  -1546  -1549  -1425  -1168  -731  97  1380  2711  3635  3967  3827  3857  4765  6389  7734  7788  6146  3256  175  -2060  -2938  -2659  -1884  -1092  -359  263  698  1044  1391  1654  1753  1713  1602  1492  1418  1368  1333  1316  1346  1462  1651  1775  1563  808  -260  -1088  -1414  -1404  -1233  -913  -422  227  996  1717  2150  2222  2041  1746  1432  1140  877  623  381  202  129  211  544  1143  1842  2444  2897  3237  3509  3764  4000  4174  4270  4249  3964  3273  2281  1318  676  426  483  732  1039  1259  1334  1288  1136  916  715  573  439  267  95  -6  -20  15  73  143  184  117  -117  -449  -714  -833  -841  -780  -670  -564  -529  -590  -718  -852  -937  -985  -1103  -1415  -1890  -2319  -2529  -2502  -2295  -2012  -1769  -1600  -1479  -1411  -1408  -1406  -1345  -1255  -1193  -1160  -1157  -1222  -1394  -1654  -1921  -2112  -2203  -2221  -2212  -2200  -2185  -2164  -2123  -2044  -1937  -1838  -1762  -1712  -1672  -1616  -1531  -1426  -1333  -1293  -1294  -1271  -1189  -1049  -851  -610  -387  -254  -210  -198  -196  -260  -464  -800  -1155  -1379  -1396  -1274  -1155  -1106  -1100  -1100  -1093  -1074  -1038  -983  -918  -868  -858  -891  -914  -797  -411  158  637  876  977  1067  1155  1210  1232  1216  1122  925  686  498  400  368  371  398  441  458  334  -40  -580  -1045  -1330  -1524  -1698  -1826  -1865  -1826  -1735  -1582  -1370  -1162  -1021  -935  -852  -792  -896  -1207  -1535  -1739  -1787  -1589  -1158  -482  733  2593  4621  6200  6893  6347  4566  2183  14  -1426  -1966  -1788  -1320  -855  -424  -46  182  226  135  -33  -208  -318  -344  -297  -167  51  297  458  493  464  475  619  904  1197  1317  1187  899  649  558  582  628  658  681  695  659  531  335  115  -174  -571  -963  -1187  -1162  -889  -457  -14  345  597  755  966  1479  2361  3299  3885  4043  3980  3872  3794  3806  3942  4146  4308  4383  4389  4334  4212  4057  3900  3692  3344  2877  2382  1818  1055  148  -662  -1196  -1453  -1560  -1642  -1729  -1788  -1795  -1769  -1743  -1749  -1792  -1851  -1913  -1978  -2035  -2057  -1986  -1768  -1454  -1174  -966  -801  -726  -787  -923  -1064  -1215  -1359  -1444  -1425  -1284  -1047  -742  -345  116  510  719  697  399  -145  -719  -1084  -1247  -1379  -1548  -1663  -1640  -1503  -1347  -1246  -1188  -1104  -968  -851  -843  -977  -1227  -1478  -1598  -1587  -1534  -1499  -1494  -1531  -1638  -1817  -2002  -2124  -2177  -2170  -2049  -1749  -1336  -992  -823  -770  -723  -626  -506  -416  -348  -233  -48  137  250  282  285  293  269  126  -146  -425  -594  -672  -726  -758  -683  -425  -57  230  337  310  221  87  -102  -316  -451  -383  -58  392  719  796  670  454  253  133  98  103  100  145  423  904  1135  790  148  -235  71  1219  3035  5085  6856  8027  8427  7786  6006  3577  1237  -439  -1108  -916  -477  -278  -418  -781  -1164  -1419  -1553  -1613  -1606  -1545  -1466  -1373  -1262  -1152  -1071  -1028  -1013  -1011  -1010  -1002  -972  -912  -842  -812  -867  -988  -1143  -1329  -1517  -1647  -1697  -1674  -1564  -1359  -1118  -926  -816  -762  -712  -618  -459  -234  34  322  664  1152  1774  2320  2606  2673  2683  2726  2780  2797  2789  2817  2911  3045  3136  3107  2974  2803  2596  2327  2023  1738  1487  1248  1001  746  502  248  -85  -508  -893  -1113  -1157  -1076  -894  -636  -392  -253  -215  -216  -214  -211  -204  -167  -89  2  90  187  253  230  113  -104  -472  -961  -1424  -1735  -1882  -1941  -1999  -2087  -2167  -2201  -2203  -2201  -2184  -2115  -1982  -1834  -1739  -1721  -1742  -1719  -1565  -1269  -938  -663  -391  -19  406  707  763  575  218  -155  -417  -584  -778  -1074  -1408  -1628  -1604  -1268  -698  -153  132  115  -118  -421  -640  -731  -759  -784  -844  -962  -1116  -1246  -1310  -1328  -1314  -1183  -785  -110  622  1159  1412  1438  1278  875  186  -602  -1153  -1305  -1113  -682  -193  131  205  75  -201  -569  -926  -1162  -1247  -1233  -1185  -1146  -1151  -1208  -1266  -1159  -706  -96  158  -50  -199  256  1541  3542  5719  7310  7831  7208  5697  3782  1963  584  -225  -609  -798  -856  -837  -912  -1098  -1278  -1426  -1566  -1686  -1753  -1708  -1513  -1214  -925  -728  -638  -620  -628  -634  -636  -649  -679  -706  -709  -719  -794  -928  -1044  -1082  -1027  -914  -810  -749  -715  -684  -626  -516  -373  -260  -217  -252  -353  -492  -614  -649  -463  47  715  1197  1356  1329  1273  1258  1308  1441  1656  1889  2046  2095  2069  1994  1859  1676  1500  1333  1065  591  23  -386  -560  -631  -726  -850  -947  -993  -1003  -983  -936  -884  -852  -851  -864  -870  -872  -896  -952  -1031  -1104  -1119  -1002  -712  -341  -77  -46  -249  -594  -924  -1134  -1253  -1377  -1526  -1636  -1676  -1680  -1669  -1609  -1455  -1246  -1086  -1022  -1034  -1119  -1300  -1592  -1964  -2342  -2675  -2989  -3289  -3512  -3613  -3540  -3186  -2551  -1900  -1523  -1444  -1476  -1422  -1185  -841  -559  -400  -319  -273  -193  0  271  469  483  311  42  -237  -506  -706  -749  -672  -580  -506  -447  -401  -359  -327  -341  -446  -643  -849  -961  -947  -837  -675  -475  -248  -71  -44  -167  -374  -646  -962  -1241  -1422  -1519  -1575  -1616  -1645  -1704  -1857  -2079  -2194  -1963  -1280  -362  385  749  825  794  799  1009  1590  2593  4068  6034  8270  10322  11576  11419  9631  6658  3481  1085  -121  -410  -338  -294  -342  -356  -279  -168  -59  44  128  179  165  98  40  1  -65  -178  -312  -419  -469  -471  -452  -439  -469  -579  -745  -859  -773  -401  123  519  609  387  -67  -569  -912  -1017  -941  -771  -576  -380  -176  21  179  292  392  523  664  773  927  1300  1926  2571  2965  3075  3041  2958  2849  2740  2670  2646  2613  2506  2292  2029  1812  1664  1554  1488  1506  1628  1810  1953  1954  1735  1298  785  368  60  -281  -762  -1309  -1773  -2082  -2219  -1999  -1068  574  2272  3324  3656  3635  3529  3359  3094  2812  2626  2564  2607  2773  3077  3477  3890  4216  4401  4483  4502  4381  4013  3470  3003  2751  2578  2231  1647  997  437  9  -222  -129  361  1105  1803  2350  2916  3651  4406  4884  5007  4933  4814  4716  4698  4887  5379  6019  6468  6528  6242  5777  5287  4798  4280  3781  3375  3100  3100  3742  5237  7136  8659  9488  9808  9873  9848  9822  9824  9826  9746  9499  9113  8753  8549  8434  8237  7892  7582  7582  7879  8129  8021  7451  6414  4995  3509  2375  1725  1374  1128  935  790  661  639  1156  2658  4778  6427  6755  5378  2407  -1082  -3686  -4942  -5209  -4633  -3060  -868  1007  1983  1958  917  -848  -2645  -3915  -4541  -4585  -4119  -3319  -2448  -1722  -1341  -1686  -3146  -5433  -7533  -8716  -9100  -9118  -8869  -8098  -6729  -5213  -4117  -3629  -3755  -4691  -6559  -8899  -10843  -11819  -11809  -11018  -9763  -8563  -7798  -7281  -6244  -4000  -1083  1059  1792  1569  852  -209  -1446  -2541  -3247  -3605  -3799  -3905  -3963  -4004  -3928  -3480  -2541  -1380  -397  324  948  1480  1777  1853  1904  2060  2067  1060  -1832  -6110  -9896  -11944  -12693  -13051  -13304  -13385  -13277  -12970  -12462  -11842  -11284  -10949  -10850  -10860  -10857  -10824  -10844  -10972  -11029  -10506  -8970  -6836  -5203  -4811  -5824  -8023  -10499  -12050  -12145  -11065  -9556  -8393  -7774  -7345  -6725  -5636  -3787  -1145  1660  3673  4501  4432  3784  2758  1683  914  547  413  289  82  -134  -252  -241  -158  -111  -259  -709  -1312  -1757  -1925  -1899  -1696  -1204  -393  577  1613  2874  4535  6346  7720  8169  7154  3873  -1786  -8156  -12777  -14660  -14510  -13122  -10772  -7780  -4900  -2963  -2371  -3098  -4295  -4334  -2722  -798  265  585  570  418  314  -440  -3478  -9273  -15841  -19885  -19049  -13449  -5570  1283  4897  5025  3039  595  -1496  -3003  -3805  -4031  -3984  -3795  -3370  -2647  -1810  -1103  -439  475  1632  2665  3296  3489  3295  2765  1876  446  -1766  -4611  -7236  -8779  -9226  -9124  -8781  -8166  -7389  -6838  -6870  -7581  -8697  -9676  -9877  -8473  -4814  586  6273  11208  14946  17164  17872  17023  14136  9290  3379  -2513  -6831  -8221  -6947  -4234  -1363  -85  -1952  -6665  -12195  -15903  -15137  -9196  -912  5948  9828  11290  11594  11648  11822  12272  12898  13404  13650  13715  13737  13879  14269  14880  15538  16276  17461  19125  20631  21436  21655  21666  21643  21516  21135  20489  19787  19183  18503  17570  16619  16032  15853  15892  16087  16514  17120  17706  18167  18557  18900  18992  18391  16860  14697  12438  10471  8805  7092  5359  4093  3126  1586  -1313  -5842  -11254  -16001  -18662  -18798  -17450  -16182  -15663  -15680  -15765  -15642  -15386  -15227  -15514  -16604  -18313  -19860  -20707  -20939  -20643  -19529  -17536  -15415  -14059  -13542  -13365  -13211  -13078  -13117  -13559  -14481  -15592  -16432  -16787  -16690  -16111  -14843  -12783  -10167  -7360  -4617  -1980  613  2917  4506  5431  6080  6601  6912  6988  6824  6237  5041  3478  2129  1416  1461  2160  3252  4402  5256  5661  5819  6005  6231  6425  6899  8165  10057  11663  12395  12432  12144  11699  11213  10815  10496  10076  9368  8324  7122  6111  5512  5266  5187  5126  5034  4895  4603  4006  2980  1445  -477  -2294  -3467  -3920  -3996  -4076  -4489  -5432  -6653  -7579  -7970  -8070  -8133  -8173  -8111  -7909  -7532  -6903  -6059  -5258  -4775  -4722  -5216  -6382  -7892  -8948  -8888  -7590  -5616  -3855  -2668  -1516  797  5328  11794  18651  24433  28416  30575  31463  31736  31557  30454  28017  24775  21890  19993  18874  18085  17355  16535  15392  13626  11311  8986  7121  5763  4675  3440  1494  -1346  -4355  -6521  -7555  -7891  -8062  -8366  -8596  -7853  -5530  -2470  -163  657  199  -715  -1133  -632  238  95  -2646  -8824  -17326  -25049  -28910  -27762  -22846  -16924  -12132  -8818  -6398  -4184  -1882  84  1216  1678  1950  2146  2177  2196  2373  2599  2640  2310  1581  725  122  -114  -92  153  655  1266  1665  1586  983  148  -454  -609  -426  -97  225  464  578  458  0  -745  -1704  -2985  -4649  -6323  -7443  -7842  -7820  -7709  -7642  -7622  -7621  -7602  -7483  -7178  -6743  -6321  -5956  -5646  -5457  -5439  -5572  -5778  -5929  -5848  -5390  -4591  -3677  -2893  -2330  -1835  -1214  -510  47  368  607  827  863  699  478  334  452  590  -279  -3321  -9225  -17330  -24677  -27922  -26166  -20521  -13133  -6954  -3716  -2716  -2417  -1934  -1173  -417  168  605  968  1415  2048  2699  3111  3189  2924  2292  1386  499  -83  -361  -544  -787  -1151  -1674  -2283  -2804  -3103  -3123  -2882  -2401  -1628  -556  548  1256  1385  1084  619  294  458  1386  2941  4580  5827  6533  6740  6399  5344  3742  2268  1494  1428  1810  2408  3006  3455  3740  3863  3747  3363  2882  2543  2410  2401  2443  2512  2552  2384  1776  672  -732  -2094  -3077  -3544  -3625  -3521  -3326  -3027  -2615  -2205  -1979  -1928  -1779  -1199  -145  970  1662  1843  1722  1473  1204  1042  1103  1431  1909  2353  2752  3258  3920  4602  5172  5631  6000  6250  6348  6233  5801  5085  4361  3916  3780  3807  3857  3868  3823  3721  3587  3461  3344  3199  2958  2521  1888  1252  839  695  708  757  776  718  548  271  -41  -307  -522  -765  -1079  -1380  -1557  -1575  -1435  -1155  -832  -567  -328  -40  259  457  523  546  682  1090  1764  2471  2950  3149  3171  3114  3017  2916  2852  2834  2844  2865  2878  2840  2699  2472  2262  2163  2221  2448  2760  2980  2975  2732  2374  2079  1894  1717  1504  1350  1362  1560  1843  2054  2121  2065  1911  1692  1479  1345  1334  1458  1684  1879  1874  1683  1467  1250  924  522  235  170  276  445  576  620  593  566  655  955  1388  1752  1982  2188  2441  2680  2862  3045  3252  3396  3396  3281  3140  3024  2905  2740  2512  2239  1981  1825  1807  1874  1937  1976  2036  2157  2320  2454  2501  2498  2506  2566  2868  3745  5301  7106  8487  9124  9072  8330  6858  4932  3085  1694  781  223  -57  -140  -120  -34  123  299  380  296  96  -110  -248  -295  -194  137  652  1156  1576  2042  2625  3227  3789  4336  4811  5121  5271  5328  5298  5070  4533  3830  3324  3208  3391  3675  3858  3768  3337  2735  2275  2105  2171  2409  2761  3150  3482  3426  2253  -663  -5013  -9569  -13157  -15353  -16427  -17102  -17888  -18382  -17956  -16734  -15287  -14058  -13430  -13768  -15117  -17378  -20764  -25034  -28848  -30939  -30873  -28522  -24199  -18978  -13952  -9495  -5816  -3428  -2395  -2072  -1912  -1856  -2076  -2653  -3452  -4178  -4585  -4625  -4373  -3945  -3526  -3267  -3167  -3167  -3283  -3601  -4204  -5038  -5839  -6353  -6573  -6646  -6691  -6745  -6803  -6864  -6945  -7125  -7566  -8340  -9309  -10248  -10969  -11363  -11453  -11323  -11034  -10686  -10409  -10206  -9984  -9727  -9543  -9499  -9504  -9415  -9215  -9058  -9097  -9223  -9097  -8561  -7878  -7395  -7084  -6678  -6188  -5981  -6304  -6931  -7429  -7622  -7629  -7559  -7405  -7174  -6994  -7012  -7310  -7920  -8665  -9192  -9364  -9344  -9304  -9281  -9250  -9219  -9083  -8347  -6447  -3594  -838  1058  2310  3438  4552  5522  6416  7590  9309  11205  12511  12936  12831  12679  12870  13602  14617  15383  15707  15811  15900  16002  16136  16456  17122  18029  18825  19248  19356  19360  19358  19288  19083  18812  18621  18553  18550  18573  18652  18844  19175  19589  19956  20179  20308  20584  21285  22478  24025  25652  26966  27695  27892  27704  27159  26314  25280  24095  22886  21904  21254  20832  20486  20109  19616  18905  17981  17111  16601  16449  16430  16366  16065  14954  12303  8241  3912  393  -1923  -3288  -4273  -5257  -6253  -7162  -7967  -8726  -9549  -10709  -12443  -14361  -15669  -16139  -16123  -15745  -14756  -13123  -11334  -9947  -9096  -8560  -8155  -7876  -7745  -7696  -7570  -7185  -6488  -5707  -5214  -5216  -5749  -6806  -8140  -9223  -9715  -9682  -9297  -8654  -7753  -6515  -4982  -3480  -2386  -1771  -1371  -762  423  2176  3995  5403  6363  6999  7398  7748  8223  8812  9450  10091  10647  11093  11534  12059  12634  13159  13535  13739  13881  14094  14390  14664  14775  14514  13689  12496  11487  10911  10537  10165  9855  9698  9680  9721  9804  10079  10718  11622  12434  12906  13109  13277  13535  13843  14111  14334  14657  15231  15937  16459  16668  16694  16676  16637  16510  16262  15961  15710  15548  15461  15432  15473  15639  16287  18230  21651  25324  27834  28634  27721  25213  21139  15315  7931  -386  -9420  -18407  -25325  -29184  -31150  -32768  -32768  -32768  -32768  -32768  -32768  -32768  -32768  -32768  -32768  -32768  -32768  -32768  -32768  -32768  -32768  -32768  -32431  -31804  -31164  -30282  -29224  -28378  -27957  -27821  -27711  -27465  -27080  -26616  -26040  -25250  -24273  -23318  -22600  -22191  -22029  -21946  -21759  -21382  -20844  -20229  -19672  -19281  -19060  -18934  -18814  -18614  -18256  -17732  -17120  -16526  -15960  -15338  -14684  -14155  -13810  -13559  -13325  -13052  -12611  -11752  -10248  -8239  -6321  -5077  -4616  -4653  -4866  -4991  -4645  -3471  -1753  -352  228  201  -30  -153  228  1423  3066  4289  4677  4435  3816  2972  2090  1242  269  -822  -1677  -2052  -2023  -1708  -1179  -557  63  652  1102  1257  1116  781  321  -172  -562  -784  -867  -879  -876  -863  -800  -645  -402  -147  25  109  175  267  358  413  490  800  1513  2482  3370  3992  4341  4470  4465  4406  4338  4331  4466  4745  5054  5256  5306  5270  5197  5021  4619  3951  3143  2460  2106  2050  2129  2201  2128  1771  1147  484  -32  -433  -779  -1011  -1090  -1090  -1071  -929  -494  204  926  1502  1921  2210  2317  2014  1043  -416  -1764  -2683  -3342  -3882  -4226  -4348  -4362  -4359  -4379  -4486  -4750  -5144  -5541  -5833  -6033  -6234  -6430  -6289  -5166  -2606  1019  4506  6727  7591  7813  8028  8513  9350  10426  11400  11943  11848  10915  9228  7488  6451  6188  6323  6610  7001  7460  7936  8379  8765  9111  9424  9653  9762  9765  9657  9383  8915  8365  7947  7770  7785  7938  8255  8757  9383  9997  10478  10767  10834  10711  10561  10572  10810  11261  11881  12549  13057  13282  13263  13025  12484  11598  10438  9107  7823  7025  7230  8735  11163  13537  15122  15810  15690  14676  12840  10872  9583  9127  9196  9555  10070  10594  11075  11595  12169  12612  12561  11565  9430  6520  3476  783  -1257  -2422  -2611  -1801  -44  2255  4333  5719  6359  5964  4129  961  -2795  -6105  -8225  -8949  -8642  -8326  -9058  -10803  -12481  -13316  -13480  -13460  -13473  -13512  -13555  -13609  -13653  -13587  -13289  -12737  -12068  -11452  -10995  -10743  -10662  -10700  -10899  -11262  -11444  -10873  -9419  -7631  -6193  -5437  -5438  -6344  -8156  -10192  -11483  -11701  -11200  -10503  -9952  -9423  -8454  -6912  -5260  -4064  -3662  -4456  -6798  -10063  -12731  -13883  -13741  -12892  -11891  -11222  -11003  -11031  -11195  -11706  -12955  -14951  -16960  -18131  -18272  -17685  -16755  -15823  -15088  -14525  -13952  -13260  -12594  -12161  -11929  -11704  -11389  -10925  -10221  -9398  -8820  -8734  -9139  -9895  -10753  -11437  -11824  -11883  -11416  -10262  -8772  -7687  -7491  -7981  -8638  -9387  -10458  -11720  -12785  -13350  -13211  -12470  -11711  -11433  -11468  -11411  -11145  -10685  -10177  -9790  -8821  -5044  3746  16432  28505  32767  32767  32767  32767  32767  32767  32767  32767  32767  32767  32767  32767  32767  32767  32767  32767  32767  32767  32767  32767  32767  32767  32767  32767  32767  32767  32767  32767  32767  32767  31889  21613  12799  7782  5826  5108  4394  3359  2307  1658  1490  1578  1712  1735  1419  590  -594  -1722  -2538  -3048  -3313  -3399  -3456  -3691  -4181  -4781  -5295  -5658  -5892  -6039  -6179  -6443  -7027  -7992  -9027  -9675  -9749  -9325  -8608  -7904  -7452  -7261  -7274  -7587  -8335  -9379  -10366  -11023  -11204  -10860  -10105  -9098  -7760  -5950  -4027  -2694  -2204  -2286  -2692  -3298  -3895  -4243  -4271  -4044  -3678  -3314  -3020  -2791  -2652  -2518  -1899  -154  2631  5472  7520  8780  9710  10552  11100  10841  9302  6687  4017  2364  2038  2311  1901  121  -2365  -4127  -4539  -4394  -5130  -7665  -11229  -13608  -13106  -9824  -5294  -1657  -598  -2131  -4914  -7729  -9926  -11218  -11713  -11767  -11679  -11574  -11481  -11415  -11357  -11201  -10743  -9849  -8711  -7730  -7111  -6801  -6693  -6687  -6713  -6756  -6831  -6895  -6736  -6063  -4885  -3677  -2918  -2655  -2653  -2715  -2780  -2873  -3015  -3167  -3268  -3289  -3225  -3071  -2830  -2561  -2380  -2328  -2303  -2160  -1820  -1386  -1069  -965  -1066  -1446  -2162  -3056  -3840  -4337  -4605  -4868  -5303  -5824  -6170  -6145  -5725  -5091  -4516  -4095  -3747  -3441  -3226  -3129  -3116  -3133  -3148  -3159  -3165  -3167  -3164  -3157  -3135  -3100  -3085  -3125  -3222  -3369  -3532  -3644  -3679  -3673  -3666  -3673  -3679  -3638  -3475  -3144  -2743  -2464  -2351  -2248  -1979  -1497  -886  -285  171  460  674  871  1089  1557  2561  4021  5425  6245  6136  4809  2375  -273  -2088  -2774  -2728  -2392  -2004  -1711  -1594  -1627  -1720  -1811  -1934  -2176  -2553  -2971  -3326  -3563  -3665  -3669  -3507  -2846  -1419  457  2067  3030  3528  3830  4003  4096  4225  4443  4696  4921  5023  4881  4515  4097  3781  3640  3657  3722  3739  3711  3721  3808  3869  3792  3628  3502  3498  3620  3710  3584  3236  2803  2429  2169  1966  1783  1666  1637  1650  1660  1685  1853  2294  2894  3336  3432  3220  2832  2435  2132  1911  1706  1509  1371  1292  1201  1084  1057  1313  1936  2688  3196  3374  3413  3461  3522  3565  3577  3529  3363  3073  2719  2360  2014  1690  1405  1195  1072  1004  972  1026  1270  1751  2316  2722  2866  2742  2322  1678  1028  528  194  48  165  548  1068  1586  2031  2355  2543  2631  2591  2238  1419  319  -605  -1077  -1202  -1248  -1400  -1681  -2027  -2371  -2626  -2685  -2513  -2228  -2019  -1968  -2022  -2124  -2279  -2490  -2710  -2853  -2858  -2705  -2436  -2173  -2020  -1981  -1997  -2018  -2022  -1991  -1916  -1824  -1759  -1725  -1696  -1670  -1658  -1637  -1581  -1559  -1741  -2242  -2920  -3526  -4037  -4627  -5334  -5974  -6394  -6622  -6750  -6820  -6875  -6978  -7128  -7247  -7257  -7119  -6830  -6386  -5786  -5156  -4743  -4687  -4959  -5429  -5905  -6239  -6408  -6481  -6474  -6224  -5461  -4028  -1951  501  2687  3931  3955  2762  588  -1995  -4411  -6232  -7198  -7437  -7361  -7265  -7222  -7215  -7213  -7199  -7174  -7152  -7129  -7095  -7061  -7085  -7268  -7689  -8331  -9031  -9544  -9751  -9754  -9747  -9882  -10194  -10613  -11038  -11390  -11630  -11769  -11837  -11871  -11921  -12027  -12184  -12344  -12456  -12486  -12342  -11922  -11294  -10716  -10406  -10454  -10932  -11802  -12772  -13502  -13821  -13683  -13192  -12668  -12378  -12371  -12553  -12753  -12941  -13563  -15132  -17118  -17739  -14886  -6980  5565  19171  29391  32767  32767  32767  32767  32767  32767  32767  32767  32767  32767  32767  32767  32767  32767  32767  32767  32767  32767  32767  32767  32767  32767  32767  32767  32767  32767  32767  32767  32767  32767  31735  27238  20323  13171  8044  5445  4474  4141  3956  3835  3755  3594  3223  2663  2066  1513  949  347  -193  -525  -642  -681  -747  -839  -922  -1050  -1401  -2123  -3080  -3890  -4329  -4488  -4542  -4539  -4364  -3846  -2990  -2112  -1572  -1421  -1473  -1612  -1832  -2118  -2425  -2676  -2743  -2598  -2414  -2370  -2474  -2602  -2651  -2633  -2609  -2581  -2512  -2458  -2701  -3588  -5010  -6308  -6973  -7096  -7003  -6826  -6526  -6126  -5743  -5478  -5349  -5283  -5178  -5024  -4890  -4804  -4742  -4684  -4640  -4639  -4676  -4678  -4568  -4347  -4093  -3896  -3730  -3468  -3091  -2727  -2497  -2431  -2482  -2564  -2631  -2700  -2810  -3033  -3378  -3669  -3756  -3606  -3084  -2058  -760  353  1053  1385  1330  595  -982  -2838  -4067  -4422  -4329  -4189  -4113  -4054  -3990  -4059  -4569  -5705  -7165  -8335  -8912  -9106  -9207  -9271  -9222  -9055  -8925  -8995  -9165  -9164  -8926  -8648  -8544  -8632  -8765  -8883  -9019  -8861  -7552  -4430  -79  3855  6153  6946  7083  7126  7204  7312  7414  7415  7229  6896  6553  6280  6075  5920  5787  5666  5569  5438  5088  4262  2891  1417  544  752  2077  3881  5164  5471  5093  4533  4152  4039  4086  4178  4243  4172  3818  3172  2466  1956  1694  1606  1621  1690  1763  1749  1497  821  -295  -1468  -2206  -2428  -2381  -2211  -1898  -1510  -1224  -1080  -937  -636  -143  426  896  1172  1289  1274  958  135  -970  -1811  -2186  -2334  -2504  -2810  -3273  -3782  -4162  -4336  -4357  -4307  -4260  -4344  -4752  -5567  -6577  -7399  -7867  -8143  -8388  -8529  -8372  -7784  -6804  -5661  -4620  -3823  -3287  -2949  -2766  -2744  -2803  -2650  -1927  -642  663  1357  1043  -359  -2273  -3686  -4207  -4313  -4538  -4936  -5269  -5431  -5499  -5546  -5558  -5440  -5111  -4667  -4340  -4268  -4452  -4816  -5206  -5456  -5480  -5228  -4686  -3954  -3184  -2370  -1327  40  1432  2294  2295  1526  458  -287  -386  71  751  1277  1483  1412  1125  709  331  144  250  712  1437  2186  2805  3279  3691  4183  4745  5146  5157  4718  3992  3314  2904  2729  2674  2673  2690  2683  2609  2433  2151  1823  1559  1414  1361  1406  1659  2189  2858  3396  3643  3618  3416  3155  2981  3007  3261  3630  3888  3817  3342  2647  2062  1742  1620  1637  1870  2460  3423  4485  5232  5471  5244  4656  3933  3372  3060  2899  2849  2942  3177  3497  3808  4011  4076  4022  3847  3567  3252  2989  2815  2630  2247  1596  806  93  -471  -1035  -1668  -2215  -2631  -3027  -3364  -3456  -3296  -3164  -3262  -3449  -3518  -3480  -3454  -3477  -3493  -3459  -3423  -3497  -3750  -4138  -4539  -4877  -5144  -5177  -4456  -2540  45  2032  2717  2382  1644  995  654  600  809  1306  1954  2501  2915  3297  3570  3653  3673  3728  3778  3800  3807  3796  3740  3614  3397  3034  2493  1890  1381  972  586  262  135  259  536  802  972  1088  1237  1443  1641  1785  1900  1983  1980  1902  1812  1649  1220  489  -255  -690  -799  -782  -771  -719  -458  143  997  1828  2484  3033  3505  3803  3897  3830  3525  2796  1662  508  -257  -574  -631  -591  -464  -211  108  377  545  540  101  -1017  -2601  -4040  -4916  -5281  -5413  -5453  -5356  -5136  -4930  -4797  -4638  -4346  -3955  -3617  -3474  -3594  -3998  -4623  -5306  -5857  -6158  -6223  -6101  -5791  -5336  -4893  -4610  -4502  -4471  -4426  -4336  -4149  -3757  -3135  -2405  -1733  -1232  -848  -333  502  1580  2574  3161  3299  3186  2987  2748  2500  2298  2158  2026  1839  1601  1348  1060  731  486  417  423  373  228  -27  -400  -845  -1273  -1623  -1866  -1987  -1998  -1858  -1341  -218  1250  2409  2955  3131  3266  3570  4176  4997  5789  6443  6975  7318  7431  7446  7608  8043  8506  8474  7586  5942  4084  2722  2200  2174  1830  542  -1525  -3529  -4678  -4765  -4123  -3220  -2333  -1538  -839  -273  89  263  356  450  480  233  -545  -1880  -3347  -4316  -4404  -3512  -1858  -147  911  1220  1060  581  -153  -941  -1538  -1859  -1997  -2060  -1935  -1256  156  1801  2843  2826  1854  504  -476  -800  -709  -500  -307  -172  -96  -62  -44  -28  -31  -79  -205  -454  -798  -1100  -1259  -1326  -1409  -1523  -1594  -1610  -1700  -2046  -2688  -3406  -3760  -3394  -2439  -1488  -980  -704  -75  1336  3484  5568  6433  5551  3259  305  -2508  -4563  -5587  -5709  -5384  -5026  -4815  -4791  -4876  -4897  -4714  -4296  -3670  -2894  -2121  -1569  -1335  -1346  -1454  -1558  -1712  -2052  -2552  -2994  -3226  -3282  -3241  -3127  -2971  -2809  -2627  -2392  -2145  -1970  -1859  -1729  -1580  -1508  -1565  -1701  -1828  -1905  -1931  -1865  -1623  -1204  -739  -354  -55  232  561  936  1320  1623  1785  1845  1854  1835  1817  1815  1818  1817  1815  1829  1873  1934  1981  1999  1991  1962  1904  1801  1622  1370  1112  944  884  881  887  893  919  980  1063  1135  1184  1213  1165  903  368  -257  -684  -823  -774  -646  -505  -390  -284  -131  63  257  467  779  1216  1659  1971  2144  2244  2300  2301  2232  2097  1944  1828  1752  1706  1699  1722  1706  1637  1666  1856  1989  1844  1412  826  419  497  892  1072  653  -371  -1646  -2631  -2929  -2557  -1964  -1634  -1660  -1903  -2275  -2661  -2880  -2863  -2711  -2557  -2453  -2363  -2256  -2144  -2044  -1956  -1879  -1802  -1714  -1613  -1500  -1383  -1270  -1161  -1045  -924  -822  -763  -749  -752  -751  -751  -769  -813  -908  -1088  -1312  -1477  -1539  -1528  -1491  -1458  -1436  -1424  -1440  -1518  -1681  -1884  -1991  -1886  -1617  -1276  -791  91  1602  3672  5844  7468  7982  7168  5288  2986  1002  -169  -471  -240  31  23  -203  -383  -368  -169  102  309  412  470  540  653  878  1324  1971  2578  2910  2954  2809  2538  2189  1853  1635  1558  1558  1569  1565  1547  1529  1521  1530  1563  1632  1748  1892  2040  2186  2330  2440  2465  2415  2350  2311  2305  2359  2501  2693  2828  2820  2660  2432  2272  2266  2400  2587  2724  2800  2864  2917  2924  2904  2901  2916  2879  2695  2356  1990  1730  1599  1540  1484  1395  1294  1230  1228  1279  1355  1417  1436  1381  1231  1034  893  856  897  977  1070  1173  1283  1345  1287  1079  746  379  110  -4  11  130  327  528  656  709  730  733  658  411  -12  -448  -720  -808  -805  -788  -782  -778  -755  -699  -625  -576  -560  -531  -412  -160  153  410  608  844  1119  1325  1314  929  163  -671  -1192  -1340  -1318  -1271  -1212  -1131  -1079  -1091  -1103  -1045  -952  -883  -830  -773  -698  -590  -451  -288  -129  -7  78  154  228  331  498  686  818  886  930  945  824  419  -259  -959  -1420  -1621  -1715  -1828  -1996  -2204  -2422  -2604  -2714  -2763  -2784  -2784  -2743  -2662  -2551  -2400  -2222  -2123  -2208  -2417  -2489  -2091  -976  871  3134  5224  6488  6459  5044  2545  -338  -2689  -3911  -4129  -3908  -3620  -3338  -3128  -3058  -3101  -3189  -3274  -3329  -3379  -3475  -3633  -3796  -3903  -3953  -3996  -4062  -4095  -3891  -3203  -1938  -258  1454  2798  3683  4320  4842  5183  5248  4979  4348  3465  2625  1962  1126  -324  -2200  -3754  -4500  -4570  -4313  -3939  -3537  -3169  -2940  -2952  -3156  -3368  -3476  -3490  -3405  -3188  -2895  -2671  -2596  -2674  -2914  -3292  -3690  -3975  -4140  -4262  -4388  -4501  -4481  -4096  -3154  -1755  -363  527  826  820  787  774  647  281  -231  -713  -1184  -1738  -2283  -2670  -2867  -2930  -2932  -2930  -2942  -2960  -2968  -2948  -2889  -2808  -2734  -2657  -2553  -2466  -2574  -3130  -4216  -5528  -6567  -7052  -7059  -6792  -6432  -6132  -5992  -6081  -6496  -7309  -8474  -9761  -10785  -11304  -11415  -11298  -10969  -10398  -9700  -9101  -8756  -8696  -8958  -9596  -10465  -11201  -11560  -11587  -11421  -11159  -10903  -10795  -10964  -11429  -12015  -12472  -12731  -12899  -13056  -13188  -13283  -13358  -13437  -13525  -13596  -13613  -13581  -13575  -13702  -14012  -14412  -14765  -15158  -15726  -16070  -15269  -12232  -5921  3544  13927  22407  27587  29494  28965  27180  25020  22822  20757  19167  18277  18000  18183  18586  18899  19013  19000  18917  18753  18483  18145  17795  17440  17098  16880  16986  17599  18609  19551  20041  20102  19949  19729  19478  19166  18765  18324  17958  17765  17763  17912  18142  18356  18410  18054  17078  15705  14545  13992  13956  14208  14602  14938  14887  14200  13066  12155  12025  12635  13699  14999  16082  16235  14882  11914  8031  4515  2176  759  -635  -2586  -4561  -5356  -4396  -2121  397  2055  2551  2334  1824  1255  841  655  552  371  156  20  -189  -874  -2178  -3609  -4472  -4467  -3733  -2724  -2032  -2007  -2602  -3440  -4074  -4370  -4457  -4368  -4029  -3511  -3050  -2803  -2786  -3080  -3836  -4936  -5947  -6627  -7142  -7633  -7995  -8178  -8324  -8570  -8928  -9294  -9529  -9573  -9482  -9369  -9326  -9358  -9407  -9431  -9435  -9431  -9414  -9377  -9306  -9122  -8679  -7945  -7111  -6370  -5665  -4886  -4175  -3783  -3773  -4033  -4377  -4618  -4697  -4673  -4623  -4634  -4801  -5131  -5461  -5647  -5764  -5929  -6197  -6859  -8237  -9956  -11144  -11395  -10984  -10400  -10009  -9892  -9915  -9967  -10029  -10106  -10183  -10261  -10359  -10443  -10329  -9750  -8599  -6962  -4913  -2639  -642  622  1213  1432  1409  1248  1145  1175  1249  1295  1359  1517  1749  1950  2055  2119  2292  2678  3169  3528  3614  3426  3108  2988  3564  5216  7679  10189  12211  13515  13933  13395  11800  9018  5442  2289  818  1022  1513  1087  0  -756  -691  151  1597  3561  6053  8733  10995  12663  13876  14613  14711  13890  11959  9349  6881  4822  2895  1198  214  -21  -65  -437  -1212  -2188  -3260  -4486  -5790  -6777  -7125  -7006  -6605  -5369  -2606  953  3495  4223  3802  3139  2741  2775  3195  3774  4219  4397  4291  3854  3347  3550  4828  6315  6907  6417  5528  5248  6044  7383  8204  7477  4898  1559  -907  -1751  -1231  -541  -1316  -3834  -6671  -8573  -9443  -9722  -9732  -9566  -9202  -8683  -8118  -7485  -6532  -4925  -2561  206  2695  4315  4974  5064  4980  4794  4315  3272  1648  15  -743  -151  1580  3900  6320  8481  10099  11106  11654  11899  11945  11920  11911  11896  11840  11769  11625  11072  9754  7907  6290  5386  4967  4346  3030  1344  81  -452  -539  -487  -422  -454  -979  -2538  -5209  -8475  -11477  -13222  -12932  -10465  -6812  -3711  -2110  -1678  -1731  -1954  -2410  -3198  -4202  -5064  -5387  -5109  -4571  -4205  -4271  -4905  -6189  -7765  -8903  -9315  -9291  -9016  -8332  -7170  -5906  -5040  -4702  -4736  -5078  -5826  -7013  -8385  -9474  -10014  -10087  -9785  -9048  -7956  -6917  -6317  -6168  -6242  -6386  -6579  -6797  -6923  -6777  -6249  -5444  -4624  -3979  -3559  -3347  -3357  -3735  -4694  -6480  -9390  -13171  -16608  -18617  -19134  -18478  -17065  -15591  -14310  -12669  -9909  -5866  -1645  1141  1775  201  -3237  -7553  -11835  -15227  -16237  -14080  -10064  -6345  -4154  -3381  -3185  -2957  -2639  -2231  -1433  -43  1528  2612  3002  2998  3041  3493  4459  5645  6698  7723  9001  10343  11189  11105  9958  8136  6529  5739  5551  5414  5064  4572  4032  3460  2937  2578  2396  2294  2153  1942  1808  2082  3002  4273  5315  6020  6685  7402  8042  8543  8751  7990  5429  1520  -1934  -3787  -4303  -3726  -1818  963  3305  4398  4602  4787  5474  6415  6882  6421  5296  4160  3395  2915  2601  2623  3163  3949  4319  3826  2670  1445  566  96  -83  -83  103  546  1216  2114  3420  5060  6463  7142  7094  6536  5742  5001  4449  4156  4119  3932  3081  1660  117]
