reading_id,reading_time,wire_id,result_classification,heart_rate,heart_rate_alert,firmware_version,device_app_version,hardware_version,waveform_samples
1f728700-54d5-11ed-8080-808080808080,Wed Oct 26 02:23:05 UTC 2022,e101e3752439,UNREADABLE,0,NONE,20001.171.50,2.10.0,Charge 5,[7213  7520  7805  7917  7748  7404  7059  6749  6426  6092  5746  5357  4955  4617  4318  3967  3592  3277  2980  2630  2284  2012  1757  1432  1037  639  323  136  60  37  22  -20  -222  -789  -1660  -2344  -2341  -1675  -777  145  1206  2320  3205  3609  3230  2003  325  -1266  -2220  -2162  -1330  -379  321  812  1269  1962  3060  4315  5318  5938  6284  6505  6680  6811  6891  6929  6908  6825  6694  6499  6188  5758  5314  4955  4680  4439  4160  3735  3083  2229  1317  537  -8  -352  -588  -852  -1303  -1990  -2740  -3274  -3478  -3468  -3415  -3467  -3715  -4099  -4434  -4610  -4647  -4599  -4492  -4347  -4245  -4269  -4358  -4414  -4454  -4507  -4543  -4546  -4526  -4488  -4452  -4485  -4678  -5048  -5470  -5803  -6013  -6113  -6058  -5745  -5185  -4628  -4376  -4495  -4787  -5012  -5095  -5104  -5088  -5007  -4798  -4497  -4255  -4176  -4180  -4154  -4123  -4169  -4267  -4319  -4273  -4172  -4078  -4008  -3957  -3932  -3935  -3944  -3911  -3792  -3612  -3443  -3315  -3209  -3104  -2990  -2834  -2628  -2438  -2360  -2437  -2626  -2837  -2996  -3072  -3037  -2882  -2652  -2400  -2150  -1928  -1778  -1725  -1737  -1775  -1853  -1993  -2159  -2270  -2282  -2217  -2103  -1971  -1865  -1817  -1866  -2080  -2422  -2632  -2542  -2350  -2324  -2496  -2603  -2233  -1122  623  2456  3643  3689  2488  451  -1596  -3073  -3846  -3914  -3493  -2979  -2557  -2243  -2055  -1978  -1964  -1988  -2053  -2159  -2268  -2309  -2245  -2114  -2001  -1952  -1949  -1954  -1948  -1923  -1855  -1706  -1503  -1357  -1400  -1693  -2138  -2512  -2653  -2499  -2045  -1439  -941  -702  -697  -812  -940  -1029  -1061  -1065  -1098  -1183  -1281  -1350  -1365  -1288  -1055  -683  -260  175  588  856  898  761  564  413  308  172  -1  -132  -138  27  338  646  759  589  233  -95  -258  -285  -284  -320  -381  -429  -458  -480  -468  -343  -67  221  340  278  152  50  -23  -94  -116  -1  239  489  644  693  693  705  750  799  807  782  773  794  818  816  793  782  829  962  1141  1270  1308  1302  1304  1329  1372  1399  1361  1241  1069  900  782  726  741  864  1104  1379  1574  1652  1627  1485  1228  944  761  755  926  1189  1409  1504  1494  1420  1289  1088  829  585  445  445  550  707  846  870  675  282  -50  66  949  2581  4414  5639  5766  4920  3499  1776  35  -1305  -1926  -1773  -1067  -251  220  249  113  58  85  102  58  -39  -140  -201  -221  -225  -224  -205  -146  -55  38  129  222  298  346  369  339  241  118  6  -88  -145  -148  -119  -91  -31  116  338  546  681  743  757  733  658  527  370  249  215  258  337  472  699  978  1212  1346  1389  1385  1375  1382  1409  1435  1436  1408  1316  1122  890  734  690  673  514  112  -383  -714  -802  -743  -589  -325  -50  34  -128  -408  -653  -790  -820  -793  -754  -724  -706  -709  -771  -920  -1109  -1246  -1281  -1208  -1041  -845  -717  -693  -739  -806  -852  -867  -853  -814  -759  -711  -683  -668  -672  -746  -934  -1187  -1383  -1452  -1382  -1174  -897  -689  -612  -613  -629  -640  -664  -716  -760  -687  -405  1  323  464  470  383  195  -74  -354  -574  -712  -779  -807  -807  -736  -544  -295  -163  -249  -469  -670  -827  -1037  -1245  -1179  -833  -571  -463  -181  544  1828  3525  4986  5435  4559  2612  245  -1724  -2727  -2753  -2203  -1577  -1204  -1051  -904  -726  -591  -485  -373  -280  -244  -258  -285  -298  -297  -290  -277  -243  -189  -156  -241  -515  -891  -1168  -1265  -1259  -1224  -1160  -1066  -976  -908  -843  -777  -730  -703  -692  -694  -692  -658  -561  -388  -154  119  421  724  974  1147  1235  1228  1203  1258  1395  1601  1899  2228  2448  2477  2311  2008  1708  1546  1541  1606  1615  1492  1271  1049  889  810  799  826  865  897  914  914  887  816  713  615  555  533  541  590  695  831  937  996  1028  1008  902  750  633  563  497  447  480  600  717  757  752  761  776  755  712  677  639  563  438  299  202  162  166  202  242  262  260  248  230  188  97  -41  -197  -318  -319  -175  -31  -32  -145  -273  -395  -540  -715  -905  -1121  -1348  -1523  -1605  -1616  -1593  -1555  -1500  -1418  -1405  -1694  -2271  -2579  -2065  -898  230  989  1607  2303  2991  3326  2818  1256  -841  -2469  -3024  -2716  -2071  -1454  -1032  -823  -744  -720  -723  -744  -755  -698  -521  -278  -100  -59  -119  -207  -265  -273  -241  -197  -168  -166  -182  -192  -143  6  211  358  405  401  418  494  623  752  823  815  760  726  759  856  993  1148  1322  1552  1816  2004  2054  2003  1917  1838  1792  1801  1880  2000  2097  2131  2116  2092  2089  2114  2150  2146  2042  1815  1546  1366  1321  1349  1358  1263  1034  757  562  485  487  543  667  853  1041  1153  1148  1039  886  774  749  808  905  963  941  887  861  857  825  729  596  495  457  465  510  606  762  950  1101  1183  1221  1248  1266  1276  1287  1303  1320  1335  1342  1338  1338  1392  1543  1744  1888  1920  1864  1732  1501  1224  1023  924  845  746  653  545  369  153  -21  -123  -155  -124  -96  -215  -640  -1357  -1961  -1839  -847  339  886  605  -3  -73  990  2772  4088  4050  2636  481  -1485  -2544  -2692  -2456  -2190  -1891  -1578  -1395  -1375  -1399  -1342  -1171  -963  -829  -799  -814  -799  -712  -581  -473  -427  -416  -376  -260  -124  -127  -373  -725  -884  -718  -449  -392  -579  -784  -837  -743  -596  -492  -453  -437  -414  -382  -348  -312  -286  -289  -319  -340  -340  -363  -426  -483  -491  -462  -437  -441  -455  -451  -432  -435  -473  -503  -475  -404  -344  -321  -347  -470  -743  -1101  -1354  -1347  -1071  -680  -402  -362  -525  -771  -962  -1035  -992  -854  -676  -543  -486  -494  -569  -678  -710  -576  -333  -120  3  83  161  199  154  65  -15  -79  -110  -64  79  267  406  453  424  334  214  135  195  445  792  1056  1173  1215  1245  1254  1219  1153  1087  1032  997  1005  1083  1228  1389  1499  1532  1489  1387  1268  1192  1185  1242  1329  1386  1335  1131  837  576  387  235  120  74  112  236  458  756  1026  1241  1558  2121  2881  3704  4462  4936  4867  4318  3461  2159  445  -1160  -2081  -1991  -958  433  1356  1391  846  304  41  -1  51  126  161  102  -56  -248  -388  -443  -444  -421  -366  -257  -113  -21  -117  -483  -987  -1354  -1457  -1383  -1262  -1174  -1144  -1173  -1261  -1374  -1454  -1478  -1473  -1472  -1505  -1624  -1874  -2187  -2406  -2452  -2364  -2227  -2140  -2217  -2517  -2932  -3242  -3354  -3337  -3295  -3327  -3487  -3730  -3946  -4086  -4203  -4351  -4541  -4791  -5127  -5500  -5838  -6115  -6314  -6418  -6466  -6571  -6836  -7204  -7475  -7503  -7286  -6927  -6570  -6324  -6260  -6401  -6664  -6907  -7048  -7090  -7076  -7050  -7038  -7007  -6898  -6763  -6740  -6845  -6944  -6937  -6833  -6700  -6590  -6519  -6485  -6482  -6499  -6512  -6464  -6300  -6060  -5868  -5791  -5793  -5791  -5674  -5368  -4971  -4700  -4634  -4637  -4522  -4199  -3662  -2983  -2366  -2011  -1872  -1756  -1537  -1086  -262  746  1460  1683  1626  1547  1587  1794  2082  2290  2354  2336  2323  2362  2476  2678  2952  3213  3367  3387  3265  2956  2456  1925  1671  1879  2454  3261  4329  5732  7311  8577  8932  8048  6181  4039  2418  1921  2538  3570  4276  4394  4098  3719  3504  3558  3872  4297  4611  4733  4724  4601  4329  3968  3690  3649  3963  4641  5416  5912  6000  5813  5553  5383  5379  5530  5753  5934  5988  5834  5402  4790  4265  4009  3972  4017  4076  4147  4222  4275  4298  4314  4329  4315  4248  4151  4076  4044  4043  4077  4159  4253  4241  4003  3584  3183  2932  2781  2638  2481  2336  2232  2199  2230  2254  2219  2155  2123  2138  2159  2126  2033  1936  1873  1848  1857  1905  2024  2231  2465  2632  2690  2638  2483  2282  2132  2070  2070  2131  2280  2475  2607  2607  2480  2252  1962  1672  1442  1284  1152  1001  840  679  504  309  99  -147  -452  -775  -1042  -1200  -1247  -1215  -1124  -985  -827  -694  -607  -551  -512  -508  -615  -905  -1300  -1568  -1465  -901  -114  454  565  292  -146  -534  -782  -954  -1128  -1297  -1415  -1523  -1709  -1938  -2075  -2087  -2053  -2045  -2089  -2189  -2338  -2517  -2663  -2691  -2554  -2268  -1927  -1683  -1661  -1932  -2411  -2746  -2706  -2444  -2112  -1723  -1241  -372  1205  3178  4703  5158  4387  2548  223  -1695  -2640  -2668  -2102  -1345  -891  -901  -1082  -1172  -1166  -1146  -1171  -1270  -1410  -1500  -1425  -1116  -684  -373  -326  -517  -804  -996  -916  -497  91  523  608  373  -38  -423  -633  -656  -539  -318  -57  137  174  6  -359  -799  -1088  -1022  -555  97  589  775  761  670  533  357  197  117  130  186  223  220  209  226  254  240  163  81  65  83  63  -11  -102  -171  -217  -259  -299  -319  -330  -385  -512  -629  -599  -422  -240  -140  -113  -144  -255  -447  -665  -861  -1011  -1102  -1138  -1135  -1104  -1069  -1054  -1070  -1115  -1204  -1364  -1563  -1701  -1712  -1605  -1448  -1320  -1266  -1306  -1437  -1564  -1586  -1534  -1493  -1471  -1417  -1308  -1189  -1126  -1144  -1218  -1319  -1419  -1473  -1391  -1107  -714  -419  -324  -396  -577  -790  -936  -976  -924  -801  -643  -511  -438  -394  -346  -298  -253  -185  -84  24  110  147  153  191  312  485  620  678  689  676  631  547  452  375  336  392  554  729  822  826  801  827  962  1207  1515  1792  1795  1241  211  -697  -699  686  3246  6040  7950  8324  7132  4812  2157  0  -1191  -1372  -843  -91  467  617  405  99  -92  -148  -95  58  271  460  575  625  628  585  480  304  97  -61  -125  -96  13  162  263  221  -7  -332  -562  -548  -279  98  377  481  469  389  243  60  -95  -181  -212  -222  -228  -197  -71  148  366  487  509  484  465  496  605  796  1028  1234  1394  1530  1594  1510  1356  1275  1281  1286  1228  1120  997  869  751  680  651  609  514  396  312  291  341  462  630  780  856  855  809  761  720  676  637  622  625  616  569  486  399  334  292  268  255  253  285  399  638  969  1265  1405  1320  1000  576  269  159  161  182  191  183  155  120  101  112  135  116  21  -114  -235  -329  -411  -508  -650  -836  -1015  -1124  -1146  -1114  -1080  -1129  -1361  -1764  -2167  -2414  -2512  -2533  -2517  -2487  -2477  -2542  -2720  -2978  -3230  -3425  -3575  -3695  -3780  -3848  -3932  -4024  -4102  -4147  -4120  -4024  -3911  -3833  -3855  -4015  -4296  -4622  -4796  -4690  -4434  -4179  -3886  -3416  -2604  -1294  357  1721  2183  1529  -166  -2428  -4453  -5630  -5692  -4765  -3480  -2566  -2328  -2564  -2870  -3049  -3138  -3183  -3189  -3167  -3133  -3099  -3064  -3035  -3033  -3073  -3151  -3250  -3340  -3367  -3219  -2804  -2242  -1811  -1636  -1627  -1664  -1669  -1597  -1460  -1316  -1205  -1139  -1106  -1088  -1055  -957  -758  -493  -222  39  266  380  354  266  205  193  230  351  599  906  1121  1190  1205  1296  1524  1814  2017  2073  2022  1901  1727  1536  1395  1322  1286  1283  1326  1379  1410  1460  1579  1712  1722  1557  1337  1221  1239  1326  1442  1567  1657  1693  1700  1704  1699  1641  1507  1385  1446  1744  2111  2338  2390  2374  2384  2421  2430  2362  2214  2046  1939  1907  1901  1869  1835  1906  2153  2476  2695  2735  2647  2520  2426  2380  2358  2346  2348  2363  2384  2410  2458  2527  2556  2508  2451  2494  2655  2817  2845  2749  2677  2717  2803  2815  2736  2643  2581  2531  2480  2445  2432  2444  2524  2690  2860  2907  2771  2485  2136  1791  1503  1344  1400  1696  2114  2410  2393  2029  1485  1034  806  727  711  789  1017  1305  1467  1462  1578  2200  3319  4540  5408  5594  5063  4049  2773  1378  150  -536  -723  -832  -993  -1028  -840  -445  13  322  421  410  363  263  86  -143  -354  -480  -516  -490  -414  -295  -159  -49  -8  -33  -57  -36  -13  -45  -121  -187  -219  -221  -183  -86  36  104  74  -10  -78  -101  -97  -88  -80  -76  -67  -45  1  93  231  380  481  512  500  484  520  652  829  917  843  683  554  478  385  245  89  -59  -186  -265  -297  -318  -345  -365  -377  -423  -544  -699  -769  -683  -498  -336  -260  -260  -329  -464  -622  -741  -813  -868  -929  -1015  -1119  -1191  -1179  -1067  -903  -787  -813  -1015  -1318  -1605  -1871  -2182  -2506  -2746  -2868  -2913  -2936  -2966  -2979  -2950  -2884  -2830  -2874  -3021  -3156  -3170  -3046  -2848  -2672  -2572  -2545  -2551  -2516  -2371  -2133  -1910  -1759  -1632  -1499  -1401  -1373  -1398  -1444  -1470  -1420  -1255  -1031  -868  -806  -789  -759  -681  -529  -337  -188  -112  -76  -54  -38  -24  -14  -13  -18  -30  -58  -134  -285  -493  -687  -806  -843  -799  -645  -388  -106  109  213  190  29  -240  -512  -634  -485  29  961  2161  3307  4255  5052  5533  5369  4390  2669  633  -979  -1624  -1391  -805  -302  -49  -14  -11  93  266  426  536  597  598  469  131  -323  -649  -684  -457  -137  90  173  185  187  158  33  -203  -476  -682  -766  -706  -500  -230  -37  23  6  -22  -18  55  212  394  525  593  631  644  579  395  210  237  479  711  783  738  671  607  497  314  109  -36  -98  -103  -89  -76  -77  -109  -218  -413  -624  -770  -853  -918  -977  -1012  -1024  -1026  -1023  -997  -937  -875  -863  -887  -880  -825  -788  -855  -1051  -1294  -1456  -1450  -1260  -940  -596  -322  -163  -123  -191  -355  -553  -690  -731  -720  -701  -692  -698  -719  -747  -775  -806  -838  -836  -786  -733  -722  -733  -699  -598  -533  -596  -738  -873  -971  -1027  -1058  -1098  -1137  -1106  -949  -739  -648  -757  -931  -961  -806  -566  -319  -128  -44  -26  0  33  33  -19  -84  -93  -35  35  72  80  83  87  93  147  316  560  738  795  795  794  769  643  366  10  -271  -394  -388  -322  -254  -220  -206  -141  69  449  858  1076  920  386  -175  -215  659  2373  4291  5683  6168  5575  3940  1736  -334  -1738  -2227  -1806  -853  -15  371  479  531  551  518  449  388  374  392  409  429  471  527  567  574  565  578  650  776  902  960  911  740  487  257  167  277  550  848  1026  1022  858  624  466  533  891  1400  1763  1752  1343  750  339  402  988  1809  2405  2555  2344  1957  1595  1398  1378  1466  1593  1698  1751  1767  1766  1724  1593  1377  1170  1040  913  668  340  92  2  12  55  105  135  99  -30  -203  -331  -377  -353  -250  -49  198  385  451  425  367  302  226  142  69  -1  -82  -158  -188  -146  -54  35  105  157  155  47  -164  -416  -628  -733  -667  -402  -43  217  293  235  119  -2  -89  -128  -139  -150  -174  -218  -294  -401  -503  -560  -570  -551  -519  -470  -403  -347  -333  -333  -287  -201  -162  -253  -436  -589  -648  -647  -637  -643  -662  -676  -660  -604  -531  -447  -282  30  403  641  599  267  -186  -510  -616  -606  -583  -569  -559  -562  -585  -623  -692  -809  -945  -1039  -1075  -1075  -1021  -897  -790  -810  -786  -262  949  2502  3933  4836  4826  3777  1911  -314  -2329  -3570  -3679  -2848  -1738  -908  -573  -619  -731  -745  -713  -677  -624  -556  -474  -362  -233  -146  -152  -258  -421  -565  -650  -680  -682  -681  -690  -698  -658  -521  -307  -116  -21  -9  -22  -24  -6  16  35  56  96  153  205  228  230  259  356  500  631  729  799  838  849  843  812  737  634  548  513  542  635  770  895  956  904  710  433  181  -24  -224  -401  -513  -561  -579  -587  -591  -579  -533  -443  -323  -209  -135  -107  -108  -143  -252  -461  -713  -897  -977  -980  -878  -614  -259  7  97  52  -78  -238  -337  -298  -123  52  47  -143  -344  -431  -421  -382  -355  -340  -321  -294  -270  -253  -240  -231  -228  -239  -269  -307  -324  -305  -269  -246  -246  -258  -290  -367  -477  -568  -602  -589  -556  -519  -475  -426  -397  -401  -422  -404  -268  5  309  504  563  534  440  288  122  5  -40  -35  -12  -7  -61  -195  -360  -470  -497  -479  -453  -439  -474  -602  -800  -949  -854  -433  -14  -82  -494  -527  219  1578  3185  4537  5104  4700  3489  1688  -405  -2178  -2995  -2787  -1985  -1029  -239  161  204  161  207  289  290  168  -17  -165  -233  -247  -247  -239  -204  -125  -29  26  30  27  93  264  480  620  582  347  25  -206  -282  -267  -231  -188  -135  -86  -68  -72  -17  184  506  791  937  981  995  1006  1011  1010  1012  1020  1034  1043  1042  1040  1047  1072  1124  1183  1204  1140  986  802  662  557  421  234  44  -92  -157  -167  -160  -174  -260  -455  -734  -1003  -1179  -1247  -1254  -1272  -1351  -1485  -1616  -1701  -1724  -1647  -1423  -1120  -902  -862  -966  -1113  -1215  -1244  -1233  -1220  -1227  -1271  -1340  -1389  -1343  -1143  -830  -512  -272  -173  -230  -363  -464  -470  -373  -249  -181  -170  -180  -196  -212  -225  -237  -249  -253  -230  -150  -8  137  214  209  169  143  136  133  128  126  131  141  148  115  2  -177  -361  -496  -571  -586  -527  -356  -58  274  497  568  561  542  509  438  339  247  154  38  -80  -167  -212  -231  -245  -264  -261  -169  -13  13  -203  -571  -894  -870  -303  764  2272  4034  5575  6340  5883  4110  1500  -1068  -2710  -3027  -2362  -1437  -807  -563  -469  -361  -258  -202  -185  -190  -205  -206  -168  -98  -26  21  25  -61  -291  -607  -838  -834  -545  -75  344  547  542  419  270  168  124  104  83  62  48  42  68  206  506  866  1109  1188  1185  1165  1104  943  691  441  283  243  353  655  1057  1349  1424  1334  1173  1007  881  825  838  863  784  503  88  -249  -372  -305  -137  35  150  210  241  249  214  103  -106  -376  -607  -731  -784  -849  -935  -961  -850  -625  -361  -105  112  258  304  262  178  83  -27  -144  -228  -280  -350  -452  -525  -488  -301  -40  153  210  153  28  -107  -195  -217  -204  -182  -160  -151  -210  -387  -634  -817  -849  -733  -526  -294  -90  41  79  51  8  -38  -117  -241  -384  -504  -578  -586  -512  -375  -257  -229  -269  -309  -327  -326  -268  -109  107  269  330  328  309  281  249  243  285  336  313  149  -128  -392  -538  -576  -571  -547  -475  -324  -128  19  78  55  -102  -394  -650  -619  -85  984  2366  3752  4861  5415  5175  4110  2468  641  -949  -1877  -1964  -1496  -906  -376  14  178  162  64  -66  -163  -172  -99  1  69  100  143  210  233  164  65  11  3  16  44  81  81  7  -71  -37  65  67  -76  -239  -327  -343  -281  -111  131  335  431  453  459  470  480  492  507  507  464  385  326  369  562  843  1067  1154  1104  933  696  502  410  385  381  383  368  291  128  -71  -236  -358  -472  -593  -721  -847  -943  -974  -949  -937  -980  -1022  -974  -820  -610  -401  -230  -116  -79  -155  -368  -662  -916  -1044  -1044  -937  -753  -563  -442  -407  -423  -457  -503  -560  -610  -635  -641  -642  -641  -627  -589  -536  -492  -464  -450  -481  -618  -864  -1101  -1163  -995  -725  -546  -518  -554  -577  -581  -603  -674  -773  -845  -874  -892  -927  -953  -886  -642  -274  29  142  85  -53  -192  -293  -366  -430  -497  -558  -585  -562  -502  -423  -325  -213  -115  -54  -8  60  158  271  394  503  517  341  -16  -428  -749  -909  -938  -900  -836  -752  -655  -571  -516  -498  -534  -560  -420  26  870  2057  3299  4289  4830  4646  3528  1682  -315  -1795  -2349  -2052  -1314  -657  -429  -509  -578  -573  -582  -612  -606  -526  -384  -254  -198  -190  -127  80  383  625  724  732  726  718  637  402  53  -248  -394  -412  -385  -347  -241  12  398  788  1057  1151  1116  1058  1032  1022  987  910  818  774  807  875  925  945  942  936  950  990  1037  1076  1109  1144  1173  1180  1137  1020  839  650  523  477  470  436  323  132  -82  -253  -344  -359  -317  -232  -145  -117  -157  -212  -237  -236  -236  -258  -306  -373  -438  -474  -450  -357  -233  -140  -101  -99  -136  -241  -398  -541  -599  -536  -394  -297  -330  -451  -564  -615  -615  -585  -528  -455  -389  -326  -255  -193  -183  -241  -332  -421  -518  -637  -749  -823  -836  -781  -684  -590  -534  -508  -499  -504  -509  -499  -483  -484  -529  -649  -832  -1022  -1175  -1252  -1191  -960  -644  -412  -339  -380  -479  -599  -701  -737  -656  -459  -230  -59  22  29  -29  -154  -317  -474  -614  -733  -807  -836  -847  -843  -784  -635  -471  -431  -600  -984  -1427  -1595  -1309  -608  519  2028  3605  4770  5100  4347  2595  371  -1623  -2895  -3265  -2911  -2264  -1642  -1133  -751  -489  -315  -227  -241  -342  -469  -557  -592  -606  -630  -662  -661  -575  -418  -251  -90  63  167  204  199  179  144  104  88  115  167  201  195  173  184  287  510  785  991  1081  1095  1081  1067  1085  1163  1288  1397  1441  1421  1371  1322  1280  1259  1303  1447  1659  1839  1903  1846  1685  1424  1133  937  859  799  675  519  409  374  379  395  416  440  457  446  397  319  220  83  -76  -204  -284  -342  -416  -537  -704  -856  -942  -965  -924  -772  -498  -198  0  62  36  -38  -129  -198  -239  -291  -386  -508  -604  -667  -735  -792  -744  -547  -304  -180  -201  -289  -372  -382  -324  -269  -239  -234  -272  -335  -391  -425  -405  -325  -235  -177  -152  -147  -152  -159  -166  -171  -173  -174  -169  -153  -130  -110  -101  -114  -158  -225  -275  -251  -111  113  321  438  472  463  426  345  186  -61  -329  -520  -604  -602  -538  -456  -392  -352  -329  -308  -259  -127  111  266  38  -473  -760  -458  542  2215  4134  5534  5853  4928  2952  527  -1475  -2434  -2412  -1936  -1462  -1182  -1060  -958  -831  -731  -649  -517  -353  -278  -364  -530  -620  -580  -508  -504  -547  -548  -464  -345  -299  -410  -684  -1016  -1247  -1318  -1288  -1178  -964  -688  -433  -217  -26  112  195  253  298  312  265  128  -49  -154  -114  35  215  380  517  625  725  826  899  923  915  903  897  899  911  925  899  761  488  178  -33  -116  -135  -154  -189  -239  -310  -400  -481  -523  -506  -402  -220  -32  71  35  -147  -400  -586  -614  -477  -232  0  92  8  -188  -378  -481  -493  -436  -325  -201  -119  -92  -100  -120  -122  -65  71  243  358  373  314  240  178  78  -111  -289  -261  -18  238  335  260  116  0  -83  -140  -154  -118  -59  -51  -134  -250  -319  -300  -187  -22  162  346  461  414  165  -180  -435  -502  -404  -208  9  199  346  419  387  269  93  -97  -225  -236  -145  -16  76  105  91  55  8  -46  -131  -277  -464  -639  -778  -892  -1011  -1065  -804  -223  158  -85  -704  -988  -293  1464  3587  5077  5376  4558  3114  1681  551  -462  -1412  -1978  -2013  -1681  -1173  -682  -403  -367  -479  -628  -721  -691  -523  -291  -121  -36  50  191  319  361  342  333  353  362  314  205  71  -13  33  227  493  731  872  909  878  808  724  667  668  726  811  885  927  933  912  901  931  992  1070  1206  1441  1706  1884  1940  1908  1802  1641  1489  1408  1395  1404  1396  1357  1303  1262  1251  1247  1155  890  518  205  5  -120  -152  -52  125  257  290  278  290  331  354  325  277  271  328  396  391  309  232  213  235  257  263  257  251  255  281  328  363  349  271  124  -65  -234  -346  -413  -454  -504  -604  -762  -915  -963  -869  -715  -573  -435  -313  -236  -198  -194  -232  -291  -317  -279  -217  -192  -188  -147  -71  -18  -38  -119  -170  -121  -19  50  39  -86  -330  -651  -961  -1199  -1392  -1581  -1722  -1777  -1783  -1803  -1864  -1956  -2092  -2319  -2617  -2904  -3143  -3334  -3451  -3476  -3388  -3156  -2792  -2446  -2391  -2739  -3229  -3399  -2907  -1713  -100  1370  2104  1790  500  -1387  -3327  -4799  -5502  -5514  -5227  -4999  -4891  -4766  -4517  -4149  -3764  -3481  -3323  -3243  -3223  -3248  -3261  -3230  -3185  -3163  -3178  -3246  -3381  -3548  -3671  -3722  -3716  -3618  -3370  -3036  -2802  -2770  -2894  -3062  -3168  -3169  -3082  -2894  -2562  -2147  -1795  -1545  -1346  -1196  -1121  -1093  -1056  -991  -895  -727  -427  17  491  814  932  923  851  733  634  653  794  953  1048  1088  1103  1090  1038  956  861  763  651  500  327  211  207  310  499  770  1099  1417  1659  1831  1957  2024  2033  2033  2100  2268  2477  2628  2688  2683  2647  2619  2656  2783  2930  2989  2951  2871  2798  2789  2854  2923  2948  2949  2980  3080  3223  3341  3384  3328  3152  2907  2732  2759  3035  3453  3808  3986  4026  3997  3927  3826  3696  3564  3478  3453  3463  3475  3466  3413  3315  3230  3256  3415  3610  3734  3763  3765  3862  4123  4448  4605  4481  4202  3985  3900  3870  3832  3797  3758  3591  3145  2490  1921  1646  1607  1646  1685  1721  1758  1768  1729  1666  1619  1595  1551  1461  1320  1152  1219  1961  3453  5266  6778  7344  6537  4511  1915  -491  -1994  -2244  -1628  -902  -530  -594  -967  -1432  -1821  -2075  -2140  -1915  -1384  -771  -370  -222  -149  -16  194  445  662  775  768  668  522  379  270  232  283  364  413  420  398  365  349  351  315  171  -76  -331  -512  -613  -653  -654  -641  -631  -634  -649  -656  -610  -469  -275  -132  -83  -94  -125  -166  -216  -277  -343  -417  -507  -630  -809  -1082  -1463  -1877  -2190  -2347  -2378  -2251  -1866  -1260  -687  -375  -277  -136  245  737  932  566  -151  -643  -441  360  1161  1372  864  -52  -924  -1458  -1756  -2069  -2366  -2419  -2204  -1881  -1522  -1143  -840  -682  -615  -579  -615  -810  -1142  -1465  -1673  -1827  -2089  -2561  -3139  -3593  -3846  -3987  -4081  -4135  -4137  -4068  -3956  -3869  -3839  -3837  -3804  -3702  -3560  -3444  -3369  -3330  -3422  -3823  -4513  -5066  -4943  -4059  -2956  -2410  -2867  -4100  -5231  -5454  -4878  -4292  -4348  -5248  -6723  -8101  -8808  -8812  -8416  -7968  -7779  -7980  -8470  -9024  -9410  -9536  -9407  -9028  -8499  -7985  -7450  -6689  -5622  -4395  -3259  -2403  -1862  -1577  -1471  -1488  -1655  -2035  -2557  -2971  -2877  -1804  296  2629  4208  4798  4719  4096  2795  955  -780  -1790  -2063  -1964  -1659  -1098  -375  269  774  1232  1639  1914  2038  2025  1874  1619  1379  1253  1231  1241  1261  1353  1592  1973  2435  2918  3358  3725  4044  4314  4494  4598  4673  4729  4762  4783  4833  4953  5114  5238  5273  5186  4903  4313  3437  2549  1934  1618  1473  1419  1450  1579  1780  1974  2112  2201  2252  2258  2237  2194  2039  1656  1140  771  740  1022  1433  1760  1914  1897  1723  1455  1192  989  864  811  812  868  1003  1231  1509  1741  1884  1982  2066  2101  2015  1780  1482  1257  1192  1358  1804  2383  2826  3065  3244  3504  3883  4324  4736  5077  5398  5778  6193  6525  6743  6908  7059  7191  7301  7398  7475  7478  7326  6987  6590  6331  6274  6348  6459  6537  6523  6364  6089  5833  5641  5401  5016  4483  3943  3747  4172  5058  6012  6727  6824  5944  4292  2578  1383  888  841  710  265  -201  -380  -176  512  1715  3123  4237  4789  4902  4864  4834  4787  4618  4288  3866  3471  3176  2952  2725  2477  2290  2256  2358  2544  2892  3499  4217  4749  5026  5208  5398  5532  5418  4688  2815  -386  -4237  -7549  -9539  -10300  -10422  -10340  -10175  -9971  -9788  -9547  -8993  -8024  -6949  -6177  -5778  -5556  -5377  -5202  -4973  -4678  -4380  -4120  -3910  -3784  -3771  -3915  -4249  -4688  -5081  -5402  -5690  -5875  -5796  -5337  -4614  -3966  -3647  -3716  -4178  -4950  -5804  -6523  -7019  -7303  -7385  -7144  -6406  -5244  -3873  -2335  -721  628  1555  2290  3021  3623  3935  4029  4105  4269  4509  4857  5403  6061  6507  6408  5662  4549  3479  2526  1595  802  295  -35  -458  -1109  -1879  -2638  -3379  -4053  -4550  -4855  -5053  -5206  -5276  -5225  -5081  -4782  -4203  -3486  -2983  -2830  -2875  -2937  -2907  -2734  -2458  -2225  -2229  -2689  -3698  -5049  -6327  -7221  -7701  -7905  -7982  -8052  -8196  -8446  -8754  -9014  -9202  -9444  -9874  -10468  -11207  -12187  -13196  -13636  -13261  -12425  -11535  -10753  -10116  -9580  -9010  -8249  -7260  -6178  -5248  -4685  -4483  -4417  -4278  -3986  -3446  -2486  -1222  -162  329  349  166  -31  -147  -158  -90  6  92  147  162  102  -113  -529  -1029  -1416  -1629  -1739  -1822  -1924  -2051  -2150  -2129  -1903  -1481  -1004  -621  -365  -188  -35  127  271  298  129  -143  -59  951  2948  5433  7805  9638  10674  10777  9944  8211  5745  3103  1099  387  1065  2562  3967  4448  3742  2412  1327  860  832  1034  1494  2285  3278  4198  4901  5435  5842  6071  6085  5944  5775  5656  5471  5011  4319  3803  4035  5423  7729  10214  12399  14143  15283  15764  15810  15690  15531  15374  15265  15227  15226  15196  15098  14967  14826  14550  13986  13246  12603  12101  11557  10847  10027  9297  8803  8514  8353  8263  8105  7644  6718  5442  4082  2843  1909  1416  1271  1281  1356  1410  1177  317  -1104  -2472  -3231  -3406  -3312  -3099  -2758  -2368  -2105  -2055  -2162  -2320  -2439  -2467  -2365  -2106  -1738  -1388  -1157  -1045  -1010  -1026  -1083  -1164  -1242  -1287  -1232  -944  -299  653  1598  2150  2156  1725  1149  748  623  646  690  720  747  747  634  343  -19  -298  -591  -1282  -2664  -4481  -6098  -7187  -7900  -8622  -9824  -11547  -13132  -13974  -14159  -14107  -14028  -13849  -13421  -12692  -11716  -10543  -9182  -7782  -6674  -6077  -5896  -5899  -5936  -5931  -5823  -5630  -5445  -5276  -4975  -4396  -3657  -3079  -2835  -2811  -2819  -2739  -2429  -1740  -836  -149  129  148  12  -350  -941  -1529  -1859  -1879  -1651  -1163  -427  327  828  1062  1196  1336  1438  1195  4  -2505  -5714  -8346  -9715  -10192  -10452  -10758  -11001  -11101  -11142  -11205  -11194  -10815  -9870  -8667  -7776  -7344  -7045  -6518  -5466  -3592  -823  2416  5423  7669  9007  9563  9541  9446  10059  11458  12817  13310  12480  10360  7677  5306  3535  2151  873  -235  -766  -531  338  1655  3065  4155  4851  5428  6142  6918  7485  7754  7849  7803  7427  6434  4745  2828  1480  1041  1201  1529  1810  2033  2241  2416  2485  2422  2301  2215  2199  2237  2212  1834  843  -518  -1603  -2083  -2134  -2024  -1876  -1616  -1021  30  1333  2477  3192  3500  3521  3188  2320  1057  -59  -618  -695  -581  -465  -397  -365  -344  -311  -248  -151  -47  -21  -265  -958  -1922  -2626  -2627  -1820  -537  567  1080  1129  1041  1020  1118  1278  1407  1464  1478  1485  1498  1510  1511  1503  1497  1521  1605  1734  1844  1897  1929  2001  2075  1892  1086  -320  -1732  -2618  -3008  -3084  -2841  -2406  -2190  -2459  -3028  -3506  -3723  -3740  -3556  -3069  -2351  -1712  -1397  -1422  -1712  -2153  -2497  -2338  -1319  335  1708  1933  855  -875  -2150  -2294  -1636  -1042  -1266  -2596  -4619  -6359  -6930  -6180  -4609  -2943  -1805  -1476  -1832  -2499  -3161  -3712  -4130  -4407  -4608  -4808  -4933  -4885  -4748  -4667  -4666  -4685  -4652  -4514  -4280  -3925  -3362  -2678  -2150  -1886  -1780  -1752  -1760  -1701  -1456  -1030  -572  -205  66  295  516  784  1196  1762  2302  2618  2722  2816  3108  3649  4283  4888  5544  6253  6825  7204  7520  7809  8001  8073  8026  7796  7338  6737  6116  5496  4870  4324  3974  3999  4610  5574  6185  6023  5329  4767  5059  6414  8161  9168  8680  6748  4074  1669  174  -648  -1385  -2316  -3373  -4281  -4873  -5283  -5821  -6743  -7880  -8678  -8735  -8038  -6944  -6018  -5598  -5613  -5852  -6140  -6347  -6404  -6267  -5873  -5235  -4545  -4041  -3771  -3552  -3126  -2333  -1280  -329  223  382  313  134  -80  -216  -127  275  851  1256  1190  595  -238  -835  -966  -742  -394  -135  -122  -477  -1191  -1990  -2516  -2600  -2188  -1327  -361  271  514  632  797  989  1158  1299  1403  1436  1385  1290  1172  983  629  40  -722  -1451  -1953  -2223  -2369  -2401  -2090  -1198  31  1013  1507  1683  1675  1498  1224  982  819  700  649  834  1428  2311  3076  3447  3463  3198  2581  1601  528  -271  -651  -695  -465  52  725  1259  1476  1390  1065  639  331  298  582  1144  1893  2710  3435  3921  4142  4190  4174  4179  4275  4481  4752  5032  5295  5539  5785  6081  6446  6798  7011  7051  6959  6704  6200  5455  4655  4006  3535  3166  2883  2697  2579  2508  2506  2643  2955  3329  3577  3637  3600  3594  3725  4037  4481  4963  5380  5656  5787  5741  5274  4098  2418  925  16  -509  -982  -1532  -2069  -2418  -2520  -2466  -2359  -2293  -2451  -3084  -4176  -5281  -5922  -5902  -5170  -3840  -2309  -954  138  1080  2040  3089  4045  4590  4585  4229  3961  4138  4609  4730  3939  2030  -808  -3819  -6065  -7191  -7254  -6375  -5135  -4334  -4145  -4211  -4215  -4034  -3667  -3176  -2696  -2383  -2273  -2319  -2533  -2934  -3388  -3686  -3771  -3729  -3639  -3561  -3581  -3757  -4011  -4149  -4033  -3683  -3209  -2709  -2269  -1941  -1659  -1326  -1047  -1053  -1330  -1630  -1849  -2161  -2765  -3611  -4383  -4786  -4826  -4725  -4668  -4756  -5087  -5680  -6353  -6859  -7098  -7138  -7078  -6954  -6749  -6383  -5676  -4433  -2767  -1241  -418  -389  -893  -1548  -1988  -2067  -1875  -1574  -1290  -1036  -771  -518  -345  -229  -51  250  631  1026  1400  1734  1993  2162  2296  2448  2583  2599  2471  2353  2429  2669  2883  2963  2947  2914  2913  2962  3029  3042  2986  2928  2898  2854  2790  2754  2770  2815  2864  2882  2719  2163  1271  420  -97  -282  -241  -73  161  494  955  1430  1736  1817  1721  1476  1140  804  476  97  -328  -707  -935  -997  -939  -792  -592  -342  48  631  1228  1592  1681  1626  1529  1380  1122  757  386  71  -261  -658  -1026  -1308  -1536  -1751  -2075  -2684  -3508  -4189  -4481  -4433  -4162  -3669  -2971  -2278  -1835  -1664  -1665  -1850  -2288  -2852  -3254  -3357  -3246  -3062  -2915  -2846  -2826  -2817  -2819  -2869  -2982  -3073  -3022  -2853  -2722  -2684  -2583  -2189  -1456  -644  -33  391  784  1151  1365  1353  1116  673  82  -486  -828  -873  -699  -445  -214  -27  158  376  649  953  1242  1607  2248  3165  4037  4561  4721  4651  4436  4135  3842  3631  3524  3598  4021  4833  5772  6479  6822  6858  6540  5717  4455  3148  2204  1755  1668  1731  1803  1834  1829  1802  1752  1684  1651  1761  2059  2355  2334  1935  1314  502  -564  -1736  -2672  -3136  -3156  -2879  -2465  -2100  -1916  -1900  -1969  -2050  -2104  -2125  -2114  -2057  -1939  -1763  -1575  -1438  -1365  -1281  -1105  -850  -594  -352  -105  104  222  256  217  52  -362  -1067  -1836  -2331  -2473  -2439  -2387  -2359  -2346  -2347  -2361  -2356  -2287  -2140  -1966  -1841  -1784  -1759  -1746  -1777  -1907  -2111  -2260  -2210  -1904  -1466  -1128  -994  -980  -985  -979  -959  -908  -813  -699  -599  -527  -525  -725  -1237  -1906  -2378  -2457  -2209  -1835  -1529  -1329  -1135  -935  -816  -773  -699  -519  -207  260  832  1318  1491  1297  923  626  524  618  892  1247  1501  1550  1421  1204  1014  916  897  918  972  1051  1108  1054  818  452  130  -30  -60  -31  51  219  428  569  621  689  876  1137  1333  1402  1398  1372  1331  1308  1456  1945  2682  3305  3583  3594  3508  3439  3507  3858  4515  5290  5928  6257  6165  5561  4520  3354  2429  1947  1862  1994  2214  2455  2669  2803  2816  2740  2644  2493  2147  1540  802  196  -102  -155  -176  -307  -514  -714  -979  -1440  -2000  -2434  -2691  -2859  -2964  -3014  -3068  -3151  -3111  -2605  -1454  -79  846  1186  1309  1454  1585  1697  1921  2351  2946  3574  4103  4464  4626  4516  4080  3457  2926  2616  2494  2532  2682  2844  2972  3102  3260  3409  3515  3587  3643  3660  3550  3182  2566  1963  1629  1570  1639  1680  1508  972  184  -489  -813  -874  -868  -843  -660  -182  476  1029  1352  1538  1709  1881  1985  1978  1840  1543  1168  896  817  878  998  1076  925  361  -533  -1433  -2084  -2439  -2575  -2599  -2573  -2548  -2623  -2918  -3407  -3879  -4138  -4145  -3931  -3530  -3010  -2457  -1939  -1494  -1167  -976  -838  -632  -343  -70  104  175  189  187  139  -110  -715  -1518  -2111  -2258  -2000  -1490  -964  -638  -543  -595  -764  -1073  -1514  -2019  -2548  -3188  -3983  -4753  -5292  -5453  -4996  -3896  -2735  -2270  -2710  -3611  -4273  -4043  -2720  -964  166  30  -1438  -3695  -5696  -6628  -6547  -6155  -6163  -6876  -8032  -9008  -9449  -9481  -9287  -8900  -8430  -8101  -8000  -8000  -7935  -7710  -7248  -6489  -5588  -4887  -4543  -4399  -4139  -3451  -2289  -1031  -78  590  1218  1860  2393  2734  2920  3060  3208  3369  3602  3978  4451  4870  5111  5140  4956  4559  4008  3451  3049  2875  2862  2891  2906  2935  3014  3128  3238  3327  3372  3292  2994  2518  2031  1672  1484  1425  1397  1304  1150  1044  1071  1230  1457  1666  1818  1948  2101  2264  2387  2481  2618  2837  3093  3280  3322  3234  3061  2751  2213  1499  824  362  94  -78  -196  -281  -359  -431  -476  -479  -440  -361  -266  -223  -316  -568  -879  -1102  -1181  -1141  -985  -734  -471  -280  -184  -155  -123  5  265  596  969  1430  1925  2258  2323  2184  1977  1818  1765  1864  2210  2889  3771  4506  4835  4763  4455  4181  4197  4482  4880  5461  6399  7691  9156  10387  10781  10008  8287  6189  4386  3328  3041  3208  3359  3270  3169  3305  3596  3867  4048  4151  4239  4348  4421  4309  3830  2927  1829  941  526  617  1132  1843  2414  2690  2750  2600  2076  1081  -261  -1620  -2609  -3118  -3379  -3633  -3966  -4442  -5192  -6310  -7658  -8843  -9526  -9729  -9692  -9535  -9233  -8856  -8597  -8547  -8627  -8722  -8747  -8593  -8089  -7109  -5736  -4299  -3209  -2665  -2537  -2579  -2669  -2847  -3193  -3628  -3957  -4117  -4221  -4381  -4603  -4783  -4797  -4664  -4502  -4337  -4079  -3651  -3077  -2466  -1939  -1587  -1414  -1300  -1075  -623  -21  489  767  887  979  1053  1041  967  911  870  774  555  148  -433  -1016  -1384  -1492  -1460  -1402  -1367  -1355  -1338  -1296  -1248  -1193  -1035  -692  -266  28  120  96  46  8  15  100  262  437  541  472  143  -398  -945  -1318  -1492  -1530  -1437  -1127  -574  107  766  1292  1664  1947  2180  2338  2397  2325  2072  1681  1317  1108  1070  1215  1562  2078  2714  3466  4266  4923  5319  5495  5445  4977  3967  2720  1769  1321  1214  1282  1528  1980  2484  2817  2945  2976  2930  2719  2350  1958  1670  1556  1601  1685  1642  1393  1029  716  500  332  188  54  -73  -187  -334  -587  -936  -1294  -1586  -1776  -1863  -1875  -1857  -1853  -1887  -1956  -2016  -1931  -1481  -567  637  1816  2735  3323  3629  3750  3774  3749  3644  3423  3151  2940  2810  2715  2598  2371  1963  1432  918  477  58  -345  -671  -900  -1056  -1147  -1187  -1193  -1133  -922  -528  -67  282  458  561  724  927  1030  937  646  284  162  434  702  347  -831  -2478  -3983  -4807  -4613  -3489  -2026  -916  -492  -618  -936  -1182  -1268  -1198  -1004  -743  -511  -406  -494  -782  -1230  -1751  -2229  -2572  -2796  -2991  -3175  -3294  -3323  -3277  -3156  -2971  -2744  -2461  -2157  -1951  -1877  -1795  -1549  -1130  -709  -463  -405  -431  -455  -449  -412  -359  -301  -230  -162  -165  -298  -443  -248  477  1320  1587  1077  307  17  658  2116  3610  4173  3437  1767  -141  -1691  -2583  -2791  -2514  -2056  -1598  -1148  -692  -315  -100  -5  39  -56  -544  -1560  -2857  -3987  -4708  -5074  -5167  -4886  -4062  -2808  -1562  -712  -328  -244  -282  -353  -395  -362  -270  -181  -150  -181  -226  -206  -72  155  429  754  1108  1380  1490  1470  1386  1266  1130  1022  978  1030  1195  1391  1481  1519  1882  2928  4374  5464  5853  5741  5366  4875  4415  4077  3874  3772  3691  3547  3300  2837  1912  575  -624  -1219  -1238  -946  -586  -337  -260  -304  -401  -497  -555  -561  -506  -394  -260  -150  -65  34  212  547  1119  1888  2702  3455  4055  4411  4541  4475  4069  3114  1675  208  -797  -1221  -1273  -1233  -1307  -1622  -2202  -2858  -3273  -3292  -2994  -2493  -1894  -1325  -833  -343  163  556  785  982  1033  613  -64  -262  465  2007  3852  5159  5181  3880  1897  -36  -1383  -1782  -1325  -569  -18  100  -299  -1181  -2256  -3081  -3470  -3572  -3576  -3523  -3342  -2996  -2555  -2101  -1525  -578  647  1624  2027  2025  1916  1856  1851  1762  1383  693  -15  -426  -520  -478  -430  -409  -417  -463  -481  -236  503  1551  2409  2935  3405  3905  4138  3829  3075  2250  1598  1047  474  -135  -916  -2088  -3468  -4451  -4640  -4054  -2965  -1846  -1059  -564  -137  365  983  1593  1981  2090  2043  1954  1845  1727  1710  1937  2398  2910  3286  3465  3454  3197  2627  1814  901  -13  -848  -1581  -2324  -3172  -4054  -4824  -5416  -5827  -6073  -6230  -6385  -6488  -6413  -6088  -5425  -4349  -2980  -1574  -418  248  394  148  -409  -1225  -2183  -3063  -3558  -3462  -2766  -1654  -515  458  1527  2806  4073  5198  5976  5932  4910  3385  1969  1005  603  593  624  618  735  961  1190  1424  1626  1690  1598  1371  990  521  30  -591  -1367  -2093  -2644  -3039  -3268  -3361  -3508  -3912  -4531  -5079  -5366  -5418  -5270  -4896  -4378  -3957  -3931  -4629  -6133  -7875  -8993  -9089  -8310  -7120  -6089  -5493  -5164  -4768  -4093  -3162  -2126  -1083  -17  1127  2283  3206  3691  3802  3786  3855  4140  4729  5667  6926  8287  9366  9900  9921  9599  9066  8279  6911  4811  2558  999  414  574  1247  2195  3041  3521  3648  3576  3430  3233  2953  2640  2414  2329  2395  2656  3089  3525  3784  3829  3713  3426  2769  1480  -413  -2464  -4124  -5149  -5629  -5778  -5798  -5850  -6066  -6545  -7400  -8691  -10149  -11286  -11914  -12075  -11685  -10693  -9333  -8047  -7205  -6777  -6330  -5490  -4430  -3876  -4510  -6416  -8859  -10419  -10180  -8646  -6895  -5772  -5735  -6533  -7415  -7950  -8368  -9073  -9996  -10677  -10898  -10842  -10753  -10784  -11032  -11467  -11826  -11547  -9998  -7293  -4629  -3101  -2643  -2595  -2586  -2569  -2556  -2557  -2616  -2799  -3081  -3319  -3452  -3618  -3930  -4274  -4480  -4541  -4552  -4551  -4461  -4182  -3763  -3429  -3436  -3988  -5047  -6180  -6890  -6995  -6495  -5477  -4328  -3502  -3018  -2588  -2052  -1362  -511  312  847  1102  1338  1830  2745  4017  5342  6351  6872  7064  7190  7311  7335  7243  7085  6832  6413  5821  5281  5273  5946  6889  7820  8827  10124  11853  13678  14742  14318  12588  10622  9390  9049  9068  8719  7653  6129  4797  4147  4120  4430  4975  5790  6773  7596  8003  8050  7966  7936  8089  8516  9264  10288  11446  12639  13907  15335  16901  18386  19480  20014  20003  19486  18566  17607  17019  16925  17247  17884  18677  19415  19966  20380  20787  21203  21580  21943  22315  22700  23185  23802  24364  24690  24813  24857  24889  24983  25245  25726  26366  27001  27482  27856  28348  29121  30108  31036  31666  32054  32484  32767  32767  32767  32767  32767  32767  32767  32767  32767  32767  32767  32767  32767  32767  32767  32767  32767  32767  27104  19165  13107  9421  7200  4919  1093  -4662  -11003  -16224  -19721  -21739  -22838  -23625  -24374  -25067  -25608  -25797  -25708  -26142  -28016  -31561  -32768  -32768  -32768  -32768  -31373  -28563  -29298  -32768  -32768  -32768  -32768  -32768  -32768  -32768  -32768  -32768  -32768  -32768  -32768  -32768  -32768  -32768  -32768  -30828  -26704  -23058  -20862  -20085  -20092  -20404  -20922  -21533  -21879  -21585  -20509  -18787  -16863  -15359  -14595  -14355  -14249  -13967  -13234  -12039  -10785  -9879  -9464  -9523  -9871  -10222  -10485  -10756  -11136  -11703  -12430  -13122  -13602  -13845  -13852  -13472  -12434  -10574  -8156  -5913  -4510  -4015  -4022  -4125  -4168  -4162  -4152  -4150  -4147  -4120  -4071  -4051  -4113  -4243  -4367  -4452  -4570  -4881  -5459  -6148  -6715  -7073  -7260  -7320  -7307  -7263  -7133  -6755  -6067  -5272  -4661  -4344  -4353  -4900  -6188  -7948  -9553  -10535  -10687  -9977  -8635  -6997  -5242  -3546  -2102  -830  258  538  -689  -3409  -6867  -9627  -10182  -8390  -5540  -2912  -1100  -136  372  833  1309  1675  1857  1800  1400  580  -656  -2137  -3417  -4096  -4219  -4096  -3944  -3846  -3901  -4264  -4956  -5715  -6256  -6578  -6812  -6949  -6847  -6423  -5838  -5407  -5269  -5332  -5467  -5475  -4962  -3655  -1980  -785  -371  -381  -422  -248  373  1541  3063  4505  5458  5877  6037  6186  6424  6719  6892  6628  5710  4436  3412  2841  2529  2371  2369  2412  2313  2038  1741  1451  1015  455  18  -147  -56  277  750  1007  515  -1085  -3576  -6279  -8487  -9590  -9309  -8071  -6684  -5547  -4351  -2392  806  4802  8120  9244  7826  4965  2452  1524  2208  3719  5115  5848  6001  5854  5436  4701  3881  3360  3286  3525  3847  4093  4287  4508  4645  4566  4381  4270  4255  4274  4280  4250  4193  4145  4056  3646  2577  900  -901  -2358  -3273  -3681  -3687  -3262  -2134  96  3405  6835  9173  10089  10097  9673  8842  7333  4912  1868  -815  -2236  -2293  -1438  -270  653  1108  1209  1156  1104  1186  1480  1889  2195  2282  2183  2001  2014  2770  4706  7528  10253  12019  12717  12813  12724  12481  11933  11178  10574  10323  10322  10404  10484  10465  10172  9463  8408  7222  5901  4220  2302  689  -294  -792  -1058  -1194  -1168  -920  -451  147  856  1804  3004  4126  4832  5139  5285  5441  5595  5598  5161  3989  2301  882  253  287  645  1056  1343  1466  1447  1189  546  -391  -1245  -1689  -1691  -1408  -1044  -764  -560  -281  223  1061  2207  3443  4584  5568  6352  6909  7269  7482  7594  7659  7736  7845  7967  8089  8253  8509  8806  8995  8909  8458  7764  7003  6009  4509  2848  1749  1403  1438  1572  1796  2104  2380  2548  2656  2768  2901  3069  3273  3483  3665  3815  4053  4626  5488  6062  5913  5385  5186  5650  6534  7167  6724  4829  2107  -253  -1718  -2668  -3587  -4701  -5916  -6595  -6228  -5196  -4156  -3338  -2723  -2325  -2148  -2116  -2131  -2178  -2438  -3192  -4429  -5711  -6601  -7027  -7202  -7359  -7581  -7810  -7941  -7827  -7322  -6512  -5768  -5369  -5244  -5222  -5323  -5769  -6733  -8026  -9291  -10458  -11571  -12443  -12921  -13095  -13126  -13054  -12790  -12327  -11878  -11536  -10841  -9209  -7016  -5409  -4905  -5084  -5414  -5662  -5747  -5492  -4555  -2672  -35  2760  5143  6761  7521  7549  6909  5631  4116  2983  2462  2359  2448  2472  1846  16  -2523  -4373  -4631  -3442  -1631  -175  490  555  259  -303  -954  -1402  -1447  -1013  -183  696  1204  1099  389  -581  -1267  -1364  -950  -332  150  354  349  185  -155  -634  -1111  -1449  -1595  -1573  -1427  -1192  -910  -621  -324  17  392  706  943  1304  2019  3041  4161  5237  6105  6573  6647  6516  6425  6697  7581  8815  9771  10133  9939  9193  7977  6635  5512  4692  3982  3052  1704  160  -1118  -1959  -2485  -2787  -2915  -2955  -2960  -2929  -2802  -2490  -2005]
