reading_id,reading_time,wire_id,result_classification,heart_rate,heart_rate_alert,firmware_version,device_app_version,hardware_version,waveform_samples
46d35130-db3f-11ed-8080-808080808080,Sat Apr 15 03:40:33 UTC 2023,e12964476439,NSR,92,NONE,20001.188.58,2.13.0,Charge 5,[2677  2732  2777  2787  2743  2628  2439  2232  2086  2002  1926  1830  1715  1559  1342  1078  825  655  593  597  618  629  622  591  537  492  492  516  508  469  447  485  583  682  715  647  475  234  -2  -193  -349  -486  -594  -633  -585  -476  -361  -283  -254  -295  -435  -657  -876  -1009  -1035  -960  -822  -704  -659  -685  -766  -866  -937  -973  -997  -1025  -1061  -1111  -1146  -1129  -1062  -1009  -1050  -1196  -1389  -1557  -1649  -1657  -1601  -1518  -1447  -1411  -1424  -1482  -1560  -1649  -1807  -2069  -2277  -2126  -1390  -116  1397  2807  3844  4292  3984  2900  1263  -585  -2265  -3336  -3525  -3045  -2413  -2025  -1983  -2148  -2322  -2438  -2533  -2640  -2793  -3008  -3211  -3328  -3375  -3405  -3437  -3449  -3374  -3153  -2836  -2550  -2376  -2311  -2313  -2322  -2305  -2257  -2171  -2044  -1890  -1726  -1571  -1420  -1238  -1021  -834  -722  -672  -654  -649  -668  -722  -787  -832  -845  -842  -836  -813  -753  -677  -641  -665  -719  -797  -957  -1253  -1615  -1889  -2022  -2098  -2194  -2297  -2368  -2413  -2480  -2570  -2644  -2690  -2735  -2790  -2814  -2765  -2666  -2574  -2477  -2327  -2158  -2058  -2047  -2061  -2035  -1939  -1770  -1566  -1382  -1253  -1185  -1162  -1158  -1161  -1166  -1171  -1171  -1158  -1141  -1148  -1168  -1130  -971  -693  -401  -223  -203  -303  -466  -634  -759  -800  -741  -624  -522  -477  -477  -491  -501  -494  -457  -387  -312  -269  -288  -385  -558  -749  -858  -847  -770  -705  -680  -679  -690  -716  -757  -785  -777  -734  -672  -651  -775  -1037  -1204  -965  -80  1501  3414  4993  5748  5496  4248  2311  241  -1455  -2442  -2561  -1935  -961  -130  189  9  -325  -524  -526  -413  -292  -190  -77  40  118  142  133  119  109  84  32  -19  -11  85  245  403  497  512  495  518  639  845  1055  1196  1257  1271  1274  1291  1339  1412  1479  1513  1519  1519  1535  1586  1685  1805  1903  1966  2016  2053  2030  1899  1683  1477  1362  1338  1344  1332  1289  1227  1154  1074  985  893  822  791  788  771  705  608  522  437  298  116  -22  -71  -56  -18  14  38  62  83  90  79  60  49  70  137  220  269  279  274  269  256  233  215  202  163  92  25  -6  -11  -6  2  23  70  136  197  230  229  206  196  261  445  716  971  1115  1145  1107  1007  810  535  279  101  -46  -202  -323  -376  -384  -369  -340  -305  -299  -367  -474  -497  -307  190  1022  2157  3445  4557  5126  4927  3950  2401  636  -920  -1876  -2095  -1832  -1442  -1085  -841  -733  -670  -578  -480  -414  -395  -442  -569  -730  -845  -884  -873  -841  -808  -787  -788  -813  -849  -879  -890  -881  -858  -835  -801  -724  -594  -461  -381  -360  -368  -378  -380  -369  -329  -215  16  323  575  691  692  633  552  464  364  263  195  172  174  186  215  274  357  432  477  490  468  410  319  209  97  -15  -137  -256  -347  -414  -517  -715  -935  -1028  -971  -839  -669  -499  -370  -261  -148  -54  -15  -59  -198  -392  -557  -642  -667  -663  -619  -511  -354  -183  -29  68  100  92  72  42  -10  -87  -161  -203  -214  -204  -177  -130  -56  57  215  380  498  552  573  594  603  575  516  449  379  295  194  60  -119  -308  -442  -496  -503  -502  -505  -493  -442  -399  -493  -766  -1057  -1069  -407  1127  3106  4795  5698  5490  4162  2255  347  -1284  -2347  -2588  -2172  -1483  -833  -458  -404  -492  -556  -571  -567  -562  -553  -536  -512  -471  -402  -322  -259  -223  -200  -185  -188  -226  -279  -307  -285  -232  -175  -111  -22  91  199  262  275  268  259  240  206  175  157  144  138  155  197  247  283  300  301  268  178  60  -23  -48  -50  -77  -140  -210  -252  -260  -250  -240  -258  -338  -501  -705  -882  -1026  -1159  -1260  -1305  -1311  -1307  -1311  -1322  -1324  -1285  -1173  -983  -776  -647  -628  -687  -795  -909  -961  -927  -851  -776  -722  -698  -693  -696  -697  -657  -564  -462  -368  -274  -183  -98  -31  -2  -17  -57  -97  -112  -67  68  251  383  423  403  372  358  362  371  350  248  27  -256  -478  -573  -579  -543  -474  -386  -313  -275  -284  -380  -594  -876  -1056  -918  -312  743  2058  3332  4278  4722  4485  3477  1874  -7  -1722  -2750  -2842  -2182  -1242  -524  -253  -280  -359  -394  -399  -397  -384  -334  -241  -136  -59  -26  -24  -34  -32  9  97  157  93  -75  -213  -214  -96  32  97  141  219  322  451  655  932  1181  1311  1329  1300  1267  1242  1218  1196  1191  1214  1266  1322  1351  1350  1338  1329  1327  1334  1348  1353  1301  1145  917  716  598  545  514  482  434  351  231  71  -155  -419  -621  -739  -852  -978  -1015  -856  -538  -223  -36  17  0  -45  -85  -105  -117  -139  -168  -194  -203  -230  -311  -404  -437  -384  -262  -128  -45  -16  0  36  90  144  173  185  221  289  339  341  319  311  324  331  298  212  92  -12  -72  -113  -174  -261  -358  -473  -616  -779  -940  -1097  -1263  -1385  -1353  -1168  -964  -804  -508  270  1657  3349  4824  5510  4956  3216  910  -1256  -2773  -3312  -3006  -2400  -1869  -1482  -1240  -1122  -1087  -1123  -1192  -1237  -1224  -1163  -1085  -992  -842  -629  -432  -326  -302  -313  -340  -388  -446  -485  -487  -447  -369  -281  -205  -138  -97  -102  -133  -135  -17  276  650  928  1039  1060  1080  1106  1095  1039  1003  1079  1307  1611  1849  1949  1940  1860  1740  1632  1591  1625  1683  1700  1646  1523  1342  1130  941  824  771  737  700  680  682  684  662  610  510  322  83  -80  -108  -70  -52  -77  -106  -93  -43  -10  -34  -103  -178  -230  -250  -256  -283  -352  -417  -409  -330  -255  -233  -249  -268  -267  -241  -187  -111  -42  -5  9  21  20  -50  -237  -488  -695  -834  -986  -1192  -1391  -1504  -1536  -1530  -1497  -1421  -1304  -1157  -988  -906  -1075  -1455  -1802  -1829  -1195  230  2113  3888  5024  5140  4106  2121  -230  -2180  -3192  -3195  -2530  -1754  -1278  -1126  -1108  -1085  -1036  -990  -947  -877  -786  -720  -700  -703  -706  -704  -697  -667  -593  -476  -360  -284  -252  -252  -279  -325  -359  -348  -296  -232  -168  -109  -64  -23  40  133  231  316  394  481  580  677  757  826  891  938  948  922  882  849  822  790  767  759  745  719  676  570  354  77  -150  -278  -351  -425  -508  -588  -680  -804  -939  -1029  -1031  -949  -830  -734  -694  -708  -766  -853  -937  -994  -1031  -1070  -1104  -1103  -1063  -991  -895  -792  -699  -634  -585  -529  -469  -426  -405  -396  -383  -322  -175  2  81  27  -74  -169  -275  -425  -626  -832  -988  -1076  -1112  -1125  -1122  -1069  -932  -765  -663  -659  -786  -1067  -1337  -1321  -903  -114  1005  2338  3630  4585  4871  4169  2469  241  -1784  -2979  -3093  -2463  -1768  -1379  -1231  -1154  -1040  -861  -649  -463  -337  -248  -180  -142  -122  -104  -105  -170  -313  -447  -450  -327  -184  -63  58  185  295  367  400  420  445  480  514  523  507  513  597  788  1052  1297  1448  1510  1520  1511  1514  1558  1647  1744  1804  1823  1825  1821  1793  1716  1612  1536  1496  1434  1298  1121  979  876  751  593  446  347  297  244  130  -22  -129  -162  -176  -206  -233  -247  -268  -299  -331  -362  -383  -388  -386  -386  -385  -372  -332  -277  -229  -194  -156  -115  -86  -69  -50  -19  23  81  149  204  225  210  167  100  9  -102  -232  -364  -475  -571  -672  -774  -850  -863  -777  -600  -417  -330  -388  -565  -758  -934  -1135  -1204  -842  90  1534  3181  4477  4917  4296  2800  949  -674  -1681  -1971  -1730  -1314  -1042  -1008  -1107  -1216  -1275  -1269  -1196  -1069  -943  -872  -860  -870  -863  -820  -754  -698  -665  -652  -651  -660  -675  -675  -616  -481  -321  -212  -167  -150  -136  -117  -81  -4  130  303  467  585  663  729  825  967  1144  1323  1460  1530  1554  1557  1516  1382  1165  965  876  898  965  1017  1037  1040  1028  983  887  739  561  384  223  68  -77  -199  -298  -384  -462  -546  -644  -724  -747  -727  -706  -684  -639  -572  -489  -383  -257  -145  -81  -76  -125  -234  -392  -547  -617  -581  -490  -406  -341  -268  -166  -66  -8  3  3  26  74  120  140  132  79  -78  -389  -766  -1029  -1112  -1077  -995  -911  -854  -798  -691  -581  -617  -816  -1019  -1119  -1045  -594  450  2024  3741  5111  5625  4993  3472  1589  -219  -1524  -2038  -1898  -1498  -1157  -963  -837  -708  -596  -536  -519  -519  -533  -583  -687  -815  -909  -944  -940  -920  -877  -807  -729  -682  -675  -675  -637  -542  -421  -317  -228  -122  -7  79  134  193  289  404  493  570  685  828  931  974  990  1004  1019  1060  1163  1318  1463  1543  1543  1472  1357  1240  1157  1100  1022  897  746  605  470  317  161  56  12  -5  -36  -99  -178  -232  -256  -291  -372  -467  -523  -573  -694  -863  -986  -1027  -1026  -1011  -973  -893  -780  -693  -683  -725  -765  -783  -779  -757  -708  -602  -449  -317  -244  -228  -238  -235  -212  -206  -226  -250  -253  -233  -216  -241  -317  -421  -524  -621  -723  -839  -952  -1037  -1066  -1024  -922  -802  -751  -878  -1198  -1494  -1351  -492  984  2706  4222  5154  5292  4587  3209  1495  -181  -1440  -2010  -1946  -1566  -1161  -882  -760  -724  -728  -776  -836  -861  -844  -820  -837  -894  -937  -931  -882  -803  -729  -697  -695  -679  -616  -513  -398  -265  -102  62  176  224  230  212  174  136  145  243  424  622  767  866  997  1191  1378  1485  1516  1518  1517  1516  1516  1521  1527  1529  1525  1513  1488  1426  1309  1166  1031  862  605  312  102  15  -7  -26  -35  -20  -12  -44  -109  -173  -209  -226  -262  -339  -479  -671  -831  -889  -851  -758  -674  -633  -602  -527  -418  -341  -345  -430  -548  -650  -717  -759  -791  -820  -834  -821  -789  -752  -716  -698  -695  -680  -609  -464  -296  -204  -243  -363  -472  -520  -515  -463  -360  -226  -110  -45  -52  -142  -278  -390  -444  -463  -495  -568  -660  -723  -740  -726  -699  -669  -652  -693  -828  -1047  -1322  -1524  -1329  -455  1101  3084  5100  6719  7537  7275  5861  3526  921  -1123  -2106  -2077  -1523  -1029  -861  -898  -939  -925  -889  -858  -841  -851  -900  -974  -1031  -1026  -944  -827  -729  -657  -585  -506  -431  -376  -351  -348  -355  -367  -380  -374  -324  -230  -119  -10  118  266  401  514  629  749  845  902  943  999  1077  1172  1284  1404  1528  1653  1751  1779  1714  1582  1446  1347  1265  1169  1068  992  966  980  975  896  732  530  351  201  40  -136  -306  -451  -565  -641  -677  -690  -690  -672  -620  -548  -491  -462  -440  -431  -471  -578  -708  -794  -820  -816  -809  -807  -808  -815  -831  -844  -842  -824  -805  -785  -758  -729  -714  -706  -679  -642  -652  -726  -804  -826  -793  -735  -678  -647  -658  -697  -717  -691  -646  -622  -620  -619  -603  -561  -491  -412  -361  -364  -428  -530  -632  -706  -732  -710  -666  -614  -542  -462  -393  -327  -260  -205  -171  -149  -129  -109  -110  -161  -265  -384  -471  -511  -528  -548  -575  -598  -617  -647  -697  -765  -843  -913  -921  -801  -615  -579  -741  -842  -599  159  1514  3376  5452  7315  8418  8233  6562  3765  702  -1626  -2609  -2328  -1421  -633  -362  -467  -616  -684  -712  -730  -739  -750  -788  -863  -909  -831  -644  -457  -346  -312  -324  -339  -341  -336  -340  -349  -316  -219  -120  -76  -72  -62  -18  64  188  342  493  621  749  903  1059  1172  1217  1215  1214  1291  1483  1708  1837  1823  1716  1609  1561  1559  1562  1544  1506  1470  1459  1460  1444  1393  1307  1190  1052  885  697  529  384  215  8  -192  -336  -414  -448  -459  -459  -475  -527  -595  -636  -633  -614  -601  -591  -570  -533  -478  -416  -363  -325  -305  -312  -363  -462  -596  -743  -871  -933  -907  -809  -634  -381  -131  13  29  -53  -191  -340  -461  -528  -542  -524  -501  -498  -518  -540  -548  -547  -547  -561  -584  -582  -509  -381  -268  -214  -204  -205  -196  -178  -179  -233  -338  -461  -578  -674  -733  -750  -745  -737  -740  -749  -738  -673  -555  -430  -363  -430  -679  -1008  -1130  -705  417  2026  3705  5082  5844  5792  4964  3546  1793  104  -1103  -1612  -1519  -1173  -886  -744  -708  -717  -726  -721  -689  -640  -606  -597  -592  -567  -499  -397  -304  -250  -236  -256  -311  -391  -465  -505  -506  -489  -482  -499  -536  -572  -582  -571  -565  -573  -570  -496  -262  172  680  1048  1212  1286  1371  1474  1558  1599  1618  1633  1629  1582  1502  1428  1383  1361  1344  1311  1246  1162  1095  1051  989  858  656  417  179  -28  -181  -273  -320  -350  -364  -354  -332  -320  -318  -315  -303  -286  -275  -272  -268  -268  -296  -365  -462  -553  -607  -629  -651  -676  -689  -690  -685  -673  -647  -614  -588  -569  -555  -545  -537  -528  -524  -550  -629  -746  -850  -906  -903  -841  -740  -650  -621  -626  -610  -561  -497  -428  -363  -326  -368  -531  -757  -923  -983  -967  -879  -683  -390  -94  100  148  73  -51  -166  -271  -366  -423  -435  -434  -464  -549  -664  -765  -834  -892  -960  -1045  -1147  -1246  -1290  -1242  -1120  -977  -897  -979  -1188  -1286  -988  -125  1261  2914  4463  5547  5894  5399  4219  2680  1123  -117  -819  -1036  -973  -804  -688  -704  -769  -786  -756  -713  -671  -618  -527  -396  -275  -211  -212  -267  -356  -440  -491  -509  -519  -539  -566  -586  -581  -529  -433  -317  -201  -107  -57  -48  -41  7  122  298  502  675  776  824  860  910  965  1007  1045  1106  1186  1246  1270  1270  1252  1208  1149  1127  1171  1221  1189  1078  962  871  777  653  509  371  231  41  -200  -434  -618  -741  -803  -784  -667  -501  -378  -334  -344  -382  -441  -515  -591  -655  -694  -697  -676  -659  -661  -678  -693  -697  -700  -725  -775  -811  -799  -753  -698  -646  -624  -646  -685  -709  -719  -731  -735  -683  -529  -314  -147  -80  -83  -134  -249  -420  -577  -644  -607  -497  -358  -235  -164  -150  -165  -173  -166  -172  -230  -332  -417  -456  -468  -476  -459  -371  -199  -8  120  182  217  226  195  158  149  170  207  226  211  178  145  129  128  133  140  131  64  -79  -267  -431  -526  -561  -571  -574  -570  -538  -465  -375  -293  -220  -37  580  1842  3483  5042  6216  6732  6397  5362  3890  2121  395  -751  -1120  -907  -412  10  127  34  -69  -145  -243  -358  -440  -469  -476  -489  -508  -515  -503  -476  -433  -355  -245  -129  -3  145  279  352  371  369  367  363  327  236  120  32  -7  -26  -44  -53  -33  28  155  368  615  783  824  777  707  663  673  740  834  905  923  886  806  717  661  646  639  584  425  158  -122  -307  -393  -435  -455  -454  -449  -481  -580  -724  -852  -926  -940  -924  -929  -960  -979  -952  -880  -798  -737  -697  -682  -710  -777  -864  -961  -1048  -1084  -1032  -903  -764  -673  -629  -598  -584  -654  -865  -1147  -1351  -1419  -1408  -1362  -1270  -1135  -990  -851  -710  -581  -499  -475  -484  -501  -519  -539  -571  -620  -673  -703  -711  -736  -814  -925  -1003  -999  -915  -799  -708  -650  -583  -481  -368  -296  -290  -321  -347  -352  -345  -352  -401  -494  -601  -681  -681  -549  -298  -30  149  222  235  229  224  215  182  121  46  -48  -173  -303  -391  -424  -425  -421  -418  -416  -406  -381  -369  -458  -691  -938  -878  -179  1246  3112  4850  5972  6309  5848  4597  2780  857  -723  -1649  -1781  -1284  -658  -373  -425  -494  -435  -332  -255  -212  -192  -182  -185  -215  -275  -334  -357  -340  -285  -224  -234  -303  -335  -312  -276  -241  -192  -107  22  164  258  286  289  320  401  520  655  792  920  1033  1115  1159  1188  1250  1367  1515  1647  1731  1764  1767  1762  1749  1719  1673  1605  1496  1346  1199  1096  1044  1023  991  914  768  567  369  223  110  -5  -124  -235  -361  -526  -695  -806  -842  -831  -796  -725  -606  -488  -443  -469  -515  -553  -566  -545  -516  -508  -524  -549  -572  -589  -605  -619  -630  -635  -634  -628  -623  -619  -591  -515  -411  -338  -331  -380  -460  -544  -616  -664  -682  -664  -607  -534  -507  -570  -698  -819  -886  -903  -892  -862  -817  -758  -686  -610  -546  -506  -484  -474  -496  -579  -716  -846  -917  -917  -860  -768  -668  -585  -520  -447  -342  -232  -182  -226  -320  -396  -434  -457  -464  -402  -217  39  241  330  345  312  212  23  -246  -559  -838  -992  -982  -830  -616  -452  -411  -495  -637  -738  -770  -829  -1000  -1061  -592  531  2084  3774  5292  6294  6465  5630  3870  1542  -753  -2353  -2852  -2398  -1571  -873  -504  -453  -567  -692  -780  -834  -858  -862  -850  -819  -782  -771  -801  -843  -850  -803  -720  -626  -536  -456  -404  -399  -435  -470  -422  -257  -56  85  164  238  332  412  446  440  409  386  453  699  1087  1444  1661  1779  1874  1961  1997  1948  1844  1749  1702  1684  1665  1641  1629  1652  1708  1746  1702  1560  1347  1122  951  851  772  662  506  321  141  -6  -114  -188  -241  -295  -367  -457  -552  -608  -570  -460  -364  -328  -331  -340  -342  -336  -327  -314  -300  -289  -280  -266  -256  -292  -397  -513  -525  -409  -264  -178  -159  -165  -165  -167  -198  -267  -365  -488  -617  -704  -736  -738  -735  -729  -703  -642  -559  -482  -426  -388  -365  -366  -413  -518  -645  -741  -780  -772  -739  -699  -672  -668  -671  -621  -463  -239  -66  -12  -78  -254  -482  -640  -629  -435  -150  102  283  379  303  1  -410  -737  -897  -950  -974  -992  -1002  -1007  -1008  -1004  -995  -987  -978  -965  -959  -1007  -1164  -1393  -1530  -1288  -344  1346  3427  5372  6659  6854  5807  3735  1133  -1336  -3015  -3552  -3112  -2248  -1527  -1178  -1098  -1084  -1015  -899  -804  -755  -739  -747  -767  -791  -816  -846  -885  -917  -926  -908  -876  -855  -829  -705  -417  -49  214  293  261  209  165  124  96  120  235  419  593  706  768  800  840  953  1161  1428  1698  1908  2022  2056  2053  2047  2038  2014  1983  1969  1966  1912  1744  1502  1291  1153  1063  1005  976  957  920  828  648  387  118  -87  -243  -403  -560  -664  -706  -723  -750  -785  -804  -795  -772  -762  -775  -796  -791  -747  -686  -634  -589  -547  -525  -530  -542  -544  -542  -550  -568  -586  -599  -610  -618  -622  -624  -627  -633  -639  -642  -638  -613  -556  -483  -434  -420  -417  -407  -387  -363  -340  -310  -273  -255  -305  -450  -650  -812  -884  -889  -880  -879  -867  -791  -623  -441  -363  -374  -370  -315  -237  -160  -91  -8  111  244  323  297  183  35  -96  -203  -317  -451  -563  -599  -565  -528  -572  -730  -919  -1013  -967  -808  -610  -538  -692  -923  -919  -350  960  2871  4973  6667  7352  6779  5102  2742  338  -1472  -2354  -2384  -1896  -1281  -867  -756  -813  -887  -933  -970  -1013  -1047  -1009  -821  -493  -174  -17  -44  -177  -334  -466  -537  -529  -446  -328  -235  -201  -208  -225  -216  -149  -34  102  265  458  621  702  714  708  727  813  996  1253  1489  1625  1666  1674  1709  1805  1958  2124  2239  2284  2296  2300  2306  2315  2291  2180  1979  1735  1511  1365  1312  1305  1276  1165  974  777  653  616  611  554  390  153  -51  -143  -135  -99  -117  -237  -430  -600  -681  -688  -651  -576  -470  -366  -305  -303  -340  -387  -444  -532  -642  -747  -827  -871  -884  -890  -907  -941  -990  -1048  -1085  -1072  -1007  -914  -831  -776  -749  -773  -867  -1003  -1128  -1214  -1272  -1321  -1354  -1339  -1260  -1140  -1032  -964  -930  -915  -896  -849  -776  -694  -607  -525  -466  -444  -474  -574  -723  -868  -997  -1123  -1233  -1287  -1267  -1193  -1116  -1062  -1022  -977  -939  -958  -1090  -1328  -1553  -1609  -1429  -979  -171  1075  2652  4258  5587  6306  6019  4572  2289  -119  -1897  -2633  -2436  -1823  -1342  -1174  -1183  -1221  -1240  -1244  -1244  -1229  -1181  -1092  -976  -866  -792  -748  -726  -731  -771  -832  -889  -914  -869  -724  -522  -363  -295  -288  -304  -323  -319  -251  -102  69  189  279  418  608  769  859  909  970  1071  1199  1313  1401  1476  1546  1611  1691  1800  1914  1990  2022  2039  2057  2058  2005  1833  1508  1117  814  661  598  547  469  353  205  55  -73  -199  -334  -452  -533  -568  -574  -589  -622  -637  -622  -600  -617  -673  -718  -723  -710  -698  -694  -695  -710  -745  -789  -823  -838  -839  -836  -829  -800  -734  -648  -582  -544  -517  -491  -481  -519  -600  -673  -703  -709  -725  -767  -815  -814  -726  -591  -491  -454  -439  -399  -326  -244  -176  -124  -73  -20  18  35  44  47  13  -95  -261  -428  -579  -721  -833  -899  -927  -936  -941  -948  -956  -957  -968  -1023  -1139  -1265  -1339  -1290  -945  -41  1560  3618  5566  6901  7337  6734  5208  3172  1098  -616  -1652  -1900  -1580  -1044  -607  -463  -556  -689  -757  -778  -787  -782  -756  -717  -676  -644  -627  -633  -655  -661  -634  -598  -565  -520  -458  -404  -380  -373  -333  -208  -14  167  278  325  362  446  566  663  724  792  889  1007  1147  1288  1381  1408  1399  1383  1378  1407  1487  1598  1688  1730  1740  1734  1686  1552  1341  1137  1019  981  957  878  727  561  441  376  332  258  107  -112  -333  -498  -610  -700  -777  -836  -871  -889  -893  -858  -755  -615  -510  -489  -529  -586  -644  -705  -760  -806  -864  -936  -986  -975  -883  -740  -610  -529  -499  -526  -599  -681  -745  -781  -789  -765  -705  -631  -580  -561  -556  -554  -553  -552  -548  -536  -512  -480  -449  -406  -328  -228  -152  -121  -119  -129  -160  -229  -326  -416  -497  -587  -672  -722  -735  -737  -743  -737  -675  -524  -329  -266  -483  -848  -1045  -754  304  2105  4186  6013  7115  7063  5813  3806  1589  -318  -1450  -1653  -1225  -661  -317  -296  -515  -803  -1020  -1118  -1106  -1022  -918  -834  -798  -813  -841  -840  -817  -802  -809  -814  -767  -636  -453  -306  -250  -275  -335  -399  -453  -478  -425  -257  -28  142  207  218  230  261  318  433  628  863  1068  1223  1339  1412  1447  1473  1500  1523  1541  1555  1563  1564  1540  1454  1295  1094  911  805  785  808  808  716  511  258  47  -98  -206  -299  -394  -487  -554  -591  -641  -746  -852  -839  -693  -529  -432  -404  -429  -497  -581  -640  -661  -673  -700  -736  -756  -752  -740  -739  -747  -756  -766  -781  -808  -844  -875  -887  -877  -853  -830  -815  -795  -771  -767  -789  -815  -824  -807  -770  -721  -669  -624  -584  -532  -457  -373  -309  -278  -268  -255  -226  -189  -155  -133  -126  -142  -190  -267  -354  -437  -505  -546  -573  -619  -690  -757  -804  -839  -871  -918  -1008  -1165  -1372  -1421  -901  419  2303  4253  5834  6774  6965  6393  5075  3163  1094  -550  -1416  -1554  -1298  -1045  -1017  -1099  -1096  -1019  -972  -968  -958  -911  -846  -797  -754  -664  -520  -384  -304  -269  -247  -228  -210  -185  -150  -114  -82  -46  -17  -11  -25  -39  -20  77  258  452  581  634  652  687  768  883  993  1088  1200  1345  1487  1577  1634  1716  1819  1867  1807  1679  1564  1502  1482  1486  1504  1514  1464  1306  1075  849  644  462  345  303  281  228  143  55  -15  -68  -111  -159  -229  -322  -437  -594  -776  -906  -949  -934  -890  -827  -770  -756  -789  -851  -906  -915  -885  -848  -807  -782  -797  -827  -834  -818  -792  -780  -797  -837  -876  -899  -907  -908  -898  -865  -810  -758  -730  -724  -728  -741  -770  -806  -820  -793  -734  -669  -617  -586  -578  -581  -567  -511  -424  -337  -267  -225  -234  -287  -344  -380  -403  -434  -487  -572  -698  -838  -937  -958  -923  -879  -864  -912  -1083  -1341  -1465  -1207  -404  1001  2803  4636  6198  7198  7357  6558  4917  2767  583  -1104  -1923  -1910  -1436  -908  -570  -480  -560  -679  -761  -809  -840  -860  -864  -845  -800  -747  -704  -669  -644  -632  -625  -610  -580  -537  -486  -431  -380  -349  -344  -358  -363  -321  -226  -118  -14  103  242  381  491  551  582  638  756  917  1063  1149  1176  1173  1163  1169  1214  1297  1384  1442  1462  1432  1327  1161  1007  928  925  966  1014  1024  941  733  438  131  -137  -340  -446  -462  -433  -408  -427  -472  -479  -431  -377  -348  -343  -355  -391  -474  -615  -765  -861  -882  -830  -716  -581  -494  -508  -625  -786  -902  -943  -944  -927  -884  -815  -775  -784  -791  -776  -783  -815  -841  -851  -852  -835  -784  -705  -637  -617  -664  -780  -924  -1026  -1058  -1034  -967  -860  -736  -632  -563  -522  -506  -512  -520  -491  -393  -244  -109  -37  -42  -106  -201  -310  -434  -559  -658  -709  -718  -709  -702  -714  -758  -823  -894  -976  -1037  -989  -868  -762  -462  421  1993  3990  5955  7326  7622  6678  4680  2119  -334  -2074  -2756  -2469  -1712  -1012  -630  -541  -567  -587  -605  -656  -720  -751  -740  -729  -736  -738  -715  -666  -585  -460  -324  -252  -268  -328  -380  -406  -405  -394  -384  -359  -289  -191  -121  -106  -110  -73  48  241  430  545  589  652  815  1050  1246  1357  1412  1441  1458  1475  1492  1500  1496  1484  1454  1395  1323  1262  1214  1178  1163  1164  1156  1105  995  846  683  490  260  49  -80  -144  -216  -342  -496  -618  -671  -632  -486  -285  -133  -75  -76  -103  -165  -280  -445  -640  -819  -931  -962  -919  -804  -653  -529  -443  -373  -321  -309  -341  -394  -446  -499  -568  -640  -685  -706  -753  -875  -1036  -1117  -1049  -886  -732  -640  -603  -594  -596  -611  -657  -705  -654  -472  -266  -137  -86  -75  -76  -66  -25  46  119  161  126  -40  -312  -574  -731  -786  -782  -756  -743  -749  -750  -718  -655  -573  -478  -422  -544  -924  -1363  -1396  -620  1014  3188  5343  6896  7405  6673  4865  2452  22  -1868  -2851  -2903  -2370  -1711  -1179  -790  -515  -358  -298  -290  -300  -316  -334  -344  -342  -342  -350  -355  -345  -320  -292  -279  -279  -283  -290  -296  -301  -308  -311  -273  -159  12  170  280  356  402  422  431  443  480  564  679  779  843  892  960  1065  1195  1314  1403  1467  1505  1507  1480  1447  1447  1500  1545  1493  1333  1109  886  721  599  477  360  281  231  185  122  32  -73  -166  -218  -227  -218  -238  -319  -437  -518  -509  -432  -323  -214  -140  -114  -116  -121  -119  -121  -152  -208  -253  -259  -250  -293  -439  -653  -834  -929  -952  -923  -858  -783  -729  -698  -676  -667  -674  -670  -633  -557  -436  -293  -195  -176  -210  -253  -295  -323  -273  -119  59  157  147  64  -64  -248  -452  -598  -656  -664  -663  -680  -733  -815  -906  -985  -1033  -1031  -1003  -1033  -1178  -1356  -1431  -1292  -747  332  1851  3588  5169  6110  6082  4995  3099  961  -911  -2192  -2669  -2477  -2060  -1741  -1506  -1192  -819  -565  -502  -551  -624  -683  -714  -720  -716  -711  -709  -716  -735  -758  -761  -724  -660  -606  -584  -589  -607  -609  -549  -395  -189  -6  119  196  237  266  312  391  510  660  786  833  844  897  981  1042  1073  1101  1146  1204  1261  1283  1249  1203  1204  1254  1285  1249  1184  1147  1131  1088  981  836  722  654  544  292  -60  -351  -484  -504  -480  -417  -289  -136  -67  -156  -350  -531  -630  -656  -644  -619  -590  -553  -493  -415  -359  -354  -395  -457  -513  -551  -572  -581  -583  -580  -573  -573  -594  -633  -666  -681  -688  -700  -706  -657  -512  -313  -168  -121  -128  -134  -114  -64  1  42  -13  -216  -499  -711  -788  -782  -760  -749  -758  -797  -872  -980  -1097  -1186  -1228  -1223  -1168  -1089  -1119  -1317  -1424  -1057  -50  1496  3314  5039  6215  6365  5231  3013  324  -2066  -3475  -3637  -2895  -1879  -1043  -577  -489  -596  -685  -687  -646  -614  -609  -621  -629  -630  -629  -619  -599  -567  -510  -426  -343  -289  -269  -269  -277  -291  -307  -314  -272  -141  53  240  363  412  416  442  529  676  857  1019  1116  1150  1165  1197  1250  1321  1417  1524  1600  1628  1627  1621  1620  1635  1671  1701  1659  1532  1385  1242  1058  836  668  593  546  443  256  4  -241  -395  -438  -427  -416  -421  -439  -456  -461  -450  -432  -412  -394  -391  -424  -485  -551  -615  -683  -743  -754  -703  -620  -520  -393  -258  -168  -159  -236  -356  -459  -525  -557  -516  -355  -99  151  315  372  342  237  79  -100  -288  -464  -585  -637  -652  -654  -648  -646  -677  -742  -816  -890  -942  -885  -695  -577  -677  -813  -738  -325  542  1884  3406  4658  5310  5087  3818  1700  -694  -2652  -3638  -3525  -2611  -1527  -835  -623  -649  -704  -723  -719  -715  -716  -716  -705  -683  -651  -622  -603  -600  -605  -613  -618  -616  -608  -597  -588  -584  -582  -584  -588  -575  -506  -355  -128  105  267  339  363  374  410  537  787  1082  1302  1412  1454  1464  1464  1462  1460  1466  1493  1557  1651  1724  1730  1669  1556  1419  1287  1133  932  734  602  547  541  542  491  341  103  -163  -386  -516  -562  -580  -610  -650  -690  -719  -715  -663  -568  -461  -384  -350  -341  -343  -374  -458  -573  -664  -708  -730  -744  -706  -558  -328  -136  -64  -79  -108  -111  -75  -9  61  112  129  103  16  -111  -219  -267  -282  -335  -476  -660  -783  -810  -792  -777  -775  -775  -777  -786  -805  -840  -891  -927  -929  -964  -1099  -1246  -1194  -700  412  2048  3774  5086  5614  5141  3727  1796  -119  -1601  -2326  -2271  -1814  -1384  -1138  -1021  -960  -929  -913  -901  -893  -891  -904  -941  -988  -1006  -961  -858  -748  -698  -729  -783  -778  -677  -529  -421  -387  -395  -405  -396  -355  -260  -109  53  177  279  389  487  550  606  693  799  872  895  909  969  1084  1213  1303  1331  1312  1282  1264  1257  1257  1267  1281  1283  1258  1198  1112  1010  879  709  517  332  159  -14  -187  -349  -477  -548  -545  -473  -362  -256  -198  -205  -262  -324  -371  -429  -528  -625  -657  -633  -606  -595  -593  -596  -616  -656  -670  -591  -441  -318  -280  -303  -341  -370  -385  -395  -401  -382  -310  -191  -76  -8  18  35  55  53  -33  -243  -509  -713  -830  -920  -1016  -1105  -1156  -1160  -1131  -1063  -899  -629  -425  -525  -889  -1129  -848  117  1700  3508  4940  5558  5245  4138  2520  693  -979  -2086  -2422  -2109  -1487  -915  -611  -578  -649  -692  -702  -705  -706  -715  -749  -815  -899  -965  -973  -904  -762  -590  -450  -376  -349  -343  -327  -269  -172  -64  21  68  81  77  69  64  76  119  190  277  397  570  790  1002  1134  1174  1174  1177  1190  1206  1221  1241  1262  1277  1270  1239  1207  1188  1159  1080  931  754  621  559  544  545  534  487  386  239  76  -80  -224  -356  -467  -540  -575  -584  -578  -577  -606  -672  -738  -746  -694  -634  -603  -597  -599  -608  -630  -668  -700  -689  -638  -590  -575  -583  -591  -588  -573  -555  -540  -530  -520  -498  -464  -434  -415  -373  -274  -125  33  148  197  200  177  118  -1  -178  -378  -556  -682  -752  -781  -787  -783  -779  -785  -801  -811  -781  -757  -908  -1249  -1429  -1077  -92  1448  3279  4921  5908  5993  5167  3582  1552  -407  -1807  -2408  -2270  -1718  -1144  -781  -650  -632  -625  -616  -628  -673  -743  -814  -874  -904  -866  -751  -619  -534  -495  -475  -467  -468  -457  -388  -229  -26  123  174  145  63  -42  -114  -82  100  383  624  734  742  737  808  997  1239  1409  1444  1373  1255  1150  1094  1113  1256  1544  1876  2062  2013  1809  1566  1344  1169  1052  978  921  869  812  755  720  721  723  666  519  299  75  -73  -127  -127  -116  -107  -93  -81  -107  -215  -384  -542  -664  -761  -793  -719  -581  -465  -392  -334  -284  -263  -280  -330  -405  -509  -648  -787  -873  -904  -909  -900  -857  -770  -665  -586  -559  -581  -622  -658  -688  -714  -735  -746  -738  -691  -594  -458  -319  -203  -97  7  84  109  82  0  -134  -300  -471  -631  -760  -833  -850  -846  -849  -859  -855  -837  -830  -853  -917  -1070  -1334  -1608  -1622  -1037  292  2186  4197  5808  6679  6645  5655  3874  1658  -517  -2074  -2639  -2345  -1652  -1006  -703  -773  -977  -1095  -1109  -1085  -1057  -1021  -965  -898  -829  -760  -702  -660  -634  -623  -615  -598  -559  -491  -410  -346  -304  -273  -254  -254  -261  -236  -143  2  129  189  212  264  390  576  745  842  900  970  1054  1133  1197  1245  1286  1334  1386  1424  1433  1441  1486  1548  1559  1477  1329  1194  1102  1014  893  746  584  434  334  281  221  143  81  53  23  -47  -152  -250  -319  -365  -394  -414  -429  -440  -443  -439  -432  -431  -457  -526  -612  -654  -623  -550  -495  -486  -518  -578  -645  -697  -724  -732  -721  -681  -605  -514  -451  -441  -478  -545  -626  -738  -903  -1056  -1076  -963  -843  -803  -828  -868  -907  -958  -1007  -994  -879  -710  -580  -521  -497  -461  -403  -344  -294  -239  -184  -158  -209  -373  -608  -810  -919  -958  -972  -989  -1010  -1023  -1022  -1010  -1000  -992  -952  -823  -659  -680  -979  -1293  -1162  -236  1481  3619  5649  7013  7259  6293  4382  1959  -381  -1993  -2579  -2368  -1804  -1245  -924  -875  -938  -969  -944  -884  -812  -752  -714  -687  -674  -676  -684  -689  -693  -693  -673  -622  -554  -500  -474  -470  -466  -439  -380  -299  -206  -102  5  98  169  246  358  484  569  599  608  649  742  859  969  1079  1199  1323  1436  1526  1580  1600  1607  1624  1652  1678  1693  1683  1618  1474  1252  986  751  606  540  511  497  491  477  424  310  150  -14  -140  -205  -217  -197  -153  -103  -85  -126  -211  -296  -355  -386  -393  -382  -359  -325  -285  -258  -250  -252  -256  -260  -265  -267  -269  -294  -368  -478  -578  -644  -686  -721  -740  -726  -675  -585  -464  -354  -307  -350  -456  -562  -627  -654  -660  -658  -648  -627  -597  -576  -572  -574  -552  -484  -385  -299  -244  -213  -197  -184  -154  -96  -20  60  135  193  217  206  171  102  -23  -185  -316  -389  -422  -436  -440  -444  -455  -459  -432  -381  -356  -385  -436  -493  -580  -668  -589  -76  1034  2655  4503  6154  7080  6896  5602  3541  1268  -611  -1706  -2023  -1850  -1472  -1084  -817  -674  -596  -555  -547  -565  -603  -649  -687  -705  -701  -682  -661  -641  -617  -597  -592  -604  -626  -642  -641  -629  -622  -619  -607  -565  -490  -396  -308  -228  -124  43  287  552  748  833  855  877  913  946  976  1024  1093  1164  1214  1234  1230  1217  1189  1136  1079  1057  1057  1030  949  816  669  560  504  475  449  381  224  3  -181  -276  -322  -372  -439  -492  -520  -538  -554  -559  -559  -576  -632  -714  -781  -810  -802  -757  -679  -592  -527  -509  -547  -627  -715  -795  -863  -903  -898  -845  -763  -683  -616  -557  -514  -514  -568  -642  -699  -730  -755  -794  -828  -788  -620  -382  -216  -205  -315  -455  -568  -666  -767  -872  -979  -1028  -966  -830  -700  -620  -589  -586  -593  -598  -602  -607  -612  -618  -627  -639  -633  -569  -421  -232  -80  10  59  85  98  110  114  72  -56  -242  -415  -552  -671  -768  -836  -881  -907  -913  -901  -866  -808  -741  -699  -758  -1012  -1392  -1546  -1056  254  2215  4367  6196  7348  7568  6718  4906  2473  -12  -1864  -2652  -2431  -1669  -995  -701  -600  -465  -280  -113  -10  18  -9  -71  -133  -178  -226  -299  -398  -482  -487  -400  -278  -169  -93  -54  -42  -45  -71  -133  -206  -213  -106  61  189  264  362  528  729  914  1054  1138  1171  1175  1176  1188  1216  1258  1306  1352  1391  1417  1428  1431  1432  1434  1434  1417  1371  1296  1212  1145  1111  1095  1063  990  851  624  319  8  -228  -360  -409  -424  -441  -479  -564  -703  -854  -951  -962  -910  -845  -793  -744  -704  -707  -773  -877  -966  -1009  -1019  -1015  -994  -938  -854  -771  -697  -637  -601  -590  -583  -563  -529  -497  -484  -522  -639  -806  -959  -1063  -1109  -1090  -1022  -933  -870  -861  -853  -803  -748  -722  -712  -695  -670  -637  -596  -562  -551  -559  -574  -586  -594  -602  -586  -507  -363  -208  -101  -57  -69  -157  -347  -585  -755  -819  -826  -813  -754  -620  -463  -376  -378  -421  -474  -519  -552  -628  -849  -1165  -1243  -726  498  2315  4349  5969  6633  6175  4675  2421  3  -1897  -2875  -2975  -2451  -1615  -867  -449  -319  -376  -563  -793  -950  -976  -898  -788  -710  -676  -668  -678  -706  -719  -669  -541  -387  -278  -232  -223  -246  -318  -418  -464  -354  -51  337  631  766  807  854  959  1111  1265  1396  1496  1560  1611  1679  1772  1878  1978  2048  2071  2054  2022  1992  1969  1957  1973  2030  2119  2201  2222  2132  1916  1621  1315  997  658  373  226  214  272  315  239  -65  -576  -1077  -1341  -1257  -839  -277  135  271  187  -42  -323  -519  -575  -521  -398  -252  -151  -150  -267  -465  -653  -762  -799  -794  -771  -772  -837  -978  -1157  -1302  -1379  -1421  -1461  -1481  -1444  -1332  -1174  -1019  -900  -836  -823  -822  -803  -774  -746  -737  -739  -731  -711  -690  -695  -709  -657  -523  -393  -303  -214  -150  -191  -327  -459  -544  -630  -741  -849  -925  -973  -997  -989  -938  -861  -822  -862  -932  -963  -946  -950  -1086  -1331  -1381  -833  451  2230  4023  5318  5730  5112  3646  1801  99  -1074  -1557  -1476  -1154  -908  -906  -1069  -1198  -1204  -1121  -1010  -911  -827  -754  -705  -686  -691  -726  -792  -832  -771  -620  -473  -383  -328  -277  -232  -213  -221  -231  -219  -166  -78  19  119  228  344  455  552  634  706  768  821  897  1052  1283  1499  1617  1643  1621  1578  1524  1482  1479  1519  1580  1619  1610  1552  1446  1299  1138  971  808  677  588  507  394  252  130  43  -40  -122  -173  -200  -239  -297  -357  -407  -451  -505  -568  -624  -662  -683  -693  -693  -663  -587  -502  -471  -505  -546  -547  -514  -492  -526  -614  -706  -754  -753  -728  -692  -639  -568  -499  -459  -463  -497  -521  -508  -466  -420  -417  -483  -588  -678  -714  -657  -532  -423  -348  -251  -125  -28  5  0  -10  -5  21  60  81  62  22  -4  -12  -23  -59  -112  -165  -211  -254  -309  -394  -510  -625  -712  -768  -806  -807  -760  -731  -603  26  1396  3349  5481  7268  8170  7853  6403  4235  1877  -104  -1291  -1684  -1570  -1204  -802  -559  -515  -579  -679  -778  -840  -857  -864  -903  -980  -1064  -1121  -1149  -1151  -1091  -920  -659  -396  -208  -122  -137  -228  -340  -420  -453  -444  -396  -331  -252  -118  72  250  365  432  483  537  612  704  783  840  886  920  938  957  996  1046  1061  1009  914  832  789  778  794  833  869  859  783  634  434  246  122  34  -75  -215  -368  -557  -765  -913  -960  -948  -926  -913  -916  -939  -984  -1044  -1103  -1136  -1133  -1104  -1066  -1032  -1013  -993  -943  -869  -821  -846  -936  -1030  -1077  -1078  -1070  -1071  -1080  -1091  -1106  -1140  -1193  -1247  -1291  -1327  -1343  -1293  -1136  -919  -758  -701  -714  -772  -875  -995  -1074  -1086  -1044  -984  -918  -821  -682  -548  -476  -475  -510  -541  -547  -524  -454  -344  -249  -206  -196  -190  -187  -213  -305  -463  -634  -757  -811  -805  -754  -683  -624  -588  -606  -748  -1038  -1343  -1362  -740  692  2743  4996  6937  8001  7908  6783  4842  2410  132  -1340  -1810  -1529  -917  -406  -277  -482  -739  -869  -902  -916  -917  -859  -724  -561  -452  -449  -525  -602  -638  -641  -613  -541  -443  -361  -314  -282  -239  -169  -74  36  178  336  455  521  583  674  772  833  857  890  961  1049  1112  1161  1241  1368  1502  1609  1699  1777  1826  1842  1841  1835  1817  1778  1715  1614  1463  1269  1076  950  914  921  865  642  283  -34  -192  -237  -254  -276  -301  -332  -366  -367  -306  -213  -150  -161  -255  -398  -535  -642  -750  -888  -1007  -1004  -873  -718  -618  -579  -574  -576  -567  -550  -541  -559  -597  -629  -647  -658  -643  -591  -537  -511  -507  -509  -516  -534  -570  -625  -683  -721  -730  -725  -721  -741  -803  -885  -917  -818  -578  -295  -80  45  131  195  225  214  182  159  153  140  92  2  -125  -290  -463  -592  -655  -671  -664  -656  -679  -762  -880  -957  -925  -833  -856  -1059  -1248  -1184  -710  298  1827  3633  5374  6662  7052  6243  4349  1887  -484  -2125  -2681  -2330  -1578  -912  -587  -559  -641  -714  -752  -760  -749  -730  -706  -677  -644  -600  -554  -527  -526  -536  -532  -494  -417  -321  -240  -193  -174  -170  -170  -156  -136  -124  -111  -64  60  294  580  806  935  999  1026  1038  1044  1048  1075  1142  1234  1325  1393  1426  1436  1447  1465  1477  1478  1475  1476  1480  1472  1422  1285  1046  767  530  360  230  138  86  28  -85  -233  -344  -400  -429  -431  -397  -370  -413  -531  -660  -734  -732  -672  -591  -531  -503  -478  -441  -413  -423  -472  -550  -640  -703  -723  -719  -709  -699  -688  -674  -662  -659  -667  -678  -675  -642  -580  -517  -488  -495  -518  -546  -570  -576  -556  -515  -484  -490  -523  -553  -554  -524  -489  -462  -432  -400  -382  -378  -358  -294  -198  -96  10  116  179  173  128  78  16  -88  -254  -446  -591  -648  -647  -651  -667  -663  -629  -587  -554  -563  -666  -858  -991  -788  18  1485  3343  5063  6141  6292  5395  3544  1174  -1090  -2682  -3279  -2969  -2203  -1462  -976  -745  -660  -613  -577  -566  -590  -647  -727  -817  -891  -916  -885  -837  -793  -729  -619  -465  -309  -210  -186  -202  -213  -179  -85  18  51  16  -19  -10  53  158  290  427  538  619  687  742  780  807  827  862  988  1269  1624  1867  1885  1687  1380  1130  1035  1074  1156  1200  1158  1036  883  736  597  468  365  294  253  243  246  211  87  -111  -307  -444  -528  -597  -662  -678  -597  -444  -306  -238  -225  -232  -251  -303  -403  -519  -567  -491  -321  -156  -69  -69  -140  -268  -416  -530  -581  -575  -538  -502  -478  -458  -454  -485  -530  -560  -568  -556  -527  -484  -420  -347  -287  -239  -191  -170  -196  -232  -229  -178  -100  -19  34  35  -41  -193  -358  -462  -496  -497  -492  -483  -480  -518  -631  -786  -894  -908  -855  -789  -749  -747  -773  -712  -345  496  1809  3339  4615  5178  4784  3451  1476  -647  -2422  -3436  -3548  -2985  -2151  -1439  -1068  -970  -951  -918  -893  -905  -926  -911  -839  -722  -597  -502  -444  -412  -393  -386  -395  -421  -469  -537  -579  -544  -422  -233  -19  154  267  355  437  497  533  583  677  793  883  936  972  1004  1040  1117  1270  1467  1624  1705  1757  1818  1855  1827  1764  1699  1630  1564  1505  1432  1345  1250  1133  980  778  534  302  135  23  -66  -142  -217  -308  -395  -455  -489  -512  -528  -529  -523  -538  -600  -698  -790  -846  -869  -871  -831  -723  -576  -467  -432  -450  -489  -519  -515  -477  -433  -415  -430  -457  -471  -473  -472  -456  -422  -393  -397  -444  -511  -564  -584  -567  -505  -401  -281  -170  -81  -1  75  131  151  130  62  -37  -131  -194  -229  -282  -433  -729  -1079  -1317  -1358  -1216  -961  -710  -565  -526  -544  -610  -766  -1039  -1354  -1548  -1469  -944  192  1865  3715  5298  6182  6046  4859  2936  806  -983  -2024  -2226  -1847  -1279  -842  -662  -670  -745  -826  -905  -992  -1086  -1169  -1219  -1218  -1148  -1005  -824  -680  -622  -631  -657  -672  -674  -669  -645  -575  -460  -343  -266  -238  -242  -245  -200  -77  99  273  406  499  566  635  723  816  891  928  944  980  1064  1168  1252  1307  1351  1385  1398  1379  1317  1219  1127  1079  1066  1031  918  722  501  321  192  87  -18  -125  -203  -234  -234  -221  -209  -213  -270  -413  -608  -761  -828  -833  -797  -703  -554  -427  -416  -513  -628  -705  -751  -791  -828  -820  -735  -612  -514  -465  -450  -452  -464  -488  -516  -546  -599  -688  -759  -742  -646  -530  -430  -351  -295  -264  -256  -265  -287  -308  -297  -240  -165  -92  -7  81  142  161  143  92  0  -129  -287  -444  -563  -622  -633  -618  -608  -629  -658  -676  -684  -682  -725  -919  -1202  -1291  -937  -23  1482  3392  5279  6730  7449  7197  5958  4009  1779  -175  -1309  -1520  -1204  -795  -546  -530  -632  -697  -670  -581  -488  -433  -420  -429  -437  -411  -319  -180  -61  -14  -32  -63  -71  -49  12  119  235  308  330  322  307  311  356  442  542  634  709  755  775  810  935  1197  1523  1766  1862  1866  1849  1841  1839  1838  1844  1873  1926  1982  2029  2048  2012  1914  1773  1598  1384  1155  985  908  883  840  725  532  331  202  153  141  140  145  140  103  23  -64  -122  -147  -167  -202  -249  -286  -299  -284  -237  -173  -125  -124  -177  -257  -319  -342  -336  -321  -303  -280  -254  -229  -208  -189  -175  -172  -178  -181  -165  -135  -120  -150  -197  -213  -204  -207  -213  -197  -166  -156  -176  -178  -110  3  92  127  132  136  139  115  39  -76  -196  -305  -406  -490  -552  -588  -597  -585  -562  -541  -540  -579  -673  -798  -903  -978  -1072  -1260  -1492  -1533  -1109  -7  1738  3739  5545  6808  7165  6403  4697  2463  237  -1391  -2114  -2084  -1712  -1386  -1269  -1296  -1341  -1323  -1226  -1090  -985  -974  -1107  -1386  -1703  -1904  -1928  -1814  -1641  -1499  -1438  -1449  -1498  -1541  -1527  -1447  -1346  -1281  -1265  -1280  -1297  -1287  -1222  -1112  -1005  -945  -933  -953  -998  -1048  -1058  -994  -879  -781  -740  -738  -729  -683  -608  -530]
