reading_id,reading_time,wire_id,result_classification,heart_rate,heart_rate_alert,firmware_version,device_app_version,hardware_version,waveform_samples
2f6d2760-d9a4-11ed-8080-808080808080,Thu Apr 13 02:37:51 UTC 2023,e12964476439,NSR,60,NONE,20001.188.58,2.13.0,Charge 5,[-5558  -5721  -5931  -6122  -6215  -6270  -6460  -6873  -7401  -7922  -8457  -9009  -9440  -9644  -9619  -9343  -8816  -8210  -7752  -7496  -7363  -7269  -7147  -6925  -6522  -5905  -5127  -4273  -3441  -2725  -2158  -1768  -1595  -1512  -1238  -645  99  760  1311  1907  2506  2747  2109  66  -3225  -6560  -8766  -9488  -8830  -7225  -5379  -3887  -3019  -2683  -2596  -2614  -2776  -3107  -3496  -3857  -4314  -5021  -5829  -6428  -6731  -6886  -7006  -7112  -7215  -7329  -7434  -7508  -7566  -7615  -7579  -7281  -6613  -5689  -4718  -3856  -3177  -2635  -2132  -1707  -1518  -1621  -1873  -2083  -2189  -2231  -2237  -2210  -2193  -2294  -2611  -3052  -3392  -3511  -3426  -3146  -2711  -2271  -1990  -1856  -1650  -1179  -517  102  579  921  1107  1159  1195  1387  1922  2848  3864  4503  4568  4191  3667  3281  3138  3208  3500  3995  4540  4951  5175  5271  5311  5331  5345  5347  5339  5320  5278  5226  5213  5274  5419  5622  5850  6136  6520  6952  7350  7691  8099  8788  9732  10566  11027  11203  11272  11313  11394  11617  11986  12383  12711  12934  13023  13000  13017  13252  13689  14130  14418  14521  14506  14524  14619  14742  15036  15689  16663  17871  19171  20091  20007  18683  16628  14750  13530  12996  13141  13662  13871  13540  13147  13027  13062  13087  13063  13015  12930  12730  12384  11969  11555  11146  10784  10549  10432  10330  10139  9793  9264  8628  8069  7693  7432  7203  7022  6927  6904  6900  6827  6576  6109  5494  4863  4371  4123  4090  4156  4202  4091  3719  3196  2795  2632  2567  2427  2197  1970  1758  1432  911  345  -28  -152  -144  -113  -96  -96  -117  -171  -298  -566  -991  -1445  -1750  -1870  -1897  -1912  -1939  -2003  -2128  -2293  -2481  -2804  -3410  -4199  -4845  -5160  -5226  -5203  -5182  -5187  -5203  -5228  -5292  -5393  -5488  -5572  -5684  -5829  -5969  -6082  -6137  -6064  -5855  -5607  -5476  -5582  -5900  -6312  -6739  -7110  -7331  -7353  -7167  -6779  -6265  -5802  -5555  -5526  -5570  -5546  -5402  -5182  -4928  -4632  -4375  -4329  -4501  -4689  -4734  -4632  -4459  -4268  -4043  -3798  -3609  -3492  -3413  -3405  -3509  -3688  -3766  -3469  -2835  -2290  -2107  -2187  -2330  -2418  -2437  -2437  -2468  -2531  -2570  -2510  -2342  -2149  -2038  -2018  -2008  -1942  -1820  -1724  -1742  -1864  -2007  -2112  -2162  -2182  -2206  -2215  -2099  -1756  -1280  -917  -807  -906  -1102  -1304  -1498  -1739  -2003  -2049  -1693  -1149  -774  -643  -621  -609  -592  -572  -536  -474  -383  -257  -113  7  98  221  457  823  1228  1521  1652  1708  1779  1871  1931  1922  1878  1888  1997  2137  2173  2036  1832  1709  1687  1679  1605  1420  1127  743  259  -243  -581  -685  -661  -626  -636  -724  -917  -1226  -1629  -2083  -2533  -2902  -3114  -3200  -3290  -3461  -3664  -3828  -3950  -4057  -4205  -4577  -5358  -6383  -7217  -7410  -6614  -5000  -3111  -1249  175  463  -757  -3298  -6399  -8920  -10027  -9652  -8441  -7332  -6820  -6738  -6874  -7182  -7542  -7777  -7795  -7669  -7512  -7242  -6680  -5942  -5424  -5410  -5888  -6572  -7090  -7289  -7246  -7057  -6814  -6610  -6468  -6357  -6282  -6287  -6406  -6619  -6842  -7009  -7131  -7225  -7292  -7332  -7223  -6675  -5566  -4229  -3201  -2703  -2553  -2442  -2109  -1435  -592  78  439  692  1190  2144  3440  4675  5469  5866  6199  6584  6899  7084  7187  7243  7272  7335  7502  7798  8169  8524  8753  8734  8441  7997  7593  7373  7343  7384  7338  7094  6679  6240  5911  5730  5619  5436  5139  4846  4675  4612  4579  4507  4362  4188  4132  4307  4653  4968  5107  5089  5004  4903  4747  4456  4053  3682  3425  3236  3063  2909  2802  2774  2914  3332  3958  4466  4557  4241  3752  3322  3076  2999  2996  3012  3047  3090  3072  2865  2416  1933  1742  1903  2198  2434  2557  2558  2394  2035  1557  1094  734  486  303  187  230  443  677  743  519  20  -559  -982  -1149  -1116  -975  -828  -767  -806  -886  -965  -1019  -1004  -836  -442  76  440  470  186  -346  -971  -1436  -1652  -1743  -1829  -1931  -2011  -2051  -2073  -2095  -2134  -2197  -2258  -2276  -2242  -2198  -2218  -2325  -2460  -2563  -2616  -2634  -2635  -2622  -2577  -2479  -2344  -2213  -2105  -2021  -1930  -1795  -1668  -1676  -1883  -2197  -2466  -2645  -2772  -2851  -2883  -2898  -2920  -2954  -3015  -3108  -3218  -3360  -3576  -3829  -4011  -4084  -4096  -4073  -3906  -3515  -3185  -3259  -3455  -3202  -2335  -1009  508  1817  2540  2418  1390  -204  -1828  -3070  -3667  -3603  -3239  -2946  -2739  -2396  -1785  -1092  -646  -520  -541  -568  -598  -668  -734  -695  -494  -183  115  304  321  149  -120  -337  -413  -308  0  410  732  909  1042  1208  1375  1475  1505  1502  1486  1466  1424  1313  1123  922  820  862  978  1117  1345  1691  2033  2214  2187  2014  1804  1663  1619  1625  1629  1609  1594  1611  1593  1455  1244  1025  817  711  780  911  916  724  430  189  45  -49  -120  -213  -407  -700  -1025  -1351  -1667  -1927  -2091  -2185  -2266  -2322  -2304  -2225  -2141  -2083  -2044  -2042  -2193  -2630  -3282  -3862  -4162  -4157  -3855  -3364  -2911  -2631  -2480  -2393  -2369  -2425  -2536  -2657  -2772  -2873  -2940  -2969  -2978  -2955  -2802  -2394  -1784  -1221  -854  -592  -340  -146  -71  -140  -356  -645  -868  -961  -964  -920  -841  -735  -572  -250  280  845  1158  1130  929  762  690  664  633  618  700  891  1086  1227  1379  1552  1676  1726  1739  1742  1724  1668  1582  1468  1302  1095  912  789  703  636  593  582  588  554  416  182  -44  -155  -70  239  655  962  1071  1047  934  724  478  346  419  634  844  953  973  946  867  728  580  492  478  487  438  272  30  -186  -327  -408  -484  -610  -740  -739  -524  -174  131  288  323  333  431  713  1224  1877  2455  2804  2950  2970  2824  2388  1668  870  244  -81  -154  -86  74  317  590  819  963  1045  1100  1109  1121  1433  2407  4065  5942  7417  8246  8617  8884  9403  10242  10833  10400  8932  7092  5477  4536  4425  4631  4509  4019  3521  3228  3094  3030  3010  2934  2573  1781  753  -91  -495  -526  -380  -208  -109  -165  -408  -739  -981  -1062  -1038  -976  -908  -852  -824  -841  -893  -942  -963  -966  -958  -932  -886  -810  -607  -124  626  1407  2045  2563  2987  3277  3511  3930  4737  5841  6858  7438  7548  7365  7045  6684  6270  5623  4673  3723  3132  2931  2919  2947  2990  3081  3206  3204  2813  1937  870  33  -480  -951  -1753  -3045  -4609  -6000  -6892  -7296  -7409  -7402  -7370  -7366  -7428  -7554  -7617  -7457  -7121  -6842  -6751  -6788  -6834  -6762  -6469  -5989  -5473  -4983  -4484  -4019  -3680  -3459  -3307  -3210  -3195  -3293  -3370  -3254  -3000  -2710  -2360  -1982  -1717  -1621  -1592  -1463  -1123  -609  -100  244  430  557  699  882  1070  1192  1214  1163  1089  1036  1027  1065  1131  1172  1162  1136  1089  964  779  607  437  194  -92  -292  -378  -470  -687  -1044  -1435  -1712  -1819  -1781  -1642  -1484  -1393  -1392  -1459  -1549  -1623  -1676  -1723  -1750  -1727  -1653  -1524  -1351  -1202  -1155  -1233  -1386  -1471  -1382  -1232  -1221  -1354  -1457  -1433  -1366  -1359  -1408  -1452  -1461  -1452  -1452  -1469  -1508  -1584  -1681  -1748  -1756  -1725  -1690  -1666  -1651  -1647  -1687  -1799  -1953  -2066  -2104  -2094  -2053  -1930  -1666  -1345  -1174  -1209  -1282  -1295  -1379  -1613  -1855  -1925  -1780  -1505  -1212  -1059  -1176  -1356  -1293  -875  6  1307  2715  3847  4242  3584  2030  178  -1204  -1694  -1461  -958  -586  -633  -972  -1120  -952  -717  -525  -353  -207  -71  70  187  276  382  496  573  602  597  576  550  522  497  485  482  482  487  499  511  508  503  554  749  1130  1570  1832  1819  1635  1459  1406  1455  1529  1593  1636  1654  1652  1633  1599  1572  1586  1686  1861  1989  2013  2041  2091  2049  1921  1802  1737  1735  1809  1990  2279  2592  2808  2885  2832  2666  2435  2212  2012  1834  1705  1633  1591  1549  1465  1310  1143  1068  1108  1165  1152  1072  930  691  346  -13  -255  -343  -326  -199  84  455  720  736  502  148  -125  -205  -96  125  295  292  186  104  80  88  105  96  1  -198  -400  -465  -405  -324  -261  -149  149  619  990  1042  802  452  159  -62  -277  -488  -646  -708  -654  -516  -361  -248  -191  -172  -158  -128  -122  -185  -270  -276  -148  59  233  336  408  457  436  304  96  -91  -202  -245  -248  -198  -55  183  430  585  645  672  662  518  175  -216  -393  -305  -148  -63  -34  0  73  182  287  348  355  301  169  -8  -145  -193  -148  -13  164  300  339  269  95  -118  -284  -403  -543  -714  -825  -765  -517  -238  -134  -218  -391  -606  -785  -832  -728  -532  -333  -153  38  190  209  76  -157  -384  -512  -542  -531  -520  -506  -469  -394  -297  -221  -192  -194  -195  -192  -195  -197  -180  -155  -151  -181  -181  -99  -12  5  -31  -81  -108  -113  -181  -402  -746  -1087  -1331  -1430  -1359  -1157  -914  -720  -611  -556  -514  -457  -346  -206  -233  -653  -1345  -1787  -1508  -398  1379  3322  4696  5037  4320  2782  858  -904  -2029  -2342  -2083  -1727  -1574  -1499  -1266  -964  -802  -783  -801  -804  -812  -845  -843  -765  -705  -744  -828  -881  -892  -876  -849  -827  -814  -804  -777  -729  -698  -707  -711  -685  -634  -558  -456  -339  -220  -148  -181  -334  -524  -625  -612  -554  -467  -309  -96  75  134  96  40  50  166  351  525  679  880  1127  1300  1264  982  576  258  118  115  250  579  1033  1411  1591  1622  1583  1475  1258  918  549  300  220  238  282  335  392  429  429  395  309  131  -109  -307  -410  -457  -489  -497  -455  -384  -398  -512  -558  -461  -320  -209  -143  -113  -88  -63  -59  -74  -100  -133  -182  -247  -300  -299  -225  -76  94  210  246  241  238  243  231  177  84  -23  -157  -342  -497  -469  -263  -54  46  59  38  0  -63  -146  -223  -286  -346  -407  -462  -505  -544  -585  -604  -551  -407  -241  -128  -77  -65  -64  -55  -65  -115  -162  -158  -93  -11  33  38  42  76  146  234  291  280  196  84  4  -21  -21  -18  -10  26  109  238  381  498  559  522  345  75  -153  -266  -285  -261  -223  -175  -128  -112  -139  -195  -258  -307  -332  -345  -358  -362  -332  -263  -180  -142  -174  -235  -275  -289  -293  -295  -304  -331  -371  -408  -431  -440  -441  -442  -442  -430  -398  -344  -287  -269  -303  -345  -365  -373  -369  -338  -279  -252  -392  -715  -1035  -1103  -607  614  2212  3702  4898  5599  5441  4322  2487  389  -1307  -2069  -1871  -1117  -367  45  160  139  109  139  200  238  248  248  244  229  193  135  72  32  23  32  40  38  20  -5  -5  74  245  437  564  603  594  578  570  566  560  563  587  612  586  481  342  255  244  266  289  311  333  363  445  618  842  1028  1143  1198  1184  1111  1027  967  935  947  1039  1219  1422  1557  1589  1532  1430  1332  1255  1174  1064  896  672  438  243  92  -34  -148  -243  -306  -342  -361  -373  -381  -394  -436  -534  -677  -819  -921  -953  -896  -778  -662  -594  -565  -550  -534  -512  -486  -467  -479  -540  -635  -720  -769  -788  -795  -798  -798  -783  -742  -686  -644  -625  -622  -638  -688  -772  -855  -899  -884  -810  -707  -618  -558  -521  -513  -535  -577  -634  -702  -793  -907  -1014  -1072  -1038  -910  -748  -637  -600  -600  -609  -632  -681  -745  -804  -854  -854  -760  -632  -545  -496  -446  -364  -264  -212  -265  -409  -588  -741  -833  -872  -892  -903  -879  -794  -669  -569  -536  -551  -570  -565  -546  -527  -497  -415  -259  -100  -15  12  8  -42  -111  -158  -189  -216  -206  -124  14  142  206  206  163  52  -165  -436  -640  -756  -870  -1005  -1071  -994  -827  -697  -643  -597  -538  -489  -448  -501  -783  -1264  -1636  -1496  -708  531  1965  3389  4527  5060  4694  3306  1268  -669  -1915  -2308  -2104  -1722  -1411  -1203  -1014  -779  -554  -459  -578  -884  -1238  -1483  -1557  -1487  -1328  -1156  -1043  -1009  -1021  -1036  -1012  -926  -804  -706  -660  -649  -666  -728  -821  -868  -816  -717  -638  -572  -494  -423  -387  -390  -414  -432  -425  -384  -314  -247  -220  -219  -145  101  454  700  736  667  649  790  1114  1501  1766  1846  1778  1601  1391  1287  1372  1586  1802  1965  2103  2204  2225  2192  2162  2130  2053  1932  1825  1784  1798  1799  1735  1600  1433  1333  1341  1383  1440  1551  1663  1703  1671  1609  1560  1537  1497  1370  1115  798  571  497  520  599  742  925  1078  1150  1132  1003  741  421  188  103  114  163  244  331  361  322  268  240  236  248  278  328  384  419  409  352  264  143  -10  -164  -273  -320  -314  -268  -184  -73  32  80  31  -98  -252  -369  -413  -361  -237  -109  -37  -46  -144  -329  -545  -690  -693  -548  -323  -132  -43  -33  -49  -63  -69  -84  -127  -218  -346  -464  -525  -488  -297  47  418  625  586  364  100  -99  -241  -360  -439  -471  -487  -510  -513  -432  -243  -57  -44  -233  -491  -696  -802  -796  -675  -468  -270  -188  -248  -372  -466  -502  -513  -518  -487  -393  -264  -167  -131  -147  -207  -304  -411  -491  -523  -517  -484  -414  -295  -167  -87  -53  -23  24  96  203  331  435  495  506  401  102  -302  -600  -705  -700  -663  -596  -500  -441  -448  -456  -435  -417  -416  -410  -376  -334  -378  -591  -872  -1056  -1095  -809  139  1718  3507  5081  5896  5447  3896  1966  257  -982  -1631  -1740  -1641  -1502  -1199  -745  -357  -172  -172  -290  -469  -665  -849  -973  -995  -963  -919  -813  -643  -501  -394  -237  -35  115  179  202  199  87  -204  -587  -868  -947  -838  -590  -306  -115  -45  -44  -88  -190  -330  -463  -567  -631  -616  -478  -222  70  295  411  427  366  290  278  367  498  561  526  465  450  501  596  701  797  876  932  979  1029  1063  1055  999  903  791  714  691  698  704  694  651  535  302  -16  -305  -475  -536  -556  -587  -629  -645  -608  -538  -482  -472  -511  -570  -569  -439  -219  -26  48  8  -68  -126  -179  -238  -281  -297  -296  -290  -281  -274  -285  -329  -389  -432  -478  -586  -747  -876  -910  -846  -720  -582  -455  -312  -155  -40  -3  -43  -143  -265  -374  -475  -544  -539  -495  -476  -478  -424  -242  21  209  175  -113  -522  -825  -910  -806  -575  -302  -80  58  110  58  -63  -164  -199  -190  -174  -158  -123  -67  -37  -86  -187  -247  -237  -201  -181  -175  -169  -162  -159  -153  -115  2  225  474  573  412  90  -185  -314  -356  -410  -505  -588  -584  -430  -91  334  640  742  722  661  575  474  376  270  122  -74  -286  -477  -614  -672  -636  -498  -302  -133  -33  26  76  100  69  -7  -108  -224  -324  -363  -296  -112  120  296  356  286  80  -197  -411  -488  -421  -208  92  363  533  582  516  386  239  89  -87  -329  -602  -796  -864  -857  -815  -739  -650  -587  -540  -460  -340  -262  -354  -648  -897  -712  74  1334  2786  4141  5180  5610  5036  3344  959  -1361  -2864  -3128  -2370  -1259  -363  59  45  -160  -353  -478  -536  -535  -492  -441  -409  -391  -372  -356  -357  -378  -411  -437  -454  -500  -598  -675  -614  -443  -344  -399  -510  -543  -401  -55  380  685  668  348  23  -55  31  109  147  165  171  168  171  200  260  336  409  439  399  324  269  255  285  357  485  677  891  1058  1140  1152  1153  1182  1219  1223  1184  1118  1025  872  662  476  390  438  626  887  1066  1019  707  275  -35  -133  -113  -108  -205  -403  -588  -633  -555  -451  -353  -248  -157  -137  -199  -274  -307  -318  -331  -337  -341  -372  -440  -499  -484  -426  -402  -418  -413  -360  -299  -288  -322  -349  -339  -289  -205  -95  15  97  137  130  74  -28  -146  -200  -151  -64  -13  -4  -7  -5  1  7  7  -1  -29  -90  -172  -240  -286  -316  -336  -342  -331  -316  -332  -363  -375  -381  -392  -405  -428  -416  -302  -130  2  64  89  111  136  172  226  278  286  216  53  -154  -316  -387  -392  -344  -236  -98  1  37  37  20  -17  -70  -79  2  126  211  239  231  189  104  16  -11  21  61  79  78  49  -25  -128  -214  -263  -271  -209  -51  145  271  288  255  232  230  235  237  252  290  306  260  176  61  -116  -301  -310  2  534  998  1219  1224  1060  729  301  -69  -271  -317  -290  -261  -238  -197  -146  -124  -155  -223  -309  -427  -587  -722  -689  -411  138  1043  2245  3487  4572  5275  5244  4289  2548  401  -1549  -2670  -2708  -1911  -832  -59  176  91  -39  -124  -172  -208  -235  -257  -283  -311  -329  -341  -359  -388  -401  -384  -374  -409  -473  -517  -527  -523  -525  -536  -534  -472  -324  -141  -14  18  -18  -99  -218  -352  -451  -476  -442  -378  -289  -192  -117  -60  5  73  137  213  285  325  341  353  373  405  445  489  527  560  603  684  807  930  991  961  856  725  625  581  578  585  595  611  621  585  476  326  184  44  -104  -254  -413  -555  -605  -551  -466  -416  -406  -415  -428  -439  -455  -508  -637  -831  -989  -980  -753  -447  -266  -226  -196  -128  -70  -65  -121  -235  -422  -646  -814  -886  -883  -790  -562  -243  24  131  84  -28  -137  -238  -339  -421  -473  -495  -460  -354  -223  -151  -168  -233  -287  -302  -283  -246  -224  -245  -317  -437  -580  -673  -621  -376  -29  237  333  288  152  -11  -124  -155  -138  -118  -143  -251  -429  -610  -707  -631  -360  -24  166  131  -33  -195  -296  -347  -366  -348  -290  -229  -201  -225  -307  -421  -497  -469  -326  -146  -33  18  72  127  137  86  8  -56  -89  -100  -107  -133  -191  -251  -237  -124  9  97  145  173  183  183  179  165  130  74  4  -72  -124  -121  -69  -24  -65  -180  -245  -192  -74  45  162  304  462  577  619  594  504  368  243  170  135  76  -47  -181  -227  -182  -104  -8  106  232  365  506  584  417  -33  -508  -586  100  1523  3258  4833  5791  5758  4682  2860  810  -865  -1694  -1590  -942  -291  84  174  45  -176  -363  -465  -500  -510  -502  -443  -308  -114  95  272  387  438  430  372  288  210  161  145  151  178  236  327  429  485  424  232  42  59  303  588  774  868  921  942  903  783  621  503  464  467  473  494  574  730  905  1004  988  899  840  907  1104  1355  1561  1671  1703  1672  1567  1418  1298  1251  1262  1292  1315  1326  1327  1315  1280  1225  1153  1029  792  423  25  -238  -319  -306  -299  -330  -413  -574  -780  -924  -897  -678  -368  -137  -69  -143  -334  -627  -960  -1255  -1489  -1664  -1753  -1693  -1450  -1111  -834  -670  -548  -420  -322  -317  -465  -762  -1088  -1298  -1371  -1383  -1384  -1357  -1255  -1075  -885  -758  -722  -771  -881  -998  -1062  -1052  -996  -933  -883  -845  -812  -797  -822  -902  -1025  -1124  -1115  -1003  -873  -784  -745  -739  -738  -736  -761  -843  -963  -1050  -1043  -932  -785  -694  -670  -663  -663  -691  -747  -802  -840  -865  -879  -875  -842  -775  -655  -494  -384  -400  -477  -509  -479  -420  -353  -268  -180  -162  -288  -539  -792  -947  -984  -908  -720  -488  -326  -275  -284  -303  -316  -324  -322  -296  -233  -151  -94  -81  -104  -147  -201  -265  -340  -401  -390  -284  -155  -87  -76  -81  -86  -95  -108  -120  -137  -174  -234  -297  -324  -297  -211  -88  -7  -31  -110  -180  -255  -350  -413  -347  -88  271  544  636  570  386  148  -48  -155  -193  -213  -261  -338  -380  -344  -285  -251  -207  -141  -145  -341  -710  -967  -735  121  1421  2759  3765  4278  4219  3653  2804  1730  440  -767  -1557  -1807  -1510  -885  -366  -147  -71  -20  -19  -52  -75  -79  -76  -87  -128  -184  -225  -239  -242  -249  -259  -265  -269  -282  -328  -427  -554  -642  -599  -358  31  401  624  676  555  262  -98  -341  -352  -142  172  433  560  590  581  536  428  263  127  107  195  315  443  623  872  1112  1241  1226  1108  997  991  1067  1136  1190  1255  1321  1378  1442  1534  1642  1697  1607  1351  1013  729  576  527  503  441  360  338  399  427  266  -68  -383  -537  -545  -499  -468  -486  -544  -613  -662  -677  -639  -526  -373  -263  -247  -318  -432  -541  -619  -660  -666  -637  -574  -503  -456  -439  -418  -368  -316  -299  -304  -293  -264  -247  -250  -255  -253  -269  -315  -345  -315  -250  -193  -150  -113  -74  -27  -16  -93  -238  -379  -472  -505  -450  -292  -100  9  5  -80  -228  -387  -484  -509  -502  -478  -429  -356  -273  -180  -82  9  86  114  67  -21  -96  -136  -156  -173  -187  -196  -208  -228  -237  -175  13  278  487  572  537  386  159  -40  -123  -92  -25  14  26  25  0  -72  -186  -300  -382  -428  -439  -401  -292  -139  6  134  258  349  374  352  322  307  312  322  311  266  187  86  -11  -113  -242  -371  -427  -367  -182  92  359  517  531  392  112  -209  -456  -621  -762  -881  -917  -871  -841  -791  -496  230  1453  3094  4769  5830  5740  4472  2412  57  -1898  -2754  -2445  -1516  -522  129  214  -121  -489  -641  -584  -428  -263  -138  -83  -97  -139  -167  -162  -139  -120  -111  -106  -108  -134  -191  -242  -228  -155  -98  -112  -181  -235  -227  -162  -60  53  136  164  133  40  -90  -204  -246  -177  -13  154  261  314  338  345  341  330  311  297  300  295  250  180  131  150  270  459  644  784  890  977  1036  1063  1081  1123  1179  1180  1055  816  562  389  318  312  305  219  18  -230  -424  -553  -658  -735  -753  -699  -608  -535  -504  -493  -489  -511  -588  -714  -825  -856  -801  -680  -492  -276  -131  -129  -279  -508  -694  -763  -724  -636  -584  -616  -684  -722  -724  -715  -723  -763  -824  -878  -912  -941  -959  -916  -744  -452  -162  -8  -4  -68  -122  -145  -157  -184  -235  -303  -377  -415  -377  -315  -291  -263  -191  -104  -27  28  52  58  58  43  -8  -100  -202  -280  -322  -331  -306  -244  -163  -108  -104  -140  -193  -239  -270  -316  -416  -541  -590  -517  -404  -359  -359  -324  -262  -224  -215  -220  -236  -274  -327  -375  -405  -405  -372  -320  -268  -219  -177  -155  -150  -147  -138  -141  -186  -290  -417  -507  -531  -501  -437  -352  -272  -219  -189  -166  -159  -196  -289  -416  -536  -625  -673  -653  -518  -273  -19  128  164  155  158  183  218  246  256  231  157  48  -66  -188  -305  -351  -254  -24  226  387  443  406  243  -59  -393  -612  -676  -637  -562  -502  -472  -457  -432  -373  -286  -191  -108  -97  -222  -480  -773  -807  -198  1186  3053  4769  5642  5306  3904  1966  112  -1148  -1564  -1334  -942  -717  -678  -715  -757  -783  -762  -632  -375  -88  79  71  -39  -150  -204  -215  -225  -237  -223  -181  -138  -107  -69  -2  96  216  342  448  505  489  407  312  273  297  342  384  412  422  417  406  398  393  391  416  495  602  678  704  712  731  754  780  827  901  983  1053  1108  1146  1158  1157  1158  1144  1114  1103  1133  1194  1248  1272  1294  1348  1417  1431  1320  1051  669  296  28  -106  -124  -97  -95  -106  -133  -215  -334  -425  -468  -483  -495  -512  -528  -531  -521  -506  -494  -473  -427  -365  -314  -285  -269  -266  -279  -303  -332  -379  -440  -451  -333  -129  8  -1  -119  -257  -350  -402  -455  -538  -632  -682  -646  -532  -367  -188  -41  35  35  -15  -80  -144  -196  -237  -275  -308  -336  -378  -442  -503  -518  -436  -229  34  220  261  189  67  -57  -171  -286  -382  -370  -216  -48  1  -55  -142  -202  -226  -235  -245  -256  -263  -255  -226  -184  -141  -88  -16  68  155  229  262  198  -2  -291  -537  -655  -664  -599  -456  -224  22  123  -27  -374  -734  -965  -1025  -905  -607  -236  41  170  185  103  -76  -324  -571  -744  -787  -695  -545  -438  -409  -419  -435  -458  -501  -564  -615  -592  -464  -287  -124  19  143  221  214  90  -95  -252  -356  -395  -359  -297  -268  -269  -262  -205  -94  22  92  102  74  32  -27  -122  -236  -303  -271  -160  -54  -33  -98  -203  -322  -441  -530  -578  -600  -593  -535  -442  -360  -319  -307  -304  -321  -406  -595  -769  -716  -540  -575  -754  -608  170  1567  3355  5015  5834  5423  3919  1802  -306  -1816  -2357  -1998  -1253  -683  -474  -468  -465  -403  -321  -258  -214  -186  -177  -180  -181  -181  -198  -247  -314  -363  -378  -377  -378  -386  -385  -348  -290  -261  -272  -283  -242  -138  -15  78  123  98  58  96  183  237  245  239  242  257  277  287  285  280  290  348  475  638  754  767  706  659  677  718  751  836  1047  1322  1503  1519  1430  1326  1259  1237  1226  1173  1061  900  671  400  189  112  189  433  764  992  947  593  101  -257  -384  -371  -322  -280  -265  -303  -420  -581  -696  -710  -635  -529  -454  -423  -408  -399  -405  -418  -408  -371  -333  -320  -339  -376  -409  -450  -529  -641  -730  -763  -728  -624  -483  -364  -299  -286  -297  -275  -203  -142  -173  -315  -483  -569  -592  -640  -705  -702  -576  -359  -157  -61  -66  -111  -148  -167  -177  -171  -126  -48  25  54  19  -59  -138  -189  -222  -286  -412  -536  -556  -480  -398  -337  -265  -174  -79  4  54  63  43  21  33  84  138  167  177  172  123  -1  -174  -314  -375  -364  -272  -97  89  170  99  -50  -168  -209  -192  -147  -95  -60  -48  -50  -57  -68  -75  -57  -7  65  143  182  124  6  -30  111  350  507  504  414  332  249  99  -92  -194  -132  17  110  80  -21  -107  -147  -154  -122  -37  68  113  58  -37  -95  -110  -127  -152  -174  -206  -267  -343  -404  -446  -491  -527  -564  -739  -1112  -1399  -1135  25  1994  4112  5591  5962  5203  3698  1961  357  -948  -1849  -2147  -1787  -1101  -590  -464  -533  -557  -471  -307  -132  -7  54  72  53  -3  -84  -152  -185  -187  -182  -191  -209  -206  -154  -68  1  26  25  19  17  18  31  84  187  280  295  256  224  213  216  226  236  245  256  272  288  283  246  193  161  185  270  386  496  570  605  639  706  794  855  866  852  854  906  1019  1151  1241  1260  1206  1081  912  758  667  623  584  545  501  416  273  109  -31  -144  -232  -274  -257  -217  -187  -168  -164  -223  -388  -608  -766  -815  -791  -720  -613  -481  -310  -88  139  280  232  -69  -558  -1008  -1233  -1190  -912  -515  -193  -54  -60  -130  -208  -264  -294  -303  -286  -244  -215  -252  -348  -436  -472  -474  -470  -465  -444  -407  -390  -382  -309  -157  -22  33  35  15  -32  -116  -229  -366  -502  -529  -390  -179  2  150  255  292  269  223  182  138  64  -42  -143  -207  -257  -338  -449  -524  -525  -481  -424  -341  -205  -25  137  234  280  297  243  83  -144  -363  -515  -578  -565  -505  -398  -229  -25  141  229  254  245  203  108  -27  -146  -207  -217  -199  -165  -127  -107  -112  -128  -146  -192  -306  -467  -580  -555  -369  -108  85  161  156  80  -91  -314  -466  -448  -242  48  276  387  422  407  341  257  206  192  178  133  53  -65  -218  -346  -390  -337  -223  -127  -103  -132  -204  -336  -515  -702  -851  -934  -954  -818  -255  918  2569  4305  5550  5716  4623  2684  571  -1169  -2161  -2296  -1859  -1219  -605  -211  -121  -235  -403  -524  -578  -603  -638  -685  -690  -593  -420  -255  -146  -90  -76  -91  -120  -151  -181  -200  -198  -170  -121  -57  10  40  -14  -141  -271  -322  -262  -142  -42  23  96  188  261  303  339  381  419  451  479  490  467  421  401  452  553  649  705  735  773  846  951  1066  1163  1236  1297  1356  1397  1412  1412  1408  1391  1343  1265  1165  1037  881  718  571  445  314  150  -10  -115  -169  -226  -314  -413  -497  -556  -584  -569  -513  -442  -369  -292  -263  -358  -562  -763  -866  -861  -790  -715  -669  -608  -504  -411  -393  -431  -445  -370  -246  -204  -296  -421  -494  -545  -603  -633  -575  -411  -204  -46  15  -18  -133  -281  -387  -424  -418  -388  -336  -277  -240  -235  -244  -249  -246  -242  -235  -208  -153  -102  -109  -195  -319  -393  -347  -207  -76  -7  13  6  -29  -122  -263  -385  -454  -484  -473  -425  -362  -293  -232  -203  -205  -215  -227  -263  -339  -411  -414  -359  -306  -247  -152  -64  -56  -132  -221  -252  -251  -279  -327  -347  -325  -273  -182  -17  195  365  432  368  156  -142  -378  -444  -335  -95  180  376  446  421  344  262  237  283  334  334  275  115  -213  -647  -993  -1121  -1029  -769  -422  -100  52  -103  -516  -906  -977  -482  731  2496  4295  5553  5883  5163  3600  1713  79  -922  -1194  -966  -656  -522  -547  -613  -653  -668  -666  -633  -536  -371  -191  -71  -28  -18  -1  40  100  134  94  -13  -127  -140  -10  159  250  237  153  54  -1  10  88  192  273  322  348  321  198  20  -113  -150  -113  -56  -20  -12  -21  -26  1  87  215  362  552  786  977  1049  1014  939  880  855  861  906  994  1104  1220  1340  1434  1476  1498  1510  1461  1317  1085  814  592  469  417  346  171  -96  -354  -512  -558  -528  -443  -332  -234  -171  -148  -190  -323  -510  -661  -748  -802  -831  -823  -798  -771  -742  -708  -665  -616  -580  -568  -556  -517  -493  -537  -614  -655  -650  -628  -601  -562  -509  -450  -399  -363  -341  -329  -323  -322  -319  -301  -265  -240  -258  -308  -345  -322  -248  -186  -152  -101  -33  -3  -40  -96  -111  -105  -145  -233  -323  -385  -419  -439  -442  -397  -275  -111  6  22  -47  -151  -233  -277  -282  -227  -92  66  128  30  -151  -290  -341  -347  -356  -368  -329  -171  106  363  425  289  103  -38  -152  -248  -313  -340  -346  -343  -330  -297  -241  -179  -150  -174  -218  -243  -251  -258  -264  -256  -232  -230  -335  -594  -879  -990  -924  -840  -844  -845  -474  620  2353  4248  5671  5948  4814  2792  719  -813  -1551  -1593  -1378  -1274  -1204  -971  -666  -470  -408  -418  -440  -423  -334  -193  -66  0  1  -61  -192  -350  -458  -475  -437  -408  -440  -532  -635  -686  -650  -524  -361  -242  -201  -216  -265  -338  -423  -509  -569  -556  -459  -321  -193  -102  -61  -61  -60  -3  138  334  511  621  649  584  413  191  17  -47  32  302  707  1075  1295  1379  1372  1319  1268  1246  1252  1256  1185  967  641  357  221  208  237  249  206  88  -91  -277  -405  -458  -457  -408  -300  -147  -11  11  -126  -354  -557  -686  -741  -736  -697  -642  -579  -520  -458  -379  -304  -306  -414  -538  -574  -541  -506  -482  -439  -375  -315  -279  -265  -263  -263  -261  -265  -289  -337  -393  -440  -489  -554  -616  -622  -529  -355  -176  -55  -4  0  -28  -85  -157  -234  -322  -409  -490  -561  -583  -529  -434  -341  -272  -242  -247  -256  -219  -101  49  139  130  59  -34  -140  -237  -299  -346  -421  -518  -574  -554  -500  -447  -333  -56  328  610  649  460  171  -60  -160  -163  -126  -85  -66  -82  -116  -146  -168  -190  -210  -224  -235  -233  -206  -167  -126  -64  29  129  208  255  288  327  378  416  413  355  261  176  135  129  134  133  124  113  106  100  79  13  -96  -196  -218  -151  -69  -42  -58  -64  -45  -41  -91  -200  -367  -537  -601  -570  -484  -116  848  2414  4222  5679  6229  5637  4019  1797  -392  -1918  -2440  -2057  -1199  -387  52  137  60  -49  -161  -251  -284  -211  -11  244  424  473  427  326  175  -3  -126  -130  -57  17  79  162  264  341  371  367  334  264  170  108  111  150  176  182  200  260  344  397  397  378  377  390  397  389  364  323  257  177  137  208  419  706  958  1116  1196  1237  1264  1272  1216  1051  808  585  452  428  506  647  788  889  943  956  926  830  669  484  330  246  237  264  272  182  -54  -390  -699  -875  -870  -727  -543  -392  -329  -374  -473  -566  -639  -681  -677  -623  -536  -443  -359  -293  -264  -285  -336  -394  -457  -526  -578  -600  -606  -602  -580  -533  -483  -460  -457  -436  -384  -324  -280  -258  -246  -248  -300  -423  -569  -628  -543  -375  -234  -170  -159  -166  -175  -177  -169  -144  -111  -85  -73  -71  -85  -127  -187  -227  -237  -251  -284  -304  -294  -289  -341  -436  -511  -541  -561  -613  -708  -811  -857  -804  -678  -536  -416  -331  -272  -240  -280  -447  -720  -979  -1126  -1155  -1086  -912  -659  -422  -286  -257  -303  -411  -539  -607  -576  -499  -455  -468  -486  -473  -462  -495  -553  -594  -610  -627  -651  -640  -526  -285  -1  184  221  172  89  -21  -146  -257  -326  -346  -327  -273  -177  -58  47  107  105  60  5  -56  -150  -266  -350  -378  -386  -389  -370  -338  -322  -337  -394  -502  -673  -891  -1042  -971  -653  -106  801  2076  3415  4512  5105  4829  3530  1534  -585  -2197  -2709  -2051  -967  -291  -166  -272  -354  -341  -282  -240  -226  -228  -245  -286  -334  -341  -273  -158  -60  -27  -97  -302  -580  -792  -844  -714  -426  -102  87  91  0  -82  -116  -97  -14  128  278  373  394  345  230  73  -74  -165  -185  -162  -111  -3  142  247  286  336  477  686  855  923  920  896  879  900  995  1162  1346  1513  1651  1722  1688  1574  1438  1321  1243  1207  1207  1232  1255  1210  1012  663  286  19  -82  -59  -8  0  -30  -38  8  71  104  113  112  70  -59  -255  -431  -534  -587  -644  -751  -897  -1004  -988  -806  -513  -253  -126  -107  -124  -136  -151  -195  -261  -304  -313  -334  -387  -424  -401  -339  -291  -284  -298  -307  -306  -303  -294  -261  -184  -76  8  24  -22  -103  -197  -300  -411  -502  -528  -485  -399  -287  -183  -105  -44  -13  -26  -48  -56  -62  -75  -82  -54  4  22  -85  -290  -466  -539  -542  -527  -517  -508  -498  -491  -497  -522  -557  -582  -590  -586  -580  -585  -614  -664  -696  -629  -397  -72  161  179  -1  -259  -440  -480  -419  -326  -257  -236  -243  -210  -44  264  588  770  725  458  97  -157  -208  -103  52  163  181  94  -87  -325  -547  -684  -717  -647  -476  -259  -109  -113  -279  -526  -724  -774  -668  -594  -772  -1005  -762  222  1796  3598  5078  5659  5153  3828  2057  169  -1416  -2279  -2323  -1712  -756  -7  133  -102  -269  -268  -221  -196  -186  -171  -152  -169  -278  -461  -617  -682  -670  -607  -503  -374  -251  -168  -131  -133  -173  -236  -284  -285  -239  -165  -87  -15  32  33  -6  -53  -82  -92  -85  -58  -11  72  221  405  538  587  593  597  609  635  675  705  708  688  633  568  584  706  835  911  964  1022  1076  1143  1258  1378  1406  1316  1155  969  798  666  573  491  369  202  65  23  38  24  -39  -108  -145  -154  -146  -117  -72  -44  -117  -354  -683  -926  -987  -900  -734  -547  -391  -311  -317  -372  -410  -397  -364  -361  -397  -434  -441  -431  -421  -393  -313  -197  -111  -128  -279  -516  -721  -812  -773  -623  -433  -302  -262  -256  -216  -114  15  109  142  133  95  26  -69  -168  -249  -333  -437  -511  -506  -457  -422  -409  -395  -356  -288  -221  -175  -139  -105  -67  0  109  205  204  107  -4  -73  -95  -93  -83  -74  -65  -53  -37  -22  -15  -13  -9  10  38  40  -2  -50  -49  14  103  168  182  146  67  -27  -95  -120  -115  -93  -60  -42  -79  -169  -261  -311  -317  -292  -207  -13  248  455  559  615  660  653  521  257  -43  -263  -343  -290  -132  99  335  474  456  295  43  -208  -367  -427  -470  -563  -677  -698  -541  -268  -35  57  26  -66  -187  -316  -423  -538  -762  -1089  -1260  -932  12  1498  3378  5194  6193  5899  4371  2128  18  -1251  -1511  -1091  -617  -529  -692  -768  -698  -588  -439  -192  102  311  373  330  234  106  -20  -100  -112  -79  -41  -38  -86  -149  -141  -7  181  285  235  49  -182  -350  -438  -504  -572  -604  -568  -499  -452  -441  -448  -449  -433  -400  -368  -354  -345  -304  -206  -78  18  52  12  -109  -279  -395  -340  -65  320  613  723  722  708  721  746  771  811  884  972  1001  892  641  365  198  176  235  288  262  104  -181  -498  -713  -796  -825  -863  -894  -885  -840  -768  -705  -711  -771  -808  -766  -642  -510  -452  -453  -463  -471  -488  -509  -541  -594  -642  -625  -545  -476  -474  -522  -555  -534  -486  -447  -410  -355  -289  -243  -245  -302  -381  -423  -410  -367  -345  -401  -509  -553  -490  -399  -351  -327  -281  -206  -135  -96  -71  -34  4  19  0  -50  -114  -192  -285  -366  -398  -365  -280  -183  -109  -71  -72  -113  -167  -191  -163  -100  -34  27  95  149  146  59  -75  -163  -153  -95  -49  -16  13  37  53  64  55  -15  -163  -301  -311  -197  -65  26  88  131  152  153  141  123  112  110  111  111  124  176  278  384  415  314  107  -98  -210  -211  -131  -21  74  144  182  157  63  -44  -115  -166  -244  -323  -303  -245  -391  -689  -636  256  2003  4085  5671  6049  5081  3248  1281  -226  -1008  -1159  -963  -653  -379  -256  -274  -322  -344  -354  -375  -398  -394  -369  -393  -482  -565  -567  -481  -361  -276  -218  -116  59  252  393  471  508  507  394  85  -336  -646  -707  -556  -307  -77  72  144  172  205  266  344  434  550  677  755  749  671  542  375  209  97  72  150  337  592  813  957  1088  1243  1344  1315  1216  1171  1218  1299  1354  1370  1371  1378  1389  1363  1252  1042  765  476  247  115  29  -86  -244  -387  -466  -497  -498  -444  -295  -91  59  95  33  -79  -194  -274  -305  -303  -297  -315  -383  -497  -597  -602  -522  -435  -377  -341  -330  -347  -375  -396  -432  -495  -537  -504  -424  -361  -342  -331  -256  -100  43  49  -75  -217  -309  -360  -386  -391  -385  -377  -375  -386  -420  -465  -501  -520  -530  -520  -441  -254  -24  87  -10  -244  -453  -541  -523  -476  -449  -421  -354  -261  -196  -185  -205  -220  -220  -214  -207  -196  -202  -294  -532  -848  -1069  -1058  -798  -423  -134  -33  -83  -220  -384  -517  -588  -602  -569  -501  -425  -378  -387  -452  -544  -621  -661  -652  -535  -266  62  246  182  -29  -202  -254  -247  -244  -244  -229  -210  -220  -279  -370  -461  -527  -558  -552  -522  -511  -558  -642  -707  -730  -730  -732  -747  -779  -817  -808  -680  -464  -200  272  1151  2389  3765  4964  5527  5032  3485  1380  -603  -1902  -2253  -1865  -1279  -839  -551  -341  -185  -85  -41  -34  -40  -57  -87  -122  -152  -182  -235  -314  -370  -342  -236  -108  -3  50  59  62  82  100  82  21  -38  -31  50  141  186  186  166  141  108  70  38  16  -4  -18  -7  49  158  315  508  694  811  843  798  675  516  404  382  428  494  538  559  613  762  978  1157  1236  1245  1234  1226  1215  1192  1166  1162  1172  1122  917  554  148  -168  -327  -345  -283  -196  -129  -99  -105  -135  -180  -226  -269  -302  -320  -325  -328  -335  -347  -358  -366  -376  -386  -380  -338  -271  -205  -152  -114  -107  -187  -393  -662  -856  -907  -841  -704  -542  -401  -290  -180  -67  3  0  -79  -223  -397  -542  -622  -635  -591  -502  -384  -271  -210  -208  -229  -242  -244  -243  -244  -244  -241  -239  -253  -288  -333  -351  -330  -308  -320  -378  -490  -619  -696  -683  -585  -448  -326  -238  -188  -200  -269  -335  -342  -264  -122  19  105  129  98  -1  -156  -294  -345  -317  -285  -323  -441  -589  -708  -769  -739  -576  -331  -127  -27  -13  -55  -113  -160  -195  -230  -263  -281  -266  -190  -51  89  142  100  56  81  146  195  222  231  200  105  -30  -145  -211  -242  -255  -256  -250  -242  -245  -282  -377  -531  -705  -808  -720  -373  40  76  -455  -1108  -1221  -491  989  2843  4452  5351  5447  4725  3216  1296  -429  -1540  -1900  -1657  -1234  -999  -935  -834  -633  -429  -307  -270  -269  -270  -264  -252  -219  -162  -111  -103  -142  -200  -252  -287  -304  -305  -278  -211  -121  -51  -27  -33  -38  -25  -2  16  22  0  -72  -184  -290  -353  -367  -346  -299  -194  11  278  492  604  640  644  630  591  516  432  389  433  576  784  991  1135  1192  1176  1118  1052  1007  994  1017  1092  1244  1424  1485  1326  1043  812  673  548  412  307  255  233  191  82  -90  -256  -360  -399  -405  -399  -398  -416  -461  -509  -524  -505  -481  -463  -442  -406  -366  -345  -361  -412  -482  -551  -593  -590  -539  -459  -389  -346  -296  -196  -61  51  116  159  200  197  76  -135  -304  -367  -366  -355  -351  -352  -350  -334  -294  -230  -161  -111  -79  -39  26  116  196  227  182  63  -75  -168  -197  -195  -188  -178  -152  -105  -54  -26  -41  -101  -181  -241  -280  -315  -334  -301  -201  -59  70  158  177  102  -20  -121  -211  -285  -301  -275  -256  -281  -354  -407  -374  -271  -162  -98  -86  -96  -119  -170  -242  -297  -318  -317  -312  -310  -309  -306  -302  -301  -305  -305  -284  -233  -190  -216  -328  -464  -556  -591  -578  -486  -267  26  245  283  135  -138  -427  -622  -672  -601  -450  -230  12  172  165  -5  -241  -410  -464  -452  -427  -415  -440  -535  -710  -900  -990  -911  -698  -457  -300  -301  -480  -743  -837  -448  614  2250  4016  5318  5686  4864  2992  716  -1237  -2431  -2668  -2126  -1381  -848  -522  -339  -296  -325  -351  -350  -321  -278  -243  -226  -221  -215  -212  -242  -340  -487  -611  -666  -652  -579  -466  -340  -219  -109  -23  21  20  -22  -83  -119  -92  -7  70  59  -40  -155  -231  -258  -222  -104  67  228  355  471  624  851  1102  1257  1197  882  442  124  83  314  686  1008  1178  1243  1271  1277  1264  1243  1217  1193  1179  1177  1184  1193  1185  1124  997  848  745  688  593  375  80  -145  -232  -240  -226  -169  -29  148  223  101  -154  -383  -491  -507  -489  -449  -363  -239  -137  -112  -166  -268  -377  -454  -489  -496  -496  -498  -501  -485  -431  -349  -269  -211  -169  -138  -116  -107  -120  -161  -221  -280  -341  -406  -454  -473  -467  -441  -394  -325  -248  -191  -177  -199  -219  -228  -266  -344  -430  -513  -588  -638  -637  -551  -356  -78  189  355  402  355  213  6  -189  -320  -376  -357  -297  -262  -297  -371  -417  -386  -300  -218  -174  -161  -161  -163  -172  -197  -233  -264  -274  -250  -186  -98  -20  44  101  143  157  141  92  24  -33  -75  -117  -147  -129  -73  -48  -114  -261  -413  -509  -547  -574  -629  -696  -722  -697  -664  -640  -528  -205  162  140  -385  -991  -1186  -668  604  2266  3829  4994  5443  4883  3397  1376  -616  -1925  -2179  -1613  -830  -281  -74  -89  -160  -211  -238  -233  -188  -130  -106  -127  -154  -163  -166  -173  -171  -119  11  180  308  368  389  396  382  339  277  214  151  88  38  7  -13  -22  -10  21  69  119  161  199  248  304  345  360  360  353  343  339  366  446  558  647  685  694  700  710  716  712  702  715  800  989  1223  1383  1432  1446  1502  1598  1652  1571  1321  958  581  281  114  64  68  85  100  98  67  12  -15  -21  -140  -403  -635  -693  -590  -418  -267  -172  -132  -161  -294  -514  -734  -869  -907  -871  -785  -687  -623  -603  -597  -576  -541  -515  -504  -492  -461  -418  -401  -443  -538  -631  -669  -649  -612  -584  -561  -524  -474  -425  -379  -335  -292  -255  -233  -255  -347  -489  -614  -675  -688  -681  -660  -616  -554  -489  -413  -323  -236  -172  -147  -163  -189  -198  -210  -265  -375  -504  -604  -657  -692  -747  -833  -928  -979  -918  -726  -470  -247  -120  -102  -160  -244  -330  -423  -519  -586  -602  -570  -503  -431  -389  -393  -427  -457  -447  -371  -218  -27  111  164  150  78  -62  -253  -399  -415  -349  -337  -409  -463  -412  -277  -145  -82  -110  -222  -369  -474  -504  -487  -456  -433  -431  -473  -575  -700  -743  -576  -210  55  -72  -500  -863  -745  227  2016  3998  5420  5795  5001  3350  1446  -155  -1142  -1516  -1499  -1315  -1076  -849  -696  -611  -537  -493  -563  -728  -856  -852  -734  -552  -316  -63  92  85  -14  -123  -212  -261  -244  -155  -34  53  82  74  54  38  37  57  84  99  102  127  203  308  369  359  326  321  347  367  344  283  215  181  204  272  367  465  526  534  521  550  681  900  1108  1221  1247  1236  1202  1134  1050  999  1000  1029  1053  1055  1044  1041  1052  1053  999  857  656  479  355  235  81  -88  -239  -335  -369  -378  -394  -419  -433  -408  -355  -323  -324  -353  -407  -465  -497  -499  -482  -459  -443  -438  -436  -431  -430  -451  -503  -559  -582  -566  -540  -524  -523  -544  -594  -645  -656  -622  -580  -554  -530  -467  -322  -112  64  139  148  158  165  116  0  -134  -229  -274  -283  -261  -218  -171  -146  -160  -188  -190  -164  -131  -113  -109  -90  -33  48  116  149  155  145  138  133  108  60  18  0]
