reading_id,reading_time,wire_id,result_classification,heart_rate,heart_rate_alert,firmware_version,device_app_version,hardware_version,waveform_samples
436e3180-50f8-11ed-8080-808080808080,Fri Oct 21 04:24:33 UTC 2022,e101e3752439,NSR,51,NONE,20001.171.50,2.10.0,Charge 5,[0  -37  315  1323  3048  5258  7553  9699  11700  13574  15256  16734  18161  19633  21037  22213  23088  23775  24528  25492  26559  27490  28166  28688  29222  29767  30166  30377  30552  30803  31084  31327  31546  31784  32039  32281  32462  32552  32583  32648  32767  32767  32767  32767  32767  32767  32767  32767  32767  32502  31903  31374  30947  30596  30317  30124  29972  29777  29507  29200  28870  28483  28028  27568  27180  26886  26622  26248  25695  25077  24578  24253  23987  23671  23332  23033  22719  22250  21556  20708  19865  19197  18726  18315  17900  17551  17268  16942  16500  16002  15566  15223  14919  14619  14306  13950  13513  12941  12223  11522  11034  10730  10432  10055  9635  9223  8861  8574  8299  7954  7555  7126  6611  6016  5489  5168  5041  5012  4977  4814  4411  3786  3142  2714  2533  2459  2369  2237  2057  1795  1489  1242  1048  788  392  -67  -424  -598  -671  -776  -1027  -1476  -2042  -2542  -2836  -2938  -2983  -3102  -3306  -3530  -3744  -3977  -4267  -4625  -5038  -5467  -5830  -6065  -6204  -6323  -6487  -6721  -6990  -7227  -7405  -7544  -7677  -7835  -8048  -8300  -8529  -8685  -8765  -8788  -8792  -8835  -8964  -9148  -9293  -9360  -9378  -9344  -9181  -8826  -8379  -8032  -7856  -7778  -7694  -7540  -7375  -7297  -7300  -7308  -7259  -7136  -6952  -6734  -6533  -6398  -6314  -6239  -6185  -6165  -6127  -6034  -5890  -5704  -5510  -5374  -5339  -5386  -5438  -5388  -5165  -4832  -4561  -4439  -4422  -4433  -4426  -4384  -4320  -4274  -4280  -4336  -4395  -4413  -4388  -4324  -4215  -4112  -4094  -4140  -4173  -4170  -4099  -3934  -3754  -3627  -3573  -3697  -4082  -4581  -4883  -4749  -4102  -3016  -1760  -758  -275  -234  -532  -1269  -2422  -3605  -4397  -4727  -4821  -4880  -4921  -4901  -4849  -4840  -4924  -5087  -5255  -5363  -5403  -5410  -5408  -5409  -5405  -5379  -5326  -5263  -5202  -5136  -5068  -5017  -4990  -4973  -4940  -4878  -4794  -4713  -4655  -4617  -4592  -4580  -4580  -4580  -4555  -4498  -4443  -4408  -4320  -4141  -3970  -3898  -3907  -3947  -3995  -4032  -4010  -3864  -3623  -3420  -3322  -3277  -3244  -3221  -3210  -3201  -3190  -3179  -3171  -3155  -3108  -3031  -2947  -2887  -2842  -2749  -2549  -2297  -2117  -2058  -2067  -2088  -2114  -2162  -2226  -2275  -2293  -2293  -2289  -2288  -2288  -2285  -2274  -2264  -2269  -2301  -2340  -2363  -2388  -2461  -2568  -2637  -2638  -2579  -2460  -2315  -2199  -2122  -2049  -1965  -1882  -1830  -1816  -1824  -1837  -1850  -1868  -1889  -1911  -1941  -1990  -2072  -2186  -2272  -2256  -2159  -2063  -1995  -1940  -1888  -1839  -1776  -1668  -1507  -1308  -1084  -869  -722  -659  -633  -584  -477  -303  -90  114  281  415  538  670  788  857  881  897  935  1022  1165  1336  1485  1578  1617  1619  1604  1585  1569  1551  1524  1498  1505  1587  1741  1899  2017  2120  2210  2250  2215  2105  1967  1860  1785  1716  1672  1695  1777  1847  1852  1800  1705  1565  1395  1241  1130  1059  1032  1055  1119  1213  1326  1423  1469  1465  1435  1408  1395  1395  1407  1432  1445  1402  1254  1011  770  628  586  600  676  868  1162  1443  1581  1487  1133  659  317  210  251  339  436  534  615  636  609  599  596  538  455  434  515  660  781  830  833  824  798  742  671  621  601  587  533  415  264  131  41  4  26  107  214  297  337  349  348  338  324  313  314  317  281  170  16  -102  -155  -167  -155  -96  23  169  303  397  371  212  45  -37  -43  -23  -23  -67  -148  -233  -291  -312  -311  -304  -294  -282  -275  -288  -329  -383  -421  -437  -459  -514  -579  -603  -567  -491  -389  -263  -157  -204  -523  -993  -1276  -1086  -313  952  2392  3620  4366  4515  4082  3237  2269  1406  768  414  276  240  235  186  106  78  102  135  172  230  296  323  285  221  175  150  131  118  113  114  114  112  107  94  75  57  45  38  34  29  17  -7  -42  -61  -44  -11  10  18  8  -45  -165  -324  -447  -504  -526  -535  -532  -524  -499  -419  -265  -99  -34  -84  -140  -132  -93  -74  -80  -88  -74  -21  88  246  414  551  632  664  674  682  695  748  873  1032  1124  1097  1003  928  903  906  899  851  767  681  610  539  462  397  361  353  358  345  286  177  47  -67  -142  -170  -158  -131  -112  -96  -78  -76  -88  -96  -101  -129  -201  -295  -347  -318  -235  -160  -124  -116  -130  -174  -246  -315  -347  -336  -322  -321  -306  -253  -153  -22  89  146  152  118  47  -47  -134  -195  -229  -249  -257  -238  -188  -134  -93  -66  -39  -1  26  -8  -129  -267  -307  -219  -75  62  179  275  357  439  505  498  397  258  143  49  -43  -111  -130  -104  -45  21  64  76  71  72  93  135  179  207  207  183  154  130  116  110  115  146  211  305  406  489  535  544  531  505  476  440  382  316  274  263  266  269  276  295  319  331  363  451  537  543  482  423  399  394  369  302  222  190  224  284  337  384  409  385  335  304  296  284  255  222  201  192  191  207  260  357  463  512  474  382  279  187  147  220  376  504  548  553  579  641  707  746  758  759  761  763  747  693  610  557  546  489  346  191  90  40  15  1  -10  -30  -57  -87  -120  -149  -164  -168  -189  -250  -329  -372  -431  -632  -909  -964  -545  401  1721  3051  3936  4085  3506  2429  1234  327  -109  -192  -169  -168  -156  -111  -71  -57  -74  -127  -209  -279  -295  -268  -245  -256  -301  -360  -424  -492  -524  -479  -388  -301  -224  -138  -66  -70  -158  -274  -382  -471  -528  -546  -528  -473  -392  -313  -258  -231  -221  -222  -240  -292  -367  -425  -442  -412  -334  -218  -69  132  338  430  377  251  115  14  -8  44  137  242  326  388  454  528  611  719  827  867  822  753  727  752  786  795  800  842  925  1006  1045  1038  1007  956  856  695  511  343  215  151  147  150  127  90  55  30  -14  -121  -249  -317  -320  -296  -281  -290  -310  -333  -363  -373  -352  -327  -336  -385  -448  -491  -505  -509  -517  -520  -477  -354  -197  -106  -116  -150  -140  -109  -101  -112  -121  -134  -195  -323  -462  -512  -434  -293  -180  -109  -51  2  25  0  -75  -180  -252  -236  -179  -157  -180  -233  -315  -434  -566  -662  -704  -713  -710  -690  -645  -587  -543  -525  -524  -528  -539  -574  -648  -734  -778  -759  -711  -681  -687  -708  -731  -756  -778  -781  -753  -686  -588  -483  -408  -376  -374  -391  -418  -455  -493  -518  -529  -547  -581  -604  -590  -545  -475  -379  -281  -220  -205  -214  -237  -274  -319  -358  -387  -412  -428  -421  -384  -327  -258  -166  -52  50  115  141  133  98  41  -35  -136  -248  -336  -358  -308  -230  -174  -142  -120  -107  -102  -103  -105  -105  -98  -86  -80  -89  -108  -117  -83  -24  -2  -36  -79  -85  -35  31  53  6  -81  -143  -150  -152  -198  -286  -373  -401  -377  -338  -277  -212  -168  -95  5  59  25  -65  -133  -116  -42  19  41  39  34  26  6  -31  -82  -140  -212  -321  -447  -540  -581  -580  -539  -465  -365  -253  -164  -132  -182  -305  -432  -539  -690  -920  -1140  -1073  -457  653  1980  3214  4077  4380  4033  3096  1897  872  268  143  349  522  442  226  36  -94  -180  -229  -239  -216  -186  -173  -174  -176  -170  -159  -149  -140  -136  -156  -219  -312  -397  -450  -469  -437  -336  -198  -95  -67  -108  -185  -250  -304  -380  -452  -483  -493  -499  -503  -503  -506  -511  -504  -476  -438  -390  -307  -191  -86  -22  8  33  81  172  280  349  351  308  279  328  478  686  888  1035  1119  1172  1228  1266  1255  1220  1196  1173  1110  990  852  761  749  818  947  1082  1156  1131  986  726  427  209  113  94  103  120  133  125  95  61  31  -17  -106  -205  -294  -388  -470  -518  -538  -529  -485  -403  -286  -149  -21  60  78  50  0  -60  -115  -141  -146  -145  -138  -116  -77  -47  -52  -88  -137  -198  -246  -230  -128  11  103  114  83  60  57  55  42  34  57  128  214  247  213  180  185  200  198  182  170  185  240  324  405  474  553  627  656  628  563  503  469  435  379  301  227  188  178  176  175  201  284  405  512  575  598  595  580  569  561  544  508  463  432  421  417  403  387  407  480  561  585  528  426  342  302  291  280  251  200  149  120  116  120  120  116  120  150  206  239  208  140  81  46  18  -19  -60  -83  -84  -73  -57  -40  -23  -14  -20  -43  -83  -135  -202  -299  -413  -501  -543  -552  -540  -498  -420  -336  -305  -349  -430  -505  -549  -562  -561  -569  -605  -677  -766  -832  -859  -850  -819  -785  -760  -742  -726  -695  -627  -531  -453  -422  -427  -440  -444  -443  -461  -522  -611  -685  -732  -765  -793  -791  -761  -765  -836  -927  -1003  -1070  -1131  -1177  -1221  -1295  -1415  -1543  -1610  -1590  -1508  -1414  -1354  -1336  -1334  -1329  -1330  -1386  -1555  -1823  -2061  -2122  -1945  -1563  -1056  -414  425  1424  2474  3317  3568  3089  2103  979  76  -416  -573  -642  -803  -991  -1063  -1028  -983  -968  -970  -978  -985  -989  -975  -924  -841  -756  -692  -676  -723  -801  -859  -876  -851  -797  -733  -673  -629  -598  -571  -532  -483  -458  -487  -543  -587  -619  -651  -666  -625  -533  -440  -381  -358  -359  -372  -381  -370  -352  -364  -407  -447  -467  -472  -451  -380  -261  -123  10  120  182  198  191  180  175  195  255  351  444  502  524  525  516  501  487  481  506  583  689  774  814  809  734  564  355  211  170  191  220  202  81  -146  -396  -570  -640  -642  -620  -601  -590  -574  -540  -493  -465  -480  -516  -534  -521  -481  -433  -399  -383  -375  -359  -334  -320  -335  -362  -377  -372  -352  -330  -285  -188  -74  -3  19  21  21  20  9  -19  -52  -69  -65  -36  15  72  113  142  184  240  286  316  352  411  492  568  614  637  667  720  780  814  816  803  790  782  794  852  957  1064  1128  1155  1188  1242  1293  1312  1305  1287  1271  1278  1320  1389  1467  1554  1666  1796  1899  1941  1927  1885  1848  1827  1816  1814  1821  1827  1819  1788  1739  1682  1632  1599  1585  1590  1612  1643  1664  1662  1635  1595  1561  1548  1568  1631  1716  1776  1791  1774  1750  1736  1737  1736  1711  1661  1616  1603  1604  1580  1519  1458  1432  1435  1443  1446  1446  1459  1497  1564  1654  1731  1733  1666  1615  1618  1635  1626  1584  1534  1512  1530  1574  1619  1648  1661  1666  1672  1672  1644  1557  1415  1284  1234  1293  1446  1614  1708  1723  1708  1700  1702  1693  1659  1608  1550  1477  1374  1225  1044  864  706  582  517  520  563  592  570  497  400  303  216  124  9  -116  -206  -241  -300  -523  -929  -1289  -1292  -820  67  1231  2362  3074  3221  2880  2167  1272  454  -165  -609  -886  -983  -947  -893  -932  -1077  -1257  -1415  -1527  -1585  -1601  -1608  -1629  -1654  -1655  -1624  -1590  -1573  -1572  -1580  -1592  -1601  -1612  -1636  -1664  -1682  -1694  -1718  -1777  -1866  -1957  -2018  -2016  -1937  -1825  -1762  -1792  -1873  -1939  -1964  -1962  -1945  -1905  -1836  -1762  -1721  -1723  -1742  -1748  -1729  -1681  -1610  -1528  -1454  -1402  -1359  -1315  -1284  -1276  -1280  -1278  -1248  -1191  -1121  -1040  -948  -873  -831  -800  -741  -634  -507  -414  -376  -371  -376  -380  -381  -369  -339  -307  -303  -352  -468  -628  -804  -988  -1157  -1261  -1291  -1299  -1331  -1385  -1427  -1438  -1433  -1436  -1468  -1531  -1596  -1627  -1616  -1599  -1606  -1618  -1570  -1440  -1294  -1211  -1193  -1201  -1207  -1213  -1231  -1261  -1276  -1263  -1238  -1223  -1222  -1221  -1193  -1111  -981  -862  -803  -791  -791  -791  -791  -791  -793  -807  -852  -920  -974  -998  -1007  -1001  -951  -824  -655  -539  -541  -657  -814  -914  -930  -903  -869  -842  -826  -821  -824  -830  -839  -849  -855  -841  -794  -721  -625  -513  -443  -470  -555  -609  -595  -550  -510  -474  -437  -392  -336  -278  -221  -170  -146  -155  -194  -264  -338  -382  -375  -299  -181  -89  -53  -44  -27  7  36  48  57  83  119  136  116  77  50  49  61  74  86  96  96  96  128  223  352  446  458  400  312  232  166  125  134  191  249  279  282  271  250  224  206  199  196  195  204  239  302  372  441  510  561  586  619  659  677  674  659  634  598  531  415  258  99  -19  -63  -31  33  101  174  244  286  276  198  63  -89  -216  -289  -331  -396  -481  -559  -616  -580  -268  498  1718  3133  4289  4747  4368  3361  2154  1196  694  522  406  205  -22  -195  -290  -322  -327  -331  -338  -337  -310  -234  -117  -8  50  62  58  46  6  -74  -166  -239  -284  -284  -255  -224  -181  -127  -87  -71  -81  -108  -141  -203  -299  -375  -367  -275  -170  -129  -139  -137  -114  -100  -100  -86  -33  50  133  189  217  232  249  257  257  274  316  358  390  427  481  540  582  597  593  580  560  543  547  602  717  851  933  922  818  674  568  541  585  677  793  903  957  882  644  318  34  -142  -251  -341  -417  -474  -521  -566  -611  -640  -649  -647  -643  -642  -641  -641  -637  -636  -649  -680  -718  -765  -818  -848  -813  -720  -618  -546  -498  -460  -443  -452  -454  -430  -403  -394  -395  -384  -346  -291  -251  -238  -241  -246  -244  -229  -204  -177  -176  -214  -264  -294  -304  -308  -309  -296  -259  -186  -62  83  184  222  236  254  263  243  198  154  133  135  145  152  161  183  209  222  223  222  226  237  257  281  298  313  348  410  470  483  425  300  145  18  -52  -84  -96  -90  -72  -56  -49  -47  -46  -49  -65  -93  -116  -126  -137  -161  -195  -221  -231  -225  -206  -180  -157  -150  -170  -213  -244  -241  -228  -224  -216  -186  -143  -109  -93  -88  -85  -87  -97  -123  -171  -227  -274  -288  -224  -88  40  105  114  104  99  99  96  78  41  -5  -44  -59  -48  -5  62  136  196  232  233  193  125  52  -16  -84  -144  -180  -177  -135  -73  -12  34  77  135  203  263  312  348  361  354  342  337  336  338  341  344  338  301  219  118  44  14  2  -9  -9  13  43  59  77  129  204  248  229  167  80  -31  -157  -267  -335  -398  -540  -669  -476  237  1395  2762  4009  4771  4849  4281  3303  2240  1343  760  513  472  446  342  222  167  156  138  111  77  27  -36  -100  -151  -184  -206  -224  -222  -180  -95  -4  36  -1  -85  -161  -202  -211  -194  -152  -100  -65  -62  -83  -128  -207  -294  -339  -331  -309  -290  -243  -149  -37  35  52  45  56  106  177  229  249  252  249  247  261  310  389  478  561  627  663  671  666  664  674  702  758  845  944  1027  1080  1117  1154  1176  1150  1081  1018  981  944  872  769  679  634  626  634  627  571  432  243  88  -4  -68  -136  -224  -321  -388  -409  -405  -400  -401  -410  -425  -439  -443  -438  -430  -428  -438  -470  -529  -600  -651  -669  -641  -555  -430  -319  -257  -242  -253  -279  -308  -331  -349  -371  -393  -412  -432  -449  -455  -444  -419  -393  -385  -395  -407  -396  -368  -350  -356  -360  -333  -287  -250  -240  -247  -237  -191  -133  -113  -167  -272  -366  -419  -437  -419  -350  -219  -71  18  25  -24  -101  -169  -202  -215  -246  -307  -358  -355  -314  -277  -262  -259  -260  -273  -311  -369  -426  -465  -493  -507  -470  -352  -200  -99  -79  -127  -237  -380  -498  -552  -554  -521  -458  -383  -330  -311  -311  -316  -330  -363  -400  -413  -390  -336  -271  -242  -291  -401  -510  -575  -594  -596  -591  -557  -466  -332  -210  -147  -136  -143  -146  -141  -137  -142  -153  -176  -221  -277  -314  -327  -338  -359  -369  -346  -311  -297  -285  -231  -135  -40  25  63  91  110  100  44  -33  -76  -54  13  99  179  210  151  21  -108  -187  -225  -260  -328  -455  -613  -730  -757  -694  -552  -346  -134  -14  -56  -223  -346  -289  -188  -286  -606  -959  -1044  -573  483  1798  2868  3340  3166  2491  1585  770  203  -126  -244  -249  -280  -338  -368  -386  -405  -395  -353  -302  -256  -209  -162  -143  -168  -195  -181  -144  -117  -104  -97  -93  -88  -77  -52  -15  19  31  18  2  2  11  17  29  59  105  153  206  265  313  329  320  302  281  258  234  216  205  198  196  202  216  233  259  313  406  522  631  705  739  752  763  773  795  852  938  1019  1081  1136  1201  1274  1343  1391  1409  1393  1350  1287  1219  1161  1115  1065  991  889  771  650  528  412  324  275  245  199  114  3  -86  -138  -167  -198  -252  -326  -376  -376  -352  -339  -333  -309  -262  -226  -236  -264  -268  -250  -227  -201  -178  -166  -168  -182  -190  -185  -186  -188  -162  -120  -87  -65  -46  -36  -35  -37  -36  -37  -57  -103  -145  -138  -98  -72  -75  -84  -85  -83  -89  -112  -145  -170  -181  -180  -169  -145  -96  -25  36  59  36  -18  -74  -108  -122  -127  -125  -120  -118  -132  -177  -238  -283  -295  -289  -279  -271  -262  -251  -242  -233  -221  -203  -173  -128  -77  -50  -87  -205  -357  -459  -470  -415  -345  -283  -223  -165  -132  -128  -138  -144  -152  -187  -269  -397  -532  -625  -665  -686  -709  -720  -702  -649  -577  -536  -549  -576  -581  -569  -555  -540  -513  -456  -383  -331  -316  -324  -336  -341  -341  -349  -376  -420  -463  -500  -548  -626  -722  -795  -823  -822  -809  -789  -765  -745  -732  -724  -723  -738  -773  -813  -829  -835  -899  -1082  -1335  -1470  -1220  -433  755  2051  3162  3794  3752  3092  2058  967  133  -269  -355  -377  -430  -487  -558  -631  -656  -635  -605  -592  -598  -615  -634  -656  -679  -699  -709  -709  -703  -696  -681  -651  -634  -658  -702  -729  -715  -653  -557  -449  -341  -247  -191  -173  -173  -179  -193  -223  -264  -298  -309  -276  -174  -20  129  250  356  439  486  493  474  446  420  397  382  387  416  485  601  743  881  993  1067  1114  1164  1258  1416  1569  1601  1522  1444  1415  1410  1412  1420  1436  1450  1433  1355  1217  1068  960  889  821  756  721  725  740  707  566  333  112  -12  -40  -9  38  59  30  -34  -117  -190  -214  -190  -160  -145  -136  -121  -113  -133  -178  -230  -265  -279  -282  -281  -268  -230  -171  -109  -49  12  61  69  19  -76  -186  -268  -295  -281  -255  -222  -187  -156  -122  -70  -12  20  10  -28  -68  -86  -77  -49  -12  12  -5  -58  -110  -138  -144  -130  -98  -54  -14  5  9  8  6  -15  -83  -186  -289  -358  -377  -343  -272  -203  -168  -182  -245  -331  -398  -429  -439  -446  -464  -492  -511  -490  -403  -283  -193  -160  -163  -183  -222  -265  -280  -240  -164  -87  -22  21  19  -39  -134  -227  -283  -295  -291  -285  -271  -246  -216  -191  -167  -134  -97  -73  -65  -63  -45  1  59  96  96  78  66  67  61  35  0  -44  -119  -213  -269  -240  -142  -38  26  55  73  80  72  62  66  85  120  157  183  199  203  197  192  195  197  194  180  155  140  140  132  117  117  147  202  252  263  222  146  57  -43  -142  -193  -171  -104  -35  25  81  100  51  -38  -123  -182  -209  -202  -153  -54  70  168  220  241  209  68  -151  -327  -400  -423  -477  -574  -628  -577  -482  -428  -419  -427  -440  -464  -493  -502  -465  -411  -456  -742  -1220  -1567  -1382  -486  946  2516  3775  4330  4078  3231  2101  1028  308  -19  -115  -125  -145  -258  -457  -628  -696  -695  -684  -685  -690  -695  -716  -755  -785  -780  -741  -693  -647  -602  -586  -632  -714  -763  -753  -718  -702  -715  -739  -744  -730  -721  -712  -687  -650  -617  -585  -523  -413  -290  -209  -182  -185  -199  -209  -205  -178  -127  -61  0  53  102  147  176  189  196  207  238  305  394  476  550  630  709  763  794  834  911  1034  1174  1262  1258  1199  1156  1150  1124  1048  969  927  922  935  943  921  862  784  712  647  585  534  492  431  310  126  -60  -175  -205  -180  -128  -70  -31  -20  -22  -25  -24  -19  -14  -10  -6  -4  -3  -3  -3  -5  -10  -18  -12  35  139  262  351  379  347  264  160  72  2  -63  -116  -129  -72  54  174  204  154  83  23  -14  -25  -5  49  122  177  196  184  146  90  36  1  -7  -3  -4  -13  -5  58  187  303  318  238  143  92  81  68  21  -32  -41  -11  3  -22  -79  -134  -155  -157  -176  -214  -255  -296  -335  -362  -378  -386  -392  -402  -422  -444  -453  -435  -386  -325  -279  -248  -224  -212  -228  -290  -394  -510  -586  -576  -499  -422  -379  -358  -347  -347  -364  -396  -427  -452  -493  -567  -666  -749  -769  -730  -680  -651  -642  -646  -658  -673  -689  -706  -738  -808  -904  -973  -980  -936  -874  -824  -791  -759  -731  -718  -718  -722  -726  -729  -735  -737  -722  -674  -595  -515  -452  -389  -323  -272  -240  -203  -134  -42  34  69  50  -26  -134  -224  -274  -294  -306  -325  -364  -431  -496  -516  -499  -480  -460  -431  -406  -399  -412  -418  -391  -366  -458  -720  -990  -1001  -593  248  1428  2647  3471  3632  3117  2076  862  -63  -449  -392  -151  58  109  -27  -243  -414  -495  -480  -382  -259  -175  -138  -133  -150  -173  -184  -186  -191  -207  -228  -249  -273  -295  -291  -245  -174  -114  -104  -149  -214  -255  -270  -274  -269  -252  -219  -165  -105  -60  -13  61  146  220  278  295  266  225  204  228  296  379  453  491  482  458  464  531  655  801  928  1012  1058  1091  1119  1126  1104  1075  1094  1210  1400  1550  1598  1602  1626  1670  1706  1703  1675  1676  1692  1669  1594  1469  1287  1068  860  712  639  616  617  633  654  664  652  607  538  466  410  374  361  361  360  337  289  246  248  277  272  229  219  288  391  457  493  546  601  619  598  559  515  466  404  324  229  138  102  154  274  396  454  425  334  219  136  164  304  472  577  577  500  409  341  296  259  226  212  225  239  212  134  33  -43  -74  -67  -43  -17  22  93  168  195  177  155  151  156  148  102  19  -75  -141  -159  -131  -70  -2  46  67  70  66  64  61  54  37  13  -4  -10  -10  -17  -42  -84  -122  -138  -127  -98  -79  -83  -94  -97  -96  -94  -77  -40  -7  -15  -57  -94  -108  -115  -134  -161  -185  -199  -207  -212  -213  -218  -241  -285  -322  -309  -239  -160  -132  -158  -208  -262  -284  -252  -196  -164  -169  -189  -198  -199  -203  -214  -226  -242  -262  -276  -278  -276  -286  -319  -369  -416  -456  -498  -546  -588  -608  -600  -578  -564  -557  -557  -571  -607  -664  -722  -768  -808  -814  -772  -799  -1008  -1306  -1448  -1157  -293  957  2246  3304  3906  3877  3259  2336  1392  565  -32  -341  -473  -540  -513  -457  -515  -674  -814  -879  -886  -867  -829  -758  -657  -553  -468  -398  -326  -266  -271  -358  -472  -536  -522  -472  -435  -426  -433  -437  -434  -431  -436  -444  -438  -401  -350  -310  -280  -241  -206  -213  -265  -310  -313  -293  -279  -278  -281  -283  -283  -273  -257  -255  -267  -252  -173  -64  1  -2  -43  -81  -102  -106  -77  10  139  250  303  309  294  272  255  250  253  256  247  215  171  140  133  144  149  113  2  -159  -297  -362  -379  -419  -531  -681  -790  -833  -839  -840  -842  -831  -771  -649  -532  -519  -600  -697  -780  -828  -821  -799  -804  -834  -872  -899  -898  -864  -786  -691  -649  -656  -654  -633  -616  -609  -599  -564  -515  -477  -456  -452  -454  -440  -419  -408  -405  -394  -366  -328  -284  -234  -191  -169  -165  -169  -171  -169  -164  -147  -110  -59  -11  25  55  79  82  39  -41  -106  -108  -46  40  102  122  118  111  107  105  102  95  80  65  73  115  171  220  247  246  232  219  213  209  201  189  183  211  290  373  380  283  128  -22  -117  -147  -142  -109  -40  53  142  204  231  224  204  197  210  225  242  256  214  106  9  -26  -20  -7  1  18  58  110  157  191  215  223  202  149  90  58  62  85  113  150  185  184  132  56  -2  -40  -82  -121  -116  -61  5  49  62  51  27  -4  -38  -60  -65  -63  -70  -94  -135  -187  -234  -253  -214  -114  -1  64  78  75  68  56  45  42  50  77  131  203  270  323  364  389  388  356  266  102  -79  -179  -161  -91  -44  -37  -55  -86  -126  -162  -186  -199  -205  -205  -191  -150  -101  -135  -355  -735  -1044  -954  -242  1009  2409  3516  4022  3776  2908  1799  816  170  -87  -96  -68  -110  -190  -225  -197  -145  -93  -66  -80  -113  -151  -203  -254  -272  -249  -204  -182  -199  -219  -220  -225  -257  -305  -342  -352  -345  -333  -320  -302  -269  -224  -188  -179  -181  -163  -109  -48  -10  4  5  5  21  62  103  116  117  140  178  202  210  210  213  221  229  233  238  264  336  463  622  769  859  892  910  941  977  999  1007  1007  998  970  925  887  874  884  905  919  908  868  810  775  776  774  731  644  525  403  290  182  97  52  44  36  -10  -94  -163  -185  -177  -161  -135  -80  -13  11  -39  -133  -210  -270  -360  -455  -482  -448  -415  -398  -390  -383  -360  -303  -208  -126  -133  -227  -324  -370  -369  -345  -323  -310  -298  -279  -260  -263  -294  -332  -355  -360  -359  -359  -357  -345  -322  -302  -298  -303  -309  -312  -313  -310  -292  -245  -180  -135  -148  -224  -313  -344  -308  -259  -237  -236  -241  -245  -248  -247  -236  -213  -187  -171  -169  -177  -186  -195  -210  -230  -247  -273  -334  -424  -495  -514  -489  -438  -376  -317  -274  -255  -252  -256  -261  -263  -256  -236  -209  -199  -218  -259  -299  -328  -344  -340  -299  -202  -65  58  126  145  144  132  85  -15  -139  -227  -229  -137  5  140  244  325  385  421  428  390  296  149  -28  -189  -285  -324  -352  -392  -425  -432  -414  -387  -366  -357  -354  -355  -359  -357  -330  -276  -267  -434  -755  -975  -822  -168  897  2060  2943  3302  3105  2457  1529  604  -45  -325  -307  -146  8  35  -106  -300  -416  -446  -430  -392  -351  -321  -301  -278  -248  -220  -204  -201  -202  -204  -204  -203  -201  -201  -202  -204  -203  -198  -193  -192  -197  -204  -207  -205  -195  -181  -160  -128  -92  -68  -65  -64  -33  39  114  140  127  125  157  200  220  230  253  286  336  433  567  683  755  781  770  778  837  898  913  904  910  948  1005  1048  1062  1057  1061  1092  1134  1151  1134  1119  1129  1129  1048  864  659  522  455  390  285  154  45  -27  -87  -150  -206  -251  -287  -324  -390  -476  -530  -532  -504  -457  -400  -353  -327  -322  -337  -362  -383  -397  -405  -411  -418  -422  -417  -399  -373  -352  -348  -359  -378  -390  -390  -387  -386  -379  -356  -323  -292  -269  -257  -247  -221  -170  -109  -73  -77  -101  -121  -143  -172  -201  -218  -212  -193  -177  -175  -178  -164  -117  -50  0  2  -41  -109  -153  -154  -134  -122  -118  -105  -75  -40  -17  -10  -11  -12  -12  -20  -51  -110  -169  -199  -199  -172  -121  -78  -92  -162  -237  -281  -293  -292  -290  -281  -249  -192  -130  -85  -71  -83  -98  -108  -120  -140  -172  -206  -236  -256  -268  -278  -288  -292  -295  -301  -311  -328  -363  -412  -449  -449  -409  -350  -304  -284  -279  -277  -273  -251  -192  -109  -34  31  106  184  243  261  234  151  -4  -197  -341  -406  -423  -417  -384  -329  -276  -254  -267  -295  -320  -329  -316  -283  -237  -180  -112  -53  -72  -280  -707  -1196  -1482  -1342  -672  427  1718  2953  3883  4317  4182  3486  2453  1470  746  287  75  11  -50  -119  -143  -146  -162  -202  -271  -352  -403  -378  -259  -92  44  118  143  126  67  -16  -78  -83  -48  -13  3  12  16  -15  -114  -259  -361  -352  -237  -76  56  128  155  160  167  191  226  247  239  216  200  194  190  177  153  132  147  232  367  492  570  604  611  610  620  646  677  709  759  837  927  1002  1048  1065  1057  1032  1017  1028  1043  1037  1013  991  983  980  964  913  821  713  626  553  463  356  255  158  41  -88  -200  -295  -397  -504  -580  -596  -567  -539  -532  -522  -485  -442  -439  -482  -545  -603  -641  -647  -627  -604  -618  -673  -726  -750  -758  -763  -763  -745  -700  -641  -591  -563  -557  -568  -593  -623  -641  -610  -505  -359  -253  -244  -329  -455  -553  -587  -554  -468  -363  -288  -250  -218  -167  -103  -52  -20  4  27  34  14  -23  -43  -9  69  150  201  216  205  174  126  70  20  -9  -18  -19  -19  -22  -19  -4  19  38  49  53  37  -36  -191  -392  -543  -561  -440  -258  -116  -46  -16  -5  -15  -48  -93  -138  -170  -179  -166  -148  -143  -154  -169  -183  -193  -200  -211  -225  -234  -240  -249  -269  -288  -298  -306  -319  -337  -357  -373  -387  -409  -433  -445  -441  -423  -397  -366  -324  -276  -234  -208  -206  -234  -271  -292  -287  -269  -253  -242  -242  -269  -338  -439  -539  -616  -668  -702  -725  -735  -717  -651  -561  -500  -490  -524  -593  -673  -727  -738  -707  -697  -818  -1069  -1293  -1315  -1015  -327  697  1820  2736  3214  3095  2373  1312  313  -339  -556  -416  -173  -93  -190  -302  -357  -399  -468  -542  -565  -532  -488  -466  -464  -465  -454  -429  -406  -395  -364  -292  -226  -218  -270  -348  -401  -414  -408  -410  -422  -427  -410  -370  -303  -223  -162  -139  -146  -170  -198  -218  -226  -230  -236  -248  -255  -246  -220  -173  -103  -32  15  31  31  27  19  3  -19  -39  -52  -53  -17  87  251  412  531  627  710  764  781  762  707  629  557  509  477  452  434  434  485  608  748  769  575  217  -125  -319  -372  -365  -369  -409  -477  -546  -594  -627  -659  -683  -702  -720  -716  -696  -707  -743  -764  -762  -760  -788  -857  -926  -928  -865  -801  -776  -778  -785  -789  -785  -773  -753  -726  -681  -618  -563  -541  -549  -591  -667  -753  -825  -874  -882  -811  -637  -414  -252  -210  -285  -444  -623  -746  -787  -770  -716  -636  -557  -509  -494  -497  -500  -493  -481  -471  -454  -421  -400  -415  -449  -487  -534  -574  -585  -577  -569  -569  -572  -579  -592  -609  -619  -617  -611  -596  -559  -494  -421  -373  -357  -357  -366  -381  -409  -448  -471  -449  -390  -308  -214  -127  -59  -22  -62  -183  -309  -386  -426  -446  -429  -351  -236  -140  -85  -44  4  53  85  94  87  81  84  94  102  104  97  82  75  126  277  483  639  709  745  792  847  869  832  766  718  697  678  651  627  616  619  630  645  661  670  663  648  638  633  631  637  652  675  711  751  738  603  420  409  735  1448  2468  3510  4276  4656  4590  4060  3232  2402  1804  1528  1547  1678  1655  1462  1318  1306  1340  1357  1361  1363  1362  1349  1329  1323  1338  1348  1342  1352  1402  1475  1532  1556  1548  1524  1501  1485  1477  1478  1500  1554  1627  1683  1704  1712  1730  1761  1783  1769  1704  1614  1546  1522  1533  1568  1616  1661  1689  1693  1680  1666  1661  1661  1661  1658  1660  1685  1743  1810  1850  1859  1875  1932  2012  2075  2111  2134  2157  2193  2237  2271  2283  2281  2294  2348  2431  2487  2459  2347  2207  2105  2048  1999  1933  1842  1721  1565  1376  1182  1019  909  846  816  803  793  767  719  653  573  495  440  406  379  356  342  338  342  352  370  376  344  272  174  69  -6  -22  -1  18  23  20  19  23  29  20  -31  -124  -217  -292  -370  -442  -484  -505  -528  -570  -622  -661  -678  -679  -675  -673  -670  -652  -612  -568  -525  -474  -434  -452  -554  -697  -801  -835  -828  -816  -808  -804  -813  -848  -909  -981  -1048  -1090  -1099  -1090  -1082  -1085  -1090  -1084  -1074  -1079  -1098  -1107  -1092  -1054  -1022  -1021  -1040  -1062  -1086  -1106  -1118  -1131  -1151  -1181  -1214  -1230  -1224  -1235  -1285  -1352  -1406  -1428  -1425  -1446  -1510  -1575  -1609  -1618  -1630  -1662  -1709  -1750  -1773  -1777  -1765  -1734  -1685  -1624  -1555  -1496  -1477  -1494  -1508  -1493  -1455  -1427  -1426  -1418  -1375  -1319  -1290  -1288  -1292  -1296  -1306  -1331  -1365  -1393  -1413  -1424  -1426  -1424  -1425  -1442  -1486  -1553  -1615  -1647  -1651  -1646  -1659  -1699  -1750  -1784  -1797  -1804  -1819  -1846  -1888  -1942  -2000  -2047  -2072  -2075  -2073  -2086  -2104  -2095  -2045  -1977  -1932  -1923  -1934  -1960  -2000  -2041  -2058  -2042  -2005  -1952  -1880  -1807  -1759  -1742  -1743  -1731  -1679  -1583  -1475  -1389  -1341  -1319  -1293  -1251  -1202  -1153  -1117  -1118  -1152  -1185  -1199  -1204  -1210  -1207  -1158  -1051  -939  -880  -858  -861  -907  -967  -991  -962  -908  -908  -1026  -1223  -1446  -1640  -1572  -1033  -78  1182  2597  3787  4385  4289  3580  2510  1438  603  74  -188  -302  -346  -343  -325  -308  -292  -284  -287  -291  -275  -224  -152  -92  -54  -35  -48  -110  -193  -241  -236  -217  -209  -194  -158  -116  -82  -55  -38  -31  -27  -16  5  23  16  -14  -43  -62  -80  -112  -150  -159  -125  -99  -101  -77  -8  43  33  -14  -35  1  64  103  121  147  182  224  275  324  365  405  456  515  575  623  640  618  580  565  598  662  731  796  868  954  1044  1114  1151  1160  1130  1038  897  766  683  636  607  589  580  569  546  521  503  497  496  492  481  469  459  443  414  369  318  275  248  240  248  259  266  268  274  286  299  308  318  333  364  419  483  528  544  534  508  464  398  327  310  371  475  571  628  646  645  642  638  621  584  534  500  518  585  667  732  769  787  804  831  849  815  704  553  451  432  445  441  419  397  387  392  399  394  382  372  368  367  364  365  380  421  474  512  513  478  428  393  384  392  402  406  394  373  370  401  435  441  431  424  394  300  152  7  -91  -135  -142  -135  -133  -140  -153  -167  -178  -180  -175  -167  -157  -138  -97  -21  82  168  190  161  125  104  104  108  88  52  21  1  -8  -10  -14  -28  -50  -69  -78  -76  -65  -44  -15  11  36  60  69  29  -82  -230  -340  -377  -355  -281  -175  -74  -13  0  -19  -39  -32  0  54  138  243  341  403  418  377  291  187  86  -11  -101  -162  -183  -180  -173  -168  -168  -183  -215  -249  -280  -318  -363  -395  -394  -353  -266  -148  -83  -161  -359  -586  -714  -569  -41  853  1949  2886  3339  3215  2528  1455  397  -276  -444  -240  70  277  322  238  68  -131  -288  -371  -407  -429  -451  -472  -481  -458  -407  -364  -355  -371  -386  -381  -348  -287  -214  -160  -140  -147  -167  -195  -235  -282  -315  -323  -316  -313  -325  -347  -351  -301  -170  7  158  237  260  253  230  198  162  145  166  207  240  260  286  341  431  533  615  652  638  599  572  575  602  659  771  919  1037  1087  1088  1075  1069  1082  1117  1159  1177  1156  1116  1092  1083  1042  914  709  499  353  284  258  230  190  158  144  124  67  -42  -182  -298  -356  -364  -350  -334  -324  -320  -311  -289  -258  -246  -266  -302  -344  -399  -454  -491  -496  -472  -446  -439  -450  -465  -475  -480  -481  -479  -464  -427  -380  -344  -335  -349  -382  -417  -432  -420  -393  -370  -353  -329  -290  -247  -210  -164  -103  -72  -118  -216  -307  -362  -381  -358  -270  -120  23  86  72  40  28  39  54  64  69  60  22  -37  -91  -122  -128  -114  -88  -64  -47  -33  -23  -29  -64  -116  -145  -126  -88  -66  -63  -68  -76  -81  -74  -53  -27  -6  7  19  29  34  22  -11  -42  -34  8  27  -16  -77  -84  -14  92  166  160  79  -30  -106  -131  -130  -131  -134  -131  -113  -61  43  193  340  430  436  356  213  67  -25  -65  -84  -99  -116  -146  -193  -241  -263  -260  -272  -312  -348  -365  -403  -498  -610  -661  -631  -576  -545  -533  -531  -587  -806  -1177  -1375  -1018  -88  1164  2434  3346  3643  3364  2683  1766  831  115  -300  -477  -491  -430  -386  -377  -382  -392  -409  -429  -446  -455  -461  -466  -463  -436  -391  -368  -397  -448  -485  -508  -521  -520  -498  -439  -350  -272  -232  -215  -206  -201  -200  -201  -201  -198  -196  -200  -217  -242  -261  -255  -208  -128  -46  12  49  73  93  120  157  197  232  263  310  390  485  554  592  639  711  776  806  807  802  809  829  857  900  964  1028  1082  1147  1222  1295  1374  1456  1508  1498  1388  1157  845  557  383  329  339  363  372  334  224  76  -35  -81  -91  -86  -68  -41  -25  -31  -51  -68  -80  -86  -86  -84  -83  -90  -110  -138  -157  -165  -169  -176  -189  -208  -229  -249  -277  -336  -416  -477  -503  -504  -477  -406  -307  -223  -180  -166  -151  -109  -54  -31  -68  -139  -196  -216  -208  -178  -131  -81  -37  -4  10  5  -7  -14  -15  -16  -19  -20  -12  8  33  51  57  56  53  52  51  46  35  18  -1  -15  -10  19  65  109  139  156  162  151  117  62  8  -24  -29  -15  -3  -11  -29  -44  -58  -78  -114  -180  -285  -393  -446  -415  -320  -198  -84  -8  16  0  -33  -84  -164  -247  -298  -313  -306  -287  -259  -230  -205  -185  -168  -171  -233  -378  -550  -648  -636  -554  -465  -412  -398  -403  -411  -440  -515  -618  -690  -685  -601  -482  -388  -341  -322  -316  -320  -345  -399  -454  -468  -416  -309  -203  -154  -156  -180  -226  -313  -438  -553  -584  -448  -133  227  467  543  496  353  135  -78  -204  -239  -235  -236  -270  -341  -412  -453  -460  -444  -424  -413  -411  -412  -412  -417  -435  -477  -535  -557  -508  -447  -455  -567  -832  -1178  -1249  -711  432  1930  3390  4314  4402  3807  2881  1894  1064  533  268  112  -78  -305  -464  -507  -484  -453  -430  -406  -362  -309  -281  -316  -420  -551  -642  -672  -671  -668  -662  -626  -541  -429  -333  -282  -281  -325  -378  -410  -423  -425  -424  -430  -435  -412  -342  -241  -158  -127  -133  -155  -171  -155  -106  -62  -41  -13  45  104  112  83  80  117  172  234  285  314  334  354  373  407  466  553  660  765  842  883  902  917  937  960  977  984  986  987  988  982  957  910  845  767  696  648  610  552  463  363  271  192  110  -3  -135  -233  -275  -285  -293  -309  -332  -356  -368  -364  -354  -344  -326  -306  -297  -305  -331  -362  -380  -377  -350  -305  -276  -275  -276  -282  -320  -372  -391  -355  -287  -268  -362  -528  -664  -701  -630  -483  -304  -134  -8  58  82  74  13  -109  -227  -236  -136  -33  7  0  -16  -28  -37  -44  -45  -36  -18  2  15  8  -25  -65  -97  -126  -148  -138  -80  7  88  137  148  117  49  -28  -78  -94  -90  -80  -65  -44  -29  -41  -96  -175  -234  -243  -211  -170  -134  -92  -41  3  21  1  -48  -117  -185  -230  -249  -264  -289  -317  -335  -344  -345  -326  -271  -197  -142  -132  -157  -195  -224  -237  -238  -232  -223  -220  -231  -244  -238  -204  -140  -61  -8  -21  -113  -244  -347  -390  -384  -338  -259  -172  -109  -67  -12  59  117  149  169  188  212  250  296  317  287  235  201  191  187  159  61  -114  -302  -419  -450  -438  -422  -415  -409  -392  -372  -363  -361  -353  -331  -294  -244  -206  -260  -459  -732  -868  -588  203  1306  2433  3263  3470  2977  2003  879  -67  -595  -639  -394  -135  44  125  66  -58  -131  -139  -125  -126  -159  -218  -278  -315  -324  -322  -330  -348  -361  -360  -343  -308  -258  -204  -168  -154  -153  -152  -149  -151  -166  -188  -200  -188  -152  -101  -52  -21  -5  21  70  105  97  88  139  238  326  376  405  430  445  447  458  500  570  647  727  806  864  889  885  860  829  810  836  943  1098  1211  1251  1249  1229  1205  1179  1144  1113  1106  1122  1136  1111  1048  992  957  910  815  677  545  441  341  237  151  93  52  20  -5  -21  -23  -20  -35  -90  -181  -271  -317  -314  -307  -333  -381  -418  -431  -426  -405  -361  -304  -260  -243  -255  -303  -380  -456  -489  -469  -431  -402  -377  -350  -333  -344  -389  -441  -467  -468  -466  -460  -446  -428  -408  -387  -368  -349  -338  -347  -369  -400  -437  -461  -464  -472  -484  -458  -357  -177  21  146  142  28  -122  -228  -268  -276  -281  -292  -310  -333  -350  -359  -362  -354  -330  -293  -256  -230  -219  -219  -225  -234  -244  -255  -262  -265  -269  -276  -276  -255  -206  -128  -36  34  43  3  -28  -19  20  40  -14  -150  -304  -387  -360  -256  -140  -56  -9  20  48  85  125  140  106  32  -46  -75  -18  85  179  248  272  218  80  -118  -312  -429  -461  -447  -410  -347  -272  -228  -252  -344  -464  -565  -613  -596  -531  -443  -353  -315  -381  -523  -721  -942  -970  -553  318  1506  2764  3686  3933  3431  2377  1201  325  -106  -180  -96  -73  -152  -215  -209  -180  -177  -218  -300  -404  -500  -562  -582  -570  -539  -496  -455  -430  -423  -426  -437  -453  -482  -528  -575  -579  -505  -384  -290  -258  -260  -266  -266  -263  -263  -264  -262  -260  -266  -280  -283  -260  -226  -201  -178  -138  -78  -16  34  58  53  40  25  24  59  119  201  326  464  545  555  536  515  505  534  637  801  954  1040  1057  1026  969  911  875  857  835  806  788  783  768  715  632  561  536  527  459  308  123  -56  -218  -345  -414  -441  -455  -461  -443  -403  -359  -326  -316  -331  -354  -369  -380  -404  -431  -446  -453  -460  -473  -492  -514  -530  -533  -507  -442  -357  -289  -262  -270  -303  -356  -418  -466  -486  -490  -486  -467  -419  -354  -302  -279  -275  -264  -230  -169  -102  -55  -40  -55  -95  -150  -211  -284  -370  -444  -475  -428  -298  -160  -98  -105  -127  -138  -138  -132  -117  -108  -132  -184  -218  -207  -161  -100  -41  0  6  -42  -114  -141  -121  -98  -90  -88  -87  -92  -114  -161  -212  -234  -214  -167  -125  -102  -89  -75  -57  -51  -82  -157  -249  -319  -349  -348  -335  -324  -320  -312  -297  -279  -264  -247  -222  -191  -156  -132  -126  -140  -174  -223  -263  -263  -220  -158  -106  -79  -72  -75  -87  -123  -205  -314  -391  -387  -296  -164  -64  -26  -20  -9  14  37  27  -55  -199  -337  -413  -413  -342  -215  -79  13  49  59  70  98  149  223  298  349  372  394  430  454  427  342  219  95  16  -11  -18  -28  -49  -82  -115  -126  -110  -82  -61  -69  -112  -159  -183  -191  -201  -210  -202  -179  -208  -393  -733  -1029  -983  -391  742  2200  3618  4590  4831  4307  3226  1986  1001  429  183  110  30  -144  -286  -280  -219  -223  -281  -336  -371  -387  -387  -381  -374  -367  -360  -357  -358  -357  -337  -280  -203  -149  -131  -133  -139  -145  -157  -172  -183  -188  -188  -179  -159  -131  -112  -105  -106  -109  -113  -117  -112  -82  -9  96  196  244  232  195  165  157  170  195  225  268  324  383  440  489  541  619  711  773  786  767  762  809  896  973  1010  1017  1013  997  959  910  874  865  871  870  836  747  617  489  396  338  286  207  93  -43  -175  -273  -324  -341  -343  -342  -342  -345  -354  -378  -432  -501  -554  -576  -582  -583  -587  -595  -603  -599  -574  -550  -560  -614  -679  -720  -732  -732  -731  -719  -678  -616  -561  -532  -523  -512  -481  -436  -398  -382  -383  -390  -395  -395  -394  -393  -394  -395  -396  -390  -376  -358  -343  -326  -291  -241  -193  -157  -143  -164  -215  -274  -316  -320  -297  -273  -252  -222  -183  -153  -141  -139  -143  -159  -190  -212  -193  -148  -112  -87  -70  -66  -58  -33  -9  0  -1  2  19  45  65  72  73  73  69  56  29  -4  -31  -43  -47  -51  -56  -60  -65  -69  -71  -68  -65  -66  -67  -69  -84  -128  -189  -228  -224  -198  -182  -183  -199  -225  -252  -278  -298  -304  -267  -163  -9  124  189  189  153  100  43  21  102  283  456  525  491  408  328  272  224  157  69  -7  -47  -64  -82  -108  -128  -135  -138  -152  -176  -203  -228  -248  -263  -270  -260  -229  -186  -142  -123  -188  -376  -621  -736  -537  19  824  1680  2372  2748  2770  2427  1741  910  244  -103  -197  -181  -149  -125  -109  -102  -104  -107  -108  -107  -108  -111  -117  -122  -122  -109  -87  -66  -43  -7  26  32  4  -44  -75  -50  17  73  80  51  25  3  -22  -39  -30  0]
