reading_id,reading_time,wire_id,result_classification,heart_rate,heart_rate_alert,firmware_version,device_app_version,hardware_version,waveform_samples
39ebe710-d03c-11ed-8080-808080808080,Sat Apr 01 03:21:00 UTC 2023,e12964476439,NSR,67,NONE,20001.188.58,2.13.0,Charge 5,[11307  11777  12561  13532  14334  14851  15188  15398  15402  15032  14106  12631  11057  10027  9687  9660  9639  9589  9532  9432  9265  9060  8879  8777  8766  8803  8809  8675  8307  7696  6905  5979  4998  4189  3740  3576  3492  3371  3176  2907  2618  2384  2196  1853  1113  3  -1123  -1894  -2252  -2466  -2861  -3584  -4556  -5593  -6695  -8104  -9884  -11716  -13345  -14726  -15753  -16418  -17138  -18426  -20295  -22327  -24177  -25676  -26760  -27564  -28285  -28923  -29344  -29514  -29527  -29489  -29413  -29229  -28915  -28561  -28234  -27798  -27066  -26138  -25314  -24639  -23840  -22702  -21237  -19587  -17927  -16450  -15277  -14227  -12960  -11518  -10304  -9471  -8824  -8120  -7143  -5899  -4708  -3843  -3275  -2802  -2181  -1336  -495  66  340  522  779  1128  1494  1856  2220  2544  2769  2905  3045  3276  3579  3856  4037  4117  4123  4087  4022  3929  3830  3769  3794  3918  4091  4233  4313  4345  4358  4391  4450  4508  4560  4612  4656  4683  4686  4664  4621  4590  4634  4788  4988  5130  5177  5170  5149  5117  5073  5039  5049  5116  5211  5279  5287  5256  5232  5233  5230  5205  5176  5178  5220  5228  5131  5002  4952  5006  5117  5163  5062  4937  5022  5520  6620  8417  10690  12796  13997  13910  12538  10259  7823  5909  4804  4490  4733  5186  5568  5762  5782  5724  5677  5677  5741  5861  5975  6023  5983  5854  5654  5445  5306  5255  5241  5216  5180  5175  5200  5205  5205  5253  5325  5338  5254  5104  4966  4870  4781  4692  4621  4547  4428  4249  4060  3940  3914  3934  3961  3989  4012  3995  3906  3763  3645  3589  3566  3553  3551  3551  3530  3460  3331  3138  2888  2632  2408  2173  1913  1690  1537  1399  1189  850  436  55  -261  -512  -657  -692  -675  -662  -672  -699  -737  -793  -894  -1057  -1252  -1414  -1497  -1505  -1480  -1465  -1471  -1496  -1538  -1599  -1668  -1714  -1703  -1654  -1640  -1714  -1846  -1956  -2011  -2041  -2070  -2094  -2104  -2109  -2128  -2183  -2276  -2391  -2498  -2551  -2554  -2589  -2673  -2760  -2851  -2941  -2997  -3019  -3025  -3024  -3031  -3062  -3118  -3175  -3195  -3168  -3146  -3180  -3238  -3257  -3208  -3116  -3052  -3060  -3125  -3234  -3396  -3578  -3719  -3796  -3810  -3719  -3471  -3145  -2918  -2892  -3039  -3248  -3408  -3481  -3491  -3463  -3418  -3366  -3320  -3298  -3303  -3311  -3306  -3298  -3332  -3480  -3781  -4153  -4442  -4601  -4681  -4715  -4679  -4555  -4396  -4265  -4183  -4188  -4339  -4708  -5231  -5434  -4755  -3086  -756  1688  3627  4505  4074  2521  260  -2105  -3869  -4724  -4876  -4732  -4621  -4577  -4484  -4342  -4222  -4101  -3894  -3612  -3406  -3390  -3527  -3698  -3821  -3887  -3912  -3889  -3814  -3727  -3675  -3668  -3679  -3656  -3514  -3219  -2921  -2779  -2723  -2617  -2461  -2282  -2100  -1962  -1899  -1884  -1876  -1837  -1730  -1537  -1286  -1047  -879  -783  -721  -653  -544  -392  -245  -146  -24  251  682  1107  1400  1566  1650  1685  1705  1737  1781  1824  1866  1908  1921  1860  1711  1524  1366  1257  1195  1188  1224  1286  1374  1457  1494  1476  1418  1349  1309  1358  1560  1876  2149  2270  2264  2213  2164  2117  2071  2053  2090  2173  2264  2351  2454  2569  2673  2746  2763  2729  2668  2589  2516  2491  2548  2693  2864  2970  2984  2941  2897  2879  2891  2917  2941  2968  3015  3067  3087  3044  2917  2737  2587  2516  2501  2496  2487  2478  2476  2480  2488  2496  2504  2508  2487  2419  2314  2210  2139  2098  2068  2031  1986  1939  1896  1859  1819  1767  1714  1680  1673  1669  1608  1432  1160  886  684  563  512  540  658  821  940  948  831  632  447  348  313  277  214  163  163  171  139  106  96  91  106  157  241  331  359  299  192  28  -228  -515  -748  -914  -1012  -1009  -925  -831  -756  -688  -653  -738  -1017  -1380  -1613  -1726  -1774  -1495  -583  1040  3265  5666  7544  8231  7388  5197  2343  -312  -2068  -2628  -2250  -1554  -1063  -896  -919  -1009  -1124  -1246  -1341  -1382  -1378  -1358  -1315  -1208  -1046  -906  -863  -905  -982  -1068  -1148  -1206  -1240  -1251  -1226  -1145  -1018  -893  -823  -810  -816  -801  -751  -694  -682  -738  -810  -818  -747  -645  -531  -370  -151  56  169  179  142  111  135  264  508  782  975  1057  1066  1044  1017  999  992  993  1006  1033  1043  960  735  451  245  131  17  -147  -332  -512  -696  -868  -985  -994  -881  -708  -573  -503  -477  -490  -567  -742  -991  -1207  -1292  -1240  -1131  -1050  -1013  -974  -871  -673  -439  -307  -345  -492  -645  -746  -788  -784  -748  -697  -650  -621  -613  -623  -647  -677  -711  -743  -755  -718  -618  -495  -411  -373  -333  -283  -292  -416  -576  -647  -609  -534  -475  -436  -393  -342  -300  -271  -249  -231  -233  -277  -376  -513  -647  -732  -762  -769  -775  -765  -688  -522  -324  -188  -143  -150  -169  -187  -202  -214  -234  -298  -429  -578  -651  -596  -441  -250  -74  54  121  123  84  33  -15  -52  -78  -118  -182  -246  -282  -300  -348  -457  -602  -731  -800  -784  -689  -567  -462  -357  -205  -97  -331  -1011  -1676  -1718  -885  720  2762  4785  6382  7224  7085  5895  3797  1244  -1019  -2317  -2471  -1837  -963  -295  -46  -147  -338  -435  -444  -426  -391  -314  -196  -77  1  37  45  17  -77  -236  -392  -483  -505  -478  -396  -271  -147  -64  -25  -12  -2  45  168  338  469  528  553  573  583  584  603  651  709  774  851  938  1031  1128  1220  1310  1410  1519  1626  1711  1744  1734  1705  1673  1651  1648  1656  1644  1569  1418  1222  1014  783  521  278  115  19  -62  -146  -225  -295  -366  -447  -535  -638  -747  -831  -891  -965  -1049  -1109  -1139  -1152  -1151  -1134  -1094  -1021  -918  -842  -845  -899  -950  -978  -1000  -1024  -1024  -956  -819  -675  -584  -556  -558  -559  -547  -529  -513  -498  -484  -478  -480  -487  -497  -504  -506  -499  -479  -457  -444  -439  -439  -440  -445  -461  -495  -538  -561  -552  -528  -514  -516  -523  -529  -544  -549  -492  -369  -256  -205  -200  -206  -219  -255  -344  -472  -551  -519  -413  -317  -267  -245  -231  -238  -291  -386  -489  -558  -581  -580  -575  -566  -546  -495  -389  -243  -122  -66  -53  -51  -49  -46  -42  -41  -54  -91  -141  -183  -227  -309  -436  -567  -659  -699  -694  -646  -558  -464  -407  -413  -483  -613  -802  -987  -1060  -1068  -1162  -1246  -906  249  2186  4444  6434  7623  7693  6622  4677  2365  244  -1202  -1694  -1440  -1003  -734  -669  -728  -792  -805  -789  -754  -711  -688  -698  -716  -687  -567  -396  -265  -220  -234  -271  -346  -494  -677  -776  -737  -629  -534  -457  -377  -269  -105  83  211  228  159  67  7  6  57  131  195  251  336  476  658  841  982  1063  1099  1125  1150  1180  1242  1351  1484  1610  1703  1738  1689  1551  1368  1212  1128  1104  1104  1083  984  779  495  192  -70  -265  -390  -454  -488  -529  -581  -616  -621  -607  -593  -587  -591  -597  -600  -592  -567  -532  -509  -507  -522  -538  -551  -566  -579  -579  -558  -524  -492  -458  -414  -367  -334  -325  -333  -353  -370  -380  -377  -336  -254  -180  -157  -179  -217  -250  -277  -298  -306  -289  -237  -155  -79  -39  -32  -35  -31  -16  -9  -24  -48  -68  -96  -162  -278  -384  -390  -297  -191  -119  -74  -50  -71  -153  -268  -360  -403  -414  -416  -429  -455  -485  -504  -508  -503  -487  -448  -374  -277  -182  -112  -109  -199  -326  -407  -428  -432  -457  -499  -535  -549  -531  -455  -325  -193  -111  -81  -81  -90  -77  -37  -2  -6  -46  -72  -49  7  63  109  149  173  155  68  -94  -278  -402  -454  -491  -553  -630  -685  -711  -730  -759  -793  -819  -809  -727  -598  -580  -814  -1188  -1353  -978  79  1809  3997  6163  7703  8129  7231  5218  2682  384  -1067  -1531  -1329  -922  -637  -607  -737  -835  -820  -726  -612  -530  -502  -523  -586  -669  -729  -739  -691  -586  -458  -367  -337  -354  -413  -508  -593  -606  -539  -431  -314  -213  -150  -129  -137  -166  -216  -281  -332  -333  -251  -81  125  317  498  683  838  926  948  940  947  1020  1176  1362  1499  1567  1606  1652  1703  1738  1749  1739  1704  1639  1536  1390  1212  1037  900  789  632  369  68  -133  -206  -239  -292  -322  -279  -213  -197  -238  -285  -304  -325  -375  -439  -499  -561  -625  -673  -699  -731  -779  -807  -779  -684  -551  -435  -373  -361  -379  -405  -426  -444  -464  -476  -467  -445  -425  -419  -430  -446  -445  -414  -360  -309  -286  -286  -293  -292  -288  -315  -404  -532  -623  -624  -541  -427  -370  -416  -502  -550  -560  -558  -550  -513  -432  -332  -252  -207  -196  -229  -309  -421  -520  -561  -550  -523  -494  -472  -452  -427  -398  -378  -376  -387  -398  -403  -403  -402  -400  -394  -378  -348  -321  -330  -395  -484  -531  -502  -438  -381  -328  -288  -282  -301  -317  -325  -329  -317  -265  -170  -85  -64  -90  -109  -88  -38  -14  -51  -117  -161  -176  -203  -291  -448  -630  -767  -813  -762  -653  -535  -441  -386  -376  -427  -561  -785  -1040  -1202  -1086  -481  733  2497  4508  6200  7042  6830  5518  3297  823  -1124  -2103  -2082  -1402  -650  -303  -382  -594  -733  -771  -735  -674  -632  -610  -580  -515  -416  -314  -239  -198  -176  -157  -143  -158  -216  -297  -357  -377  -371  -352  -328  -304  -280  -252  -218  -177  -127  -56  49  170  269  343  415  488  551  605  675  791  946  1089  1187  1262  1358  1486  1626  1751  1860  1977  2089  2129  2045  1868  1695  1598  1576  1563  1462  1212  882  622  485  405  323  225  81  -132  -365  -521  -574  -564  -532  -493  -463  -484  -573  -680  -740  -742  -718  -698  -693  -693  -693  -693  -697  -711  -733  -751  -747  -694  -584  -458  -373  -344  -344  -350  -353  -354  -351  -343  -335  -331  -321  -291  -259  -268  -315  -338  -311  -288  -340  -424  -424  -325  -230  -207  -235  -265  -277  -277  -275  -272  -265  -253  -242  -245  -282  -359  -462  -551  -571  -487  -326  -147  -17  6  -62  -136  -142  -72  30  105  132  137  138  128  101  67  47  47  58  70  84  103  110  53  -107  -326  -488  -544  -534  -515  -518  -558  -625  -669  -647  -563  -423  -249  -133  -217  -563  -992  -1079  -470  896  2830  4887  6446  7006  6369  4650  2314  54  -1504  -2074  -1802  -1163  -646  -464  -529  -645  -700  -704  -698  -696  -698  -694  -688  -687  -666  -590  -460  -308  -178  -115  -165  -338  -557  -704  -740  -699  -618  -525  -437  -346  -252  -188  -161  -121  -12  145  257  273  242  234  278  370  497  635  767  882  974  1042  1116  1226  1351  1449  1518  1598  1716  1814  1781  1624  1474  1412  1409  1411  1384  1327  1255  1159  964  593  139  -182  -295  -301  -314  -357  -397  -418  -454  -546  -675  -775  -813  -793  -722  -625  -553  -557  -652  -778  -857  -878  -880  -883  -878  -840  -756  -654  -586  -585  -649  -748  -841  -895  -887  -804  -684  -596  -568  -574  -586  -592  -584  -558  -522  -492  -480  -498  -563  -671  -779  -839  -838  -789  -717  -646  -595  -571  -572  -589  -613  -634  -650  -657  -648  -617  -574  -552  -572  -615  -648  -667  -676  -680  -691  -716  -736  -700  -580  -448  -424  -515  -612  -652  -646  -614  -560  -498  -458  -451  -465  -486  -517  -565  -618  -650  -645  -599  -522  -443  -393  -370  -339  -281  -218  -190  -204  -218  -195  -145  -97  -68  -57  -55  -52  -57  -88  -162  -279  -408  -507  -580  -662  -741  -766  -739  -694  -644  -604  -586  -569  -509  -424  -424  -592  -865  -1022  -676  547  2567  4811  6674  7654  7386  5957  3854  1594  -314  -1384  -1491  -1025  -508  -246  -302  -531  -712  -752  -692  -604  -535  -479  -411  -354  -341  -352  -364  -387  -422  -456  -475  -466  -415  -336  -258  -181  -99  -17  58  121  159  169  159  136  106  93  143  288  479  615  655  633  595  571  588  672  819  987  1134  1251  1371  1503  1611  1672  1716  1788  1910  2040  2095  2038  1912  1773  1628  1453  1253  1074  934  789  600  384  181  2  -154  -267  -320  -328  -321  -323  -328  -333  -367  -432  -515  -625  -746  -843  -905  -932  -932  -929  -926  -902  -843  -768  -698  -655  -661  -713  -781  -835  -866  -870  -842  -762  -620  -449  -318  -276  -315  -392  -485  -596  -677  -671  -577  -430  -271  -160  -123  -149  -229  -341  -449  -534  -595  -618  -596  -547  -495  -447  -409  -381  -354  -325  -298  -277  -269  -290  -334  -375  -394  -390  -369  -332  -289  -259  -246  -238  -231  -241  -275  -298  -285  -263  -273  -315  -360  -383  -387  -391  -405  -423  -425  -405  -375  -354  -348  -347  -336  -312  -282  -249  -237  -263  -304  -328  -326  -295  -227  -106  51  176  230  238  232  223  216  213  216  220  215  192  151  104  72  59  58  56  53  64  117  199  241  197  101  16  -33  -64  -82  -84  -60  3  69  12  -221  -475  -498  -57  1063  2913  5156  7145  8332  8450  7431  5498  3122  862  -691  -1212  -915  -343  62  176  115  28  -19  -43  -56  -48  -8  60  139  202  245  270  276  253  212  178  155  125  95  84  85  64  3  -55  -40  48  136  175  175  152  107  43  -14  -47  -56  -41  11  107  242  423  650  885  1079  1194  1244  1283  1340  1430  1551  1660  1717  1753  1815  1895  1925  1853  1700  1529  1374  1212  980  664  357  142  -23  -230  -470  -662  -778  -857  -927  -973  -988  -999  -1041  -1123  -1211  -1253  -1228  -1161  -1087  -1040  -1051  -1106  -1165  -1205  -1218  -1205  -1185  -1174  -1169  -1168  -1186  -1238  -1304  -1324  -1247  -1082  -886  -720  -622  -593  -616  -689  -806  -928  -1028  -1109  -1161  -1142  -1045  -923  -827  -774  -753  -751  -755  -759  -763  -769  -779  -796  -812  -825  -847  -891  -954  -999  -979  -905  -832  -785  -758  -739  -723  -725  -747  -765  -767  -780  -830  -885  -894  -853  -803  -756  -692  -612  -550  -520  -488  -427  -365  -363  -425  -492  -534  -566  -614  -680  -739  -770  -770  -755  -739  -726  -716  -721  -742  -753  -728  -684  -660  -672  -695  -701  -677  -626  -557  -467  -367  -292  -262  -262  -268  -270  -268  -268  -277  -303  -360  -466  -601  -710  -769  -791  -786  -753  -681  -579  -488  -448  -451  -478  -540  -649  -784  -925  -1024  -946  -537  326  1734  3569  5382  6578  6645  5388  3161  664  -1392  -2468  -2461  -1818  -1128  -702  -548  -533  -532  -521  -537  -588  -653  -718  -765  -780  -754  -680  -581  -517  -517  -568  -627  -665  -683  -685  -647  -541  -390  -258  -166  -93  -33  8  39  61  77  99  150  236  337  445  583  739  842  850  811  796  858  1039  1349  1739  2091  2292  2333  2291  2238  2207  2210  2245  2299  2348  2368  2335  2227  2064  1895  1741  1601  1438  1178  825  515  347  262  159  34  -56  -100  -130  -176  -237  -304  -376  -433  -457  -464  -479  -499  -514  -523  -527  -525  -518  -500  -457  -370  -244  -124  -57  -53  -91  -143  -179  -174  -121  -35  42  96  141  183  188  122  -19  -187  -305  -347  -356  -371  -400  -425  -419  -356  -238  -105  -7  37  37  3  -50  -101  -144  -206  -298  -386  -426  -408  -362  -326  -313  -314  -318  -319  -306  -265  -196  -117  -52  -30  -81  -213  -374  -486  -528  -528  -496  -407  -245  -61  48  35  -66  -181  -250  -267  -260  -251  -242  -218  -165  -107  -87  -119  -196  -293  -364  -390  -404  -447  -514  -571  -601  -600  -541  -392  -193  -39  24  8  -114  -325  -403  -50  847  2191  3677  4881  5493  5345  4408  2885  1171  -332  -1332  -1682  -1490  -1078  -694  -399  -210  -138  -136  -146  -146  -143  -172  -259  -367  -420  -402  -397  -447  -461  -339  -138  -32  -116  -313  -474  -534  -505  -402  -241  -65  73  138  123  57  -9  -30  -7  46  148  293  424  507  553  578  590  613  708  924  1215  1459  1579  1598  1581  1567  1562  1560  1561  1568  1585  1603  1619  1639  1653  1619  1483  1259  1039  884  759  586  331  16  -292  -524  -654  -712  -718  -663  -550  -445  -429  -496  -569  -601  -601  -598  -625  -701  -809  -906  -968  -1002  -1022  -1033  -1012  -917  -744  -570  -496  -552  -672  -770  -821  -854  -887  -904  -860  -727  -557  -440  -407  -428  -460  -483  -506  -538  -575  -610  -634  -645  -643  -624  -583  -520  -457  -419  -418  -444  -474  -494  -504  -513  -526  -526  -510  -506  -515  -525  -556  -590  -574  -503  -414  -377  -440  -562  -680  -768  -818  -833  -833  -833  -837  -846  -851  -826  -731  -575  -434  -375  -387  -417  -436  -449  -476  -528  -604  -688  -763  -814  -820  -735  -528  -262  -76  -52  -164  -322  -433  -470  -466  -447  -409  -333  -212  -88  -23  -32  -73  -112  -137  -154  -184  -236  -310  -419  -582  -760  -875  -885  -829  -794  -805  -793  -746  -735  -745  -692  -571  -449  -422  -559  -782  -871  -609  128  1374  3014  4718  6004  6453  5848  4264  2193  300  -999  -1549  -1421  -1048  -835  -732  -559  -385  -344  -434  -553  -619  -633  -629  -611  -562  -466  -328  -186  -77  -5  43  81  108  126  137  142  143  139  125  100  65  33  27  92  262  490  658  717  711  697  702  760  901  1099  1280  1412  1505  1566  1599  1634  1713  1839  1965  2044  2067  2056  2060  2134  2270  2399  2446  2387  2265  2124  1937  1674  1372  1104  916  812  745  658  535  399  271  123  -91  -344  -538  -623  -636  -633  -631  -617  -578  -517  -454  -405  -376  -377  -414  -487  -575  -646  -688  -713  -736  -764  -794  -813  -817  -811  -807  -823  -877  -960  -1038  -1077  -1044  -903  -682  -494  -432  -492  -615  -738  -814  -829  -796  -727  -633  -538  -474  -452  -455  -463  -467  -462  -449  -436  -426  -412  -391  -370  -375  -449  -625  -837  -952  -914  -793  -669  -543  -393  -257  -200  -229  -296  -348  -363  -355  -346  -363  -425  -514  -576  -562  -459  -314  -197  -131  -93  -71  -68  -83  -98  -85  -27  44  83  67  9  -52  -105  -155  -183  -167  -138  -127  -112  -72  -24  14  45  65  73  84  122  202  313  414  464  469  456  427  351  203  17  -119  -177  -207  -244  -255  -204  -125  -69  -38  -4  35  46  -21  -165  -319  -526  -837  -973  -472  872  2868  5055  6831  7646  7303  5941  3841  1478  -569  -1849  -2183  -1778  -1137  -703  -605  -701  -815  -904  -978  -1010  -977  -909  -846  -798  -770  -763  -767  -769  -765  -750  -724  -694  -670  -652  -629  -597  -576  -585  -603  -599  -554  -475  -394  -345  -318  -284  -227  -164  -130  -122  -85  30  197  329  381  381  373  395  480  652  910  1187  1381  1467  1496  1516  1543  1575  1603  1620  1618  1563  1431  1255  1093  945  785  627  499  388  254  90  -68  -193  -279  -336  -388  -444  -490  -517  -530  -539  -547  -549  -544  -535  -525  -523  -530  -549  -580  -620  -646  -641  -599  -541  -497  -475  -463  -451  -440  -432  -429  -427  -427  -438  -468  -511  -546  -565  -574  -574  -551  -502  -456  -444  -473  -535  -593  -604  -570  -530  -505  -485  -453  -413  -376  -345  -323  -316  -333  -375  -422  -461  -495  -527  -551  -561  -544  -504  -477  -482  -505  -516  -500  -463  -418  -365  -311  -262  -222  -197  -189  -195  -213  -240  -279  -346  -457  -593  -702  -753  -761  -747  -706  -623  -515  -422  -357  -311  -277  -263  -294  -355  -379  -348  -305  -284  -282  -284  -288  -300  -323  -349  -369  -377  -373  -342  -255  -104  61  178  229  236  219  193  167  132  62  -56  -198  -312  -352  -315  -254  -229  -265  -356  -473  -579  -653  -703  -742  -746  -725  -775  -882  -696  234  2049  4433  6703  8067  8034  6647  4405  1984  -40  -1293  -1666  -1392  -870  -417  -194  -180  -252  -350  -475  -574  -566  -461  -353  -299  -287  -295  -318  -351  -367  -361  -365  -398  -432  -448  -452  -455  -449  -414  -328  -192  -48  43  79  108  166  240  301  338  354  349  344  378  486  647  800  907  964  992  1032  1133  1304  1506  1685  1791  1820  1810  1800  1804  1822  1840  1837  1809  1769  1732  1706  1679  1620  1476  1188  780  374  94  -32  -74  -133  -256  -409  -530  -598  -630  -636  -622  -597  -573  -551  -530  -517  -521  -550  -603  -669  -740  -810  -851  -829  -748  -660  -612  -604  -609  -614  -616  -618  -623  -624  -608  -568  -526  -516  -558  -635  -706  -740  -725  -657  -557  -466  -404  -361  -345  -378  -463  -569  -640  -648  -628  -623  -637  -651  -642  -610  -577  -558  -562  -584  -586  -564  -560  -587  -610  -613  -608  -604  -604  -603  -602  -603  -617  -654  -697  -708  -665  -595  -543  -501  -419  -280  -120  15  98  123  98  27  -75  -183  -270  -323  -350  -369  -390  -416  -446  -466  -473  -472  -468  -466  -468  -485  -524  -599  -733  -934  -1175  -1366  -1247  -464  1090  3120  5113  6535  6924  6052  4086  1549  -855  -2430  -2811  -2246  -1382  -770  -556  -551  -576  -597  -628  -663  -662  -595  -500  -413  -329  -264  -242  -251  -255  -229  -186  -170  -226  -337  -426  -453  -432  -368  -252  -86  95  245  331  350  312  244  184  156  171  230  316  395  460  535  641  791  973  1155  1316  1452  1569  1705  1893  2092  2218  2239  2183  2098  2024  1980  1964  1968  1979  1972  1902  1733  1482  1191  878  576  333  158  46  -16  -74  -165  -296  -452  -614  -745  -817  -834  -818  -787  -741  -655  -529  -423  -408  -475  -549  -585  -584  -552  -486  -405  -343  -309  -279  -249  -230  -218  -207  -194  -175  -130  -41  61  112  77  -4  -71  -108  -136  -155  -149  -123  -129  -227  -390  -512  -552  -549  -535  -497  -420  -327  -267  -253  -259  -271  -285  -304  -323  -340  -345  -332  -313  -311  -343  -388  -405  -381  -323  -234  -132  -32  69  165  203  112  -142  -466  -696  -780  -798  -835  -900  -955  -972  -941  -873  -806  -768  -768  -824  -948  -1113  -1251  -1320  -1381  -1385  -986  132  1978  4248  6256  7168  6644  4972  2667  299  -1539  -2484  -2566  -2101  -1493  -1058  -891  -892  -933  -952  -939  -900  -854  -808  -752  -699  -652  -582  -483  -397  -352  -338  -339  -359  -414  -494  -553  -539  -422  -237  -71  8  9  -33  -87  -128  -132  -78  40  189  317  400  440  467  519  611  738  889  1035  1146  1232  1319  1408  1484  1553  1626  1692  1736  1757  1759  1735  1677  1590  1494  1403  1322  1240  1119  920  635  286  -57  -299  -407  -433  -435  -426  -410  -407  -442  -542  -697  -844  -923  -938  -930  -926  -933  -947  -971  -1023  -1090  -1122  -1083  -988  -884  -820  -808  -816  -817  -819  -837  -848  -846  -844  -832  -805  -772  -731  -685  -640  -596  -577  -621  -731  -863  -962  -1016  -1044  -1030  -954  -846  -763  -718  -693  -671  -649  -638  -649  -676  -703  -724  -734  -737  -746  -763  -789  -820  -844  -847  -814  -739  -638  -533  -430  -333  -263  -239  -264  -322  -385  -435  -466  -479  -467  -427  -371  -328  -310  -318  -349  -387  -413  -422  -435  -472  -528  -577  -609  -628  -642  -648  -647  -653  -654  -595  -487  -505  -776  -1106  -1064  -263  1444  3838  6318  8115  8647  7744  5658  2964  439  -1216  -1747  -1443  -855  -424  -307  -408  -545  -626  -659  -664  -651  -619  -575  -518  -435  -338  -269  -246  -250  -259  -262  -251  -222  -185  -158  -150  -153  -159  -163  -169  -182  -185  -136  -4  156  251  274  289  314  330  340  368  436  548  687  822  920  979  1032  1102  1183  1281  1427  1609  1771  1874  1911  1893  1841  1782  1728  1677  1593  1416  1147  860  606  381  187  52  -3  -7  -20  -101  -258  -430  -551  -606  -618  -616  -615  -616  -621  -634  -646  -624  -534  -405  -324  -332  -402  -488  -563  -618  -657  -684  -698  -694  -661  -600  -528  -478  -457  -448  -440  -436  -442  -456  -468  -475  -477  -478  -479  -470  -441  -393  -335  -276  -234  -243  -295  -355  -413  -488  -567  -590  -513  -377  -268  -228  -232  -250  -273  -295  -307  -306  -301  -298  -299  -295  -285  -280  -280  -285  -294  -309  -332  -358  -375  -380  -378  -373  -368  -360  -352  -346  -344  -343  -330  -296  -249  -214  -205  -209  -206  -182  -141  -100  -73  -60  -58  -63  -70  -73  -70  -67  -90  -172  -310  -449  -530  -555  -564  -580  -594  -597  -604  -627  -654  -657  -626  -643  -802  -994  -922  -298  1045  3025  5224  7060  7991  7652  6064  3698  1250  -586  -1426  -1467  -1174  -830  -604  -581  -664  -732  -761  -775  -794  -815  -826  -828  -828  -829  -821  -787  -715  -623  -554  -525  -519  -512  -490  -449  -394  -336  -287  -255  -235  -233  -247  -258  -238  -188  -143  -130  -130  -83  55  252  423  528  586  634  708  824  970  1118  1231  1304  1377  1468  1544  1577  1580  1578  1579  1575  1552  1516  1480  1441  1360  1182  921  674  501  353  161  -61  -251  -383  -477  -554  -611  -642  -655  -657  -659  -679  -732  -802  -854  -873  -873  -863  -840  -802  -761  -744  -780  -884  -1018  -1123  -1173  -1179  -1133  -1020  -870  -753  -694  -663  -636  -608  -582  -577  -609  -661  -723  -795  -824  -766  -674  -617  -599  -596  -599  -618  -652  -689  -725  -756  -756  -700  -600  -507  -460  -463  -499  -551  -602  -649  -691  -708  -675  -589  -488  -419  -389  -373  -356  -354  -387  -452  -499  -487  -443  -417  -411  -398  -349  -260  -154  -69  -24  -20  -71  -188  -336  -436  -442  -360  -237  -134  -86  -109  -205  -346  -468  -533  -549  -546  -538  -517  -477  -435  -417  -428  -489  -644  -921  -1207  -1143  -347  1244  3343  5456  6981  7382  6479  4544  2143  -52  -1473  -1936  -1710  -1240  -868  -708  -686  -669  -594  -486  -387  -302  -227  -186  -193  -223  -246  -260  -291  -354  -431  -490  -516  -503  -442  -338  -214  -92  3  42  23  -8  -23  -25  -16  57  243  487  668  739  739  716  688  665  666  744  937  1197  1416  1541  1620  1715  1828  1934  2026  2100  2142  2143  2108  2046  1970  1889  1804  1702  1584  1473  1393  1326  1226  1046  773  472  266  188  142  36  -110  -227  -298  -354  -407  -449  -473  -481  -482  -482  -475  -447  -388  -313  -251  -220  -212  -215  -218  -220  -220  -214  -196  -153  -76  20  101  151  183  211  235  247  251  260  286  315  325  306  267  231  202  161  117  98  119  177  240  270  264  244  224  216  229  256  281  298  314  333  341  326  307  313  352  407  450  475  500  525  538  538  530  512  488  478  488  495  474  434  402  385  341  211  -5  -225  -365  -425  -465  -518  -573  -607  -620  -627  -653  -713  -798  -876  -926  -938  -900  -840  -859  -1018  -1208  -1134  -436  1028  3019  5019  6422  6776  6029  4445  2384  317  -1212  -1903  -1869  -1473  -1083  -900  -904  -962  -993  -1004  -1004  -980  -927  -867  -828  -815  -802  -764  -709  -669  -656  -659  -663  -662  -656  -648  -641  -639  -640  -639  -638  -637  -643  -656  -669  -668  -634  -543  -393  -231  -119  -69  -43  2  70  141  199  244  277  307  355  467  666  906  1110  1239  1335  1456  1584  1649  1582  1328  948  608  403  297  230  163  65  -68  -207  -319  -396  -445  -489  -556  -666  -819  -982  -1101  -1159  -1179  -1183  -1153  -1052  -907  -823  -849  -915  -976  -1054  -1123  -1143  -1137  -1164  -1255  -1378  -1477  -1534  -1545  -1505  -1436  -1380  -1357  -1354  -1357  -1355  -1347  -1343  -1356  -1376  -1381  -1356  -1301  -1217  -1104  -983  -891  -857  -870  -894  -901  -879  -835  -785  -753  -742  -741  -752  -783  -824  -842  -812  -754  -704  -671  -640  -598  -550  -508  -480  -463  -444  -405  -358  -340  -382  -473  -564  -616  -632  -627  -593  -516  -401  -294  -229  -205  -209  -228  -253  -288  -325  -342  -320  -255  -165  -69  26  112  165  163  109  33  -31  -66  -72  -66  -71  -103  -159  -221  -288  -372  -462  -522  -547  -561  -578  -570  -486  -309  -93  81  127  -99  -634  -1128  -1086  -340  1010  2739  4503  6022  7088  7390  6655  4909  2541  248  -1285  -1780  -1469  -888  -469  -330  -400  -541  -645  -699  -733  -752  -761  -775  -786  -729  -583  -443  -394  -426  -509  -610  -689  -729  -740  -744  -761  -784  -759  -628  -428  -268  -197  -178  -141  -42  86  163  139  49  -5  25  81  107  134  189  282  415  550  633  652  642  637  667  791  1069  1450  1769  1938  1980  1901  1679  1363  1054  809  632  516  426  340  278  250  222  133  -50  -298  -540  -699  -733  -687  -633  -582  -536  -516  -521  -531  -516  -450  -337  -219  -155  -188  -298  -433  -549  -597  -552  -470  -421  -415  -421  -396  -313  -203  -144  -172  -236  -268  -250  -218  -210  -206  -165  -109  -84  -86  -90  -83  -72  -64  -51  -35  -28  -33  -43  -52  -58  -69  -86  -102  -111  -116  -125  -140  -139  -91  4  127  250  340  384  389  351  285  234  214  214  224  241  266  296  328  365  406  433  443  444  449  454  449  428  385  317  240  193  221  341  509  641  703  711  682  621  538  458  404  363  297  178  15  -130  -190  -157  -90  -24  36  63  19  -68  -133  -143  -121  -99  -89  -89  -98  -122  -157  -198  -250  -306  -342  -352  -361  -396  -459  -530  -604  -690  -776  -811  -782  -730  -547  142  1587  3532  5464  6874  7304  6641  5191  3298  1269  -413  -1375  -1625  -1310  -668  -145  -2  -86  -215  -374  -545  -658  -693  -691  -682  -651  -572  -462  -376  -339  -332  -326  -314  -301  -289  -279  -277  -297  -349  -384  -315  -153  -15  37  35  27  29  44  85  171  294  406  464  459  406  340  296  296  356  503  718  925  1055  1122  1177  1252  1355  1466  1551  1591  1590  1544  1450  1327  1218  1155  1134  1117  1035  837  555  265  2  -219  -370  -439  -449  -425  -390  -362  -353  -368  -412  -476  -545  -624  -710  -773  -792  -771  -725  -673  -615  -544  -477  -435  -412  -392  -381  -395  -434  -477  -516  -542  -547  -537  -520  -506  -508  -534  -576  -597  -584  -579  -583  -556  -502  -461  -442  -434  -421  -394  -365  -361  -393  -449  -510  -545  -524  -443  -334  -282  -335  -429  -485  -502  -510  -528  -564  -612  -649  -668  -678  -681  -658  -595  -509  -437  -393  -367  -347  -329  -318  -327  -365  -423  -480  -530  -578  -619  -635  -605  -522  -418  -338  -295  -276  -284  -331  -401  -465  -516  -560  -577  -542  -470  -429  -436  -414  -327  -248  -244  -318  -426  -510  -539  -493  -360  -184  -57  -15  -25  -48  -68  -78  -84  -107  -175  -301  -462  -619  -739  -817  -867  -899  -904  -851  -730  -580  -435  -320  -293  -460  -869  -1322  -1453  -960  315  2276  4423  6088  6767  6207  4509  2209  12  -1536  -2200  -2103  -1646  -1222  -955  -775  -636  -533  -455  -403  -377  -373  -399  -469  -564  -636  -668  -680  -680  -644  -551  -433  -330  -245  -178  -145  -145  -162  -176  -180  -178  -154  -95  -9  93  217  344  439  490  515  542  594  656  693  711  769  913  1103  1249  1336  1428  1575  1784  2026  2238  2362  2406  2416  2404  2355  2281  2226  2207  2183  2104  1972  1814  1624  1382  1128  922  752  574  401  277  198  126  39  -55  -136  -200  -269  -342  -392  -407  -403  -403  -431  -502  -583  -582  -440  -218  -54  0  -3  -6  2  -4  -48  -121  -209  -273  -278  -265  -293  -343  -355  -308  -232  -169  -127  -79  -20  16  -11  -125  -282  -398  -440  -427  -382  -307  -217  -150  -148  -201  -268  -323  -344  -314  -259  -218  -213  -242  -299  -384  -484  -560  -586  -539  -404  -236  -161  -248  -423  -550  -571  -524  -456  -378  -298  -244  -227  -229  -233  -237  -255  -300  -369  -434  -459  -430  -357  -279  -234  -236  -276  -331  -374  -399  -417  -435  -448  -453  -455  -454  -445  -421  -387  -363  -353  -353  -357  -370  -390  -396  -382  -395  -470  -564  -626  -652  -667  -698  -761  -856  -964  -1048  -1089  -1103  -1103  -1080  -1013  -922  -903  -1037  -1215  -1163  -619  534  2236  4189  5861  6693  6412  5105  3135  1026  -688  -1679  -1947  -1709  -1242  -839  -651  -594  -566  -547  -532  -521  -526  -544  -544  -499  -427  -388  -421  -475  -474  -429  -393  -391  -413  -444  -456  -407  -264  -78  56  103  103  97  94  72  23  -24  -29  28  137  250  319  348  376  439  555  708  858  962  1018  1064  1144  1284  1473  1660  1794  1868  1906  1935  1963  1969  1896  1694  1419  1199  1094  1032  900  662  409  243  154  64  -71  -253  -463  -675  -838  -920  -939  -937  -935  -928  -906  -871  -839  -812  -783  -756  -742  -750  -771  -778  -745  -679  -612  -572  -559  -561  -571  -597  -649  -711  -755  -777  -802  -856  -926  -959  -913  -804  -680  -572  -487  -428  -402  -411  -443  -483  -532  -591  -644  -675  -664  -584  -463  -376  -359  -382  -405  -413  -406  -391  -381  -383  -390  -394  -403  -429  -470  -513  -545  -560  -555  -528  -487  -452  -422  -382  -338  -306  -303  -332  -360  -352  -336  -347  -375  -394  -387  -356  -320  -292  -269  -250  -239  -243  -281  -364  -460  -520  -538  -541  -540  -530  -513  -501  -496  -489  -469  -443  -422  -402  -368  -325  -293  -268  -224  -156  -84  -6  100  214  271  250  177  85  5  -48  -84  -115  -148  -176  -191  -195  -206  -240  -286  -322  -339  -332  -305  -267  -249  -303  -454  -656  -754  -478  450  2118  4261  6304  7622  7812  6778  4774  2390  296  -1061  -1562  -1417  -1003  -604  -343  -219  -197  -248  -332  -404  -443  -458  -475  -503  -523  -516  -486  -456  -428  -381  -313  -248  -210  -200  -202  -206  -220  -252  -311  -393  -470  -484  -386  -183  70  298  432  457  413  334  241  174  178  286  489  707  863  952  1005  1045  1106  1218  1361  1473  1519  1522  1522  1545  1591  1639  1672  1693  1715  1716  1623  1369  1009  691  476  287  78  -107  -248  -355  -424  -458  -476  -499  -536  -586  -631  -653  -639  -590  -530  -485  -456  -439  -436  -444  -453  -467  -496  -543  -584  -588  -548  -493  -452  -424  -404  -397  -406  -426  -445  -453  -449  -441  -430  -397  -336  -283  -260  -241  -210  -174  -145  -139  -143  -139  -150  -188  -231  -267  -301  -331  -340  -323  -313  -330  -360  -385  -401  -405  -402  -397  -400  -416  -444  -458  -441  -405  -374  -354  -346  -346  -348  -349  -350  -354  -368  -393  -419  -439  -451  -451  -434  -400  -349  -291  -253  -256  -279  -297  -303  -306  -324  -371  -432  -475  -484  -460  -416  -370  -342  -336  -348  -362  -351  -284  -162  -39  29  43  32  22  18  17  7  -24  -95  -198  -292  -341  -345  -337  -353  -412  -494  -556  -585  -596  -612  -647  -700  -753  -775  -725  -606  -530  -595  -624  -189  1018  2946  5144  6813  7239  6264  4198  1630  -720  -2292  -2864  -2580  -1830  -1053  -578  -453  -486  -517  -517  -513  -519  -527  -553  -618  -689  -721  -709  -669  -613  -552  -475  -369  -252  -163  -125  -146  -212  -271  -298  -312  -331  -351  -326  -210  -33  125  237  309  343  349  345  342  364  452  624  823  972  1042  1060  1076  1160  1358  1612  1794  1849  1832  1809  1810  1845  1907  1969  1993  1954  1843  1675  1492  1333  1190  1022  786  483  193  11  -69  -140  -252  -389  -497  -536  -521  -503  -494  -479  -470  -489  -533  -574  -595  -595  -587  -591  -620  -655  -662  -638  -597  -543  -492  -468  -464  -454  -423  -380  -336  -290  -244  -216  -220  -239  -231  -175  -114  -104  -147  -206  -250  -265  -273  -305  -359  -395  -383  -344  -310  -275  -202  -93  -22  -59  -206  -379  -473  -477  -453  -437  -415  -381  -358  -364  -401  -464  -540  -592  -584  -510  -407  -329  -292  -275  -253  -216  -180  -178  -229  -318  -412  -482  -526  -554  -560  -538  -485  -416  -365  -355  -367  -353  -266  -112  39  129  158  156  147  140  113  33  -92  -207  -270  -287  -289  -295  -301  -308  -323  -347  -391  -465  -536  -573  -582  -570  -528  -504  -595  -807  -948  -668  387  2253  4445  6263  7164  6875  5464  3378  1193  -657  -1851  -2204  -1861  -1223  -663  -357  -285  -360  -537  -757  -926  -1005  -1010  -921  -700  -410  -198  -124  -137  -182  -254  -350  -428  -424  -352  -336  -431  -535  -539  -449  -340  -253  -158  -45  40  82  98  98  86  86  122  208  358  547  703  777  779  741  686  650  705  916  1250  1581  1813  1927  1950  1912  1829  1735  1666  1610  1515  1344  1135  986  935  928  897  812  675  495  296  95  -117  -328  -490  -581  -620  -635  -655  -694  -717  -672  -570  -489  -472  -498  -520  -523  -536  -572  -604  -619  -637  -676  -717  -713  -655  -579  -518  -484  -475  -491  -534  -589  -621  -603  -541  -457  -346  -210  -103  -87  -173  -309  -417  -466  -474  -452  -407  -369  -366  -402  -453  -492  -505  -496  -469  -437  -415  -408  -409  -410  -408  -405  -400  -389  -367  -359  -416  -529  -598  -548  -426  -341  -341  -389  -434  -459  -466  -454  -433  -414  -406  -416  -449  -501  -541  -540  -515  -530  -595  -646  -652  -641  -636  -624  -581  -506  -429  -379  -356  -355  -376  -410  -429  -404  -340  -279  -252  -244  -212  -125  0  110  170  175  149  124  110  73  -34  -229  -446  -587  -629  -624  -621  -632  -648  -665  -680  -678  -624  -483  -290  -184  -337  -714  -955  -603  615  2632  4890  6595  7216  6631  5022  2862  723  -969  -1943  -2116  -1748  -1272  -967  -854  -817  -788  -794  -830  -804  -685  -563  -507  -501  -512  -531  -565  -608  -641  -650  -634  -592  -532  -478  -467  -505  -565  -591  -526  -397  -296  -250  -231  -228  -241  -258  -262  -249  -234  -233  -227  -164  1  236  444  589  708  830  951  1053  1126  1194  1287  1395  1480  1516  1513  1503  1504  1499  1470  1413  1348  1300  1279  1277  1268  1181  937  565  203  -35  -147  -202  -274  -372  -447  -470  -455  -439  -448  -496  -576  -649  -682  -677  -661  -646  -606  -517  -396  -299  -266  -276  -299  -323  -355  -396  -439  -469  -469  -433  -366  -286  -208  -144  -107  -97  -101  -105  -103  -92  -78  -76  -102  -163  -240  -277  -241  -173  -125  -97  -72  -49  -36  -33  -36  -49  -80  -129  -189  -254  -315  -359  -375  -363  -315  -230  -134  -68  -44  -42  -43  -41  -33  -23  -30  -79  -179  -291  -365  -389  -365  -289  -178  -80  -30  -22  -34  -58  -101  -165  -237  -288  -304  -298  -289  -281  -276  -282  -304  -334  -359  -377  -394  -402  -389  -356  -313  -265  -211  -162  -121  -81  -44  -20  -16  -20  -21  -3  38  92  138  161  168  161  114  0  -151  -277  -350  -386  -413  -442  -467  -481  -475  -431  -336  -226  -168  -209  -326  -440  -543  -695  -786  -472  535  2181  4113  5885  7054  7248  6338  4546  2332  260  -1094  -1473  -1163  -687  -390  -362  -506  -658  -734  -755  -753  -724  -645  -522  -409  -349  -337  -356  -398  -449  -491  -513  -508  -467  -403  -344  -311  -306  -317  -318  -290  -239  -189  -150  -113  -55  35  134  187  168  112  72  74  119  221  382  557  707  836  959  1077  1191  1320  1485  1653  1741  1714  1620  1538  1505  1505  1501  1471  1417  1358  1297  1224  1142  1066  986  861  664  399  78  -229  -424  -487  -500  -532  -580  -611  -645  -718  -799  -837  -826  -779  -709  -625  -541  -472  -429  -420  -435  -452  -456  -458  -468  -479  -485  -486  -488  -494  -507  -524  -523  -484  -413  -342  -295  -270  -250  -231  -215  -203  -191  -183  -180  -177  -171  -168  -182  -230  -302  -368  -405  -416  -422  -429  -423  -382  -318  -293  -363  -487  -569  -582  -570  -567  -568  -545  -468  -358  -261  -196  -162  -165  -198  -229  -241  -242  -250  -270  -307  -364  -430  -482  -492  -436  -327  -212  -138  -114  -119  -134  -158  -194  -231  -256  -274  -289  -287  -272  -271  -303  -354  -379  -358  -326  -314  -318  -314  -290  -248  -201  -163  -140  -133  -132  -107  -29  78  158  185  181  172  168  174  198  235  262  239  133  -27  -169  -247  -271  -271  -269  -283  -346  -482  -630  -679  -610  -505  -423  -379  -452  -758  -1196  -1347  -776  669  2799  5128  7000  7824  7332  5647  3221  711  -1238  -2185  -2120  -1511  -895  -533  -449  -557  -689  -718  -672  -637  -644  -677  -700  -711  -733  -744  -693  -587  -482  -425  -414  -424  -432  -432  -429  -427  -429  -436  -433  -386  -262  -93  35  94  122  151  181  210  247  301  378  480  585  662  702  729  780  876  1009  1166  1334  1486  1606  1703  1792  1872  1938  2004  2080  2136  2116  1985  1788  1614  1483  1353  1169  896  574  307  137  6  -144  -314  -473  -596  -669  -701  -723  -765  -818  -861  -914  -1020  -1167  -1271  -1253  -1104  -916  -816  -831  -885  -917  -927  -927  -904  -840  -747  -673  -639  -624  -605  -576  -545  -534  -569  -656  -766  -841  -857  -841  -817  -784  -733  -676  -650  -685  -764  -856  -939  -988  -980  -915  -823  -746  -695  -665  -666  -717  -809  -882  -899  -905  -944  -980  -971  -915  -812  -664  -490  -341  -262  -255  -297  -359  -423  -491  -555  -596  -610  -614  -614  -584  -499  -383  -297  -268  -270  -277  -281  -286  -296  -309  -322  -329  -316  -257  -142  6  146  241  264  214  147  108  80  50  37  41  49  52  36  -20  -124  -235  -285  -254  -194  -163  -180  -233  -288  -315  -311  -286  -267  -308  -449  -619  -529  263  1908  4015  5973  7172  7136  5826  3617  1098  -1011  -2172  -2327  -1815  -1092  -522  -263  -241  -286  -304  -290  -267  -243  -222  -209  -206  -209  -209  -200  -187  -173  -153  -126  -95  -66  -50  -45  -33  4  57  97  110  107  101  101  116  160  240  355  495  638  764  869  967  1066  1155  1223  1268  1296  1317  1351  1415  1513  1627  1739  1837  1922  1999  2065  2102  2112  2111  2114  2117  2100  2032  1894  1679  1394  1084  804  560  332  131  -29  -167  -294  -408  -503  -572  -624  -679  -746  -825  -899  -929  -898  -834  -782  -759  -755  -761  -768  -771  -757  -710  -627  -541  -491  -490  -524  -573  -607  -600  -541  -442  -337  -259  -228  -245  -282  -301  -293  -282  -292  -314  -324  -314  -314  -351  -408  -443  -439  -401  -361  -343  -357  -396  -441  -483  -527  -550  -523  -443  -328  -196  -80  -15  -19  -94  -221  -344  -411  -425  -411  -391  -378  -375  -381  -390  -385  -355  -317  -291  -282  -298  -353  -431  -489  -503  -471  -391  -287  -201  -147  -116  -122  -187  -296  -401  -470  -498  -488  -445  -387  -347  -344  -378  -428  -464  -456  -389  -280  -178  -115  -86  -72  -61  -59  -75  -104  -146  -201  -255  -297  -329  -368  -419  -484  -567  -658  -721  -738  -734  -729  -718  -696  -692  -782  -973  -1154  -1175  -852  48  1615  3625  5610  7061  7528  6739  4872  2528  296  -1360  -2072  -1916  -1372  -826  -433  -235  -181  -195  -267  -401  -561  -657  -623  -516  -452  -451  -465  -471  -477  -491  -505  -514  -518  -518  -506  -467  -400  -334  -306  -312  -289  -208  -111  -39  8  46  78  123  188  246  287  342  417  509  621  735  814  858  905  995  1141  1307  1429  1490  1520  1548  1586  1645  1710  1763  1804  1819  1804  1762  1678  1543  1349  1095  823  589  420  314  220  66  -141  -337  -495  -628  -727  -787  -809  -788  -708  -569  -435  -395  -449  -543  -655  -751  -782  -727  -626  -571  -607  -664  -681  -675  -666  -651  -617  -579  -568  -588  -612  -625  -631  -634  -618  -559  -465  -378  -336  -339  -363  -381  -383  -376  -355  -315  -279  -264  -259  -248  -229  -214  -220  -255  -320  -396  -458  -498  -510  -484  -413  -315  -225  -168  -150  -163  -186  -213  -257  -312  -343  -329  -286  -247  -233  -236  -247  -267  -291  -298  -267  -228  -234  -284  -329  -347  -357  -371  -378  -367  -356  -366  -390  -418  -443  -464  -478  -486  -483  -471  -463  -469  -481  -477  -448  -401  -348  -299  -268  -262  -284  -332  -389  -431  -448  -445  -426  -402  -387  -387  -395  -410  -450  -544  -696  -860  -972  -1019  -1044  -1087  -1146  -1193  -1212  -1209  -1196  -1181  -1162  -1149  -1183  -1315  -1492  -1441  -776  714  2828  4964  6429  6765  5917  4205  2096  31  -1539  -2312  -2386  -2109  -1777  -1578  -1566  -1632  -1670  -1686  -1702  -1712  -1710  -1699  -1679  -1644  -1596  -1549  -1515  -1503  -1539  -1640  -1780  -1893  -1919  -1855  -1756  -1657  -1544  -1443  -1395  -1399  -1431  -1467  -1497  -1529  -1560  -1581  -1594  -1595  -1561  -1470  -1345  -1224  -1109  -1001  -927  -887  -827  -698  -511  -330  -209  -138  -83  -40  -14  6  28  39  22  -22  -76  -117  -144  -181  -265  -426  -650  -893  -1142  -1420  -1693  -1869  -1929  -1951  -2020  -2144  -2274  -2389  -2499  -2596  -2659  -2689  -2698  -2698  -2691  -2656  -2579  -2495  -2469  -2543  -2698  -2815  -2762  -2577  -2430  -2415  -2488  -2565  -2599  -2606  -2614  -2623  -2613  -2567  -2497  -2431  -2392  -2383  -2387  -2384  -2370  -2348  -2334  -2335  -2343  -2352  -2366  -2387  -2404  -2394  -2344  -2275  -2225  -2206  -2204  -2216  -2256  -2321  -2354  -2292  -2148  -2002  -1916  -1892  -1879  -1839  -1773  -1700  -1639  -1610  -1620  -1660  -1708  -1738  -1742  -1727  -1705  -1664  -1579  -1459  -1333  -1216  -1104  -990  -880  -793  -748  -741  -747  -749  -746  -733  -684  -572  -432  -333  -295  -277  -222  -92  107  305  421  460  512  656  862  1023  1101  1154  1240  1365  1514  1671  1829  2021  2281  2552  2724  2771  2754  2730  2729  2768  2854  2954  3037  3123  3266  3482  3726  3955  4136  4252  4333  4448  4614  4776  4886  4943  4999  5208  5854  7191  9129  11122  12563  13216  13130  12315  10858  9204  7884  7004  6288  5529]
