reading_id,reading_time,wire_id,result_classification,heart_rate,heart_rate_alert,firmware_version,device_app_version,hardware_version,waveform_samples
5defc330-cc44-11ed-8080-808080808080,Mon Mar 27 02:09:12 UTC 2023,e12964476439,NSR,71,NONE,20001.188.58,2.13.0,Charge 5,[299  506  719  933  1141  1324  1428  1404  1288  1173  1072  902  640  336  27  -245  -416  -473  -472  -477  -523  -626  -744  -754  -601  -514  -751  -1218  -1568  -1436  -476  1459  3993  6332  7746  7823  6534  4357  2096  449  -169  201  1007  1711  2073  2028  1746  1514  1423  1411  1447  1558  1784  2075  2284  2295  2094  1773  1479  1279  1138  1015  891  733  521  272  52  -79  -127  -137  -135  -123  -86  -3  135  324  519  650  699  699  666  569  411  271  233  287  358  418  509  664  836  950  989  989  957  863  701  515  351  211  98  34  5  -53  -183  -353  -539  -860  -1491  -2317  -2943  -3164  -3089  -2870  -2601  -2351  -2154  -1998  -1851  -1681  -1458  -1170  -870  -650  -542  -509  -498  -473  -402  -256  -66  85  152  132  26  -131  -259  -302  -290  -267  -230  -147  -17  127  263  369  422  427  416  433  504  611  701  749  763  741  658  511  331  177  99  96  118  130  138  179  291  451  560  495  189  -262  -625  -771  -785  -814  -913  -1029  -1104  -1130  -1132  -1134  -1136  -1117  -1050  -941  -814  -650  -436  -225  -87  9  181  469  767  972  1112  1256  1424  1613  1836  2093  2302  2356  2276  2157  2065  2047  2085  2124  2162  2200  2196  2120  1995  1877  1793  1714  1588  1417  1259  1151  1100  1117  1240  1459  1640  1634  1440  1237  1305  1934  3331  5460  7881  9842  10661  10041  8096  5362  2777  1154  619  787  1115  1184  1000  820  730  660  548  353  91  -137  -262  -305  -319  -309  -253  -155  -64  -34  -99  -276  -554  -878  -1147  -1248  -1154  -927  -677  -515  -513  -668  -888  -1052  -1123  -1154  -1193  -1236  -1234  -1149  -1008  -873  -785  -736  -685  -597  -515  -527  -639  -751  -766  -674  -556  -501  -492  -479  -490  -580  -794  -1171  -1625  -1952  -2067  -2049  -2000  -1970  -2001  -2137  -2399  -2750  -3098  -3362  -3509  -3532  -3448  -3324  -3229  -3154  -3036  -2877  -2757  -2731  -2795  -2906  -3008  -3060  -3067  -3051  -3029  -3005  -2982  -2962  -2938  -2907  -2892  -2952  -3142  -3417  -3667  -3856  -4013  -4129  -4190  -4206  -4146  -3979  -3750  -3544  -3411  -3331  -3259  -3189  -3146  -3145  -3170  -3157  -3074  -2980  -2936  -2933  -2937  -2938  -2942  -2952  -2942  -2856  -2662  -2419  -2229  -2127  -2081  -2057  -2040  -2035  -2044  -2048  -2039  -2032  -2025  -1982  -1863  -1652  -1397  -1197  -1101  -1066  -1027  -946  -820  -661  -472  -271  -105  -16  -15  -58  -85  -82  -73  -69  -66  -51  -5  79  178  260  319  360  375  362  327  277  207  127  56  -24  -163  -359  -537  -639  -656  -577  -347  34  387  471  237  -130  -292  173  1512  3506  5542  6999  7481  6862  5373  3477  1633  241  -466  -555  -272  99  318  322  232  171  154  170  239  382  557  689  746  753  749  770  833  908  950  967  1012  1108  1226  1331  1403  1431  1422  1407  1398  1382  1375  1431  1558  1702  1823  1917  1976  1998  2006  2037  2106  2207  2323  2438  2526  2577  2624  2726  2900  3100  3270  3381  3442  3465  3448  3375  3259  3127  2960  2711  2408  2159  2036  2013  2028  2054  2087  2100  2013  1747  1364  1033  847  805  857  913  925  920  918  922  924  940  1003  1103  1167  1139  1015  851  725  659  625  617  664  776  909  1001  1036  1039  1014  933  797  655  573  574  622  660  646  544  339  69  -157  -225  -140  -32  -4  -79  -237  -435  -615  -733  -787  -807  -800  -762  -708  -689  -749  -879  -1028  -1148  -1216  -1253  -1302  -1378  -1473  -1565  -1625  -1642  -1635  -1626  -1632  -1659  -1708  -1775  -1832  -1850  -1832  -1794  -1741  -1679  -1624  -1592  -1570  -1520  -1431  -1340  -1279  -1247  -1241  -1229  -1198  -1195  -1237  -1268  -1235  -1142  -1045  -988  -960  -939  -898  -813  -700  -614  -597  -643  -710  -755  -770  -773  -767  -735  -669  -620  -664  -796  -939  -1043  -1090  -1086  -1078  -1098  -1120  -1118  -1108  -1118  -1132  -1051  -819  -666  -969  -1612  -1872  -1189  412  2614  4861  6433  6894  6218  4598  2449  366  -1147  -1857  -1864  -1512  -1183  -1105  -1203  -1253  -1203  -1126  -1043  -955  -908  -955  -1085  -1156  -1000  -663  -375  -259  -259  -289  -314  -339  -385  -454  -489  -392  -134  173  389  475  484  479  496  577  727  877  978  1056  1135  1213  1306  1423  1540  1636  1739  1910  2142  2346  2485  2602  2718  2810  2863  2894  2926  2948  2938  2907  2885  2872  2825  2691  2475  2226  1955  1655  1385  1211  1127  1093  1089  1084  1008  792  479  214  81  48  36  -1  -61  -109  -126  -115  -108  -153  -277  -441  -583  -721  -919  -1154  -1320  -1376  -1376  -1375  -1369  -1307  -1167  -1006  -898  -852  -840  -862  -933  -1029  -1101  -1135  -1160  -1187  -1198  -1183  -1167  -1173  -1180  -1154  -1117  -1122  -1195  -1306  -1399  -1458  -1500  -1523  -1509  -1455  -1395  -1377  -1398  -1426  -1452  -1472  -1486  -1493  -1491  -1481  -1471  -1466  -1465  -1464  -1457  -1444  -1439  -1453  -1482  -1515  -1542  -1556  -1551  -1511  -1411  -1269  -1145  -1081  -1065  -1064  -1060  -1055  -1052  -1046  -1017  -946  -850  -784  -779  -808  -834  -849  -858  -853  -799  -677  -529  -428  -394  -391  -365  -288  -203  -217  -397  -717  -1059  -1282  -1351  -1335  -1296  -1247  -1185  -1115  -1035  -937  -818  -662  -471  -352  -462  -847  -1368  -1665  -1257  87  2132  4356  6188  7076  6684  5176  3056  931  -561  -1117  -1021  -747  -561  -504  -494  -473  -446  -403  -333  -238  -123  -7  96  184  248  289  310  307  275  224  158  91  62  110  234  374  469  526  582  637  708  829  967  1060  1106  1125  1123  1101  1090  1174  1433  1802  2101  2240  2271  2277  2298  2348  2425  2509  2583  2665  2795  2998  3199  3232  3045  2782  2590  2499  2466  2445  2402  2325  2197  1979  1679  1368  1122  943  760  527  299  139  26  -92  -215  -297  -320  -313  -302  -301  -313  -325  -309  -264  -234  -267  -350  -445  -518  -560  -577  -586  -592  -583  -534  -450  -377  -341  -315  -285  -271  -291  -333  -350  -316  -276  -264  -244  -180  -91  -18  23  59  119  198  256  267  242  202  176  189  250  335  396  417  417  411  385  321  234  173  171  226  307  366  376  328  233  131  66  61  107  174  225  254  271  280  273  248  216  184  142  65  -59  -241  -437  -571  -613  -600  -563  -518  -481  -468  -479  -496  -496  -480  -461  -449  -441  -416  -353  -262  -177  -112  -62  -17  33  83  101  82  53  43  62  60  -80  -433  -886  -1217  -1340  -1337  -1300  -1254  -1189  -1112  -1048  -1010  -979  -935  -909  -1033  -1403  -1837  -1911  -1270  173  2206  4353  6044  6853  6610  5402  3519  1390  -426  -1461  -1716  -1555  -1285  -1057  -934  -896  -892  -898  -928  -1003  -1096  -1135  -1078  -957  -852  -802  -792  -797  -823  -883  -960  -998  -953  -833  -688  -561  -470  -421  -405  -401  -402  -409  -414  -406  -384  -361  -340  -305  -220  -52  166  349  433  435  423  486  681  951  1172  1314  1440  1567  1652  1673  1657  1642  1663  1740  1852  1922  1861  1626  1305  1061  941  861  734  542  337  182  95  47  -20  -160  -360  -550  -696  -803  -876  -917  -943  -971  -993  -996  -969  -922  -896  -920  -964  -994  -1022  -1073  -1148  -1229  -1297  -1338  -1346  -1325  -1286  -1255  -1254  -1268  -1249  -1164  -1050  -974  -958  -976  -1013  -1071  -1138  -1184  -1194  -1185  -1200  -1266  -1362  -1433  -1455  -1452  -1456  -1477  -1510  -1528  -1495  -1386  -1241  -1134  -1092  -1096  -1117  -1139  -1160  -1175  -1174  -1149  -1090  -1005  -925  -873  -851  -848  -852  -857  -860  -861  -858  -851  -832  -792  -743  -716  -726  -763  -815  -870  -910  -925  -926  -925  -915  -875  -766  -575  -364  -231  -203  -233  -267  -284  -294  -302  -291  -235  -132  -20  64  113  129  122  111  133  229  396  575  715  803  857  887  859  770  659  509  271  2  -170  -187  -83  59  158  185  167  142  156  267  461  558  360  -88  -457  -275  845  2919  5407  7472  8468  8136  6596  4315  1952  135  -761  -777  -341  55  194  159  119  141  195  228  231  225  224  224  205  154  75  -9  -81  -125  -145  -148  -116  -17  134  267  308  256  181  134  92  8  -144  -328  -456  -494  -480  -445  -374  -258  -96  117  347  516  588  608  637  703  800  916  1043  1174  1315  1479  1650  1782  1868  1931  1968  1963  1920  1868  1815  1700  1447  1104  822  677  613  529  375  161  -76  -284  -409  -448  -451  -458  -486  -540  -650  -835  -1053  -1236  -1336  -1353  -1325  -1296  -1285  -1284  -1285  -1291  -1312  -1348  -1380  -1395  -1386  -1341  -1259  -1174  -1123  -1112  -1128  -1160  -1207  -1259  -1303  -1333  -1341  -1274  -1081  -826  -668  -690  -825  -946  -988  -971  -943  -928  -929  -928  -893  -795  -657  -541  -488  -500  -568  -673  -767  -804  -774  -707  -644  -609  -592  -578  -568  -565  -563  -552  -538  -530  -532  -543  -559  -567  -526  -399  -221  -81  -17  -8  -29  -80  -152  -211  -201  -60  209  489  631  601  490  403  361  331  292  247  178  61  -100  -280  -449  -554  -543  -441  -341  -295  -279  -275  -295  -363  -449  -477  -440  -262  367  1678  3460  5184  6343  6609  5874  4364  2491  608  -910  -1701  -1681  -1142  -553  -196  -94  -183  -358  -517  -605  -611  -555  -469  -380  -289  -205  -139  -81  -21  22  22  -22  -71  -97  -115  -134  -139  -116  -62  17  96  149  168  168  164  162  161  158  152  146  151  181  242  333  446  578  754  995  1256  1465  1605  1697  1747  1762  1772  1799  1835  1861  1863  1842  1803  1753  1704  1651  1559  1382  1117  833  610  424  203  -24  -160  -180  -145  -112  -98  -97  -107  -138  -191  -257  -340  -454  -577  -655  -673  -667  -647  -601  -547  -521  -531  -569  -615  -645  -648  -627  -599  -580  -574  -569  -558  -543  -536  -543  -572  -650  -789  -941  -1017  -978  -870  -739  -607  -514  -512  -626  -824  -1031  -1157  -1147  -1052  -978  -954  -939  -918  -907  -908  -915  -922  -926  -908  -850  -767  -701  -659  -603  -509  -408  -342  -312  -300  -324  -426  -600  -753  -789  -711  -570  -383  -170  3  88  106  109  135  171  184  187  217  260  284  290  295  307  313  272  145  -46  -224  -333  -374  -379  -408  -500  -621  -689  -685  -663  -702  -830  -975  -1051  -982  -564  467  2150  4104  5701  6404  5952  4463  2385  283  -1334  -2135  -2070  -1464  -847  -589  -721  -1020  -1252  -1346  -1329  -1217  -1053  -923  -874  -882  -903  -917  -924  -934  -961  -1007  -1041  -1027  -970  -898  -838  -805  -795  -791  -787  -787  -800  -822  -823  -753  -575  -316  -78  53  80  61  44  54  113  248  445  630  752  841  941  1077  1276  1512  1696  1783  1806  1808  1814  1843  1902  1951  1926  1822  1669  1457  1174  876  630  452  333  273  251  216  124  -63  -333  -603  -765  -774  -687  -599  -537  -456  -350  -303  -388  -548  -678  -735  -744  -734  -708  -654  -561  -446  -347  -297  -289  -297  -304  -299  -276  -244  -221  -219  -225  -229  -237  -263  -323  -404  -460  -469  -467  -485  -516  -557  -617  -686  -733  -747  -744  -741  -745  -755  -777  -818  -864  -896  -907  -907  -903  -887  -858  -841  -870  -939  -995  -1000  -950  -878  -822  -790  -753  -671  -527  -351  -214  -153  -124  -60  55  175  248  287  331  397  475  545  587  596  567  486  331  116  -86  -210  -241  -215  -178  -159  -144  -113  -80  -66  -59  -86  -230  -522  -838  -808  32  1787  4075  6282  7742  8017  7100  5306  3081  960  -521  -1146  -1077  -636  -189  6  -9  -56  -65  -59  -65  -80  -83  -74  -86  -128  -163  -172  -171  -182  -199  -187  -87  108  323  457  487  455  402  354  319  278  240  250  342  488  593  602  565  543  563  637  758  896  1032  1149  1221  1253  1288  1388  1604  1907  2175  2311  2335  2317  2298  2285  2274  2256  2198  2063  1872  1682  1499  1286  1028  748  490  299  172  56  -68  -155  -180  -179  -201  -275  -399  -546  -673  -747  -775  -794  -820  -833  -817  -793  -795  -830  -869  -871  -835  -799  -782  -779  -777  -776  -781  -794  -821  -873  -939  -994  -1028  -1050  -1064  -1046  -960  -819  -690  -616  -591  -589  -592  -593  -606  -638  -673  -688  -672  -632  -595  -579  -572  -550  -499  -419  -324  -252  -254  -311  -341  -308  -239  -163  -104  -76  -68  -72  -89  -108  -106  -74  -26  9  24  37  77  175  340  526  681  800  892  957  1004  1045  1078  1090  1042  893  657  421  264  181  129  97  92  102  113  126  162  200  137  -85  -345  -500  -441  117  1482  3589  5986  8047  9105  8743  7078  4653  2191  366  -516  -641  -378  2  314  467  507  505  458  329  147  3  -46  7  166  372  520  563  533  469  389  302  217  136  66  21  -6  -48  -116  -192  -267  -372  -546  -787  -1021  -1163  -1202  -1191  -1167  -1124  -1063  -1031  -1079  -1187  -1289  -1335  -1305  -1206  -1046  -847  -671  -576  -552  -543  -508  -442  -361  -280  -203  -137  -72  -4  0  -139  -409  -718  -1006  -1253  -1449  -1604  -1734  -1840  -1910  -1966  -2045  -2136  -2199  -2222  -2228  -2232  -2236  -2236  -2230  -2254  -2342  -2442  -2453  -2343  -2188  -2097  -2096  -2122  -2131  -2127  -2122  -2116  -2096  -2054  -1981  -1875  -1762  -1688  -1652  -1619  -1582  -1537  -1449  -1323  -1233  -1214  -1226  -1225  -1208  -1196  -1182  -1129  -1032  -928  -855  -822  -815  -816  -815  -821  -851  -902  -914  -854  -769  -726  -740  -797  -861  -887  -843  -746  -673  -681  -732  -762  -766  -765  -766  -749  -693  -605  -524  -483  -474  -475  -474  -478  -496  -497  -448  -362  -282  -227  -200  -194  -203  -219  -226  -211  -189  -181  -196  -264  -427  -661  -858  -940  -948  -994  -1110  -1218  -1259  -1268  -1307  -1375  -1387  -1328  -1320  -1433  -1601  -1681  -1362  -297  1508  3687  5733  7055  7144  5873  3616  1108  -885  -1895  -1939  -1436  -884  -572  -519  -623  -786  -934  -1020  -1041  -1030  -1018  -1023  -1045  -1065  -1048  -992  -944  -926  -912  -874  -811  -736  -672  -641  -635  -602  -492  -334  -221  -232  -367  -523  -561  -450  -252  9  298  511  587  580  592  698  895  1127  1334  1468  1513  1506  1517  1602  1757  1910  1998  2026  2048  2107  2203  2301  2360  2349  2293  2253  2239  2168  1957  1665  1444  1330  1212  1011  765  584  563  672  787  823  775  674  553  444  379  366  389  431  469  448  292  -10  -326  -462  -336  -51  205  330  349  329  315  330  386  477  574  637  651  638  628  655  745  870  968  1013  1012  940  776  605  578  723  923  1068  1130  1149  1184  1259  1342  1365  1262  1042  805  660  614  586  513  421  359  286  158  39  28  141  307  437  517  583  610  547  405  253  143  104  183  447  847  1203  1377  1321  1006  495  23  -173  -42  294  683  1063  1392  1539  1353  814  85  -538  -802  -672  -362  -116  -33  -91  -262  -493  -706  -862  -923  -942  -1137  -1542  -1829  -1644  -700  1025  3011  4666  5773  6207  5747  4352  2264  -76  -1908  -2535  -2092  -1327  -718  -355  -317  -599  -959  -1153  -1092  -782  -344  8  159  173  203  331  484  513  387  226  132  108  129  202  331  476  580  626  601  483  312  179  130  138  165  188  197  187  155  109  73  113  302  610  899  1078  1122  1030  846  652  516  467  549  825  1246  1616  1799  1837  1822  1764  1612  1357  1061  790  587  450  330  182  27  -72  -100  -99  -129  -235  -402  -568  -690  -759  -780  -767  -715  -609  -488  -455  -564  -743  -874  -936  -1021  -1182  -1298  -1206  -922  -560  -264  -278  -645  -1083  -1360  -1450  -1443  -1458  -1486  -1433  -1322  -1246  -1231  -1239  -1232  -1241  -1313  -1414  -1511  -1617  -1685  -1659  -1552  -1397  -1192  -905  -580  -347  -263  -275  -347  -470  -576  -582  -530  -506  -511  -519  -525  -515  -462  -341  -167  -11  62  44  -47  -170  -257  -270  -212  -112  -23  11  -18  -90  -165  -204  -179  -82  47  142  179  187  181  128  -13  -225  -440  -607  -708  -757  -787  -794  -690  -376  61  374  422  284  103  -19  -64  -60  -42  -24  -34  -138  -382  -693  -918  -1018  -1081  -1161  -1235  -1286  -1342  -1424  -1497  -1526  -1542  -1610  -1737  -1853  -1919  -2000  -2159  -2277  -2045  -1155  459  2520  4570  6179  6935  6519  4936  2516  -149  -2242  -3163  -2961  -2165  -1360  -936  -894  -975  -1034  -1095  -1149  -1130  -1002  -813  -644  -489  -283  -43  124  163  108  31  -18  -30  -26  -22  -21  -23  -18  12  81  167  223  234  232  246  284  363  494  662  821  917  944  958  1041  1267  1629  2012  2309  2486  2571  2626  2689  2755  2817  2906  3058  3249  3394  3448  3444  3424  3405  3383  3341  3248  3076  2887  2790  2756  2649  2438  2185  1927  1695  1538  1474  1453  1406  1311  1203  1135  1120  1129  1137  1137  1138  1145  1150  1115  1007  854  711  588  469  363  280  228  219  252  306  321  247  123  30  -20  -78  -166  -256  -336  -423  -524  -619  -702  -776  -836  -889  -965  -1093  -1287  -1533  -1776  -1937  -2008  -2046  -2098  -2163  -2234  -2328  -2470  -2633  -2752  -2802  -2806  -2796  -2799  -2852  -2970  -3117  -3238  -3307  -3334  -3333  -3311  -3270  -3214  -3160  -3132  -3126  -3101  -3023  -2914  -2831  -2802  -2803  -2806  -2796  -2769  -2730  -2693  -2670  -2660  -2650  -2632  -2618  -2616  -2599  -2526  -2400  -2260  -2138  -2037  -1935  -1827  -1741  -1693  -1671  -1639  -1548  -1377  -1176  -1021  -962  -987  -1046  -1131  -1291  -1502  -1643  -1617  -1446  -1275  -1233  -1297  -1392  -1487  -1553  -1543  -1422  -1163  -898  -878  -1112  -1257  -817  617  3005  5639  7535  8088  7211  5162  2560  194  -1377  -1936  -1605  -857  -229  5  -77  -237  -330  -366  -391  -423  -476  -544  -599  -610  -554  -441  -331  -276  -270  -276  -278  -277  -287  -338  -452  -594  -674  -620  -426  -155  95  240  242  153  72  63  121  202  265  308  361  458  609  782  951  1145  1402  1703  1985  2207  2357  2437  2472  2488  2483  2440  2373  2322  2308  2315  2321  2318  2313  2302  2261  2156  1980  1771  1527  1195  803  474  273  173  116  59  15  -1  -9  -27  -70  -144  -232  -303  -341  -341  -300  -220  -119  -41  -7  0  13  41  69  70  23  -53  -110  -103  -28  76  152  184  202  236  284  326  321  227  81  -17  -32  -7  18  61  164  319  446  485  451  395  349  315  290  284  312  379  458  518  546  552  541  504  432  349  299  288  286  276  254  204  131  69  60  123  236  352  446  503  514  487  451  445  469  487  495  494  480  467  476  502  513  481  417  354  304  239  118  -77  -317  -530  -666  -729  -723  -628  -436  -208  -23  49  -99  -565  -1193  -1564  -1294  -227  1532  3618  5530  6841  7272  6646  4930  2446  19  -1433  -1638  -1069  -376  56  168  124  84  2  -161  -262  -203  -85  -58  -163  -305  -369  -351  -318  -306  -300  -267  -197  -109  -34  15  48  86  143  208  246  234  189  141  98  56  13  -19  -26  26  169  373  562  703  807  877  915  931  942  973  1030  1092  1130  1141  1150  1171  1197  1225  1256  1272  1251  1197  1084  824  389  -70  -368  -499  -592  -726  -889  -1041  -1166  -1294  -1476  -1697  -1877  -1973  -2006  -2009  -2000  -1993  -2006  -2056  -2135  -2220  -2291  -2334  -2336  -2310  -2279  -2209  -2038  -1788  -1569  -1466  -1479  -1538  -1552  -1484  -1356  -1215  -1100  -1023  -990  -999  -1015  -987  -923  -888  -899  -888  -804  -677  -541  -385  -220  -106  -64  -70  -107  -178  -263  -307  -248  -64  187  399  507  538  543  536  511  476  469  525  648  808  955  1049  1096  1142  1196  1221  1178  1077  973  905  840  726  596  551  606  689  755  823  912  964  882  685  500  385  312  269  255  245  215  173  151  159  173  169  153  140  130  120  110  103  102  121  170  216  173  -22  -318  -594  -797  -943  -1060  -1188  -1363  -1562  -1710  -1771  -1776  -1754  -1668  -1523  -1491  -1710  -2063  -2309  -2195  -1464  -28  1862  3684  4840  4873  3733  1871  -57  -1506  -2158  -2110  -1795  -1543  -1432  -1435  -1509  -1615  -1718  -1759  -1677  -1463  -1205  -1026  -963  -965  -980  -993  -1009  -1036  -1075  -1116  -1115  -1039  -925  -819  -725  -641  -583  -579  -640  -734  -807  -844  -856  -862  -891  -962  -1030  -1001  -830  -584  -358  -195  -97  -46  -23  -14  2  56  161  287  380  419  434  462  512  560  604  681  848  1124  1426  1583  1473  1135  760  536  510  615  760  854  839  703  501  313  173  74  8  -33  -53  -39  0  57  146  257  351  395  391  370  352  324  277  229  191  162  139  124  120  127  138  123  42  -108  -267  -359  -357  -280  -180  -109  -87  -91  -97  -101  -103  -96  -71  -31  9  37  50  52  54  61  66  62  56  75  123  166  179  175  194  265  367  442  443  368  259  173  131  119  123  148  210  329  508  697  792  705  450  143  -77  -173  -189  -150  -77  -20  3  28  85  166  238  285  297  277  259  263  269  262  267  316  407  496  553  598  659  743  824  860  827  741  639  534  425  317  219  142  123  198  348  498  587  614  604  562  471  333  159  -80  -334  -365  72  1033  2315  3591  4689  5546  6017  5975  5355  4162  2618  1183  293  52  192  334  293  179  129  133  140  133  119  108  104  106  105  91  63  49  61  51  -21  -116  -174  -190  -189  -188  -188  -173  -132  -82  -58  -69  -90  -102  -102  -98  -97  -98  -105  -119  -130  -118  -75  -33  -44  -108  -164  -147  -38  105  216  304  430  585  698  740  745  740  708  612  470  346  265  186  73  -56  -167  -253  -322  -371  -414  -501  -668  -879  -1053  -1146  -1186  -1213  -1237  -1237  -1200  -1153  -1128  -1125  -1124  -1123  -1153  -1243  -1380  -1506  -1578  -1593  -1573  -1536  -1486  -1426  -1366  -1306  -1251  -1218  -1206  -1189  -1165  -1149  -1154  -1174  -1192  -1193  -1170  -1115  -1047  -1028  -1079  -1166  -1252  -1323  -1371  -1385  -1322  -1145  -907  -737  -686  -689  -667  -590  -493  -428  -417  -445  -477  -478  -434  -357  -261  -168  -105  -74  -54  -33  -22  -29  -47  -65  -79  -84  -58  25  153  261  311  325  339  355  336  259  162  107  104  118  127  144  191  263  321  341  337  330  329  329  324  310  288  262  237  230  252  283  298  306  356  487  653  762  789  788  797  787  677  423  114  -94  -158  -149  -130  -123  -143  -232  -412  -623  -764  -793  -730  -612  -472  -389  -494  -856  -1360  -1652  -1320  -217  1504  3433  4990  5799  5799  5072  3824  2335  849  -395  -1169  -1436  -1355  -1071  -737  -555  -564  -641  -723  -840  -1015  -1197  -1265  -1139  -887  -662  -568  -595  -658  -699  -716  -720  -711  -691  -661  -631  -615  -620  -633  -643  -645  -636  -603  -521  -374  -203  -86  -52  -56  -40  36  168  312  443  555  639  709  792  885  977  1061  1145  1262  1423  1598  1742  1829  1842  1794  1733  1686  1641  1592  1534  1436  1271  1081  953  912  906  858  704  442  145  -99  -248  -287  -196  30  308  503  549  462  286  99  -18  -49  -29  18  77  127  146  121  72  57  102  173  237  285  314  301  193  -28  -284  -449  -467  -344  -135  60  170  209  227  236  214  165  97  0  -141  -296  -400  -432  -416  -360  -244  -66  109  194  182  128  67  23  5  -16  -80  -179  -259  -287  -278  -270  -284  -315  -338  -344  -340  -334  -317  -271  -210  -189  -269  -455  -665  -793  -795  -695  -556  -450  -395  -354  -305  -260  -238  -240  -252  -259  -261  -258  -248  -226  -202  -200  -232  -270  -274  -234  -174  -113  -34  80  214  312  349  334  262  109  -110  -322  -468  -562  -630  -673  -689  -689  -687  -690  -694  -676  -649  -736  -1043  -1482  -1791  -1654  -849  677  2669  4549  5782  6033  5102  3185  940  -896  -1871  -1956  -1541  -1154  -1077  -1204  -1276  -1209  -1102  -1026  -963  -905  -877  -896  -940  -977  -992  -991  -977  -940  -884  -841  -839  -851  -832  -767  -685  -656  -712  -798  -844  -848  -839  -831  -813  -760  -653  -504  -359  -267  -221  -171  -101  -41  6  93  271  518  747  899  983  1037  1089  1142  1181  1198  1194  1166  1129  1106  1102  1107  1112  1118  1121  1104  1045  934  777  592  414  288  218  172  109  -8  -179  -348  -465  -532  -554  -529  -472  -417  -390  -389  -401  -399  -358  -300  -306  -429  -602  -692  -670  -633  -642  -668  -676  -668  -639  -576  -486  -388  -278  -161  -78  -51  -61  -89  -121  -149  -174  -196  -210  -220  -233  -261  -305  -330  -306  -246  -181  -151  -177  -215  -211  -178  -151  -144  -159  -182  -198  -211  -227  -244  -250  -245  -239  -239  -237  -210  -141  -55  -4  -11  -63  -131  -186  -226  -258  -278  -274  -242  -200  -173  -165  -155  -118  -58  2  48  65  47  20  1  -27  -85  -135  -109  -7  124  296  533  778  948  1054  1152  1242  1268  1183  1021  863  732  584  392  182  9  -86  -115  -87  -3  110  196  212  154  16  -247  -593  -839  -933  -901  -515  528  2224  4181  5811  6609  6322  5009  3068  1071  -504  -1391  -1560  -1233  -775  -468  -381  -435  -525  -588  -601  -565  -508  -465  -450  -464  -504  -555  -594  -613  -620  -622  -623  -624  -627  -627  -610  -566  -521  -502  -499  -494  -483  -440  -344  -234  -164  -143  -139  -130  -120  -115  -105  -46  93  260  394  494  567  629  734  894  1065  1215  1344  1454  1544  1639  1746  1807  1771  1677  1587  1524  1491  1463  1390  1221  941  592  287  114  41  -32  -139  -230  -266  -268  -280  -342  -468  -643  -822  -945  -987  -965  -913  -840  -751  -685  -679  -692  -651  -557  -467  -420  -411  -418  -424  -425  -425  -424  -421  -407  -381  -368  -405  -490  -587  -665  -702  -694  -670  -642  -607  -578  -561  -555  -559  -558  -542  -519  -508  -542  -638  -776  -909  -989  -984  -899  -778  -683  -640  -637  -652  -665  -667  -655  -637  -624  -620  -618  -607  -583  -554  -534  -519  -483  -406  -300  -205  -146  -117  -87  -26  60  117  96  8  -92  -168  -225  -289  -351  -388  -396  -390  -387  -402  -445  -504  -549  -572  -580  -569  -516  -440  -447  -621  -896  -1053  -766  268  2027  4064  5793  6718  6579  5458  3662  1597  -262  -1447  -1682  -1202  -559  -98  60  -85  -328  -444  -420  -349  -277  -194  -109  -49  -17  0  11  4  -24  -53  -70  -76  -83  -97  -116  -126  -109  -53  30  105  153  177  193  218  254  286  307  326  359  429  542  667  773  860  965  1148  1400  1607  1682  1657  1604  1564  1569  1614  1662  1702  1729  1735  1722  1700  1672  1618  1495  1300  1091  931  828  722  541  274  0  -191  -288  -355  -428  -483  -499  -502  -536  -626  -752  -879  -991  -1096  -1191  -1252  -1280  -1297  -1310  -1313  -1302  -1278  -1248  -1203  -1120  -999  -901  -899  -971  -1013  -987  -943  -925  -925  -925  -922  -920  -929  -948  -967  -978  -978  -977  -982  -999  -1022  -1045  -1065  -1077  -1067  -1033  -974  -905  -854  -836  -844  -869  -899  -919  -911  -871  -820  -781  -750  -696  -620  -554  -521  -514  -519  -521  -506  -467  -425  -414  -444  -519  -652  -818  -945  -991  -945  -801  -605  -450  -377  -361  -376  -423  -494  -568  -614  -629  -630  -630  -615  -567  -488  -413  -371  -354  -330  -265  -144  -24  6  -64  -205  -381  -546  -690  -828  -935  -981  -974  -947  -941  -980  -1053  -1124  -1169  -1181  -1169  -1210  -1413  -1659  -1499  -517  1245  3345  5212  6276  6204  5135  3451  1521  -191  -1270  -1659  -1555  -1196  -834  -610  -496  -431  -404  -401  -403  -397  -375  -351  -339  -347  -374  -413  -453  -489  -500  -428  -217  68  283  358  323  205  36  -109  -143  -38  122  233  269  269  295  404  599  811  968  1052  1086  1096  1096  1094  1092  1085  1076  1085  1165  1390  1761  2137  2359  2414  2397  2378  2367  2349  2312  2246  2131  1948  1694  1413  1177  1013  897  810  732  621  423  159  -62  -170  -191  -189  -192  -197  -199  -203  -217  -231  -243  -258  -276  -287  -275  -225  -144  -66  -26  -44  -125  -233  -314  -342  -328  -281  -215  -162  -148  -163  -184  -193  -191  -187  -186  -185  -169  -130  -87  -67  -84  -132  -195  -259  -319  -367  -398  -409  -388  -327  -232  -124  -16  93  194  242  185  23  -148  -208  -133  -6  96  146  140  89  16  -48  -89  -102  -87  -55  -18  15  38  46  43  33  22  32  76  98  47  -36  -96  -126  -135  -123  -83  -6  77  145  212  287  352  389  402  403  397  381  362  337  302  244  146  4  -143  -228  -229  -206  -218  -269  -364  -519  -709  -852  -845  -642  -389  -316  -364  -175  569  1924  3647  5338  6581  6942  6130  4288  1977  -62  -1251  -1539  -1324  -1042  -930  -967  -1016  -1030  -1040  -1046  -1037  -1029  -1044  -1076  -1110  -1140  -1162  -1170  -1169  -1166  -1164  -1161  -1160  -1168  -1183  -1156  -1027  -836  -697  -655  -661  -674  -692  -733  -802  -871  -900  -860  -730  -520  -289  -125  -63  -61  -47  13  105  189  259  338  438  569  747  957  1149  1273  1337  1388  1442  1478  1495  1496  1462  1350  1150  913  691  493  306  125  -29  -133  -207  -304  -420  -506  -541  -544  -539  -534  -525  -506  -488  -495  -534  -594  -660  -719  -758  -757  -684  -525  -332  -194  -142  -141  -155  -176  -216  -279  -347  -400  -433  -460  -481  -488  -463  -383  -250  -110  -22  2  -5  -15  -18  -4  59  197  362  472  491  447  386  346  332  323  312  310  313  288  234  205  235  291  315  306  302  303  276  223  173  148  139  118  61  -25  -124  -223  -309  -364  -388  -399  -400  -387  -379  -389  -402  -394  -360  -298  -207  -113  -68  -98  -188  -333  -553  -811  -1001  -1072  -1055  -975  -824  -616  -413  -275  -217  -209  -230  -286  -385  -520  -686  -880  -1068  -1191  -1236  -1240  -1212  -1113  -963  -940  -1216  -1753  -2418  -2935  -2702  -1291  1052  3627  5573  6223  5507  3803  1667  -233  -1435  -1918  -1911  -1647  -1289  -902  -490  -78  257  444  493  476  449  430  429  446  463  457  426  374  307  238  152  40  -63  -122  -141  -142  -148  -172  -208  -235  -247  -250  -265  -307  -370  -434  -491  -547  -601  -656  -733  -833  -916  -920  -812  -633  -466  -340  -223  -110  -13  91  247  431  559  575  496  384  303  274  279  292  288  246  155  0  -229  -490  -716  -901  -1071  -1194  -1216  -1115  -912  -659  -426  -227  7  337  692  917  905  643  222  -209  -557  -806  -1012  -1260  -1542  -1753  -1845  -1885  -1944  -1945  -1717  -1237  -703  -326  -193  -239  -253  -49  385  815  890  548  70  -200  -19  478  829  836  665  484  374  363  432  527  591  609  599  569  487  314  77  -131  -246  -289  -320  -373  -457  -554  -635  -687  -728  -770  -807  -832  -852  -889  -960  -1058  -1160  -1272  -1413  -1587  -1763  -1893  -1958  -1978  -1988  -2016  -2076  -2160  -2210  -2140  -1912  -1571  -1204  -838  -416  68  518  832  1037  1224  1407  1533  1603  1674  1758  1809  1798  1749  1700  1674  1695  1805  2005  2217  2354  2414  2457  2535  2652  2783  2896  2892  2647  2246  2079  2567  3949  6175  8683  10552  11137  10372  8597  6389  4385  2972  2198  1905  1879  1978  2140  2337  2529  2662  2717  2720  2704  2674  2629  2565  2496  2454  2443  2425  2334  2139  1904  1736  1666  1643  1626  1607  1594  1591  1592  1589  1578  1561  1546  1533  1522  1511  1503  1501  1513  1550  1612  1697  1818  1969  2101  2178  2225  2282  2348  2397  2415  2415  2419  2446  2519  2637  2737  2755  2701  2619  2521  2357  2030  1535  1012  578  210  -171  -548  -821  -982  -1116  -1270  -1450  -1687  -2010  -2374  -2683  -2896  -3043  -3162  -3267  -3367  -3477  -3611  -3761  -3902  -4019  -4115  -4182  -4195  -4133  -3993  -3804  -3637  -3552  -3542  -3562  -3581  -3597  -3624  -3668  -3734  -3811  -3863  -3879  -3889  -3924  -3981  -4032  -4065  -4082  -4068  -3997  -3864  -3687  -3509  -3389  -3349  -3380  -3469  -3599  -3741  -3877  -4009  -4155  -4319  -4480  -4603  -4686  -4789  -4984  -5238  -5434  -5525  -5573  -5622  -5643  -5586  -5467  -5326  -5128  -4823  -4472  -4164  -3880  -3576  -3319  -3184  -3132  -3059  -2902  -2659  -2355  -2053  -1839  -1727  -1648  -1543  -1424  -1341  -1313  -1325  -1380  -1491  -1626  -1725  -1760  -1743  -1693  -1624  -1534  -1416  -1290  -1203  -1176  -1186  -1200  -1187  -1119  -1004  -891  -790  -627  -355  -48  180  312  411  514  608  678  727  773  837  913  972  1008  1038  1072  1108  1146  1186  1214  1224  1226  1242  1313  1500  1799  2057  2080  1815  1421  1245  1687  2978  4953  7067  8742  9539  9161  7687  5632  3552  1918  1114  1152  1649  2142  2335  2214  1996  1859  1805  1763  1687  1587  1512  1487  1491  1500  1505  1507  1505  1503  1502  1514  1541  1574  1595  1588  1543  1473  1389  1266  1068  805  537  343  244  208  214  260  332  407  485  605  815  1107  1384  1570  1683  1767  1824  1849  1852  1844  1848  1892  1979  2073  2128  2141  2142  2163  2227  2335  2452  2523  2518  2426  2231  1948  1609  1210  754  313  -57  -353  -568  -692  -739  -753  -775  -811  -818  -760  -658  -575  -529  -475  -359  -183  -11  94  122  68  -52  -188  -290  -343  -360  -359  -342  -302  -244  -181  -116  -59  -43  -114  -308  -596  -891  -1099  -1192  -1205  -1174  -1101  -984  -856  -756  -689  -628  -559  -475  -356  -210  -115  -119  -183  -253  -322  -397  -461  -497  -501  -475  -421  -358  -316  -302  -306  -312  -316  -316  -304  -271  -205  -109  -24  4  -32  -98  -94  62  294  447  480  464  449  424  359  259  166  110  88  86  92  104  138  205  285  340  356  342  310  275  245  189  67  -90  -205  -253  -277  -340  -468  -619  -712  -703  -610  -491  -410  -397  -460  -601  -808  -1023  -1163  -1189  -1128  -1024  -916  -827  -759  -712  -691  -713  -791  -893  -969  -1020  -1090  -1193  -1286  -1329  -1323  -1287  -1240  -1199  -1175  -1168  -1186  -1235  -1305  -1357  -1356  -1292  -1185  -1076  -1010  -1003  -1042  -1159  -1370  -1445  -992  217  2087  4228  6041  6885  6463  4967  2821  639  -913  -1604  -1656  -1389  -1075  -897  -853  -824  -721  -565  -417  -277  -111  49  142  165  158  150  139  116  81  40  -9  -64  -103  -110  -91  -58  -23  7  16  -2  -16  7  63  115  140  145  150  186  278  427  586  699  762  811  868  926  965  968  932  859  764  679  647  689  780  885  995  1106  1192  1231  1209  1119  982  840  706  570  425  254  45  -187  -403  -559  -640  -682  -746  -875  -1067  -1280  -1457  -1556  -1607  -1707  -1916  -2166  -2340  -2410  -2413  -2358  -2251  -2139  -2053  -1974  -1875  -1754  -1634  -1555  -1531  -1555  -1620  -1704  -1767  -1791  -1779  -1727  -1633  -1512  -1379  -1244  -1134  -1074  -1062  -1075  -1100  -1122  -1088  -917  -594  -214  110  323  420  452  495  587  718  861  989  1083  1140  1165  1156  1120  1108  1180  1334  1525  1722  1908  2058  2152  2203  2241  2280  2322  2370  2433  2527  2651  2790  2940  3107  3282  3433  3521  3537  3512  3480  3462  3454  3426  3338  3185  2999  2807  2590  2317  2036  1845  1758  1703  1602  1433  1251  1119  1042  978  877  707  478  261  118  59  56  74  97  118  133  140  139  134  136  156  137  -51  -431  -751  -625  245  1900  3981  5893  7071  7090  5837  3659  1220  -776  -1856  -2010  -1656  -1314  -1262  -1403  -1516  -1534  -1489  -1395  -1263  -1123  -1009  -935  -894  -859  -808  -744  -675  -623  -622  -685  -799  -928  -1047  -1162  -1297  -1449  -1576  -1628  -1601  -1532  -1454  -1386  -1339  -1308  -1277  -1243  -1197  -1113  -963  -737  -463  -193  49  249  382  497  718  1082  1454  1679  1747  1753  1755  1739  1677  1581  1497  1451  1439  1436  1419  1354  1206  953  603  223  -91  -310  -484  -649  -796  -905  -980  -1022  -991  -863  -683  -522  -408  -329  -256  -165  -50  57  127  172  238  330  398  397  321  208  116  67  40  7  -65  -220  -497  -882  -1294  -1650  -1896  -2014  -2043  -2048  -2071  -2138  -2284  -2549  -2921  -3312  -3614  -3778  -3852  -3957  -4173  -4444  -4632  -4692  -4706  -4758  -4863  -5000  -5185  -5420  -5645  -5810  -5918  -5978  -5991  -5962  -5899  -5797  -5647  -5438  -5197  -4970  -4798  -4693  -4610  -4473  -4242  -3964  -3722  -3537  -3344  -3091  -2825  -2624  -2483  -2346  -2184  -1998  -1801  -1635  -1542  -1519  -1528  -1514  -1440  -1317  -1194  -1110  -1059  -998  -865  -638  -389  -216  -129  -56  46  165  310  498  697  848  915  904  854  820  835  886  948  1011  1058  1079  1054  941  727  485  324  274  284  300  307  308  308  298  263  183  77  0  0  85  222  360  472  515  410  184  79  472  1682  3699  6063  8133  9338  9287  7982  5863  3521  1519  346  154  558  1013  1303  1477  1583  1647  1714  1814  1945  2076  2162  2184  2175  2183  2221  2289  2403  2565  2745  2887  2957  2969  2947  2920  2903  2900  2909  2926  2945  2960  2968  2969  2962  2953  2947  2953  2979  3015  3041  3042  3019  2985  2961  2963  2994  3042  3095  3157  3231  3307  3389  3511  3709  3942  4102  4121  4008  3833  3692  3631  3628  3635  3617  3551  3445  3331  3225  3109  2962  2795  2640  2512  2382  2188  1901  1573  1287  1061  840  580  283  -66  -486  -913  -1263  -1531  -1739  -1877  -1932  -1921  -1865  -1782  -1699  -1654  -1687  -1821  -2013  -2185  -2306  -2407  -2505  -2577  -2615  -2659  -2750  -2878  -3004  -3116  -3218  -3302  -3362  -3401  -3396  -3299  -3080  -2763  -2417  -2122  -1938  -1870  -1874  -1905  -1937  -1961  -1987  -2030  -2089  -2149  -2200  -2237  -2261  -2274  -2257  -2177  -2025  -1819  -1579  -1342  -1162  -1051  -968  -911  -925  -1009  -1095  -1137  -1155  -1205  -1348  -1580  -1803  -1921  -1938  -1931  -1981  -2130  -2344  -2511  -2550  -2496  -2422  -2338  -2222  -2095  -2008  -1985  -2001  -2027  -2049  -2064  -2076  -2085  -2076  -2032  -1954  -1854  -1727  -1547  -1316  -1053  -789  -578  -468  -436  -394  -267  -79  77  153  179  193  201  171  62  -112  -274  -366  -392  -371  -333  -318  -326  -334  -342  -314  -201  -44  64  94  82  66  71  116  212  337  408  306  -22  -431  -534  77  1553  3704  6013  7785  8481  7915  6203  3735  1192  -716  -1656  -1736  -1332  -914  -761  -807  -856  -776  -524  -179  99  253  357  478  600  699  790  888  981  1068  1177  1317  1435  1476  1483  1528  1586  1614  1619  1627  1657  1725  1814  1879  1895  1865  1814  1766  1723  1675  1631  1618  1649  1704  1758  1825  1974  2237  2536  2764  2894  2966  3038  3147  3298  3456  3575  3631  3614  3525  3380  3207  3022  2845  2712  2638  2597  2546  2451  2292  2067  1795  1482  1128  755  418  187  89  78  91  100  111  141  183  204  197  214  295  388  433  436  436  445  458  472  481  467  408  318  238  198  191  206  254  348  455  504  456  355  278  251  245  213  128  -3  -154  -299  -411  -476  -524  -599  -702  -801  -873  -931  -1014  -1135  -1255  -1335  -1393  -1472  -1571  -1644  -1670  -1668  -1659  -1646  -1631  -1629  -1645  -1661  -1665  -1682  -1753  -1883  -2035  -2165  -2251  -2296  -2317  -2333  -2343  -2346  -2344  -2347  -2360  -2385  -2435  -2530  -2662  -2787  -2885  -2973  -3068  -3160  -3233  -3300  -3388  -3491  -3569  -3600  -3576  -3487  -3337  -3150  -2934  -2689  -2426  -2147  -1848  -1530  -1214  -939  -743  -638  -594  -562  -513  -450  -382  -304  -234  -224  -316  -518  -794  -1045  -1183  -1213  -1200  -1188  -1175  -1142  -1085  -1021  -975  -959  -959  -959  -963  -979  -919  -670  -120  962  2742  4936  6892  7945  7654  5976  3378  680  -1356  -2361  -2436  -2003  -1476  -1048  -763  -659  -720  -889  -1130  -1404  -1634  -1759  -1790  -1780  -1746  -1650  -1445  -1170  -933  -775  -641  -473  -271  -66  121  293  448  574  703  904  1185  1450  1609  1660  1674  1727  1863  2091  2372  2634  2813  2900  2955  3057  3200  3309  3345  3336  3324  3335  3377  3431  3471  3512  3593  3711  3810  3856  3861  3830  3728  3511  3187  2801  2376  1912  1411  890  384  -74  -456  -728  -920  -1106  -1306  -1482  -1608  -1691  -1779  -1936  -2167  -2386  -2522  -2587  -2625  -2662  -2739  -2884  -3073  -3233  -3328  -3382  -3428  -3467  -3489  -3497  -3500  -3503  -3496  -3462  -3391  -3283  -3152  -3027  -2920  -2795  -2610  -2370  -2117  -1866  -1642  -1494  -1434  -1433  -1482  -1591  -1725  -1818  -1840  -1824  -1806  -1795  -1783  -1763  -1741  -1724  -1705  -1677  -1640  -1591  -1515  -1392  -1224  -1042  -867  -684  -470  -247  -69  41  110  167  235  345  523  739  910  981  948  830  676  566  545  600  702  822  933  1013  1053  1058  1039  1013  994  982  966  944  923  903  876  836  795  770  768  779  776  724  597  407  203  35  -70  -114  -102  -95  -223  -517  -743  -525  422  2172  4474  6722  8197  8397  7269  5206  2809  697  -636  -1054  -806  -253  284  554  516  364  271  248  238  203  137  56  -16  -65  -97  -133  -161  -163  -143  -122  -120  -139  -156  -158  -158  -188  -267  -367  -423  -409  -355  -289  -181  13  261  471  583  611  598  568  535  505  483  471  486  552  671  800  885  928  1001  1173  1423  1663  1849  1996  2122  2213  2260  2276  2282  2284  2265  2193  2039  1826  1633  1518  1459  1399  1315  1212  1085  942  814  717  645  577  475  339  220  156  146  171  207  225  185  52  -171  -426  -636  -772  -847  -867  -838  -786  -739  -702  -671  -651  -647  -654  -659  -642  -576  -432  -215  11  162  194  111  -64  -267  -402  -440  -430  -432  -474  -543  -612  -695  -833  -1019  -1188  -1284  -1309  -1290  -1244  -1174  -1079  -966  -833  -677  -532  -447  -432  -436  -379  -213  17  200  268  247  184  105  19  -58  -116  -146  -145  -128  -122  -134  -138  -90  23  146  192  146  74  40  56  103  151  175  179  178  180  185  183  151  83  6  -50  -96  -160  -254  -355  -414  -407  -377  -419  -627  -974  -1223  -982  63  1948  4322  6504  7733  7546  6018  3651  1094  -1070  -2476  -3058  -2979  -2506  -1949  -1629  -1683  -1962  -2232  -2372  -2343  -2152  -1865  -1592  -1395  -1261  -1150  -1051  -977  -914  -840  -762  -698  -636  -565  -489  -408  -312  -244  -290  -445  -597  -665  -663  -640  -627  -626  -620  -586  -516  -417  -295  -149  17  196  349  435  451  439  434  447  476  526  606  735  911  1087  1204  1260  1298  1343  1379  1372  1285  1111  876  601  312  59  -108  -190  -265  -431  -704  -1011  -1263  -1411  -1449  -1392  -1249  -1070  -939  -902  -963  -1129  -1388  -1663  -1851  -1911  -1835  -1608  -1294  -1034  -875  -744  -600  -485  -424  -396  -379  -368  -382  -453  -599  -789  -948  -1015  -1014  -998  -963  -887  -773  -637  -517  -452  -438  -431  -403  -360  -328  -316  -314  -306  -281  -241  -203  -191  -210  -259  -349  -468  -575  -641  -669  -677  -677  -673  -657  -624  -589  -566  -552  -534  -509  -487  -461  -419  -380  -385  -433  -468  -437  -323  -162  -21  62  94  104  121  180  324  564  826  1004  1070  1076  1068  1054  1021  960  874  750  529  173  -237  -555  -704  -742  -755  -788  -843  -900  -939  -952  -934  -889  -851  -908  -1127  -1351  -1159  -170  1645  3917  6006  7244  7216  5966  3925  1658  -259  -1383  -1626  -1290  -764  -311  -58  17  41  100  202  322  439  532  587  619  665  751  864  992  1140  1310  1497  1702  1910  2082  2213  2330  2452  2568  2656  2714  2769  2855  2973  3092  3180  3248  3313  3384  3467  3553  3612  3657  3736  3867  4019  4146  4220  4245  4239  4216  4188  4161  4137  4122  4118  4123  4121  4074  3953  3775  3594  3439  3276  3048  2763  2496  2284  2107  1917  1645  1258  806  345  -81  -418  -642  -795  -927  -1048  -1165  -1277  -1367  -1421  -1422  -1328  -1123  -878  -705  -650  -684  -766  -866  -963  -1050  -1128  -1187  -1220  -1227  -1224  -1221  -1222  -1226  -1222  -1185  -1095  -983  -909  -897  -917  -932  -911  -831  -702  -567  -466  -405  -374  -357  -346  -344  -380  -481  -611  -668  -597  -458  -382  -440  -590  -740  -839  -893  -935  -985  -1028  -1047  -1047  -1045  -1063  -1116  -1207  -1311  -1376  -1364  -1281  -1173  -1095  -1063  -1057  -1059  -1063  -1078  -1116  -1185  -1278  -1369  -1443  -1499  -1530  -1540  -1538  -1526  -1483  -1384  -1237  -1040  -740  -353  -8  205  319  390  445  453  385  277  167  7  -268  -624  -942  -1159  -1285  -1338  -1322  -1249  -1154  -1087  -1070  -1092  -1136  -1206  -1307  -1415  -1486  -1511  -1524  -1559  -1614  -1666  -1716  -1808  -1987  -2211  -2377  -2438  -2433  -2407  -2386  -2387  -2416  -2431  -2297  -1753  -566  1258  3472  5567  6801  6584  4869  2135  -801  -3082  -4209  -4305  -3933  -3632  -3641  -3939  -4347  -4673  -4831  -4836  -4748  -4638  -4562  -4528  -4491  -4384  -4184  -3958  -3776  -3595  -3320  -2942  -2571  -2317  -2186  -2106  -2011  -1900  -1820  -1793  -1798  -1811  -1821  -1817  -1762  -1622  -1417  -1224  -1090  -958  -730  -401  -74  162  298  373  460  627  891  1197  1476  1696  1874  2049  2237  2423  2588  2708  2767  2776  2763  2741  2701  2623  2511  2387  2263  2122  1953  1768  1566  1335  1067  775  515  366  345  401  476  524  528  498  454  422  414  432  478  540  600  655  702  730  739  751  784  822  832  807  777  769  792  846  924  1022  1129  1210  1220  1169  1114  1088  1086  1093  1101  1107  1094  1036  935  823  738  686  655]
