reading_id,reading_time,wire_id,result_classification,heart_rate,heart_rate_alert,firmware_version,device_app_version,hardware_version,waveform_samples
b5125dd0-d1bc-11ed-8080-808080808080,Mon Apr 03 01:13:14 UTC 2023,e12964476439,NSR,80,NONE,20001.188.58,2.13.0,Charge 5,[0  262  408  431  400  372  358  346  328  314  311  309  285  248  222  205  165  86  4  -33  -23  20  79  132  165  146  4  -286  -616  -819  -838  -719  -524  -331  -251  -353  -583  -810  -940  -972  -950  -913  -885  -875  -874  -878  -899  -961  -1095  -1292  -1476  -1555  -1508  -1395  -1268  -1125  -977  -891  -921  -1037  -1147  -1203  -1279  -1441  -1517  -1152  -180  1234  2798  4229  5242  5658  5411  4430  2766  743  -1070  -2060  -2056  -1462  -812  -445  -423  -568  -674  -658  -535  -371  -244  -165  -78  39  142  185  172  128  64  -15  -91  -136  -141  -111  -51  50  201  340  395  421  516  651  756  821  863  899  952  1032  1137  1256  1377  1482  1553  1589  1613  1656  1728  1813  1893  1957  1998  2020  2034  2042  2045  2048  2054  2058  2041  1992  1930  1893  1889  1881  1809  1629  1326  955  645  488  433  375  279  192  144  73  -98  -344  -564  -678  -670  -586  -497  -446  -433  -435  -426  -391  -352  -380  -527  -728  -869  -921  -938  -959  -975  -949  -851  -717  -620  -590  -595  -598  -582  -555  -533  -523  -516  -515  -543  -621  -723  -794  -827  -877  -975  -1069  -1079  -1011  -942  -925  -945  -962  -959  -954  -962  -965  -944  -930  -982  -1109  -1192  -1068  -765  -492  -370  -363  -427  -560  -725  -842  -874  -851  -834  -889  -1063  -1295  -1463  -1517  -1513  -1517  -1557  -1618  -1670  -1694  -1682  -1618  -1533  -1565  -1822  -2123  -2023  -1157  447  2356  4020  5048  5143  4174  2424  372  -1580  -3024  -3610  -3415  -2853  -2220  -1684  -1394  -1340  -1388  -1435  -1450  -1438  -1419  -1402  -1381  -1352  -1321  -1297  -1285  -1266  -1197  -1048  -866  -740  -698  -697  -700  -719  -786  -879  -900  -778  -579  -434  -391  -376  -300  -151  0  87  105  90  77  100  210  423  665  822  862  856  888  996  1158  1310  1413  1478  1532  1588  1644  1702  1772  1833  1853  1830  1795  1787  1792  1769  1707  1604  1448  1269  1097  911  706  552  510  568  663  738  778  784  740  634  501  386  294  235  261  394  578  722  788  798  792  792  793  771  701  600  515  466  420  333  198  71  16  56  158  272  358  401  417  420  400  324  186  41  -52  -83  -76  -58  -37  -10  33  83  118  128  124  119  122  129  107  16  -139  -277  -309  -250  -172  -111  -73  -60  -60  -50  -10  51  121  202  288  343  350  326  301  275  209  55  -161  -344  -413  -373  -290  -225  -193  -175  -173  -222  -343  -514  -721  -934  -1017  -765  15  1379  3177  5079  6540  6978  6146  4224  1739  -544  -1957  -2325  -2007  -1439  -885  -538  -461  -516  -557  -559  -550  -550  -565  -586  -599  -602  -600  -597  -595  -601  -630  -686  -757  -821  -858  -863  -854  -841  -808  -727  -602  -466  -337  -239  -212  -272  -365  -414  -395  -313  -154  68  283  429  494  495  462  422  387  359  342  364  472  684  945  1161  1269  1280  1244  1208  1183  1161  1140  1125  1112  1102  1092  1079  1061  1031  988  918  743  361  -152  -558  -727  -732  -686  -627  -558  -494  -466  -521  -659  -802  -880  -897  -877  -811  -670  -486  -347  -296  -300  -331  -386  -450  -499  -522  -526  -536  -579  -652  -732  -798  -841  -876  -926  -976  -963  -843  -687  -648  -749  -871  -931  -938  -927  -921  -937  -982  -1032  -1051  -1036  -1008  -974  -939  -910  -895  -913  -962  -1035  -1136  -1230  -1289  -1341  -1401  -1420  -1314  -1061  -755  -509  -357  -287  -275  -293  -323  -356  -388  -429  -492  -580  -694  -811  -893  -934  -960  -983  -998  -1006  -1010  -1031  -1099  -1214  -1325  -1333  -1156  -948  -997  -1202  -1104  -422  859  2615  4471  5891  6449  5847  4010  1378  -1177  -2849  -3277  -2704  -1785  -1054  -641  -467  -432  -453  -483  -500  -498  -498  -533  -597  -650  -671  -673  -673  -678  -684  -674  -621  -527  -432  -385  -390  -419  -447  -464  -467  -430  -327  -187  -87  -58  -68  -68  -22  71  182  282  372  465  556  625  669  708  756  829  936  1063  1191  1308  1405  1502  1610  1699  1739  1740  1719  1692  1664  1622  1561  1485  1381  1255  1155  1097  1040  928  737  475  176  -74  -198  -205  -178  -161  -153  -167  -205  -242  -263  -272  -275  -279  -294  -334  -394  -429  -406  -359  -333  -327  -320  -301  -269  -238  -223  -252  -351  -496  -611  -645  -594  -477  -338  -232  -179  -166  -187  -241  -322  -401  -443  -445  -432  -426  -427  -425  -414  -395  -377  -365  -357  -343  -305  -239  -188  -215  -311  -398  -432  -434  -431  -426  -397  -327  -237  -188  -217  -276  -271  -176  -43  73  146  175  182  194  209  186  87  -57  -173  -232  -270  -333  -417  -480  -498  -487  -472  -463  -444  -388  -275  -126  -22  -85  -370  -741  -889  -442  863  2931  5220  6977  7597  6844  4919  2422  112  -1399  -1893  -1606  -986  -460  -280  -379  -508  -532  -457  -330  -207  -113  -29  49  99  101  54  -22  -107  -185  -247  -289  -307  -275  -157  15  146  175  124  44  -9  -5  62  172  289  397  481  527  548  579  629  683  727  757  779  814  882  971  1073  1210  1381  1527  1606  1629  1629  1628  1645  1688  1741  1780  1797  1791  1738  1596  1370  1137  963  830  684  505  320  171  79  24  -26  -88  -160  -248  -358  -475  -581  -684  -790  -865  -886  -862  -820  -803  -822  -838  -827  -813  -828  -874  -922  -949  -961  -973  -986  -997  -999  -993  -979  -953  -911  -860  -808  -765  -733  -721  -750  -834  -941  -1024  -1090  -1152  -1172  -1112  -1010  -932  -902  -903  -928  -981  -1048  -1098  -1123  -1145  -1173  -1196  -1205  -1208  -1216  -1219  -1184  -1089  -980  -940  -986  -1064  -1140  -1208  -1260  -1300  -1336  -1362  -1361  -1323  -1265  -1221  -1211  -1221  -1216  -1159  -1043  -907  -812  -774  -770  -772  -765  -757  -770  -834  -951  -1072  -1143  -1161  -1165  -1186  -1227  -1278  -1341  -1410  -1460  -1473  -1454  -1410  -1332  -1194  -1061  -1129  -1473  -1888  -2015  -1437  47  2162  4335  5948  6554  6025  4507  2352  59  -1763  -2604  -2516  -2016  -1463  -1009  -783  -761  -818  -892  -964  -1013  -1042  -1066  -1082  -1047  -913  -705  -521  -432  -427  -458  -477  -420  -237  13  197  239  166  51  -34  -62  -54  -42  -40  -6  147  460  823  1089  1229  1297  1347  1413  1489  1553  1615  1689  1774  1865  1980  2146  2340  2513  2663  2801  2901  2947  2953  2943  2934  2929  2925  2923  2926  2927  2903  2815  2624  2341  2047  1797  1578  1375  1209  1107  1070  1075  1103  1132  1116  1008  831  669  568  508  460  418  392  382  374  359  342  328  317  307  287  227  127  32  -6  21  84  137  166  187  214  242  253  226  167  124  110  50  -115  -328  -465  -483  -434  -381  -340  -298  -256  -217  -169  -103  -34  7  6  -33  -93  -142  -167  -171  -157  -117  -58  -2  24  4  -62  -148  -202  -206  -194  -216  -302  -425  -520  -562  -580  -596  -606  -609  -619  -653  -695  -675  -532  -314  -157  -128  -174  -228  -269  -294  -302  -281  -215  -120  -44  -35  -129  -330  -575  -765  -855  -874  -870  -870  -873  -869  -858  -854  -880  -965  -1128  -1364  -1634  -1872  -1976  -1829  -1298  -255  1288  3073  4772  6080  6565  5871  4091  1666  -812  -2583  -3071  -2497  -1624  -974  -671  -669  -807  -926  -997  -1041  -1053  -1025  -970  -934  -946  -978  -985  -976  -997  -1062  -1099  -1047  -955  -900  -889  -894  -897  -901  -924  -977  -1036  -1046  -968  -799  -577  -380  -255  -188  -155  -143  -147  -160  -166  -134  -34  113  267  434  629  794  879  925  976  1020  1057  1102  1141  1158  1168  1211  1325  1471  1550  1511  1398  1253  1046  768  508  334  210  92  2  -39  -87  -221  -439  -632  -709  -671  -583  -507  -462  -435  -422  -439  -495  -562  -594  -590  -579  -572  -560  -530  -491  -475  -504  -568  -638  -680  -656  -537  -362  -224  -175  -191  -219  -231  -227  -217  -205  -195  -215  -305  -460  -594  -616  -541  -453  -395  -360  -335  -311  -294  -309  -377  -475  -536  -531  -493  -468  -465  -470  -474  -468  -447  -414  -383  -350  -308  -280  -290  -333  -390  -450  -491  -492  -438  -335  -224  -150  -123  -132  -159  -184  -197  -195  -184  -178  -211  -309  -436  -500  -450  -336  -244  -198  -176  -170  -186  -210  -223  -222  -213  -206  -203  -189  -149  -92  -49  -30  -20  5  56  113  149  158  153  142  133  132  139  129  57  -89  -258  -371  -410  -410  -409  -419  -436  -471  -548  -661  -758  -771  -687  -588  -470  -54  978  2650  4681  6543  7597  7377  5849  3471  960  -999  -1934  -1838  -1192  -533  -133  -16  -64  -140  -195  -238  -283  -325  -344  -329  -302  -277  -226  -117  32  141  133  38  -85  -235  -378  -440  -364  -127  180  400  473  456  418  385  345  274  189  160  242  406  580  729  845  910  926  939  992  1084  1185  1278  1381  1521  1674  1783  1831  1850  1863  1875  1891  1905  1916  1932  1965  2016  2064  2058  1958  1747  1441  1119  873  732  640  513  313  83  -94  -178  -189  -174  -165  -174  -201  -239  -289  -374  -497  -615  -691  -734  -770  -807  -821  -821  -856  -935  -1012  -1070  -1118  -1151  -1158  -1132  -1070  -999  -962  -986  -1064  -1178  -1302  -1400  -1441  -1435  -1412  -1378  -1320  -1245  -1166  -1073  -972  -904  -895  -926  -980  -1055  -1155  -1269  -1367  -1444  -1523  -1621  -1714  -1737  -1638  -1449  -1289  -1250  -1305  -1371  -1411  -1437  -1460  -1468  -1456  -1455  -1489  -1537  -1560  -1541  -1479  -1373  -1257  -1181  -1158  -1151  -1125  -1082  -1048  -1036  -1035  -1032  -1024  -1011  -987  -932  -839  -728  -619  -524  -452  -402  -366  -341  -334  -347  -360  -344  -287  -203  -122  -73  -61  -76  -104  -120  -91  -6  113  220  283  306  303  276  245  262  386  599  785  860  831  729  581  402  222  100  56  55  59  60  61  66  75  78  42  -66  -256  -481  -687  -831  -794  -425  320  1462  2973  4645  6170  7105  6890  5273  2681  30  -1790  -2369  -1962  -1264  -831  -746  -805  -845  -807  -669  -475  -320  -260  -287  -379  -494  -573  -593  -575  -549  -532  -525  -524  -521  -500  -445  -372  -318  -294  -282  -275  -274  -282  -294  -299  -278  -204  -71  76  186  242  260  265  277  325  434  596  775  929  1029  1071  1096  1140  1194  1240  1326  1531  1825  2084  2249  2352  2419  2410  2293  2134  2019  1943  1849  1730  1605  1458  1261  1047  878  757  649  554  503  489  469  414  334  261  250  320  370  295  138  0  -66  -68  -44  -3  76  191  321  442  529  568  556  503  434  386  367  356  340  350  437  589  712  718  591  404  288  322  447  520  433  202  -47  -197  -244  -257  -265  -261  -237  -199  -145  -77  -22  -23  -83  -155  -213  -272  -355  -455  -544  -606  -643  -653  -603  -456  -254  -121  -159  -361  -596  -715  -705  -640  -578  -556  -554  -512  -424  -335  -282  -260  -247  -235  -252  -330  -467  -632  -783  -885  -917  -903  -888  -892  -894  -872  -852  -876  -928  -954  -937  -887  -803  -709  -637  -578  -501  -411  -337  -279  -224  -191  -224  -347  -509  -617  -651  -696  -835  -1036  -1187  -1237  -1232  -1227  -1241  -1253  -1229  -1172  -1133  -1175  -1289  -1362  -1333  -1224  -883  -49  1288  2952  4731  6240  6968  6595  5138  2911  509  -1337  -2190  -2141  -1617  -1078  -788  -752  -841  -941  -1000  -1025  -1030  -1041  -1084  -1117  -1089  -1035  -1000  -956  -855  -714  -601  -559  -603  -745  -948  -1119  -1199  -1184  -1070  -868  -647  -484  -400  -373  -373  -365  -329  -274  -217  -150  -71  -14  0  -3  13  83  211  358  481  580  687  813  930  1011  1056  1074  1079  1083  1096  1133  1193  1230  1215  1188  1191  1199  1125  893  537  203  5  -60  -62  -57  -63  -83  -112  -137  -141  -131  -138  -194  -285  -354  -375  -370  -370  -381  -389  -357  -263  -136  -49  -37  -76  -146  -245  -349  -426  -469  -496  -505  -458  -319  -125  28  100  106  68  0  -69  -116  -135  -139  -135  -93  23  191  330  391  395  375  343  291  223  153  76  1  -34  -3  72  141  183  212  228  236  261  301  334  360  390  432  494  546  508  326  69  -113  -140  -53  45  100  124  143  157  166  168  140  60  -47  -132  -181  -223  -266  -294  -300  -287  -264  -224  -154  -70  -19  -35  -117  -227  -311  -357  -390  -421  -429  -388  -313  -245  -192  -124  -14  126  245  304  317  322  324  281  145  -57  -232  -323  -351  -385  -480  -625  -745  -779  -746  -699  -651  -591  -536  -528  -583  -648  -695  -838  -1174  -1470  -1207  14  2079  4447  6535  7820  7897  6721  4557  1893  -540  -2069  -2472  -2026  -1293  -779  -617  -615  -614  -627  -695  -801  -894  -938  -941  -936  -941  -960  -958  -882  -727  -573  -495  -507  -586  -687  -759  -786  -792  -781  -726  -588  -363  -117  44  98  114  155  218  267  279  256  215  184  191  259  404  608  810  961  1068  1183  1350  1549  1720  1839  1909  1926  1897  1853  1828  1821  1804  1772  1724  1649  1547  1439  1346  1230  1023  737  473  312  247  198  83  -103  -282  -380  -405  -398  -384  -375  -394  -460  -561  -658  -731  -787  -828  -848  -855  -862  -871  -877  -880  -879  -874  -872  -890  -944  -1020  -1076  -1082  -1046  -998  -969  -957  -927  -857  -778  -735  -744  -798  -854  -870  -848  -801  -725  -617  -505  -428  -399  -406  -436  -473  -498  -509  -509  -491  -441  -377  -331  -311  -293  -267  -267  -326  -420  -495  -528  -527  -496  -441  -376  -321  -280  -237  -193  -170  -171  -183  -186  -182  -180  -181  -198  -259  -382  -559  -738  -871  -961  -1020  -1051  -1071  -1085  -1064  -990  -914  -918  -1004  -1084  -1103  -1104  -1148  -1216  -1264  -1275  -1243  -1174  -1095  -1019  -949  -902  -898  -929  -973  -1006  -1023  -1037  -1039  -997  -885  -734  -597  -481  -373  -291  -272  -339  -496  -706  -885  -977  -1006  -1036  -1098  -1173  -1209  -1177  -1100  -1022  -968  -945  -949  -961  -943  -888  -883  -1008  -1131  -916  4  1745  3966  6091  7620  8168  7534  5771  3235  664  -1114  -1731  -1395  -617  53  293  173  -27  -150  -205  -206  -143  -44  34  54  10  -64  -118  -135  -129  -123  -132  -163  -196  -185  -112  -33  -12  -40  -67  -82  -98  -100  -30  161  414  596  656  642  608  581  605  720  897  1044  1113  1127  1140  1186  1258  1328  1406  1522  1675  1832  1965  2060  2126  2165  2158  2111  2064  2043  2042  2048  2049  2030  1985  1923  1850  1746  1563  1271  936  671  509  407  365  409  527  692  840  867  731  480  206  10  -51  -5  83  165  236  322  448  590  671  642  536  432  373  338  309  295  295  297  297  293  291  307  357  425  479  499  488  440  351  254  193  179  183  175  143  99  69  69  93  126  153  172  183  178  144  81  6  -39  -34  -9  -11  -62  -140  -202  -228  -231  -226  -220  -212  -200  -201  -250  -371  -530  -657  -727  -770  -802  -759  -571  -299  -98  -26  -21  -27  -65  -197  -428  -664  -795  -755  -534  -216  39  136  49  -222  -582  -838  -888  -766  -573  -414  -339  -327  -333  -335  -331  -330  -328  -310  -258  -189  -146  -160  -238  -356  -464  -528  -564  -600  -636  -657  -663  -665  -665  -667  -693  -769  -892  -1030  -1166  -1324  -1460  -1445  -1170  -506  715  2460  4427  6228  7385  7388  6039  3626  830  -1474  -2672  -2742  -2103  -1313  -778  -618  -759  -1015  -1200  -1272  -1279  -1254  -1209  -1172  -1173  -1214  -1258  -1251  -1146  -944  -728  -602  -592  -664  -761  -832  -866  -892  -942  -1018  -1080  -1075  -945  -676  -361  -144  -65  -69  -97  -116  -119  -113  -109  -110  -119  -128  -112  -42  72  186  270  346  460  647  871  1040  1114  1129  1125  1121  1124  1137  1150  1128  1023  822  566  278  -47  -360  -572  -663  -678  -680  -740  -923  -1237  -1591  -1844  -1936  -1912  -1829  -1734  -1669  -1648  -1659  -1702  -1785  -1890  -1974  -2005  -1947  -1799  -1679  -1715  -1850  -1937  -1902  -1744  -1534  -1381  -1316  -1283  -1242  -1192  -1135  -1078  -1041  -1023  -1000  -953  -889  -832  -781  -711  -626  -563  -541  -542  -548  -559  -579  -589  -520  -310  -19  190  215  76  -121  -263  -311  -298  -251  -179  -92  -2  76  124  138  139  137  124  81  15  -46  -85  -99  -92  -58  9  97  181  264  357  442  497  514  510  515  539  574  627  689  728  720  666  602  550  475  341  184  45  -78  -171  -207  -206  -204  -215  -234  -261  -291  -289  -194  -37  -12  -198  -344  -161  494  1726  3399  5042  6166  6380  5413  3412  1017  -1044  -2241  -2400  -1857  -1177  -740  -592  -539  -441  -328  -247  -204  -166  -95  0  77  111  121  123  119  102  64  8  -45  -69  -21  137  380  615  773  835  826  793  772  779  828  916  1007  1044  1001  914  859  898  1053  1304  1586  1815  1948  2015  2062  2096  2128  2180  2245  2285  2282  2270  2329  2521  2790  2986  3013  2894  2720  2568  2435  2285  2110  1908  1673  1427  1182  916  632  370  171  58  17  -12  -76  -185  -324  -460  -561  -623  -655  -667  -670  -683  -719  -768  -799  -792  -755  -727  -737  -774  -838  -948  -1076  -1149  -1140  -1093  -1045  -998  -960  -948  -962  -986  -1002  -999  -970  -922  -869  -820  -761  -678  -580  -504  -463  -454  -500  -639  -843  -1018  -1098  -1095  -1054  -1014  -1002  -1019  -1055  -1103  -1143  -1162  -1160  -1151  -1167  -1232  -1333  -1424  -1473  -1482  -1477  -1468  -1456  -1448  -1473  -1559  -1693  -1822  -1911  -1960  -1953  -1868  -1731  -1613  -1557  -1547  -1544  -1535  -1531  -1551  -1591  -1630  -1665  -1711  -1756  -1776  -1775  -1778  -1801  -1838  -1864  -1840  -1747  -1622  -1532  -1495  -1465  -1402  -1305  -1214  -1148  -1008  -707  -391  -214  44  832  2313  4202  6060  7422  7781  7009  5427  3396  1347  -124  -678  -448  227  931  1212  976  593  399  419  550  695  786  812  803  783  756  730  734  787  865  917  916  869  810  768  748  743  761  823  927  1026  1068  1043  984  928  890  871  873  902  961  1033  1083  1081  1039  1028  1099  1210  1276  1281  1262  1252  1253  1254  1242  1209  1168  1154  1162  1152  1110  1065  1023  940  766  507  232  -15  -260  -531  -794  -998  -1158  -1328  -1520  -1693  -1805  -1861  -1895  -1938  -1992  -2038  -2068  -2086  -2106  -2160  -2251  -2328  -2326  -2222  -2056  -1904  -1808  -1769  -1764  -1767  -1761  -1721  -1627  -1505  -1416  -1390  -1405  -1421  -1393  -1286  -1123  -976  -884  -827  -762  -665  -540  -408  -280  -170  -108  -100  -113  -95  4  183  355  416  327  153  30  34  128  258  389  472  461  347  183  70  90  257  492  665  724  694  600  453  296  199  209  341  549  739  857  937  1015  1078  1088  1007  813  544  279  75  -64  -160  -217  -244  -261  -272  -271  -249  -209  -160  -122  -151  -316  -597  -821  -726  -86  1154  2893  4897  6747  7967  8128  6912  4572  1939  -186  -1285  -1283  -669  -60  209  161  17  -79  -149  -230  -312  -350  -329  -297  -287  -263  -214  -185  -192  -207  -215  -216  -207  -185  -154  -130  -115  -102  -95  -118  -190  -289  -372  -428  -474  -507  -490  -382  -182  47  251  426  597  752  853  902  956  1066  1209  1317  1371  1400  1420  1430  1426  1416  1424  1495  1645  1782  1769  1598  1388  1213  1086  1019  1003  950  770  498  256  64  -153  -405  -618  -758  -848  -907  -945  -977  -984  -933  -829  -720  -642  -603  -592  -595  -606  -637  -690  -739  -759  -759  -753  -749  -752  -763  -780  -789  -768  -705  -625  -560  -513  -488  -496  -540  -584  -593  -574  -555  -542  -534  -533  -546  -573  -607  -649  -701  -744  -745  -690  -611  -554  -533  -533  -527  -494  -432  -354  -281  -243  -292  -461  -691  -859  -905  -865  -795  -730  -684  -660  -653  -652  -652  -652  -661  -680  -690  -638  -487  -301  -198  -201  -257  -330  -402  -462  -536  -664  -826  -943  -982  -977  -965  -960  -962  -967  -968  -950  -881  -775  -740  -860  -1081  -1237  -1132  -589  567  2347  4404  6219  7229  6907  5171  2555  -92  -1959  -2643  -2346  -1644  -1073  -812  -722  -674  -653  -660  -676  -676  -628  -518  -380  -284  -254  -268  -301  -334  -342  -317  -286  -298  -358  -404  -387  -346  -325  -313  -278  -221  -162  -116  -94  -94  -79  -20  77  197  310  380  398  387  371  375  435  565  740  956  1246  1565  1779  1847  1866  1935  2050  2141  2150  2074  1960  1869  1831  1832  1837  1801  1690  1534  1392  1262  1093  866  608  351  119  -53  -141  -158  -147  -137  -132  -129  -132  -152  -198  -265  -333  -385  -416  -429  -414  -366  -300  -251  -232  -237  -265  -321  -391  -448  -487  -519  -543  -554  -555  -553  -551  -553  -558  -567  -578  -586  -591  -591  -581  -555  -520  -494  -491  -517  -564  -613  -633  -610  -576  -577  -632  -732  -817  -822  -762  -688  -621  -574  -557  -593  -699  -841  -945  -973  -944  -889  -821  -747  -674  -621  -594  -557  -456  -294  -128  -13  28  -1  -78  -166  -236  -287  -373  -532  -691  -776  -848  -969  -1081  -1133  -1152  -1165  -1129  -951  -648  -465  -645  -1128  -1578  -1563  -807  627  2458  4302  5663  6047  5205  3332  997  -1153  -2568  -2954  -2531  -1852  -1289  -929  -767  -741  -761  -775  -766  -745  -727  -711  -683  -644  -611  -594  -586  -584  -583  -554  -477  -383  -331  -330  -342  -341  -335  -340  -340  -299  -226  -170  -147  -117  -34  103  261  406  501  541  573  621  660  669  668  709  845  1045  1216  1294  1306  1314  1357  1441  1555  1672  1757  1787  1752  1660  1560  1474  1387  1300  1202  1064  918  794  651  449  213  -1  -160  -278  -427  -658  -902  -1001  -891  -663  -475  -445  -546  -656  -718  -770  -838  -902  -931  -899  -782  -613  -456  -327  -216  -143  -119  -122  -128  -136  -150  -173  -213  -292  -410  -525  -573  -521  -391  -246  -149  -119  -139  -188  -247  -306  -358  -389  -375  -322  -272  -247  -233  -202  -159  -135  -147  -156  -124  -62  -3  43  70  74  61  48  43  48  67  106  156  197  222  235  250  264  236  151  51  -27  -94  -159  -212  -244  -235  -150  -14  51  -37  -213  -326  -297  -174  -28  101  147  20  -187  -135  526  1879  3676  5501  6888  7404  6842  5316  3175  966  -633  -1228  -961  -256  435  764  684  404  126  -61  -131  -92  -1  81  124  134  132  130  119  87  38  -10  -58  -115  -182  -245  -295  -313  -289  -237  -179  -132  -110  -109  -107  -94  -64  -19  23  41  17  -48  -128  -187  -199  -148  -16  185  393  555  684  802  886  921  921  888  805  692  600  566  603  720  882  992  940  674  295  -10  -174  -268  -333  -349  -346  -423  -630  -884  -1034  -1036  -994  -1013  -1096  -1193  -1267  -1303  -1309  -1300  -1285  -1263  -1211  -1122  -1031  -964  -907  -859  -848  -887  -959  -1034  -1089  -1116  -1103  -1021  -852  -647  -507  -491  -594  -765  -934  -1039  -1059  -1040  -1040  -1052  -1047  -1022  -994  -983  -980  -963  -926  -888  -872  -882  -904  -915  -891  -816  -717  -648  -631  -640  -634  -609  -604  -630  -652  -643  -588  -497  -390  -287  -212  -185  -205  -250  -310  -413  -570  -731  -830  -857  -829  -776  -748  -776  -831  -870  -882  -876  -864  -865  -892  -958  -1094  -1149  -696  529  2310  4201  5781  6622  6377  5014  2857  525  -1246  -1990  -1790  -1205  -836  -844  -981  -1018  -915  -753  -625  -562  -535  -525  -526  -543  -562  -545  -513  -538  -619  -686  -686  -618  -517  -422  -353  -311  -286  -269  -258  -232  -159  -37  97  204  268  307  367  472  602  726  855  993  1109  1186  1230  1249  1250  1253  1279  1340  1431  1543  1644  1685  1653  1605  1602  1662  1783  1931  2040  2051  1906  1594  1217  923  764  698  662  606  503  361  217  102  22  -40  -92  -104  -81  -97  -159  -168  -93  -15  3  -24  -57  -72  -84  -115  -160  -197  -212  -210  -197  -184  -170  -121  0  166  289  311  247  150  80  56  55  51  47  74  139  211  268  322  369  392  395  393  381  350  296  209  62  -122  -267  -324  -311  -257  -171  -74  -10  -5  -45  -84  -93  -91  -108  -124  -103  -66  -72  -172  -360  -562  -688  -708  -656  -585  -538  -527  -536  -551  -570  -600  -642  -682  -712  -704  -652  -635  -664  -590  -308  260  1269  2698  4244  5462  5795  4864  2873  459  -1645  -2810  -2814  -2058  -1213  -677  -485  -521  -623  -685  -704  -712  -717  -694  -613  -499  -433  -479  -635  -832  -968  -984  -885  -715  -534  -393  -319  -307  -322  -327  -290  -199  -89  -18  -3  -19  -35  -36  -31  -28  -28  -24  0  63  178  325  455  533  564  572  603  716  922  1147  1296  1347  1343  1324  1299  1265  1216  1153  1101  1064  1005  898  760  619  490  369  235  42  -231  -504  -661  -688  -654  -616  -602  -659  -832  -1070  -1242  -1264  -1151  -983  -849  -790  -801  -872  -985  -1087  -1123  -1093  -1045  -999  -927  -804  -668  -581  -554  -556  -559  -555  -551  -577  -653  -756  -822  -820  -781  -748  -730  -712  -678  -625  -579  -571  -573  -554  -559  -619  -684  -707  -694  -675  -668  -673  -679  -685  -689  -677  -631  -556  -474  -397  -330  -286  -270  -275  -275  -250  -210  -201  -255  -358  -462  -555  -637  -662  -595  -489  -417  -385  -379  -412  -513  -679  -849  -936  -928  -949  -1083  -1189  -1005  -345  839  2459  4253  5853  6850  6875  5797  3813  1422  -669  -1894  -2127  -1665  -1004  -551  -410  -457  -544  -609  -637  -623  -564  -482  -416  -387  -385  -396  -405  -408  -409  -414  -419  -406  -359  -290  -235  -200  -164  -115  -57  11  74  107  112  124  123  31  -145  -310  -405  -439  -407  -269  13  399  742  929  972  959  950  955  962  962  952  934  911  895  895  908  924  937  944  927  858  734  576  416  295  236  219  193  111  -32  -218  -409  -564  -677  -792  -918  -1006  -1009  -925  -809  -721  -677  -680  -738  -829  -903  -898  -781  -616  -503  -471  -479  -490  -493  -491  -486  -482  -480  -475  -460  -436  -404  -358  -301  -257  -240  -251  -285  -331  -365  -379  -380  -379  -379  -369  -338  -295  -260  -240  -229  -223  -217  -211  -207  -204  -181  -103  25  155  240  274  281  282  289  294  279  217  108  -12  -110  -181  -241  -296  -332  -342  -339  -338  -341  -344  -346  -359  -396  -442  -471  -525  -695  -976  -1176  -1018  -294  1073  3005  5168  7017  7963  7491  5487  2557  -224  -1944  -2355  -1889  -1171  -651  -484  -543  -633  -677  -691  -691  -683  -686  -724  -777  -763  -606  -382  -264  -299  -380  -425  -434  -429  -414  -373  -309  -237  -168  -113  -82  -94  -170  -275  -330  -296  -177  -11  138  226  260  267  259  242  238  286  417  624  842  984  1026  1019  1007  1001  1007  1059  1183  1337  1467  1557  1577  1496  1362  1261  1198  1110  977  843  730  598  422  239  92  -23  -134  -238  -303  -318  -295  -267  -265  -291  -320  -346  -386  -430  -433  -364  -263  -211  -236  -282  -295  -283  -275  -270  -257  -238  -231  -246  -281  -310  -325  -352  -394  -428  -449  -476  -512  -540  -551  -552  -550  -537  -510  -487  -504  -565  -633  -673  -680  -666  -626  -552  -461  -399  -378  -371  -346  -307  -268  -225  -160  -89  -43  -30  -33  -38  -40  -39  -36  -34  -48  -111  -245  -422  -574  -661  -691  -692  -687  -675  -650  -632  -669  -770  -863  -890  -905  -1016  -1224  -1308  -951  -37  1330  3030  4913  6588  7474  7086  5297  2541  -217  -2020  -2497  -1974  -1191  -746  -650  -637  -613  -606  -627  -665  -705  -747  -785  -798  -760  -658  -521  -415  -384  -422  -495  -541  -521  -467  -420  -375  -325  -270  -216  -183  -168  -147  -128  -131  -151  -160  -119  -20  113  267  409  494  525  553  616  696  749  772  800  868  982  1122  1238  1286  1272  1249  1258  1290  1325  1354  1377  1391  1368  1264  1075  864  686  546  419  279  127  -14  -151  -315  -507  -692  -818  -847  -785  -660  -502  -382  -358  -422  -516  -586  -636  -703  -786  -825  -773  -653  -536  -473  -459  -469  -496  -545  -608  -656  -656  -613  -566  -537  -519  -510  -516  -547  -597  -650  -690  -716  -736  -760  -777  -738  -618  -483  -429  -457  -506  -537  -551  -557  -565  -574  -576  -568  -555  -546  -543  -545  -551  -560  -574  -602  -644  -678  -657  -544  -375  -231  -139  -82  -63  -95  -167  -252  -331  -399  -452  -484  -499  -507  -522  -555  -610  -676  -743  -794  -821  -832  -848  -874  -899  -900  -879  -906  -1063  -1270  -1294  -916  62  1749  3939  6086  7523  7738  6545  4179  1357  -990  -2251  -2397  -1855  -1162  -684  -512  -526  -578  -602  -599  -588  -581  -577  -544  -447  -314  -236  -275  -386  -479  -515  -515  -511  -513  -510  -476  -398  -279  -133  -6  62  87  86  52  18  16  45  102  196  311  408  467  505  557  641  747  849  931  1004  1075  1129  1171  1255  1413  1592  1707  1742  1731  1702  1653  1579  1483  1382  1299  1228  1156  1077  980  863  747  623  432  179  -43  -179  -247  -279  -299  -348  -465  -628  -769  -843  -850  -808  -755  -737  -762  -786  -771  -732  -696  -666  -636  -608  -571  -503  -398  -281  -180  -122  -127  -214  -370  -531  -634  -672  -674  -656  -631  -623  -654  -699  -717  -706  -707  -747  -816  -877  -906  -908  -899  -891  -889  -879  -844  -775  -699  -654  -648  -655  -639  -573  -463  -347  -253  -195  -165  -142  -104  -66  -63  -98  -131  -139  -158  -235  -356  -455  -518  -595  -701  -796  -853  -881  -887  -845  -719  -538  -399  -398  -575  -858  -1122  -1287  -1181  -509  862  2782  4877  6598  7377  6854  5027  2390  -223  -2075  -2765  -2384  -1508  -740  -333  -248  -315  -386  -436  -486  -534  -561  -557  -519  -456  -376  -275  -169  -99  -85  -112  -154  -201  -262  -333  -382  -400  -404  -384  -274  -37  245  439  481  414  318  255  234  235  258  314  396  477  543  616  718  834  938  1046  1223  1495  1786  1976  2040  2033  1974  1843  1666  1533  1481  1473  1469  1452  1416  1346  1212  1012  809  660  556  466  370  230  6  -258  -453  -537  -554  -544  -520  -493  -496  -548  -625  -680  -697  -696  -693  -671  -607  -517  -450  -427  -430  -439  -467  -536  -629  -694  -709  -687  -643  -594  -563  -554  -546  -520  -481  -452  -440  -439  -441  -444  -442  -430  -420  -432  -476  -535  -578  -601  -624  -651  -664  -655  -633  -607  -593  -604  -641  -695  -738  -738  -694  -642  -606  -577  -528  -454  -388  -364  -372  -381  -391  -437  -544  -642  -617  -468  -302  -187  -112  -61  -60  -119  -172  -149  -69  2  37  42  9  -90  -243  -389  -495  -564  -582  -536  -474  -458  -494  -550  -601  -647  -707  -781  -820  -771  -701  -673  -445  373  1923  4013  6174  7745  8138  7153  5076  2518  174  -1345  -1799  -1505  -1013  -659  -558  -679  -854  -946  -941  -854  -705  -558  -479  -467  -481  -494  -499  -499  -500  -507  -522  -526  -506  -474  -452  -440  -425  -392  -345  -294  -231  -132  5  141  221  242  236  231  231  233  236  261  342  476  642  837  1033  1164  1206  1203  1194  1191  1201  1237  1304  1396  1511  1635  1732  1756  1709  1624  1504  1321  1098  911  779  642  480  329  198  51  -118  -288  -433  -540  -615  -667  -691  -685  -673  -698  -762  -820  -824  -764  -675  -598  -539  -490  -468  -499  -589  -712  -830  -912  -951  -966  -966  -921  -792  -611  -488  -492  -587  -709  -808  -851  -841  -795  -728  -655  -587  -529  -497  -504  -541  -588  -619  -614  -590  -573  -564  -548  -516  -498  -520  -553  -561  -554  -564  -608  -649  -644  -602  -555  -511  -453  -387  -365  -434  -566  -682  -735  -737  -714  -695  -713  -776  -847  -874  -820  -678  -471  -265  -147  -148  -217  -291  -340  -362  -367  -368  -367  -350  -306  -248  -190  -98  68  276  433  486  446  306  45  -262  -482  -572  -588  -586  -579  -565  -571  -631  -714  -762  -760  -751  -804  -936  -1074  -1215  -1373  -1258  -470  1087  3268  5744  7911  9064  8696  6750  3807  850  -1266  -2092  -1812  -1200  -874  -841  -879  -886  -859  -811  -738  -650  -570  -500  -432  -380  -355  -351  -355  -367  -390  -407  -410  -411  -413  -403  -384  -372  -368  -356  -303  -202  -95  -29  -12  -21  -36  -55  -72  -73  -28  77  215  320  380  445  550  668  741  762  799  920  1117  1325  1506  1644  1721  1745  1745  1727  1677  1588  1481  1408  1402  1418  1361  1183  921  652  424  247  106  -23  -151  -257  -311  -328  -366  -442  -515  -552  -557  -555  -586  -682  -815  -902  -885  -784  -679  -632  -628  -639  -657  -673  -684  -702  -739  -790  -831  -849  -856  -865  -880  -888  -884  -874  -867  -855  -819  -751  -661  -582  -551  -581  -639  -673  -664  -636  -608  -577  -545  -529  -550  -617  -701  -769  -815  -833  -825  -803  -777  -756  -743  -726  -690  -630  -555  -476  -406  -357  -333  -332  -367  -461  -627  -817  -952  -1003  -991  -924  -822  -730  -669  -629  -606  -594  -581  -556  -514  -451  -397  -394  -445  -502  -522  -509  -497  -528  -593  -622  -562  -433  -266  -92  32  81  80  65  60  78  123  189  254  292  295  262  195  107  16  -64  -141  -231  -347  -453  -487  -448  -396  -371  -364  -364  -380  -429  -503  -602  -790  -1112  -1401  -1257  -342  1379  3645  5991  7900  8868  8542  6945  4448  1689  -506  -1596  -1652  -1089  -365  84  111  -29  -97  -89  -80  -98  -143  -199  -248  -240  -125  45  161  187  164  131  109  107  121  142  160  169  171  172  187  239  375  628  923  1119  1170  1146  1115  1092  1072  1072  1124  1237  1366  1450  1473  1464  1463  1496  1595  1763  1934  2071  2215  2380  2538  2662  2736  2760  2760  2755  2739  2692  2613  2521  2416  2262  2059  1863  1699  1519  1277  996  760  632  578  521  442  379  364  393  443  475  465  435  399  331  227  127  75  91  181  342  507  563  490  366  252  166  90  8  -30  37  182  308  365  370  352  322  288  267  280  328  370  356  259  69  -163  -325  -340  -224  -58  59  81  16  -94  -204  -276  -304  -296  -257  -201  -158  -176  -302  -519  -729  -837  -844  -814  -783  -744  -693  -653  -644  -649  -645  -653  -745  -986  -1308  -1534  -1579  -1519  -1459  -1433  -1431  -1443  -1461  -1462  -1408  -1303  -1201  -1128  -1065  -1007  -967  -948  -941  -956  -1010  -1094  -1184  -1277  -1391  -1511  -1603  -1670  -1757  -1890  -2062  -2237  -2346  -2360  -2329  -2296  -2282  -2300  -2326  -2334  -2347  -2424  -2597  -2829  -3041  -3095  -2701  -1513  481  2808  4783  5738  5234  3402  861  -1628  -3412  -4179  -4094  -3604  -3093  -2712  -2463  -2322  -2269  -2270  -2295  -2331  -2362  -2366  -2326  -2217  -2050  -1876  -1739  -1646  -1586  -1543  -1513  -1495  -1486  -1477  -1442  -1372  -1299  -1245  -1194  -1130  -1033  -866  -645  -449  -350  -342  -373  -386  -324  -185  -37  59  115  190  325  491  626  727  837  976  1141  1330  1505  1612  1644  1645  1652  1670  1685  1687  1664  1596  1477  1323  1161  1013  883  731  527  298  107  -31  -148  -258  -348  -410  -457  -501  -544  -588  -642  -697  -733  -745  -743  -736  -723  -712  -720  -740  -730  -676  -610  -566  -547  -552  -575  -608  -638  -647  -607  -498  -351  -238  -193  -191  -205  -233  -277  -327  -366  -378  -349  -272  -177  -114  -94  -98  -105  -90  -37  41  108  134  122  99  85  90  117  154  182  192  190  179  151  107  53  -2  -17  60  203  308  316  264  213  190  189  195  202  210  223  240  243  204  115  11  -55  -68  -48  -20  9  51  111  180  245  304  366  433  488  523  537  530  504  469  443  443  473  525  578  602  556  403  181  -5  -90  -96  -71  -45  -29  -19  -10  -13  -60  -181  -359  -512  -568  -505  -242  404  1573  3233  5188  7063  8292  8343  7065  4779  2132  -90  -1284  -1425  -1001  -488  -77  150  146  12  -83  -99  -79  -64  -74  -100  -123  -129  -125  -119  -114  -103  -81  -60  -64  -95  -132  -155  -171  -185  -170  -88  50  192  282  296  271  257  261  288  367  509  673  800  873  913  943  979  1026  1078  1133  1193  1252  1297  1318  1361  1509  1771  2017  2123  2103  2043  1974  1894  1793  1670  1547  1443  1354  1252  1089  833  513  211  0  -121  -195  -251  -292  -319  -340  -356  -364  -366  -364  -355  -340  -334  -379  -510  -696  -849  -919  -918  -850  -716  -562  -460  -431  -439  -444  -428  -394  -375  -404  -480  -571  -643  -685  -702  -701  -685  -659  -617  -547  -466  -422  -437  -477  -500  -501  -497  -497  -492  -479  -470  -488  -549  -615  -631  -599  -550  -502  -460  -426  -403  -395  -394  -396  -434  -520  -610  -647  -628  -597  -596  -621  -630  -593  -512  -419  -372  -413  -526  -669  -783  -829  -825  -796  -717  -565  -382  -250  -205  -222  -270  -324  -360  -371  -367  -353  -324  -274  -214  -170  -148  -132  -125  -172  -335  -593  -840  -987  -1034  -1020  -990  -981  -1007  -1060  -1135  -1216  -1259  -1219  -1076  -876  -766  -896  -1218  -1430  -1102  73  2011  4232  6156  7284  7242  5915  3608  992  -1156  -2279  -2325  -1759  -1142  -808  -813  -990  -1141  -1198  -1201  -1182  -1142  -1078  -993  -889  -779  -694  -662  -685  -732  -770  -785  -766  -726  -696  -686  -679  -659  -625  -551  -376  -132  46  94  57  -9  -70  -101  -73  48  261  499  683  771  784  758  718  699  790  1069  1459  1762  1893  1931  1973  2052  2148  2215  2219  2180  2131  2073  2004  1923  1831  1711  1519  1255  998  814  684  546  391  245  86  -112  -306  -433  -479  -470  -438  -408  -406  -453  -520  -561  -550  -505  -478  -519  -625  -748  -834  -879  -909  -919  -873  -755  -606  -490  -440  -444  -473  -491  -482  -459  -456  -524  -653  -755  -774  -741  -709  -719  -765  -816  -863  -886  -865  -808  -733  -646  -565  -514  -511  -553  -624  -702  -743  -728  -697  -688  -697  -712  -728  -741  -740  -715  -673  -656  -687  -734  -771  -806  -839  -850  -831  -792  -739  -664  -568  -478  -410  -364  -333  -309  -288  -276  -278  -283  -279  -264  -261  -315  -463  -701  -952  -1116  -1172  -1168  -1130  -1060  -987  -944  -939  -959  -999  -1064  -1150  -1235  -1172  -670  425  1973  3707  5289  6264  6271  5269  3473  1320  -535  -1587  -1841  -1654  -1313  -911  -573  -447  -471  -499  -512  -534  -553  -550  -510  -423  -294  -156  -72  -103  -273  -509  -682  -723  -646  -490  -295  -110  13  65  73  73  96  179  293  358  346  305  276  268  292  365  483  611  729  846  974  1103  1232  1400  1615  1821  1974  2075  2137  2167  2175  2171  2157  2127  2078  2020  1960  1885  1795  1709  1583  1320  929  561  324  199  132  67  -36  -169  -285  -365  -420  -463  -488  -495  -504  -523  -539  -544  -540  -540  -567  -632  -728  -838  -929  -962  -892  -715  -508  -375  -338  -347  -359  -362  -371  -398  -441  -482  -512  -524  -513  -469  -406  -351  -322  -315  -323  -345  -383  -419  -396  -286  -147  -61  -43  -65  -119  -222  -380  -538  -654  -731  -758  -713  -616  -512  -433  -373  -318  -276  -257  -252  -241  -226  -219  -234  -265  -283  -259  -190  -95  -2  67  103  107  89  61  31  -7  -77  -176  -284  -392  -491  -555  -578  -581  -575  -541  -463  -358  -272  -229  -237  -335  -593  -955  -1097  -614  658  2552  4608  6260  7108  6965  5834  3972  1842  7  -1069  -1348  -1131  -716  -394  -327  -376  -394  -410  -451  -503  -541  -559  -564  -556  -541  -539  -556  -568  -535  -433  -294  -188  -145  -145  -160  -171  -177  -185  -191  -171  -92  37  159  220  222  202  193  212  238  253  276  351  494  652  755  783  783  857  1088  1411  1654  1743  1733  1682  1595  1464  1327  1268  1347  1525  1692  1766  1722  1558  1276  921  567  287  105  1  -67  -139  -234  -334  -406  -442  -466  -511  -604  -735  -855  -937  -990  -1014  -979  -860  -697  -579  -552  -591  -649  -697  -733  -763  -782  -778  -752  -722  -701  -671  -619  -569  -544  -544  -558  -579  -607  -644  -672  -669  -651  -648  -663  -677  -683  -686  -686  -686  -693  -721  -780  -861  -942  -999  -1023  -1025  -1021  -1004  -962  -907  -866  -850  -852  -861  -872  -882  -888  -891  -895  -902  -893  -842  -735  -593  -462  -372  -314  -245  -140  -55  -91  -240  -385  -451  -458  -455  -477  -538  -614  -664  -678  -688  -733  -810  -855  -819  -742  -678  -649  -709  -916  -1146  -1109  -597  438  1923  3599  5135  6288  6793  6289  4636  2220  -218  -1906  -2366  -1781  -849  -190  -9  -147  -335  -445  -521  -611  -649  -581  -485  -435  -406  -367  -328  -309  -312  -306  -287  -294  -355  -438  -461  -380  -252  -163  -145  -179  -233  -264  -254  -233  -224  -192  -88  76  246  394  510  572  582  585  625  712  816  901  974  1091  1284  1487  1612  1644  1633  1619  1619  1633  1656  1672  1651  1568  1440  1316  1222  1121  955  718  481  305  177  56  -52  -123  -166  -225  -345  -526  -715  -841  -880  -842  -745  -615  -490  -401  -365  -386  -465  -592  -729  -820  -849  -844  -833  -815  -778  -733  -696  -683  -707  -729  -683  -564  -423  -346  -390  -498  -583  -622  -649  -683  -714  -728  -727  -720  -712  -710  -737  -803  -873  -893  -864  -815  -756  -696  -652  -627  -612  -600  -596  -613  -655  -709  -752  -773  -780  -781  -761  -694  -572  -442  -369  -356  -349  -327  -316  -303  -235  -105  -23  -102  -295  -452  -506  -496  -479  -492  -556  -673  -796  -854  -839  -804  -784  -762  -718  -665  -624  -595  -585  -615  -723  -877  -803  -130  1209  2953  4701  6010  6563  6232  4962  2889  518  -1471  -2558  -2592  -1863  -872  -67  276  202  -32  -236  -358  -405  -398  -369  -346  -331  -300  -249  -213  -223  -253  -269  -274  -279  -285  -274  -230  -153  -66  5  57  100  141  186  247  318  401  495  562  571  542  524  576  730  932  1100  1206  1272  1319  1354  1383  1421  1468  1510  1556  1628  1720  1794  1826  1832  1828  1816  1782  1725  1658  1588  1469  1230  896  595  400  275  177  89  1  -82  -145  -211  -331  -489  -606  -646  -641  -628  -619  -610  -602  -591  -582  -574  -559  -540  -534  -543  -562  -586  -599  -567  -475  -347  -238  -179  -150  -116  -82  -82  -140  -245  -356  -426  -430  -398  -391  -437  -512  -580  -622  -637  -634  -612  -566  -523  -524  -571  -627  -676  -729  -780  -781  -674  -491  -335  -264  -262  -299  -350  -395  -417  -381  -290  -205  -162  -143  -115  -51  66  208  316  368  360  250  -2  -325  -567  -668  -688  -695  -711  -752  -829  -922  -993  -1036  -1060  -1042  -939  -787  -715  -769  -816  -674  -194  756  2169  3779  5215  6133  6181  5141  3198  883  -1193  -2488  -2732  -2123  -1182  -436  -147  -219  -381  -466  -477  -466  -455  -449  -448  -461  -494  -527  -541  -538  -536  -538  -519  -453  -354  -267  -210  -170  -155  -181  -230  -256  -232  -166  -92  -29  21  58  90  135  207  303  404  494  569  645  728  763  706  615  583  650  796  969  1126  1248  1322  1350  1350  1340  1335  1354  1396  1428  1412  1343  1222  1050  834  570  289  58  -88  -162  -189  -205  -267  -418  -618  -768  -824  -830  -827  -825  -817  -804  -793  -789  -793  -802  -810  -816  -825  -840  -858  -867  -850  -810  -764  -719  -664  -589  -505  -436  -398  -386  -394  -421  -454  -477  -485  -485  -485  -490  -499  -505  -505  -500  -492  -486  -483  -481  -481  -480  -478  -477  -483  -502  -528  -550  -565  -577  -565  -485  -316  -126  -13  -2  -41  -77  -96  -109  -123  -145  -187  -240  -270  -261  -234  -221  -259  -375  -554  -734  -848  -879  -860  -826  -767  -655  -511  -425  -507  -783  -1095  -1191  -898  -174  972  2541  4430  6297  7541  7501  5861  2982  -109  -2283  -2988  -2452  -1411  -603  -329  -407  -536  -584  -544  -440  -303  -173  -118  -172  -272  -341  -367  -371  -365  -335  -271  -214  -228  -310  -375  -356  -248  -99  26  101  140  159  170  171  159  152  175  236  330  447  578  726  878  992  1048  1074  1108  1153  1185  1193  1195  1202  1210  1233  1308  1461  1640  1752  1773  1749  1717  1687  1652  1603  1536  1440  1310  1142  920  641  372  204  132  79  7  -81  -206  -371  -523  -612  -638  -622  -570  -459  -271  -60  68  57  -59  -186  -249  -256  -252  -245  -225  -200  -189  -218  -266  -260  -182  -109  -105  -156  -177  -116  -43  -78  -227  -391  -510  -596  -653  -671  -646  -580  -501  -450  -438  -437  -415  -360  -285  -216  -176  -171  -194  -242  -327  -435  -500  -461  -319  -133  31  128  141  73  -55  -198  -292  -321  -318  -313  -322  -371  -497  -682  -852  -939  -924  -847  -800  -881  -1097  -1297  -1318  -1157  -828  -198  918  2565  4531  6298  7134  6492  4443  1666  -948  -2659  -3136  -2663  -1898  -1317  -1005  -822  -652  -506  -430  -427  -487  -609  -804  -1023  -1169  -1183  -1079  -916  -773  -696  -672  -670  -666  -646  -614  -588  -573  -565  -562  -576  -628  -720  -828  -898  -864  -707  -496  -323  -215  -150  -105  -75  -63  -64  -67  -63  -45  -21  -5  0]
