reading_id,reading_time,wire_id,result_classification,heart_rate,heart_rate_alert,firmware_version,device_app_version,hardware_version,waveform_samples
bafb6850-6244-11ed-8080-808080808080,Sat Nov 12 04:44:45 UTC 2022,e101e3752439,NSR,55,NONE,20001.171.50,2.10.0,Charge 5,[1131  1477  1620  1505  1244  1006  861  746  592  420  291  207  127  55  21  16  9  -25  -108  -240  -387  -500  -559  -582  -598  -620  -650  -690  -745  -808  -848  -837  -800  -791  -819  -851  -859  -839  -802  -765  -743  -751  -804  -896  -990  -1050  -1078  -1101  -1134  -1189  -1274  -1371  -1450  -1508  -1559  -1632  -1760  -1918  -2036  -2088  -2113  -2158  -2243  -2359  -2493  -2575  -2332  -1393  340  2598  4896  6628  7310  6869  5472  3347  926  -1167  -2450  -2796  -2420  -1779  -1314  -1098  -932  -735  -600  -596  -685  -767  -765  -667  -528  -423  -383  -385  -424  -513  -631  -721  -751  -721  -634  -523  -445  -424  -437  -445  -407  -304  -172  -76  -45  -64  -121  -204  -287  -343  -365  -361  -344  -325  -308  -292  -275  -254  -226  -194  -171  -164  -161  -150  -136  -150  -221  -321  -392  -410  -391  -359  -318  -255  -181  -128  -109  -108  -111  -120  -150  -212  -329  -531  -773  -958  -1054  -1095  -1114  -1176  -1372  -1718  -2086  -2332  -2467  -2632  -2932  -3319  -3652  -3832  -3861  -3811  -3780  -3859  -4099  -4445  -4751  -4921  -4989  -5055  -5188  -5364  -5492  -5539  -5541  -5531  -5493  -5384  -5192  -4969  -4794  -4691  -4637  -4626  -4684  -4805  -4924  -5011  -5091  -5138  -5060  -4809  -4415  -3987  -3644  -3412  -3239  -3074  -2900  -2729  -2591  -2489  -2385  -2253  -2117  -2025  -1999  -2003  -1965  -1837  -1667  -1546  -1477  -1369  -1172  -936  -726  -550  -379  -195  -22  102  168  192  201  217  245  280  342  469  662  874  1080  1282  1438  1530  1605  1675  1711  1710  1692  1695  1758  1887  2032  2118  2124  2115  2209  2483  2848  3119  3214  3174  3028  2808  2611  2522  2521  2546  2583  2676  2862  3088  3243  3314  3364  3405  3429  3464  3529  3610  3662  3629  3502  3336  3193  3105  3066  3063  3126  3301  3538  3706  3725  3611  3436  3281  3202  3200  3253  3344  3479  3671  3875  3985  3924  3692  3337  2947  2622  2391  2203  2046  1981  2029  2105  2122  2089  2058  2043  2035  2014  1969  1905  1789  1512  1081  754  729  1061  1986  3696  5887  7998  9539  9993  8976  6706  3901  1345  -330  -905  -590  115  553  432  77  -151  -230  -255  -256  -221  -159  -104  -93  -139  -205  -248  -265  -280  -308  -329  -309  -256  -237  -304  -432  -544  -595  -595  -574  -551  -538  -535  -526  -505  -486  -481  -485  -483  -458  -409  -369  -382  -452  -519  -525  -481  -434  -379  -265  -91  105  311  529  746  952  1123  1218  1228  1187  1149  1181  1316  1511  1677  1760  1741  1620  1464  1395  1463  1588  1672  1699  1656  1430  951  383  1  -129  -158  -225  -351  -478  -571  -642  -703  -755  -800  -841  -898  -1003  -1142  -1258  -1320  -1333  -1321  -1307  -1299  -1296  -1295  -1308  -1348  -1407  -1456  -1475  -1449  -1360  -1226  -1094  -998  -941  -915  -911  -941  -1021  -1131  -1208  -1208  -1129  -1012  -931  -931  -987  -1067  -1148  -1205  -1204  -1120  -967  -809  -717  -737  -897  -1167  -1438  -1610  -1664  -1625  -1511  -1332  -1138  -1014  -1014  -1136  -1327  -1492  -1530  -1394  -1155  -954  -856  -836  -849  -878  -942  -1050  -1147  -1186  -1175  -1145  -1126  -1134  -1164  -1209  -1261  -1298  -1282  -1179  -1006  -837  -730  -686  -683  -706  -740  -770  -798  -824  -838  -829  -804  -791  -814  -856  -877  -852  -810  -803  -844  -905  -970  -1034  -1077  -1077  -1029  -955  -894  -865  -859  -864  -889  -939  -980  -954  -855  -736  -645  -600  -603  -644  -687  -671  -592  -531  -530  -564  -607  -628  -595  -496  -355  -214  -101  -11  65  125  155  140  81  2  -56  -75  -64  -54  -106  -272  -523  -749  -871  -917  -949  -953  -868  -711  -565  -483  -467  -531  -680  -838  -922  -975  -928  -460  635  2298  4327  6320  7720  8071  7172  5175  2602  143  -1538  -2093  -1742  -1044  -482  -304  -451  -656  -743  -740  -746  -812  -914  -994  -1036  -1069  -1103  -1106  -1014  -783  -492  -297  -248  -276  -314  -345  -381  -439  -531  -640  -699  -666  -602  -571  -571  -578  -579  -574  -576  -593  -602  -547  -400  -190  17  163  232  257  276  311  350  372  380  399  472  639  909  1256  1600  1842  1946  1963  1936  1861  1733  1596  1516  1536  1663  1864  2083  2248  2284  2205  2118  2094  2126  2154  2066  1754  1276  832  503  190  -140  -380  -459  -426  -367  -340  -361  -409  -455  -504  -547  -540  -499  -490  -514  -511  -451  -378  -349  -348  -328  -292  -283  -324  -406  -500  -587  -661  -716  -748  -758  -745  -683  -550  -381  -257  -221  -237  -258  -276  -298  -314  -314  -301  -286  -278  -280  -299  -347  -404  -421  -367  -276  -206  -178  -169  -158  -146  -134  -129  -154  -232  -344  -428  -420  -290  -77  122  245  306  321  264  116  -85  -262  -373  -445  -498  -472  -299  -27  204  316  328  286  215  144  97  50  -37  -144  -203  -198  -170  -152  -146  -150  -174  -221  -253  -214  -116  -30  10  24  17  -30  -117  -199  -230  -202  -155  -118  -75  -10  43  38  -26  -101  -144  -153  -150  -145  -135  -112  -71  -19  32  70  81  55  -9  -99  -182  -223  -211  -159  -98  -53  -28  -11  -1  -3  -15  -21  -11  12  30  8  -85  -237  -400  -534  -628  -696  -773  -860  -921  -941  -945  -958  -982  -1003  -1023  -1051  -1074  -1053  -944  -781  -761  -1022  -1281  -963  302  2419  4837  6777  7655  7298  5820  3608  1263  -702  -1935  -2259  -1877  -1346  -1098  -1072  -1006  -851  -745  -790  -944  -1073  -1088  -989  -847  -738  -689  -674  -668  -667  -671  -675  -675  -670  -657  -622  -546  -443  -387  -416  -471  -514  -578  -652  -670  -591  -435  -256  -102  -4  31  31  21  11  11  36  104  203  301  379  432  462  499  593  762  982  1194  1335  1410  1488  1597  1705  1790  1858  1917  1972  2016  2044  2046  2030  2025  2027  2013  1984  1943  1868  1721  1493  1241  1053  916  750  546  366  238  143  46  -73  -219  -377  -532  -670  -767  -797  -771  -744  -762  -806  -841  -860  -868  -856  -797  -684  -560  -483  -465  -479  -498  -509  -510  -506  -504  -514  -551  -608  -639  -588  -448  -272  -134  -79  -122  -264  -454  -594  -631  -567  -423  -239  -79  7  24  -11  -90  -184  -248  -271  -278  -283  -259  -176  -71  -26  -51  -103  -150  -192  -243  -302  -351  -385  -407  -395  -294  -93  87  92  -66  -230  -307  -321  -313  -277  -191  -75  11  40  26  -13  -61  -94  -97  -68  -33  -36  -83  -133  -167  -185  -172  -138  -121  -150  -236  -355  -452  -493  -485  -452  -425  -410  -389  -347  -290  -229  -159  -83  -36  -64  -187  -356  -484  -539  -540  -477  -320  -120  -2  -32  -145  -238  -272  -264  -239  -206  -175  -153  -146  -146  -151  -168  -208  -265  -317  -370  -454  -583  -740  -894  -1016  -1084  -1101  -1097  -1095  -1102  -1101  -1058  -976  -935  -958  -896  -500  445  1947  3768  5545  6819  7222  6566  4810  2287  -279  -2183  -2998  -2677  -1667  -687  -177  -114  -268  -422  -488  -501  -509  -521  -538  -567  -607  -652  -708  -773  -812  -775  -644  -486  -396  -390  -415  -434  -445  -450  -446  -415  -347  -263  -201  -178  -166  -118  -38  35  86  115  111  58  -34  -127  -163  -107  53  306  581  779  876  926  978  1055  1180  1333  1446  1481  1464  1444  1472  1592  1793  2019  2240  2455  2636  2717  2669  2551  2440  2344  2242  2148  2082  2030  1953  1818  1623  1377  1088  803  606  518  460  289  -89  -562  -869  -912  -835  -790  -782  -752  -697  -660  -660  -675  -683  -686  -695  -714  -726  -684  -551  -364  -219  -167  -212  -349  -540  -736  -919  -1042  -1004  -815  -601  -431  -286  -159  -72  -42  -83  -216  -419  -620  -739  -739  -647  -532  -447  -407  -399  -397  -380  -339  -249  -77  134  247  166  -59  -284  -402  -426  -425  -437  -433  -338  -153  27  98  10  -186  -355  -415  -391  -336  -288  -253  -215  -169  -125  -87  -64  -64  -85  -121  -172  -271  -412  -486  -417  -296  -239  -249  -264  -214  -103  -4  36  33  -4  -83  -194  -312  -439  -579  -684  -682  -576  -443  -340  -273  -226  -195  -173  -158  -166  -233  -376  -522  -550  -453  -345  -304  -317  -342  -362  -380  -396  -400  -382  -340  -296  -275  -285  -311  -321  -293  -251  -258  -350  -484  -582  -623  -638  -661  -711  -778  -831  -856  -861  -863  -879  -930  -1026  -1132  -1194  -1208  -1225  -1320  -1498  -1639  -1648  -1498  -1059  -163  1257  3147  5215  6954  7853  7565  6064  3718  1120  -1089  -2349  -2458  -1796  -1015  -494  -331  -501  -786  -954  -986  -969  -942  -904  -851  -806  -803  -833  -860  -868  -857  -841  -833  -828  -827  -848  -905  -974  -992  -902  -704  -455  -233  -88  2  87  127  73  -28  -112  -181  -245  -281  -277  -252  -232  -212  -165  -76  49  212  407  591  704  738  737  748  801  930  1146  1409  1647  1826  1946  2020  2078  2139  2199  2251  2297  2336  2346  2286  2147  1950  1731  1506  1288  1087  898  690  450  225  84  27  -27  -162  -358  -513  -573  -586  -622  -710  -823  -908  -941  -939  -923  -900  -872  -863  -909  -1003  -1090  -1142  -1179  -1211  -1213  -1160  -1037  -865  -722  -715  -870  -1076  -1207  -1237  -1223  -1231  -1289  -1376  -1439  -1457  -1453  -1462  -1497  -1537  -1512  -1363  -1120  -877  -699  -604  -588  -645  -768  -932  -1070  -1123  -1089  -1004  -908  -820  -736  -647  -561  -490  -425  -358  -327  -364  -434  -484  -504  -505  -488  -439  -368  -310  -279  -252  -193  -87  37  130  161  112  -29  -215  -353  -403  -391  -340  -250  -127  -8  61  67  43  18  3  -2  11  51  105  162  225  273  282  277  291  321  329  290  221  160  136  168  278  443  594  683  723  745  751  684  490  220  4  -96  -106  -32  124  320  472  541  556  557  556  548  526  493  457  428  425  468  572  706  814  876  920  956  957  882  723  515  293  89  -30  21  279  640  905  954  800  525  251  69  -18  -54  -61  -38  4  53  100  121  93  40  98  568  1805  3869  6312  8357  9246  8587  6640  4161  1858  135  -853  -1182  -1141  -1019  -863  -643  -455  -389  -410  -438  -385  -184  124  390  508  491  399  286  187  121  90  91  118  172  246  314  361  384  381  345  282  220  197  219  246  243  234  271  360  452  501  512  544  653  813  943  1003  1013  1006  1000  994  986  993  1056  1226  1488  1748  1917  1987  2001  2007  2019  2036  2074  2162  2282  2374  2410  2411  2405  2393  2346  2212  1965  1688  1491  1342  1136  885  703  637  616  541  357  81  -206  -428  -596  -786  -1002  -1153  -1175  -1089  -970  -887  -851  -821  -774  -722  -684  -666  -660  -661  -679  -733  -812  -862  -823  -680  -523  -484  -573  -680  -730  -737  -727  -691  -607  -477  -372  -386  -518  -687  -822  -875  -835  -736  -639  -584  -559  -506  -410  -353  -412  -540  -669  -786  -888  -956  -988  -997  -985  -940  -859  -735  -580  -473  -462  -495  -522  -543  -548  -548  -568  -599  -610  -573  -484  -376  -295  -266  -301  -420  -596  -758  -871  -957  -1009  -987  -896  -790  -700  -639  -658  -803  -1016  -1178  -1245  -1258  -1252  -1215  -1142  -1075  -1063  -1091  -1113  -1115  -1106  -1097  -1087  -1080  -1097  -1170  -1284  -1354  -1330  -1262  -1220  -1205  -1173  -1093  -993  -931  -936  -981  -1002  -959  -903  -913  -984  -1040  -1047  -1029  -1005  -979  -958  -950  -958  -982  -1019  -1075  -1178  -1319  -1420  -1402  -1242  -977  -705  -529  -481  -512  -555  -571  -565  -556  -549  -537  -517  -500  -502  -544  -624  -712  -781  -854  -988  -1194  -1408  -1553  -1614  -1626  -1611  -1539  -1380  -1171  -1005  -956  -1073  -1383  -1833  -2160  -1953  -920  995  3509  5895  7414  7731  6811  4888  2549  406  -1188  -2060  -2234  -2023  -1800  -1694  -1643  -1602  -1581  -1593  -1639  -1700  -1746  -1767  -1775  -1763  -1691  -1525  -1311  -1163  -1158  -1293  -1489  -1626  -1664  -1662  -1633  -1525  -1337  -1125  -919  -741  -635  -612  -623  -611  -541  -437  -361  -358  -426  -522  -593  -616  -601  -548  -420  -201  41  211  308  413  578  768  911  992  1051  1133  1266  1477  1778  2110  2361  2469  2477  2458  2440  2411  2358  2295  2256  2262  2318  2437  2597  2707  2656  2394  1978  1555  1256  1110  1031  904  679  419  211  62  -59  -148  -191  -206  -216  -222  -214  -191  -168  -163  -183  -227  -284  -337  -358  -320  -218  -96  -13  6  -11  -27  -26  -13  -3  2  12  35  63  81  85  80  74  81  118  188  273  341  360  335  288  229  164  120  118  161  232  297  327  298  199  64  -36  -74  -72  -60  -61  -93  -156  -220  -274  -327  -365  -358  -316  -272  -233  -189  -151  -153  -199  -251  -282  -293  -313  -370  -449  -508  -534  -547  -550  -498  -343  -120  58  131  119  56  -53  -197  -319  -375  -382  -383  -402  -413  -359  -236  -123  -76  -80  -100  -113  -96  -33  53  121  151  153  117  22  -103  -200  -239  -237  -201  -119  0  119  193  191  121  25  -58  -124  -193  -276  -345  -359  -300  -185  -58  53  145  217  268  311  354  374  341  267  189  130  89  65  76  117  138  86  -43  -192  -295  -336  -341  -340  -364  -417  -500  -632  -782  -874  -870  -794  -713  -678  -698  -794  -1005  -1252  -1338  -1114  -482  714  2533  4677  6606  7778  7786  6583  4600  2452  613  -653  -1325  -1537  -1455  -1218  -937  -713  -588  -522  -476  -449  -437  -433  -432  -447  -498  -581  -661  -701  -700  -678  -635  -537  -364  -147  45  156  185  167  132  92  62  50  51  53  61  106  208  328  390  367  309  292  332  360  325  277  301  414  578  760  951  1120  1229  1293  1360  1457  1587  1750  1949  2136  2235  2248  2252  2310  2440  2602  2718  2757  2749  2721  2661  2538  2351  2156  2013  1937  1874  1714  1391  1004  716  578  520  456  330  127  -111  -314  -433  -477  -486  -491  -513  -569  -644  -701  -724  -724  -709  -680  -628  -564  -517  -504  -516  -546  -598  -686  -794  -860  -838  -771  -724  -715  -725  -732  -724  -718  -735  -766  -798  -833  -866  -881  -870  -833  -785  -750  -735  -731  -728  -727  -738  -771  -813  -847  -887  -969  -1092  -1203  -1249  -1206  -1084  -939  -840  -802  -795  -807  -874  -1025  -1214  -1337  -1307  -1107  -833  -636  -571  -582  -615  -652  -683  -692  -679  -654  -625  -602  -593  -596  -601  -596  -570  -527  -492  -485  -500  -498  -437  -330  -247  -227  -242  -255  -261  -271  -291  -292  -231  -132  -82  -85  -73  -34  0  28  77  148  214  241  196  54  -144  -309  -392  -408  -378  -295  -151  21  165  250  256  171  28  -97  -144  -111  -58  -33  -21  13  71  122  167  238  349  477  592  671  709  716  698  643  544  388  167  -65  -221  -299  -357  -402  -387  -328  -295  -279  -230  -204  -289  -451  -564  -558  -456  -307  -183  -265  -730  -1462  -2030  -1961  -942  1016  3499  5831  7364  7724  6904  5166  3006  951  -709  -1776  -2110  -1899  -1563  -1366  -1284  -1204  -1091  -993  -957  -952  -915  -861  -848  -882  -920  -927  -914  -906  -906  -900  -867  -800  -714  -647  -629  -656  -708  -766  -800  -780  -715  -655  -647  -678  -693  -671  -628  -569  -471  -325  -147  16  124  165  169  161  137  84  21  -21  -44  -52  9  233  637  1080  1368  1461  1453  1415  1385  1396  1437  1488  1570  1709  1910  2132  2285  2308  2202  2003  1780  1599  1479  1349  1105  774  492  319  192  69  -39  -175  -405  -697  -925  -1033  -1075  -1102  -1125  -1161  -1237  -1340  -1422  -1462  -1474  -1481  -1518  -1614  -1746  -1851  -1891  -1852  -1721  -1519  -1308  -1146  -1057  -1044  -1083  -1144  -1205  -1265  -1324  -1308  -1128  -822  -547  -410  -395  -455  -577  -722  -824  -846  -802  -746  -741  -791  -853  -898  -916  -902  -860  -784  -673  -574  -536  -554  -576  -553  -497  -459  -453  -474  -563  -754  -983  -1121  -1107  -990  -816  -579  -319  -142  -86  -95  -100  -74  -25  8  -9  -94  -212  -307  -362  -398  -422  -422  -372  -263  -130  -24  27  33  23  19  15  10  23  67  160  305  463  580  631  623  579  531  495  454  380  272  150  29  -74  -139  -146  -85  32  170  267  267  166  13  -134  -244  -310  -311  -183  44  111  -150  -456  -347  448  1939  3901  5924  7454  8029  7474  5797  3294  656  -1344  -2225  -1955  -949  122  712  724  460  230  127  100  113  163  230  274  280  270  278  330  426  540  647  737  789  777  697  577  463  388  352  343  359  414  513  636  751  837  926  1055  1202  1302  1329  1301  1238  1169  1124  1109  1113  1134  1178  1246  1327  1412  1521  1678  1883  2097  2274  2407  2522  2620  2682  2737  2838  2979  3094  3152  3173  3184  3194  3189  3128  2988  2822  2703  2599  2363  1909  1360  939  737  669  613  494  280  -17  -316  -512  -592  -632  -682  -754  -861  -1002  -1133  -1212  -1225  -1184  -1106  -1021  -979  -1003  -1064  -1130  -1208  -1307  -1404  -1470  -1484  -1412  -1276  -1138  -1018  -931  -888  -867  -848  -837  -840  -846  -849  -862  -903  -988  -1102  -1197  -1246  -1260  -1257  -1248  -1242  -1243  -1258  -1294  -1354  -1430  -1502  -1570  -1651  -1745  -1824  -1843  -1788  -1723  -1728  -1823  -1966  -2101  -2201  -2241  -2154  -1878  -1495  -1198  -1077  -1061  -1043  -964  -851  -769  -759  -810  -883  -935  -945  -913  -846  -743  -604  -470  -396  -390  -404  -386  -316  -223  -162  -154  -180  -222  -280  -345  -392  -431  -495  -580  -643  -665  -664  -669  -694  -730  -770  -837  -963  -1123  -1245  -1291  -1274  -1226  -1185  -1174  -1187  -1207  -1225  -1245  -1270  -1301  -1334  -1352  -1332  -1266  -1165  -1063  -995  -965  -955  -949  -944  -954  -981  -1009  -1028  -1045  -1063  -1080  -1097  -1132  -1201  -1305  -1419  -1523  -1619  -1725  -1874  -2038  -2101  -1982  -1749  -1553  -1481  -1518  -1608  -1696  -1755  -1820  -1997  -2384  -2921  -3318  -3167  -2127  -145  2352  4663  6285  7051  6914  5816  3848  1371  -1011  -2556  -2799  -2026  -1014  -375  -244  -403  -574  -653  -684  -707  -710  -662  -561  -459  -403  -326  -160  26  134  156  131  98  86  114  177  234  247  240  270  347  438  531  653  812  957  1019  991  930  898  908  933  940  953  1007  1058  1061  1024  964  899  857  866  951  1096  1260  1417  1561  1697  1830  1971  2140  2334  2510  2615  2642  2637  2643  2656  2661  2665  2682  2712  2739  2743  2698  2561  2318  1990  1619  1282  1047  910  819  732  614  440  226  0  -244  -484  -653  -729  -736  -701  -659  -639  -642  -644  -610  -519  -397  -287  -200  -145  -161  -248  -349  -409  -419  -400  -368  -319  -244  -151  -68  -17  -4  -21  -45  -61  -76  -100  -113  -102  -100  -136  -201  -258  -251  -188  -148  -165  -190  -171  -104  -28  4  -8  -15  8  41  64  72  66  45  11  -27  -55  -64  -61  -50  -33  -13  4  18  20  -2  -62  -144  -213  -258  -318  -425  -554  -665  -744  -804  -852  -879  -872  -820  -708  -558  -445  -427  -511  -647  -739  -726  -625  -488  -363  -253  -131  -41  -64  -195  -363  -501  -578  -600  -595  -570  -514  -440  -384  -362  -363  -388  -449  -532  -599  -629  -633  -633  -647  -678  -717  -745  -756  -757  -768  -810  -884  -923  -826  -589  -338  -177  -109  -91  -101  -125  -145  -151  -146  -137  -129  -124  -121  -125  -135  -134  -73  75  227  241  110  -24  -63  -21  45  114  178  166  -8  -312  -588  -739  -804  -865  -956  -1033  -1032  -957  -879  -837  -818  -805  -806  -846  -962  -1184  -1456  -1541  -1102  84  2036  4464  6770  8378  8937  8263  6466  4021  1520  -444  -1394  -1336  -776  -236  29  9  -162  -343  -442  -420  -278  -85  50  63  -32  -171  -274  -303  -257  -147  -9  94  139  149  158  195  255  290  271  241  230  221  213  220  251  313  407  520  638  741  784  741  670  668  799  1042  1321  1586  1813  1959  2014  2030  2046  2051  2049  2101  2255  2490  2746  2956  3102  3234  3367  3459  3487  3474  3455  3443  3428  3402  3371  3353  3326  3233  3057  2866  2734  2618  2368  1888  1309  896  742  726  711  604  374  98  -114  -248  -364  -508  -690  -882  -1024  -1095  -1151  -1269  -1436  -1564  -1610  -1600  -1574  -1558  -1595  -1734  -1954  -2150  -2232  -2219  -2198  -2208  -2202  -2156  -2108  -2089  -2090  -2089  -2071  -2044  -2030  -2047  -2090  -2131  -2139  -2107  -2053  -1994  -1939  -1891  -1854  -1833  -1833  -1848  -1868  -1886  -1892  -1854  -1725  -1511  -1301  -1187  -1189  -1266  -1347  -1380  -1382  -1383  -1358  -1285  -1194  -1113  -1052  -1019  -1020  -1052  -1105  -1168  -1225  -1260  -1243  -1143  -979  -823  -733  -703  -700  -704  -708  -717  -741  -787  -855  -927  -980  -1011  -1031  -1046  -1061  -1080  -1087  -1028  -856  -624  -454  -395  -398  -406  -401  -389  -373  -349  -301  -203  -41  137  256  292  273  227  167  95  3  -99  -187  -259  -324  -375  -416  -472  -567  -693  -809  -880  -911  -904  -834  -665  -429  -235  -193  -393  -835  -1287  -1278  -428  1199  3233  5233  6665  7079  6383  4744  2493  157  -1651  -2516  -2442  -1805  -1045  -469  -218  -239  -343  -389  -362  -303  -253  -240  -290  -421  -589  -709  -754  -757  -735  -658  -499  -284  -80  57  136  197  262  311  293  174  3  -125  -174  -179  -168  -141  -80  11  104  194  305  432  518  521  462  419  475  639  837  994  1070  1072  1046  1065  1206  1473  1748  1911  1961  1972  1985  2000  2044  2169  2373  2582  2744  2853  2875  2745  2477  2207  2060  2016  1961  1806  1556  1276  1006  776  632  576  554  494  337  102  -104  -193  -175  -123  -126  -227  -385  -522  -610  -660  -665  -627  -575  -540  -537  -552  -536  -452  -338  -283  -329  -422  -480  -483  -473  -477  -482  -478  -473  -474  -455  -385  -283  -197  -143  -111  -96  -91  -86  -80  -78  -90  -118  -169  -249  -331  -373  -369  -346  -320  -298  -275  -234  -182  -142  -123  -105  -76  -57  -96  -232  -423  -568  -616  -579  -481  -372  -310  -306  -320  -305  -234  -130  -41  10  33  42  44  46  48  40  12  -30  -68  -96  -135  -196  -263  -317  -362  -409  -455  -501  -548  -602  -661  -712  -742  -759  -782  -825  -885  -939  -998  -1106  -1259  -1372  -1368  -1251  -1033  -600  265  1680  3502  5332  6640  6948  6016  4030  1558  -696  -2105  -2445  -2053  -1456  -1018  -904  -1081  -1316  -1392  -1279  -1088  -951  -926  -988  -1080  -1152  -1188  -1201  -1208  -1214  -1213  -1204  -1199  -1202  -1206  -1187  -1119  -1017  -933  -897  -896  -905  -911  -908  -888  -853  -820  -805  -804  -807  -819  -852  -909  -992  -1111  -1249  -1332  -1272  -1036  -681  -313  -20  153  212  197  149  118  194  451  846  1218  1434  1508  1536  1586  1671  1765  1836  1895  1983  2089  2129  2037  1863  1711  1624  1564  1470  1298  1011  627  265  49  -14  -2  18  17  -13  -66  -142  -251  -375  -453  -454  -412  -374  -358  -356  -359  -357  -329  -248  -99  65  140  69  -87  -227  -308  -345  -359  -358  -337  -293  -234  -204  -252  -358  -451  -494  -505  -479  -372  -172  44  174  179  84  -56  -191  -292  -329  -282  -196  -132  -103  -98  -108  -133  -165  -191  -202  -191  -149  -77  9  86  133  148  148  144  122  56  -46  -139  -186  -189  -169  -144  -112  -49  63  172  191  112  20  -31  -61  -84  -97  -95  -89  -85  -77  -53  -2  74  154  209  234  239  227  196  154  123  110  107  107  108  107  88  36  -33  -83  -93  -73  -43  -22  -13  -10  -9  -12  -28  -63  -113  -150  -146  -107  -69  -51  -50  -61  -86  -123  -154  -168  -167  -157  -132  -82  -17  26  38  43  79  149  193  154  58  -32  -69  -43  5  41  82  147  196  151  -26  -270  -466  -560  -580  -568  -541  -509  -491  -501  -542  -601  -643  -639  -582  -498  -453  -520  -708  -905  -928  -522  558  2309  4376  6246  7560  8073  7521  5869  3510  1059  -831  -1661  -1431  -728  -189  0  -48  -203  -373  -492  -523  -462  -354  -260  -206  -180  -162  -140  -124  -135  -196  -283  -367  -437  -468  -427  -316  -165  -30  49  79  81  42  -55  -169  -216  -178  -117  -80  -65  -52  -27  1  17  18  29  71  142  212  268  335  445  607  790  933  1001  1024  1083  1238  1443  1591  1646  1664  1716  1831  1974  2080  2125  2128  2111  2088  2054  1987  1872  1739  1622  1497  1305  1038  730  414  134  -51  -121  -117  -116  -191  -360  -550  -685  -798  -977  -1214  -1402  -1477  -1454  -1368  -1264  -1188  -1155  -1143  -1139  -1140  -1139  -1132  -1098  -1026  -955  -921  -903  -874  -842  -841  -876  -929  -997  -1080  -1153  -1186  -1158  -1060  -926  -820  -776  -795  -887  -1022  -1115  -1116  -1062  -1015  -999  -1004  -1012  -1005  -971  -913  -846  -788  -751  -762  -835  -926  -958  -920  -840  -730  -639  -644  -751  -860  -850  -724  -600  -550  -551  -561  -567  -573  -582  -606  -672  -758  -796  -759  -666  -562  -492  -470  -471  -470  -465  -458  -442  -416  -390  -380  -388  -403  -417  -432  -443  -447  -447  -455  -471  -480  -459  -398  -317  -252  -220  -222  -267  -364  -492  -609  -689  -724  -724  -716  -733  -803  -918  -1025  -1085  -1097  -1075  -1018  -931  -851  -807  -789  -763  -721  -684  -671  -676  -686  -692  -685  -644  -560  -467  -423  -436  -470  -492  -488  -463  -429  -383  -311  -217  -133  -106  -140  -171  -126  -18  42  -23  -167  -289  -356  -394  -423  -455  -515  -601  -680  -725  -734  -726  -722  -721  -691  -599  -470  -351  -246  -160  -192  -421  -769  -965  -596  679  2805  5230  7220  8235  8030  6742  4812  2657  628  -861  -1553  -1506  -961  -290  118  150  -25  -244  -440  -575  -632  -633  -605  -571  -541  -492  -391  -240  -71  62  115  81  6  -54  -82  -74  -15  104  244  335  363  359  351  338  312  279  259  254  250  229  199  197  252  350  461  582  747  985  1250  1429  1476  1435  1370  1319  1312  1388  1573  1823  2039  2170  2228  2246  2278  2391  2591  2794  2918  2964  2973  2952  2879  2752  2597  2449  2316  2172  2006  1848  1707  1560  1400  1234  1064  880  673  436  174  -70  -233  -263  -176  -91  -114  -195  -242  -247  -244  -253  -271  -283  -282  -274  -268  -264  -254  -237  -242  -314  -442  -550  -595  -597  -588  -566  -521  -463  -422  -406  -403  -404  -427  -494  -585  -653  -668  -648  -637  -659  -697  -717  -700  -644  -575  -542  -558  -577  -562  -532  -531  -558  -577  -563  -533  -517  -518  -528  -531  -501  -418  -310  -257  -311  -451  -613  -748  -852  -927  -971  -985  -982  -975  -984  -1025  -1087  -1139  -1157  -1133  -1063  -980  -942  -979  -1058  -1120  -1142  -1136  -1115  -1082  -1038  -983  -922  -871  -833  -786  -715  -643  -598  -585  -589  -595  -600  -600  -585  -552  -518  -496  -489  -496  -499  -475  -431  -387  -354  -335  -331  -336  -346  -350  -325  -248  -145  -81  -101  -201  -335  -444  -501  -515  -508  -498  -484  -451  -405  -371  -358  -353  -343  -324  -297  -267  -231  -169  -74  18  53  8  -80  -142  -145  -112  -74  -40  -16  -5  -20  -71  -149  -239  -346  -472  -600  -721  -828  -895  -892  -809  -671  -541  -464  -431  -413  -401  -424  -535  -761  -1068  -1241  -875  338  2323  4616  6638  7948  8264  7463  5657  3204  727  -1100  -1907  -1761  -1147  -637  -431  -393  -397  -428  -512  -633  -726  -764  -775  -782  -790  -773  -699  -577  -464  -423  -455  -502  -524  -527  -523  -515  -501  -482  -463  -430  -376  -318  -250  -143  -28  35  41  23  7  0  -6  -16  -27  -24  14  117  295  510  689  788  821  821  820  852  961  1149  1355  1519  1636  1729  1809  1884  1963  2040  2097  2154  2254  2386  2488  2528  2525  2501  2464  2417  2354  2248  2071  1816  1503  1187  942  792  682  567  471  411  330  155  -93  -334  -532  -688  -783  -811  -786  -720  -636  -579  -584  -654  -750  -827  -875  -918  -963  -1002  -1029  -1048  -1058  -1034  -958  -860  -776  -714  -677  -681  -717  -738  -715  -675  -669  -719  -809  -900  -956  -962  -926  -872  -824  -796  -789  -800  -813  -812  -782  -710  -619  -555  -536  -542  -543  -523  -481  -438  -406  -379  -366  -374  -390  -401  -404  -406  -411  -420  -431  -441  -447  -445  -418  -349  -238  -125  -64  -73  -128  -186  -215  -231  -281  -395  -548  -675  -725  -700  -638  -566  -474  -367  -313  -360  -453  -527  -593  -654  -672  -621  -526  -425  -324  -227  -159  -127  -114  -115  -161  -283  -444  -561  -603  -604  -593  -570  -518  -450  -401  -386  -390  -397  -404  -421  -455  -489  -489  -455  -415  -385  -363  -355  -395  -512  -677  -816  -907  -966  -986  -954  -895  -846  -803  -734  -642  -572  -550  -565  -580  -563  -492  -380  -271  -210  -198  -207  -219  -241  -289  -358  -419  -462  -509  -576  -655  -735  -804  -852  -880  -900  -920  -925  -893  -820  -726  -639  -584  -595  -675  -787  -896  -1008  -1087  -970  -464  518  1980  3845  5829  7412  8112  7685  6105  3690  1164  -741  -1675  -1693  -1146  -557  -262  -228  -294  -359  -383  -376  -370  -377  -393  -409  -422  -431  -432  -430  -435  -452  -481  -519  -556  -571  -533  -430  -304  -217  -184  -180  -182  -183  -179  -154  -92  -7  75  152  225  274  287  279  270  286  346  442  543  640  745  866  981  1050  1059  1040  1047  1128  1296  1483  1611  1692  1801  1961  2134  2281  2375  2415  2439  2484  2531  2530  2480  2431  2411  2399  2363  2267  2057  1702  1289  960  759  638  561  505  422  272  75  -92  -180  -222  -280  -379  -482  -543  -558  -553  -546  -554  -587  -646  -714  -767  -788  -779  -749  -713  -680  -650  -626  -616  -634  -694  -779  -853  -903  -938  -962  -981  -988  -958  -867  -733  -608  -527  -494  -495  -509  -521  -529  -553  -616  -702  -755  -732  -632  -485  -336  -233  -205  -274  -458  -700  -868  -872  -716  -497  -342  -304  -348  -418  -481  -525  -552  -562  -557  -550  -543  -520  -458  -376  -321  -311  -323  -331  -331  -336  -360  -414  -506  -633  -761  -843  -855  -802  -695  -556  -421  -336  -312  -322  -338  -359  -398  -445  -484  -516  -554  -613  -699  -794  -859  -886  -896  -897  -864  -766  -618  -485  -406  -378  -389  -428  -479  -515  -523  -500  -455  -410  -392  -408  -439  -460  -458  -433  -380  -310  -251  -214  -195  -200  -229  -271  -311  -345  -374  -395  -402  -384  -332  -262  -215  -200  -176  -99  7  85  125  168  241  328  395  417  394  342  261  149  29  -67  -128  -160  -180  -202  -226  -257  -309  -370  -413  -437  -451  -458  -455  -445  -416  -330  -217  -242  -518  -817  -599  528  2428  4654  6709  8006  8155  7204  5428  3230  1149  -327  -981  -989  -761  -596  -568  -602  -592  -511  -421  -375  -368  -376  -385  -389  -378  -338  -278  -231  -233  -302  -413  -497  -503  -441  -333  -217  -138  -104  -89  -65  -31  0  32  94  168  220  244  250  248  244  257  307  389  474  537  571  588  609  649  717  825  949  1040  1090  1154  1290  1494  1707  1901  2077  2231  2348  2417  2448  2460  2474  2500  2530  2551  2552  2532  2506  2484  2469  2462  2435  2320  2057  1716  1458  1326  1206  1018  814  646  445  135  -207  -434  -509  -503  -492  -500  -540  -625  -750  -901  -1062  -1194  -1251  -1249  -1242  -1263  -1306  -1350  -1382  -1394  -1385  -1367  -1352  -1335  -1298  -1222  -1121  -1031  -964  -909  -874  -868  -880  -889  -857  -750  -599  -477  -434  -491  -660  -883  -1044  -1088  -1047  -975  -906  -853  -821  -812  -813  -805  -792  -790  -806  -833  -859  -884  -908  -926  -933  -928  -911  -877  -823  -761  -720  -699  -634  -463  -243  -128  -221  -458  -694  -838  -898  -914  -911  -903  -896  -891  -897  -923  -971  -1030  -1081  -1100  -1080  -1040  -1000  -957  -908  -884  -888  -856  -758  -660  -619  -625  -650  -679  -717  -770  -830  -859  -829  -762  -698  -663  -667  -685  -683  -663  -649  -649  -656  -661  -662  -665  -671  -683  -685  -646  -535  -380  -257  -187  -134  -84  -61  -99  -222  -404  -574  -685  -746  -787  -802  -736  -547  -281  -49  87  135  116  58  9  14  66  127  159  100  -66  -250  -357  -393  -420  -453  -467  -462  -481  -547  -621  -657  -681  -737  -805  -847  -872  -888  -861  -753  -600  -536  -737  -1172  -1375  -738  958  3401  5950  7854  8562  7950  6223  3854  1484  -341  -1323  -1541  -1383  -1193  -1067  -951  -812  -684  -610  -607  -664  -742  -797  -811  -794  -750  -695  -655  -640  -641  -639  -614  -538  -392  -219  -94  -42  -32  -40  -65  -99  -124  -130  -124  -120  -134  -180  -238  -259  -210  -113  5  160  336  468  525  542  565  609  640  633  617  626  694  892  1231  1580  1791  1863  1896  1954  2026  2097  2200  2371  2566  2695  2732  2727  2736  2773  2828  2868  2857  2781  2648  2484  2316  2148  1968  1761  1496  1151  797  563  462  385  252  85  -55  -139  -178  -194  -195  -197  -224  -275  -304  -275  -220  -183  -162  -155  -185  -278  -396  -472  -492  -484  -449  -372  -274  -221  -251  -329  -396  -422  -396  -311  -190  -86  -35  -29  -38  -47  -68  -119  -198  -275  -317  -311  -262  -195  -149  -150  -199  -266  -316  -334  -328  -302  -260  -216  -186  -171  -165  -168  -195  -258  -340  -430  -526  -589  -584  -525  -447  -393  -393  -432  -476  -501  -496  -465  -418  -366  -327  -308  -304  -318  -364  -441  -523  -575  -580  -554  -529  -520  -528  -533  -519  -492  -476  -484  -497  -501  -495  -485  -473  -457  -435  -398  -351  -323  -344  -409  -504  -606  -678  -711  -722  -727  -729  -730  -728  -721  -699  -657  -608  -577  -576  -596  -624  -641  -637  -617  -593  -574  -554  -504  -392  -244  -146  -145  -195  -231  -225  -178  -111  -51  3  60  101  92  7  -141  -293  -393  -438  -470  -530  -618  -707  -786  -849  -887  -903  -905  -883  -817  -706  -567  -453  -496  -786  -1189  -1388  -1019  149  1982  4012  5744  6797  6875  5872  3978  1629  -529  -1866  -2190  -1821  -1277  -948  -915  -1006  -1043  -988  -897  -821  -765  -727  -712  -720  -734  -728  -677  -598  -516  -436  -359  -307  -288  -294  -313  -328  -341  -359  -382  -397  -397  -392  -381  -357  -319  -293  -292  -300  -300  -298  -304  -314  -305  -234  -72  156  359  462  463  419  412  491  621  722  760  767  801  910  1109  1374  1654  1900  2075  2165  2192  2189  2172  2148  2122  2078  2000  1896  1806  1760  1752  1755  1749  1726  1655  1468  1144  753  383  65  -227  -512  -747  -880  -912  -871  -784  -682  -606  -575  -598  -689  -850  -1055  -1243  -1360  -1398  -1396  -1385  -1371  -1356  -1355  -1395  -1469  -1511  -1439  -1255  -1043  -895  -832  -808  -790  -782  -778  -745  -677  -611  -577  -571  -576  -577  -554  -495  -423  -391  -428  -501  -557  -575  -566  -541  -490  -403  -296  -227  -264  -439  -683  -865  -927  -889  -783  -653  -569  -575  -651  -718  -716  -692  -702  -699  -646  -588  -573  -618  -690  -745  -795  -882  -995  -1075  -1074  -991  -869  -759  -656  -547  -501  -573  -689  -752  -750  -724  -706  -699  -682  -623  -500  -345  -238  -224  -273  -320  -318  -258  -144  -5  108  170  188  166  96  -1  -88  -153  -228  -336  -454  -535  -566  -577  -586  -581  -544  -491  -452  -451  -517  -653  -811  -931  -986  -977  -939  -930  -978  -991  -701  209  1860  4068  6359  8040  8482  7487  5320  2567  39  -1527  -1938  -1546  -875  -379  -262  -390  -537  -618  -648  -656  -653  -621  -534  -420  -360  -408  -524  -606  -600  -549  -508  -478  -428  -338  -228  -142  -92  -57  -34  -45  -95  -139  -136  -109  -89  -42  85  271  423  497  512  507  499  492  486  489  504  522  531  533  567  684  899  1153  1341  1435  1509  1644  1876  2154  2351  2416  2402  2368  2337  2323  2340  2396  2476  2550  2580  2554  2491  2412  2305  2119  1819  1451  1119  881  724  592  389  48  -338  -591  -643  -563  -452  -379  -355  -354  -366  -410  -512  -649  -769  -857  -929  -982  -993  -941  -843  -747  -688  -665  -669  -701  -755  -800  -784  -673  -511  -401  -409  -532  -697  -808  -841  -832  -798  -732  -635  -530  -446  -401  -396  -409  -419  -415  -404  -397  -396  -385  -338  -246  -166  -178  -278  -370  -387  -345  -291  -247  -208  -182  -182  -199  -221  -240  -248  -240  -217  -187  -165  -159  -165  -171  -148  -73  33  122  167  177  161  117  59  17  8  31  77  124  151  136  55  -92  -250  -331  -299  -193  -44  167  415  598  645  554  395  271  231  238  235  193  125  74  68  107  166  205  211  216  242  285  340  398  443  467  467  422  292  67  -173  -311  -303  -177  50  319  510  582  591  577  526  407  256  146  121  172  275  397  502  573  614  635  647  655  642  584  488  395  335  302  252  141  -11  -120  -146  -126  -104  -75  -21  34  34  -59  -238  -480  -753  -1000  -1106  -866  -45  1387  3188  5028  6650  7836  8319  7836  6289  3898  1277  -750  -1627  -1433  -772  -262  -118  -231  -436  -623  -730  -741  -672  -556  -452  -381  -332  -307  -321  -369  -446  -521  -573  -617  -657  -675  -647  -560  -443  -360  -333  -336  -340  -340  -348  -368  -366  -313  -238  -180  -144  -121  -94  -48  22  98  156  195  230  259  298  398  578  774  898  930  918  910  933  997  1108  1256  1398  1510  1600  1660  1678  1682  1732  1876  2075  2229  2292  2275  2150  1868  1473  1103  838  635  412  164  -56  -264  -508  -744  -893  -962  -1031  -1141  -1280  -1442  -1608  -1729  -1783  -1796  -1795  -1784  -1768  -1775  -1861  -2053  -2286  -2451  -2498  -2415  -2204  -1940  -1754  -1693  -1702  -1725  -1751  -1792  -1853  -1914  -1951  -1957  -1945  -1938  -1953  -1997  -2074  -2182  -2278  -2310  -2261  -2132  -1948  -1765  -1646  -1631  -1687  -1749  -1778  -1770  -1740  -1709  -1680  -1643  -1602  -1580  -1588  -1618  -1657  -1704  -1752  -1780  -1768  -1725  -1677  -1623  -1555  -1495  -1470  -1486  -1533  -1596  -1665  -1735  -1781  -1775  -1709  -1601  -1494  -1419  -1382  -1364  -1339  -1303  -1269  -1246  -1227  -1210  -1194  -1183  -1179  -1184  -1198  -1212  -1218  -1207  -1169  -1114  -1061  -1017  -978  -933  -876  -822  -791  -785  -793  -799  -787  -742  -673  -609  -580  -621  -752  -920  -989  -880  -662  -466  -347  -256  -141  -41  -57  -202  -381  -506  -561  -560  -512  -417  -275  -121  -33  -56  -146  -231  -282  -295  -252  -128  43  185  257  283  294  289  262  230  206  177  134  90  59  38  6  -48  -120  -200  -268  -307  -317  -312  -297  -275  -253  -239  -235  -235  -233  -235  -285  -467  -737  -827  -459  535  2224  4406  6596  8281  9039  8571  6929  4591  2154  140  -1044  -1334  -1048  -515  39  414  531  432  198  -42  -179  -191  -138  -85  -43  9  60  64  22  -5  24  90  146  184  223  266  294  306  322  359  396  396  349  285  244  246  311  453  637  786  871  925  966  974  944  920  942  996  1045  1074  1094  1119  1172  1314  1599  1959  2237  2369  2426  2489  2581  2665  2716  2768  2844  2905  2924  2936  3003  3142  3292  3360  3304  3159  2987  2805  2588  2359  2172  1990  1708  1331  1001  822  759  716  628  467  225  -34  -209  -267  -260  -239  -222  -213  -211  -209  -209  -217  -240  -273  -295  -295  -278  -256  -232  -200  -170  -173  -231  -322  -383  -385  -357  -334  -322  -311  -303  -310  -336  -373  -402  -413  -401  -364  -308  -238  -151  -71  -43  -63  -108  -161  -197  -199  -180  -153  -130  -118  -107  -86  -61  -53  -81  -145  -229  -311  -366  -388  -392  -393  -375  -309  -199  -83  9  62  79  84  88  79  45  -6  -52  -104  -198  -325  -436  -503  -529  -513  -458  -385  -328  -301  -302  -338  -413  -492  -520  -463  -347  -242  -190  -176  -171  -175  -225  -361  -547  -688  -730  -685  -599  -532  -510  -503  -466  -392  -316  -280  -290  -335  -394  -445  -480  -494  -487  -469  -433  -363  -278  -223  -205  -182  -113  1  128  226  283  311  322  290  169  -42  -266  -423  -499  -528  -568  -656  -751  -797  -831  -916  -1012  -1057  -1053  -1032  -1014  -1001  -995  -1013  -1084  -1207  -1334  -1396  -1280  -749  425  2237  4450  6571  7855  7715  6120  3522  669  -1525  -2476  -2402  -1936  -1448  -1039  -781  -683  -673  -699  -757  -850  -951  -1022  -1044  -1023  -964  -892  -846  -845  -861  -831  -688  -445  -219  -126  -192  -354  -529  -670  -773  -842  -872  -858  -784  -654  -488  -303  -124  2  57  81  121  174  206  211  228  271  316  367  464  605  727  784  802  881  1113  1458  1756  1911  1961  1968  1964  1966  2005  2122  2315  2506  2624  2670  2686  2698  2695  2664  2611  2541  2422  2208  1885  1516  1216  1027  888  718  475  199  -22  -178  -301  -390  -448  -498  -563  -646  -723  -774  -830  -908  -972  -994  -993  -995  -1012  -1030  -1036  -1047  -1093  -1162  -1210  -1199  -1120  -1000  -863  -695  -515  -405  -411  -484  -554  -589  -599  -601  -599  -587  -561  -514  -452  -398  -361  -334  -324  -346  -390  -437  -501  -627  -837  -1069  -1211  -1157  -862  -434  -90  66  97  59  -74  -325  -594  -724  -696  -620  -576  -570  -583  -597  -598  -562  -471  -353  -264  -232  -245  -296  -378  -463  -534  -586  -605  -576  -524  -488  -483  -500  -518  -526  -531  -556  -617  -701  -771  -799  -786  -728  -609  -457  -354  -352  -428  -542  -673  -790  -873  -922  -932  -890  -819  -764  -748  -756  -769  -784  -804  -819  -791  -684  -528  -414  -384  -397  -408  -415  -420  -403  -331  -200  -56  53  106  85  -6  -133  -263  -406  -554  -662  -711  -732  -769  -844  -948  -1026  -1036  -994  -922  -812  -688  -605  -583  -591  -592  -577  -614  -835  -1228  -1479  -1130  107  2171  4630  6839  8216  8402  7248  4948  2129  -383  -1906  -2245  -1722  -896  -342  -296  -512  -687  -754  -752  -673  -511  -337  -247  -261  -324  -375  -392  -391  -386  -385  -392  -403  -416  -436  -472  -536  -615  -674  -680  -594  -404  -209  -130  -145  -158  -134  -79  -14  32  50  52  69  121  190  242  289  376  504  627  718  797  899  1041  1190  1287  1325  1371  1490  1684  1888  2028  2082  2082  2089  2183  2404  2672  2838  2836  2716  2557  2410  2293  2184  2056  1920  1815  1764  1727  1611  1357  1007  652  332  30  -251  -467  -585  -626  -634  -636  -640  -641  -629  -601  -553  -478  -398  -359  -377  -424  -473  -533  -627  -757  -889  -969  -952  -831  -665  -547  -513  -536  -576  -616  -654  -706  -776  -829  -829  -790  -753  -731  -730  -766  -851  -961  -1050  -1096  -1080  -946  -665  -327  -96  -40  -92  -162  -241  -368  -560  -780  -958  -1049  -1051  -967  -796  -574  -384  -302  -332  -416  -501  -590  -694  -784  -828  -826  -808  -798  -806  -841  -889  -933  -963  -966  -893  -700  -445  -266  -251  -389  -593  -752  -819  -823  -786  -698  -566  -424  -310  -252  -265  -323  -378  -411  -430  -454  -508  -598  -689  -731  -703  -631  -546  -456  -359  -280  -247  -232  -200  -176  -190  -239  -329  -470  -620  -715  -746  -742  -716  -660  -583  -512  -464  -435  -415  -390  -331  -216  -71  44  99  103  85  63  38  15  3  0  1  3  10  22  23  -11  -92  -198  -296  -364  -400  -416  -410  -379  -332  -286  -264  -278  -319  -376  -439  -482  -522  -602  -724  -879  -996  -776  175  2007  4471  6920  8526  8734  7522  5344  2897  776  -678  -1301  -1202  -777  -378  -177  -192  -291  -341  -349  -356  -359  -351  -339  -337  -353  -389  -430  -472  -522  -581  -622  -614  -540  -417  -297  -227  -212  -228  -254  -281  -306  -328  -337  -325  -302  -280  -263  -238  -168  -35  120  238  305  345  376  394  395  398  436  513  594  645  677  730  833  986  1164  1310  1408  1505  1631  1761  1900  2099  2342  2526  2603  2617  2617  2625  2635  2606  2485  2267  2031  1853  1737  1626  1463  1230  950  649  350  72  -158  -309  -352  -311  -279  -319  -401  -492  -610  -766  -925  -1049  -1116  -1127  -1096  -1052  -1040  -1080  -1130  -1137  -1097  -1053  -1053  -1082  -1086  -1046  -995  -959  -950  -964  -982  -989  -989  -998  -1031  -1084  -1137  -1164  -1155  -1129  -1097  -1066  -1043  -1024  -982  -899  -785  -690  -672  -729  -822  -935  -1050  -1133  -1172  -1185  -1162  -1075  -937  -815  -756  -748  -758  -763  -760  -760  -791  -884  -1028  -1154  -1214  -1201  -1143  -1095  -1091  -1106  -1094  -1028  -918  -814  -756  -739  -744  -777  -854  -955  -1036  -1080  -1102  -1114  -1123  -1146  -1187  -1229  -1247  -1236  -1213  -1193  -1166  -1115  -1053  -1002  -968  -945  -933  -929  -930  -930  -926  -911  -872  -805  -717  -617  -548  -566  -657  -740  -771  -762  -738  -720  -759  -917  -1180  -1437  -1598  -1669  -1682  -1611  -1408  -1132  -933  -910  -1049  -1253  -1408  -1476  -1524  -1649  -1875  -2089  -1982  -1196  377  2524  4799  6636  7524  7244  5914  3797  1294  -995  -2542  -3147  -2876  -2014  -1079  -589  -645  -915  -1099  -1151  -1134  -1107  -1093  -1090  -1086  -1062  -983  -841  -686  -584  -548  -548  -557  -564  -560  -531  -467  -397  -375  -422  -492  -532  -527  -487  -422  -333  -212  -74  42  108  125  122  114  106  96  101  171  345  590  831  1023  1154  1213  1224  1242  1318  1444  1566  1677  1832  2067  2337  2572  2749  2887  3020  3170  3334  3483  3593  3659  3687  3658  3527  3277  2954  2638  2392  2229  2111  1998  1860  1690  1501  1325  1194  1120  1099  1108  1111  1095  1069  997  785  423]
