reading_id,reading_time,wire_id,result_classification,heart_rate,heart_rate_alert,firmware_version,device_app_version,hardware_version,waveform_samples
d78d9430-d9a3-11ed-8080-808080808080,Thu Apr 13 02:35:23 UTC 2023,e12964476439,NSR,58,NONE,20001.188.58,2.13.0,Charge 5,[-3417  -3463  -3505  -3525  -3498  -3410  -3308  -3276  -3293  -3258  -3126  -2899  -2620  -2375  -2205  -2083  -1991  -1922  -1828  -1644  -1441  -1433  -1636  -1756  -1441  -441  1218  3144  4729  5401  4925  3588  1919  331  -775  -1154  -1033  -730  -311  154  492  665  770  857  914  936  930  885  775  622  493  430  431  483  574  688  798  879  921  935  938  916  823  648  441  265  166  168  281  478  675  787  781  667  488  313  213  241  392  579  700  720  677  629  619  680  820  990  1131  1262  1439  1649  1807  1845  1793  1724  1694  1741  1860  2046  2286  2482  2533  2456  2357  2330  2381  2442  2474  2491  2502  2465  2313  2047  1782  1628  1584  1581  1566  1526  1483  1460  1454  1459  1505  1643  1872  2150  2445  2663  2721  2678  2616  2556  2491  2418  2373  2403  2502  2619  2699  2730  2735  2737  2742  2732  2666  2511  2306  2125  1979  1832  1681  1539  1422  1348  1325  1332  1341  1346  1347  1325  1258  1136  940  694  470  311  175  -20  -283  -540  -764  -999  -1234  -1390  -1431  -1418  -1427  -1468  -1510  -1535  -1542  -1530  -1497  -1449  -1397  -1354  -1340  -1348  -1333  -1268  -1178  -1093  -1026  -984  -981  -1027  -1127  -1265  -1398  -1485  -1516  -1499  -1458  -1420  -1368  -1283  -1191  -1127  -1099  -1118  -1167  -1180  -1104  -974  -878  -846  -821  -739  -603  -493  -495  -639  -866  -1059  -1146  -1133  -1005  -704  -272  112  308  332  334  479  809  1202  1523  1754  1955  2158  2344  2497  2611  2664  2638  2551  2428  2272  2076  1853  1646  1469  1295  1125  1008  962  951  942  918  866  795  742  700  567  230  -292  -868  -1343  -1617  -1715  -1766  -1843  -1923  -1975  -1995  -1973  -1889  -1754  -1616  -1515  -1461  -1443  -1459  -1532  -1674  -1829  -1851  -1659  -1381  -1070  -500  454  1663  2967  4078  4519  3995  2597  760  -936  -2101  -2555  -2258  -1508  -852  -524  -302  39  406  553  429  208  46  -28  -51  -48  -22  58  198  349  453  497  509  520  540  567  603  632  602  472  306  225  271  389  503  579  656  791  962  1077  1065  937  776  671  638  638  655  709  816  951  1096  1273  1468  1603  1626  1550  1429  1335  1327  1453  1713  2003  2190  2248  2238  2202  2141  2065  2013  2011  2048  2093  2118  2117  2064  1910  1668  1422  1221  1070  975  905  829  786  823  895  926  889  772  537  159  -280  -607  -725  -687  -603  -544  -539  -597  -723  -879  -1006  -1097  -1177  -1269  -1384  -1510  -1612  -1690  -1768  -1865  -1997  -2148  -2251  -2263  -2198  -2100  -2007  -1914  -1777  -1544  -1212  -867  -632  -560  -632  -809  -1022  -1189  -1272  -1294  -1291  -1284  -1274  -1259  -1238  -1218  -1198  -1192  -1242  -1388  -1589  -1748  -1839  -1919  -2041  -2220  -2417  -2567  -2640  -2659  -2682  -2743  -2831  -2901  -2930  -2937  -2974  -3086  -3240  -3351  -3386  -3396  -3434  -3500  -3558  -3576  -3530  -3391  -3124  -2767  -2454  -2295  -2267  -2289  -2313  -2342  -2389  -2471  -2606  -2792  -2973  -3069  -3017  -2795  -2490  -2256  -2152  -2128  -2129  -2134  -2144  -2160  -2161  -2091  -1915  -1695  -1504  -1346  -1230  -1180  -1175  -1175  -1160  -1126  -1078  -1013  -928  -840  -782  -765  -772  -782  -790  -801  -832  -909  -1048  -1203  -1274  -1210  -1072  -966  -929  -930  -936  -936  -932  -928  -917  -839  -628  -328  -68  82  146  124  -79  -472  -744  -558  166  1444  3204  5027  6321  6697  6042  4504  2632  1167  489  504  913  1386  1678  1739  1690  1651  1653  1697  1796  1956  2155  2331  2429  2461  2480  2506  2529  2553  2607  2691  2753  2690  2421  2012  1670  1535  1576  1690  1792  1850  1873  1881  1879  1837  1709  1508  1341  1307  1389  1503  1593  1648  1678  1705  1752  1832  1934  2030  2093  2120  2127  2134  2168  2240  2322  2371  2375  2362  2349  2333  2340  2420  2558  2672  2705  2681  2656  2655  2643  2598  2531  2441  2308  2134  1942  1761  1598  1468  1406  1391  1323  1200  1125  1108  1078  1015  937  858  778  661  501  373  334  353  374  377  379  384  386  377  358  341  326  304  274  242  209  182  167  170  196  246  301  336  349  350  337  298  234  170  136  130  131  127  137  208  353  505  585  592  571  548  521  460  336  180  49  -41  -104  -150  -179  -195  -208  -239  -298  -364  -416  -448  -461  -449  -411  -357  -288  -194  -89  -17  -19  -105  -275  -524  -810  -1050  -1174  -1166  -1031  -796  -529  -309  -184  -152  -199  -317  -479  -632  -743  -795  -788  -732  -650  -571  -500  -456  -489  -618  -808  -994  -1102  -1087  -954  -774  -649  -606  -593  -567  -542  -550  -566  -544  -471  -362  -240  -145  -111  -136  -187  -232  -265  -295  -304  -269  -210  -167  -155  -160  -144  -74  35  135  187  195  184  175  172  173  173  173  176  183  184  147  43  -93  -188  -208  -189  -192  -257  -391  -540  -637  -667  -647  -578  -456  -339  -330  -464  -688  -945  -1210  -1463  -1622  -1559  -1163  -324  1074  2911  4641  5595  5376  3912  1622  -645  -2232  -2924  -2762  -2118  -1563  -1339  -1307  -1335  -1374  -1400  -1428  -1476  -1528  -1569  -1613  -1686  -1778  -1842  -1815  -1696  -1592  -1594  -1650  -1683  -1686  -1670  -1641  -1602  -1560  -1528  -1510  -1502  -1505  -1520  -1529  -1503  -1442  -1388  -1361  -1345  -1321  -1289  -1253  -1225  -1228  -1261  -1308  -1369  -1456  -1521  -1485  -1357  -1215  -1062  -831  -553  -349  -270  -259  -258  -245  -213  -173  -132  -77  11  128  252  381  530  667  722  690  638  612  614  637  654  591  373  64  -156  -183  -61  79  138  125  98  83  65  22  -48  -120  -147  -94  13  112  163  176  162  119  39  -61  -142  -174  -130  18  238  427  517  552  605  681  719  697  690  777  920  1033  1080  1066  1014  957  915  907  975  1155  1398  1599  1713  1775  1810  1827  1833  1830  1832  1874  1982  2131  2254  2314  2325  2320  2319  2330  2359  2404  2436  2412  2294  2102  1901  1750  1668  1631  1586  1514  1443  1411  1444  1524  1569  1516  1414  1347  1334  1342  1336  1306  1256  1181  1065  889  654  406  233  160  141  134  120  83  24  -55  -142  -202  -216  -201  -189  -226  -349  -519  -646  -683  -643  -558  -471  -433  -465  -544  -629  -715  -825  -942  -1009  -991  -929  -891  -923  -1019  -1136  -1232  -1292  -1308  -1286  -1248  -1219  -1206  -1207  -1211  -1206  -1186  -1162  -1173  -1228  -1267  -1244  -1194  -1158  -1136  -1111  -1081  -1047  -1006  -950  -876  -819  -842  -949  -1084  -1205  -1302  -1410  -1582  -1781  -1903  -1887  -1734  -1500  -1268  -1073  -932  -926  -1151  -1578  -2007  -2128  -1688  -634  952  2828  4395  4988  4299  2455  80  -1906  -2956  -3106  -2673  -2096  -1737  -1640  -1644  -1604  -1478  -1320  -1166  -999  -855  -791  -786  -795  -815  -860  -930  -995  -1037  -1060  -1071  -1069  -1042  -969  -855  -728  -603  -495  -435  -427  -446  -465  -467  -440  -386  -332  -317  -341  -372  -385  -351  -253  -130  -35  12  37  67  96  105  114  183  356  581  742  790  779  772  803  868  949  1036  1127  1204  1247  1251  1234  1225  1228  1231  1232  1242  1265  1271  1224  1129  1008  872  742  649  587  524  448  374  292  178  55  -26  -49  -32  9  71  123  119  49  -47  -123  -158  -163  -160  -164  -173  -179  -178  -163  -121  -51  9  38  53  87  147  178  139  67  12  -18  -35  -30  0  43  75  90  100  111  120  128  143  155  126  20  -151  -318  -412  -424  -367  -259  -136  -42  9  30  17  -74  -264  -474  -591  -599  -556  -489  -410  -343  -298  -280  -291  -333  -405  -491  -558  -573  -506  -339  -138  -14  -3  -47  -102  -174  -247  -259  -169  -29  68  73  -17  -168  -328  -445  -483  -440  -361  -285  -176  27  284  465  473  289  -16  -297  -444  -468  -426  -338  -198  -28  120  226  315  403  474  506  472  356  196  78  47  72  95  104  128  171  187  119  -24  -151  -160  -65  32  82  109  115  23  -250  -635  -925  -964  -729  -327  -13  -18  -337  -762  -987  -670  389  2071  3918  5301  5720  5038  3459  1442  -400  -1584  -2007  -1853  -1389  -959  -791  -767  -726  -689  -679  -648  -549  -400  -277  -228  -243  -287  -343  -398  -437  -459  -480  -499  -487  -387  -183  47  200  249  236  186  91  -61  -239  -353  -343  -224  -51  106  195  216  207  200  206  234  292  369  429  454  455  447  438  419  393  389  445  552  671  768  845  930  1020  1085  1128  1187  1287  1398  1477  1507  1478  1398  1311  1240  1153  1003  821  701  680  705  696  589  383  164  25  -25  -47  -81  -111  -113  -95  -82  -91  -129  -193  -266  -335  -393  -416  -378  -287  -180  -84  -24  -34  -144  -319  -468  -544  -569  -577  -568  -513  -400  -261  -158  -123  -143  -178  -196  -193  -172  -144  -120  -111  -136  -210  -311  -386  -410  -401  -375  -348  -330  -316  -263  -120  85  256  320  264  103  -95  -239  -292  -293  -285  -279  -253  -185  -92  -20  13  31  51  71  82  64  -1  -105  -200  -237  -211  -164  -133  -114  -107  -139  -237  -371  -474  -518  -519  -471  -351  -193  -78  -41  -45  -50  -46  -40  -43  -59  -81  -104  -130  -144  -120  -70  -69  -168  -281  -298  -246  -209  -206  -203  -181  -152  -133  -124  -142  -198  -257  -280  -265  -236  -214  -206  -207  -209  -196  -165  -145  -159  -183  -180  -153  -148  -203  -301  -385  -427  -438  -439  -437  -421  -384  -337  -298  -245  -143  -22  52  64  49  35  39  81  163  253  300  277  204  104  -15  -140  -237  -293  -318  -327  -329  -328  -323  -320  -335  -387  -467  -537  -547  -450  -260  -135  -237  -523  -823  -913  -473  698  2466  4349  5684  5921  4921  3052  950  -818  -1878  -2116  -1764  -1181  -634  -322  -279  -347  -418  -498  -563  -562  -488  -382  -300  -245  -179  -97  -31  0  2  -27  -104  -203  -263  -247  -178  -128  -142  -184  -212  -225  -232  -231  -213  -177  -131  -74  4  93  157  190  221  262  294  305  303  298  297  307  337  409  537  685  787  817  818  851  928  1003  1038  1051  1090  1187  1305  1378  1389  1367  1352  1355  1362  1350  1302  1222  1123  996  844  707  621  587  559  456  229  -53  -274  -380  -403  -395  -387  -385  -382  -372  -357  -343  -337  -348  -382  -430  -469  -493  -516  -559  -601  -555  -359  -113  -2  -69  -202  -296  -355  -423  -494  -521  -482  -417  -396  -426  -427  -371  -328  -350  -405  -440  -441  -407  -356  -316  -304  -313  -329  -342  -346  -335  -301  -254  -215  -192  -184  -203  -261  -342  -403  -422  -415  -405  -394  -371  -327  -273  -249  -297  -399  -481  -498  -460  -404  -362  -342  -331  -314  -291  -281  -301  -335  -364  -388  -410  -427  -437  -445  -452  -459  -459  -441  -401  -353  -320  -308  -309  -313  -315  -306  -277  -238  -209  -197  -197  -207  -235  -278  -314  -308  -238  -124  -25  26  46  53  55  26  -71  -227  -360  -419  -411  -358  -268  -153  -35  49  61  -17  -153  -271  -320  -316  -286  -227  -119  8  84  85  52  29  26  30  18  -20  -75  -120  -137  -104  -2  134  232  243  176  80  12  -9  -4  7  11  -6  -59  -130  -182  -202  -207  -207  -191  -155  -134  -183  -322  -501  -635  -683  -655  -593  -585  -684  -829  -899  -724  -54  1166  2665  4132  5239  5546  4826  3251  1207  -811  -2201  -2537  -1991  -1199  -670  -498  -516  -543  -497  -381  -241  -126  -46  5  31  38  40  49  46  -16  -148  -240  -178  -37  19  -40  -132  -195  -226  -231  -185  -51  135  282  336  299  184  28  -100  -159  -157  -109  -28  62  141  205  267  351  461  578  672  723  735  729  719  709  710  740  817  944  1096  1227  1310  1345  1350  1343  1342  1362  1411  1473  1509  1491  1427  1329  1212  1105  991  822  620  477  423  407  382  320  195  26  -120  -210  -262  -301  -358  -463  -572  -617  -605  -589  -582  -548  -455  -334  -269  -300  -385  -451  -471  -464  -455  -462  -494  -547  -595  -610  -580  -499  -366  -218  -108  -55  -40  -47  -82  -156  -251  -320  -353  -379  -407  -405  -350  -271  -223  -223  -242  -254  -256  -253  -246  -237  -231  -222  -201  -193  -223  -263  -277  -271  -272  -296  -330  -365  -415  -484  -559  -623  -656  -656  -643  -616  -548  -428  -294  -194  -153  -162  -194  -235  -290  -362  -452  -540  -576  -513  -356  -180  -65  -24  -27  -54  -113  -193  -262  -317  -367  -389  -369  -347  -355  -376  -382  -371  -355  -341  -320  -290  -262  -244  -238  -237  -237  -229  -201  -150  -96  -61  -49  -51  -63  -86  -114  -135  -139  -126  -94  -16  133  322  458  469  328  75  -181  -358  -460  -509  -500  -461  -433  -425  -426  -429  -429  -428  -424  -423  -436  -475  -538  -597  -648  -692  -567  11  1152  2674  4219  5307  5433  4462  2751  793  -903  -1906  -2139  -1848  -1348  -868  -522  -344  -294  -295  -299  -280  -229  -168  -117  -78  -53  -52  -82  -144  -221  -282  -312  -317  -308  -287  -254  -210  -162  -124  -84  -18  51  88  104  120  143  165  153  95  32  12  33  52  38  16  24  80  187  347  550  751  878  900  846  770  715  692  702  761  885  1033  1133  1170  1196  1249  1318  1372  1404  1431  1471  1511  1512  1456  1351  1204  1020  843  729  667  587  432  222  55  -28  -91  -166  -209  -219  -251  -335  -436  -489  -475  -430  -391  -371  -365  -366  -374  -395  -426  -458  -490  -521  -541  -547  -543  -540  -540  -543  -542  -538  -541  -553  -562  -543  -495  -466  -489  -535  -564  -575  -586  -603  -607  -563  -460  -326  -208  -146  -146  -173  -191  -200  -220  -270  -348  -426  -480  -501  -489  -427  -303  -165  -82  -65  -81  -120  -195  -285  -343  -352  -331  -271  -148  -6  59  11  -114  -253  -359  -433  -484  -481  -387  -234  -105  -35  -1  18  13  -48  -159  -216  -155  -56  -14  -18  -30  -39  -60  -110  -181  -242  -275  -288  -300  -309  -298  -265  -226  -199  -189  -190  -190  -177  -151  -129  -128  -148  -181  -216  -249  -281  -298  -286  -260  -238  -228  -227  -218  -185  -125  -50  25  86  122  134  117  43  -114  -311  -454  -500  -479  -418  -321  -213  -135  -90  -42  21  71  113  179  249  286  291  282  274  278  296  306  278  207  120  44  -13  -77  -149  -201  -223  -237  -263  -302  -340  -366  -387  -421  -468  -504  -516  -506  -487  -491  -570  -749  -937  -864  -192  1192  2997  4660  5625  5590  4614  2992  1106  -584  -1671  -2026  -1835  -1392  -922  -593  -483  -516  -560  -563  -524  -459  -400  -383  -427  -529  -650  -738  -768  -739  -645  -502  -358  -253  -209  -223  -258  -277  -282  -289  -314  -352  -384  -391  -362  -279  -131  51  205  285  296  254  169  74  32  90  233  384  476  506  503  500  519  561  606  652  698  738  765  781  809  888  1047  1261  1474  1626  1676  1611  1458  1278  1125  1025  981  970  962  937  877  757  570  370  240  201  200  179  110  -23  -228  -464  -636  -679  -626  -561  -507  -434  -339  -269  -246  -251  -260  -261  -258  -261  -285  -339  -422  -527  -615  -637  -594  -533  -479  -427  -371  -308  -244  -197  -176  -172  -175  -185  -201  -208  -191  -149  -113  -137  -253  -408  -513  -529  -472  -391  -327  -288  -248  -182  -99  -67  -129  -198  -176  -99  -50  -42  -48  -54  -55  -54  -52  -51  -55  -74  -115  -177  -256  -330  -352  -301  -223  -172  -159  -163  -172  -190  -217  -249  -282  -297  -278  -233  -179  -126  -83  -61  -64  -79  -91  -95  -100  -99  -81  -67  -87  -144  -196  -195  -147  -111  -117  -135  -116  -65  -37  -67  -130  -165  -152  -144  -210  -341  -447  -445  -343  -231  -185  -221  -312  -402  -448  -460  -446  -369  -192  29  168  162  69  -22  -81  -107  -104  -64  8  93  157  178  151  83  7  -47  -102  -200  -329  -424  -457  -457  -453  -453  -450  -437  -418  -424  -461  -453  -397  -406  -441  -220  553  1923  3563  4901  5338  4551  2744  576  -1216  -2170  -2198  -1559  -793  -360  -294  -368  -421  -423  -379  -290  -183  -107  -82  -90  -110  -132  -149  -156  -156  -155  -155  -153  -146  -136  -131  -123  -90  -27  47  116  161  176  164  128  78  30  0  -9  -4  8  36  109  240  382  470  501  510  522  535  555  611  722  860  972  1030  1040  1021  995  976  965  956  962  1024  1182  1425  1671  1818  1827  1727  1579  1451  1384  1387  1437  1475  1394  1102  651  237  4  -55  -23  34  67  40  -59  -219  -392  -507  -544  -538  -527  -520  -514  -509  -515  -535  -540  -512  -481  -487  -523  -552  -558  -550  -544  -544  -540  -509  -429  -321  -247  -258  -366  -515  -622  -654  -643  -624  -603  -569  -519  -454  -377  -291  -206  -136  -104  -116  -165  -253  -365  -453  -491  -498  -496  -487  -470  -447  -423  -402  -386  -384  -403  -444  -498  -544  -560  -538  -481  -415  -381  -387  -406  -420  -438  -488  -568  -619  -586  -473  -340  -243  -192  -169  -162  -150  -123  -103  -126  -210  -323  -404  -432  -428  -418  -404  -385  -359  -326  -296  -272  -247  -217  -178  -131  -97  -81  -63  -25  5  -19  -89  -154  -203  -272  -360  -416  -396  -324  -272  -239  -126  82  268  359  395  419  427  371  203  -26  -194  -230  -165  -66  0  -3  -81  -202  -301  -346  -349  -338  -327  -325  -351  -421  -520  -601  -627  -580  -467  -351  -329  -478  -786  -1065  -970  -173  1385  3386  5196  6102  5712  4199  2117  115  -1287  -1892  -1838  -1450  -990  -575  -305  -212  -214  -229  -256  -333  -453  -552  -578  -528  -438  -342  -251  -168  -106  -74  -64  -64  -67  -73  -80  -85  -79  -53  -11  29  49  31  -16  -44  -21  19  41  55  76  106  149  214  289  343  364  359  342  332  348  411  512  612  688  735  757  770  789  812  830  868  969  1122  1277  1406  1500  1526  1469  1367  1274  1216  1183  1153  1128  1104  1033  856  595  347  167  29  -81  -133  -115  -67  -37  -51  -120  -218  -262  -203  -106  -59  -102  -233  -405  -542  -617  -653  -671  -669  -653  -632  -609  -591  -581  -567  -538  -501  -472  -461  -469  -491  -515  -533  -539  -535  -527  -525  -538  -570  -608  -634  -635  -609  -567  -527  -498  -471  -438  -400  -368  -341  -319  -311  -323  -337  -338  -332  -337  -365  -409  -431  -404  -346  -320  -361  -428  -463  -459  -443  -439  -444  -427  -347  -200  -47  39  46  2  -52  -90  -127  -204  -321  -426  -489  -521  -538  -521  -438  -292  -145  -54  -7  47  110  121  33  -117  -244  -308  -330  -345  -362  -355  -295  -197  -122  -120  -193  -299  -381  -414  -411  -391  -364  -331  -283  -199  -99  -44  -79  -180  -283  -342  -357  -352  -360  -401  -455  -453  -345  -173  -37  16  19  13  10  -4  -50  -117  -168  -169  -100  22  144  199  161  46  -83  -168  -197  -188  -139  -43  67  131  128  86  38  -15  -98  -224  -367  -482  -531  -495  -366  -189  -61  -45  -149  -320  -462  -528  -602  -756  -842  -559  285  1684  3419  4971  5719  5339  3946  1966  -18  -1448  -2064  -2006  -1549  -963  -516  -327  -283  -254  -229  -224  -207  -163  -110  -66  -45  -48  -58  -62  -64  -81  -148  -294  -482  -614  -608  -454  -238  -82  -31  -39  -58  -72  -81  -70  -30  25  67  79  74  63  45  29  32  73  154  260  364  451  529  609  674  700  716  774  863  908  882  854  895  1000  1120  1214  1256  1254  1245  1275  1372  1492  1529  1432  1277  1165  1109  1071  1029  1010  996  876  629  381  210  71  -72  -198  -280  -323  -342  -345  -336  -320  -312  -340  -428  -552  -649  -682  -648  -548  -419  -326  -294  -300  -325  -369  -422  -459  -460  -419  -350  -280  -228  -191  -167  -152  -140  -136  -147  -170  -190  -199  -194  -173  -136  -93  -62  -60  -93  -164  -249  -309  -329  -322  -297  -262  -222  -186  -163  -155  -160  -179  -206  -231  -246  -235  -182  -103  -39  -9  2  9  5  -24  -71  -115  -142  -141  -113  -62  -3  10  -44  -99  -102  -104  -151  -218  -261  -273  -269  -268  -278  -293  -302  -299  -297  -317  -364  -395  -393  -401  -439  -490  -529  -529  -498  -473  -456  -445  -455  -482  -512  -525  -489  -389  -253  -147  -104  -107  -132  -186  -295  -434  -528  -507  -356  -144  5  23  -72  -207  -304  -339  -335  -305  -247  -186  -176  -237  -332  -426  -522  -629  -726  -789  -802  -754  -663  -572  -507  -451  -410  -479  -729  -1034  -1107  -595  693  2463  4095  5113  5233  4378  2820  993  -710  -1926  -2395  -2156  -1530  -895  -494  -353  -345  -358  -366  -368  -339  -279  -228  -209  -210  -217  -234  -274  -336  -385  -399  -395  -386  -346  -235  -71  62  111  83  16  -48  -85  -95  -94  -87  -74  -58  -55  -64  -64  -35  28  134  269  386  436  416  387  408  481  576  669  728  741  731  736  786  889  1023  1146  1230  1300  1390  1474  1498  1474  1451  1445  1444  1433  1408  1379  1351  1293  1131  851  552  340  229  172  114  15  -118  -237  -311  -356  -387  -387  -324  -206  -114  -132  -240  -344  -397  -422  -445  -457  -439  -385  -314  -253  -222  -222  -247  -300  -378  -466  -529  -532  -473  -391  -330  -311  -312  -299  -264  -225  -201  -193  -191  -188  -185  -183  -183  -185  -189  -194  -197  -196  -189  -172  -150  -133  -124  -121  -121  -123  -126  -123  -113  -109  -116  -130  -147  -168  -187  -192  -179  -156  -139  -136  -155  -187  -205  -200  -177  -140  -100  -63  -17  62  161  199  93  -117  -301  -389  -399  -366  -314  -252  -190  -147  -131  -131  -133  -135  -134  -133  -135  -138  -143  -150  -153  -129  -58  31  67  4  -123  -244  -325  -374  -403  -413  -377  -262  -92  48  92  40  -49  -122  -165  -189  -195  -176  -138  -103  -86  -85  -97  -115  -136  -157  -178  -196  -218  -248  -265  -236  -142  5  157  244  232  140  13  -95  -155  -179  -185  -161  -84  29  122  153  114  3  -153  -310  -446  -560  -623  -592  -467  -333  -288  -315  -342  -349  -342  -372  -550  -843  -1020  -818  -78  1194  2788  4352  5505  5881  5214  3584  1475  -486  -1797  -2194  -1810  -1143  -636  -391  -290  -207  -132  -127  -208  -331  -451  -541  -577  -550  -465  -340  -218  -143  -124  -132  -140  -136  -117  -89  -62  -46  -48  -97  -220  -383  -489  -487  -404  -291  -172  -47  54  86  65  50  57  56  32  2  -7  4  24  43  71  142  280  453  605  705  752  765  789  867  992  1113  1192  1230  1241  1240  1238  1240  1245  1251  1255  1251  1234  1204  1150  1062  956  839  699  534  369  230  120  17  -99  -235  -363  -448  -474  -440  -349  -230  -125  -55  -27  -55  -148  -298  -454  -535  -530  -492  -469  -467  -475  -481  -476  -462  -441  -418  -386  -339  -297  -303  -393  -529  -634  -673  -668  -647  -613  -561  -500  -452  -423  -418  -448  -512  -581  -605  -552  -447  -341  -271  -246  -260  -296  -333  -362  -375  -375  -363  -348  -338  -335  -335  -331  -323  -315  -306  -291  -272  -256  -248  -260  -298  -346  -383  -379  -315  -225  -158  -132  -131  -147  -177  -211  -250  -304  -370  -415  -398  -306  -177  -77  -31  -20  -32  -77  -170  -289  -376  -409  -409  -386  -332  -244  -140  -43  20  37  10  -37  -81  -113  -143  -177  -207  -211  -160  -38  107  177  102  -110  -372  -568  -608  -469  -222  -6  92  78  -10  -122  -199  -225  -217  -185  -130  -65  -25  -45  -143  -278  -379  -414  -395  -324  -198  -48  67  134  180  218  241  260  296  357  402  369  224  -5  -244  -398  -444  -434  -414  -407  -421  -459  -501  -510  -469  -400  -338  -295  -264  -244  -240  -283  -409  -528  -379  329  1662  3300  4699  5387  5104  3873  2014  35  -1518  -2252  -2100  -1366  -529  45  234  137  -47  -193  -271  -288  -263  -224  -197  -185  -173  -146  -101  -49  -2  41  92  133  138  106  63  35  26  30  40  56  73  86  99  115  132  143  152  158  152  130  99  74  61  57  71  127  232  368  502  599  645  665  719  835  958  1030  1049  1048  1051  1061  1067  1062  1050  1047  1070  1118  1177  1235  1288  1331  1354  1317  1166  907  644  481  433  449  469  442  328  145  -30  -157  -266  -376  -449  -463  -448  -435  -428  -422  -419  -434  -469  -510  -543  -557  -549  -526  -481  -399  -290  -204  -198  -306  -484  -641  -719  -732  -718  -697  -664  -615  -560  -501  -429  -343  -258  -200  -177  -176  -181  -173  -152  -143  -178  -256  -337  -381  -375  -337  -307  -323  -370  -400  -392  -372  -364  -368  -371  -349  -285  -193  -122  -109  -155  -233  -316  -397  -459  -462  -421  -398  -406  -420  -425  -426  -427  -426  -411  -370  -309  -251  -214  -189  -163  -152  -191  -286  -399  -487  -538  -558  -554  -534  -488  -404  -306  -241  -231  -263  -312  -351  -371  -375  -354  -297  -216  -150  -123  -129  -148  -177  -214  -246  -283  -362  -481  -587  -625  -579  -484  -388  -303  -211  -108  -17  30  15  -63  -177  -270  -308  -289  -211  -70  92  207  248  239  195  103  -39  -197  -317  -389  -438  -467  -456  -398  -317  -257  -249  -294  -375  -462  -510  -466  -362  -333  -466  -584  -274  735  2333  4114  5486  5870  5060  3305  1164  -714  -1858  -2112  -1721  -1173  -813  -665  -601  -537  -439  -279  -85  50  82  44  -2  -15  6  31  14  -66  -182  -273  -306  -276  -179  -43  70  131  158  166  150  94  5  -64  -70  -41  -20  -16  -19  -20  -3  49  141  256  359  421  438  434  424  412  406  433  520  638  724  757  774  813  897  1024  1156  1240  1266  1272  1280  1285  1284  1293  1324  1373  1415  1416  1341  1183  988  822  703  614  535  446  325  169  11  -97  -131  -108  -67  -43  -73  -192  -397  -611  -750  -792  -754  -631  -446  -292  -248  -288  -332  -353  -361  -360  -348  -331  -320  -318  -322  -326  -315  -276  -219  -177  -190  -286  -443  -581  -636  -609  -551  -509  -497  -501  -498  -476  -445  -421  -414  -417  -418  -410  -382  -331  -265  -208  -176  -170  -196  -270  -375  -461  -489  -464  -418  -386  -380  -385  -390  -391  -390  -379  -364  -350  -336  -320  -306  -301  -308  -338  -400  -494  -598  -671  -658  -532  -329  -149  -86  -137  -223  -285  -309  -312  -315  -330  -351  -371  -384  -377  -338  -274  -202  -145  -123  -135  -156  -167  -157  -126  -90  -69  -74  -102  -136  -157  -173  -217  -304  -391  -422  -408  -391  -384  -371  -329  -255  -173  -120  -102  -106  -127  -167  -202  -197  -154  -117  -112  -124  -131  -136  -149  -158  -123  -24  105  203  242  232  172  59  -68  -150  -165  -146  -126  -113  -105  -101  -109  -146  -224  -332  -433  -487  -468  -374  -240  -128  -66  -50  -69  -116  -189  -266  -336  -509  -872  -1144  -821  361  2237  4235  5647  5989  5108  3236  984  -963  -2152  -2428  -1963  -1231  -713  -544  -542  -532  -480  -416  -360  -326  -333  -377  -420  -425  -383  -321  -261  -205  -158  -128  -124  -138  -159  -180  -196  -205  -194  -145  -49  66  150  181  179  155  102  32  -16  -12  45  123  181  212  247  311  397  473  504  489  453  417  384  361  369  433  551  670  735  761  813  934  1093  1233  1334  1401  1437  1451  1451  1432  1379  1299  1219  1152  1082  1002  901  765  611  494  433  378  271  107  -71  -242  -383  -465  -487  -469  -437  -404  -368  -331  -314  -338  -383  -420  -441  -461  -492  -538  -584  -615  -625  -612  -567  -500  -436  -397  -365  -309  -232  -172  -150  -161  -186  -216  -257  -312  -372  -429  -454  -400  -270  -136  -76  -103  -169  -231  -281  -320  -348  -354  -338  -328  -353  -398  -416  -380  -311  -250  -206  -167  -131  -112  -124  -172  -239  -292  -315  -318  -313  -316  -344  -407  -485  -538  -532  -461  -332  -181  -60  -14  -45  -117  -191  -257  -324  -390  -436  -457  -457  -444  -431  -430  -447  -467  -458  -379  -222  -75  -33  -83  -142  -166  -153  -127  -106  -92  -84  -81  -81  -84  -83  -72  -47  -16  -8  -61  -197  -383  -532  -585  -556  -490  -427  -388  -379  -416  -525  -676  -791  -818  -762  -651  -516  -447  -576  -851  -938  -548  384  1837  3545  4899  5381  4855  3443  1507  -367  -1691  -2301  -2272  -1800  -1182  -691  -422  -321  -311  -337  -366  -360  -308  -260  -273  -319  -346  -348  -344  -340  -330  -306  -263  -206  -152  -114  -91  -72  -62  -68  -85  -113  -151  -172  -158  -126  -100  -96  -96  -35  143  404  623  715  660  468  218  35  -21  16  120  274  438  560  628  662  680  716  807  934  1039  1115  1195  1291  1371  1403  1414  1437  1447  1423  1398  1395  1379  1289  1101  873  693  590  540  503  420  244  2  -213  -346  -398  -398  -387  -398  -421  -433  -436  -449  -485  -527  -550  -551  -532  -484  -421  -374  -351  -343  -341  -339  -336  -336  -342  -356  -385  -437  -496  -536  -550  -552  -551  -536  -487  -396  -285  -195  -154  -170  -238  -330  -406  -449  -462  -451  -422  -373  -309  -262  -261  -308  -375  -424  -443  -442  -427  -391  -344  -311  -312  -346  -391  -425  -455  -507  -573  -599  -547  -435  -316  -230  -186  -171  -167  -164  -164  -165  -162  -149  -130  -115  -119  -156  -222  -288  -321  -317  -286  -238  -173  -105  -68  -101  -206  -301  -275  -136  -6  23  -39  -141  -229  -292  -340  -367  -358  -317  -259  -182  -91  -20  10  11  -3  -51  -159  -301  -403  -415  -351  -257  -185  -150  -146  -170  -221  -279  -322  -345  -361  -372  -363  -325  -254  -159  -61  17  43  3  -58  -96  -113  -118  -99  -39  44  103  104  47  -31  -85  -100  -101  -121  -176  -257  -339  -389  -400  -388  -369  -358  -367  -404  -455  -490  -498  -507  -562  -685  -840  -859  -429  672  2296  3991  5262  5683  5104  3776  2103  440  -906  -1740  -2013  -1801  -1332  -892  -582  -363  -232  -198  -238  -310  -350  -309  -215  -119  -52  -24  -39  -86  -155  -231  -285  -303  -293  -261  -204  -122  -54  -47  -86  -96  -35  80  215  332  402  422  412  400  393  375  343  299  233  146  75  88  217  419  609  736  820  896  960  989  973  911  827  766  761  817  915  1034  1174  1322  1438  1495  1509  1509  1497  1464  1414  1357  1265  1088  832  592  441  340  209  49  -76  -143  -153  -81  57  145  84  -92  -264  -331  -290  -219  -201  -272  -400  -509  -552  -556  -551  -531  -482  -409  -351  -358  -421  -499  -578  -647  -684  -667  -570  -405  -248  -156  -136  -179  -280  -402  -497  -561  -607  -609  -534  -421  -330  -277  -262  -291  -354  -430  -500  -545  -565  -570  -566  -549  -518  -490  -483  -501  -519  -517  -503  -477  -424  -339  -246  -175  -152  -192  -281  -368  -416  -424  -417  -415  -429  -460  -494  -512  -513  -503  -469  -386  -275  -189  -140  -94  -44  -37  -110  -230  -324  -361  -365  -368  -382  -400  -419  -446  -486  -519  -506  -399  -199  7  112  87  -13  -112  -163  -170  -163  -159  -166  -182  -202  -224  -241  -249  -250  -248  -246  -244  -248  -259  -276  -290  -300  -304  -287  -231  -141  -51  6  16  -16  -74  -141  -188  -200  -189  -179  -175  -174  -171  -164  -159  -160  -166  -192  -259  -365  -469  -536  -569  -598  -649  -712  -736  -676  -543  -406  -332  -350  -487  -772  -1125  -1355  -1292  -893  -256  517  1457  2643  4021  5247  5741  5081  3351  1113  -872  -2034  -2255  -1825  -1178  -652  -379  -311  -333  -364  -378  -363  -318  -261  -213  -171  -134  -128  -170  -233  -275  -274  -233  -172  -115  -63  -17  3  -7  -34  -66  -106  -140  -134  -59  71  199  274  305  322  352  410  484  540  556  532  479  420  378  360  357  381  458  585  736  898  1047  1136  1129  1034  901  803  777  820  930  1102  1311  1501  1607  1626  1608  1587  1565  1527  1459  1342  1173  972  746  507  296  166  130  138  110  24  -75  -153  -211  -255  -277  -277  -270  -269  -281  -304  -329  -345  -347  -340  -336  -341  -358  -376  -390  -416  -469  -536  -584  -602  -603  -592  -558  -492  -399  -299  -225  -193  -199  -236  -309  -407  -482  -486  -404  -294  -246  -292  -381  -456  -498  -514  -510  -465  -366  -271  -261  -314  -337  -301  -248  -224  -240  -270  -293  -312  -345  -392  -430  -425  -386  -356  -373  -426  -466  -457  -410  -340  -242  -124  -41  -69  -226  -433  -588  -646  -601  -453  -257  -120  -112  -227  -390  -508  -546  -520  -443  -317  -174  -69  -32  -51  -93  -137  -197  -278  -327  -301  -226  -131  -17  87  136  118  69  11  -44  -55  20  148  233  217  106  -64  -244  -374  -432  -436  -384  -259  -92  22  -4  -208  -510  -758  -871  -864  -735  -504  -352  -490  -884  -1280  -1368  -886  194  1665  3279  4727  5500  5179  3780  1762  -185  -1510  -1989  -1781  -1379  -1113  -867  -554  -317  -238  -254  -295  -339  -382  -420  -438  -428  -399  -351  -282  -207  -158  -145  -148  -140  -110  -70  -41  -34  -41  -49  -58  -75  -97  -110  -94  -38  52  147  197  182  130  85  69  86  138  207  263  305  357  421  480  526  566  595  606  600  576  539  516  564  724  943  1109  1178  1190  1186  1180  1185  1218  1288  1384  1476  1511  1415  1142  763  444  280  229  197  148  105  87  78  49  0  -24  9  61  62  -23  -161  -275  -333  -363  -383  -392  -407  -446  -501  -538  -539  -521  -507  -505  -509  -502  -466  -404  -352  -339  -356  -368  -355  -332  -322  -327  -333  -342  -359  -379  -391  -372  -309  -232  -183  -172  -184  -200  -214  -224  -233  -266  -349  -450  -484  -409  -306  -280  -325  -353  -340  -330  -350  -394  -435  -454  -431  -346  -209  -58  63  127  136  114  89  64  35  14  15  35  54  50  27  -1  -51  -121  -155  -125  -57  28  132  229  291  307  255  114  -73  -211  -250  -211  -130  -43  22  53  53  41  28  4  -48  -113  -128  -59  51  129  148  141  138  152  175  197  204  174  108  34  -23  -44  -25  6  22  26  51  106  171  222  264  304  332  343  342  336  325  312  305  308  314  303  242  115  -56  -214  -305  -327  -316  -303  -296  -297  -317  -368  -460  -566  -621  -569  -438  -388  -537  -779  -825  -334  884  2630  4332  5391  5498  4658  3118  1305  -344  -1510  -1989  -1787  -1193  -627  -363  -399  -555  -672  -694  -631  -536  -468  -445  -440  -427  -405  -402  -434  -451  -404  -327  -279  -274  -307  -359  -400  -414  -413  -408  -405  -395  -365  -317  -277  -261  -270  -289  -303  -297  -260  -192  -113  -50  13  100  182  211  185  136  100  95  106  108  101  102  140  244  386  498  539  547  591  707  858  990  1083  1132  1131  1071  952  804  674  603  585  588  584  555  485  364  204  20  -182  -379  -531  -629  -684  -707  -706  -688  -663  -640  -627  -628  -634  -637  -638  -640  -646  -649  -646  -641  -645  -671  -720  -767  -773  -729  -664  -597  -542  -496  -443  -400  -399  -436  -480  -501  -491  -469  -452  -435  -405  -364  -339  -368  -461  -571  -623  -592  -515  -436  -362  -294  -266  -305  -394  -490  -562  -593  -581  -532  -453  -344  -224  -144  -134  -196  -299  -398  -463  -499  -512  -491  -435  -354  -279  -252  -279  -324  -347  -338  -319  -308  -305  -295  -279  -261  -235  -185  -116  -55  -13  9  6  -21  -62  -117  -187  -265  -332  -374  -393  -406  -418  -396  -287  -87  128  281  350  352  284  124  -110  -323  -408  -362  -258  -159  -95  -77  -87  -97  -99  -100  -102  -104  -101  -87  -61  -35  -40  -102  -191  -260  -295  -315  -327  -290  -153  60  257  376  414  398  358  341  360  378  349  287  237  224  234  238  200  99  -48  -193  -296  -345  -359  -353  -321  -240  -110  27  121  120  -8  -239  -518  -762  -670  171  1813  3784  5428  6206  5815  4333  2264  233  -1296  -2036  -1927  -1335  -811  -593  -566  -556  -500  -421  -356  -297  -220  -137  -78  -74  -123  -180  -179  -99  21  122  172  184  174  143  85  16  -28  -42  -37  -33  -36  -50  -78  -113  -135  -108  -2  152  291  382  431  432  375  275  194  186  230  270  298  326  375  475  614  738  809  834  842  848  861  897  975  1095  1219  1296  1318  1312  1302  1294  1288  1289  1297  1293  1244  1129  973  809  646  505  413  340  225  70  -70  -175  -254  -302  -315  -313  -326  -365  -408  -426  -408  -361  -312  -271  -227  -186  -160  -146  -145  -190  -316  -484  -605  -641  -629  -610  -592  -573  -556  -549  -553  -567  -573  -530  -403  -239  -160  -228  -364  -451  -464  -455  -453  -461  -473  -483  -485  -481  -481  -493  -505  -495  -476  -469  -472  -469  -439  -363  -255  -169  -150  -206  -308  -413  -478  -475  -417  -352  -312  -297  -298  -306  -311  -297  -246  -175  -117  -88  -78  -87  -136  -247  -393  -514  -573  -581  -551  -484  -401  -347  -339  -355  -361  -347  -320  -295  -280  -263  -226  -184  -212  -335  -461  -479  -364  -184  -61  -48  -91  -124  -134  -135  -134  -128  -108  -76  -51  -58  -104  -154  -150  -61  88  242  343  375  358  299  187  31  -132  -266  -341  -364  -364  -369  -383  -394  -391  -384  -384  -382  -342  -240  -115  -82  -210  -438  -670  -779  -500  408  1907  3627  5022  5578  5074  3684  1827  6  -1308  -1847  -1694  -1219  -782  -528  -432  -421  -431  -418  -337  -181  -13  102  149  140  101  46  -17  -82  -136  -174  -195  -203  -191  -131  -13  129  231  242  184  112  53  -4  -64  -102  -110  -112  -110  -80  -9  108  277  462  591  603  490  323  209  221  353  508  579  564  533  516  510  513  541  626  792  1032  1272  1421  1446  1385  1300  1257  1278  1334  1382  1390  1359  1298  1201  1055  844  563  276  92  43  68  95  76  -14  -146  -248  -285  -281  -271  -268  -269  -268  -271  -282  -300  -329  -370  -417  -456  -469  -451  -419  -396  -388  -389  -396  -403  -383  -309  -204  -119  -76  -65  -103  -215  -368  -476  -494  -446  -382  -337  -320  -321  -344  -400  -472  -507  -478  -412  -360  -345  -355  -363  -331  -232  -110  -47  -67  -132  -210  -282  -325  -336  -338  -343  -351  -362  -377  -392  -401  -401  -392  -364  -305  -232  -185  -183  -209  -240  -265  -286  -304  -318  -327  -333  -338  -353  -395  -462  -517  -516  -455  -365  -283  -222  -193  -220  -321  -461  -564  -590  -546  -448  -310  -167  -79  -87  -188  -327  -425  -457  -455  -449  -441  -417  -371  -341  -370  -446  -512  -539  -541  -522  -455  -318  -143  16  129  189  210  212  202  180  146  87  -12  -141  -265  -354  -395  -393  -362  -310  -255  -217  -195  -182  -187  -246  -373  -524  -628  -670  -681  -685  -672  -600  -439  -237  -128  -254  -565  -730  -412  548  2114  3886  5216  5616  4951  3415  1479  -248  -1367  -1836  -1788  -1414  -965  -646  -505  -474  -477  -477  -476  -482  -490  -486  -463  -429  -404  -395  -399  -409  -421  -430  -432  -433  -439  -454  -461  -412  -263  -61  87  139  138  125  97  38  -37  -93  -98  -57  -3  57  158  296  410  456  442  389  319  274  317  449  606  723  775  783  802  875  980  1055  1079  1085  1117  1187  1299  1455  1609  1668  1577  1385  1197  1077  1022  992  943  858  757  680  645  623  553  386  144  -79  -207  -237  -204  -125  -27  37  22  -84  -235  -355  -420  -449  -458  -455  -450  -451  -460  -473  -482  -486  -488  -486  -464  -405  -324  -260  -231  -221  -224  -265  -373  -520  -639  -716  -783  -833  -820  -736  -619  -490  -343  -203  -110  -73  -74  -133  -284  -488  -636  -661  -583  -469  -391  -381  -432  -510  -573  -601  -601  -578  -529  -451  -364  -304  -296  -341  -406  -413  -312  -154  -27  26  11  -45  -118  -183  -222  -233  -229  -222  -213  -213  -245  -323  -413  -456  -442  -405  -375  -355  -335  -303  -261  -223  -189  -156  -126  -94  -48  -1  -3  -86  -213  -304  -328  -309  -274  -235  -193  -156  -133  -130  -144  -169  -203  -243  -281  -309  -334  -353  -342  -274  -169  -72  -18  -8  -27  -47  -36  35  152  268  365  454  529  571  545  406  175  -54  -210  -309  -400  -489  -539  -507  -373  -187  -40  35  60  46  -5  -79  -132  -137  -116  -125  -224  -411  -524  -288  514  1913  3669  5239  5990  5584  4140  2117  82  -1455  -2161  -2051  -1431  -684  -148  72  121  102  28  -67  -143  -187  -198  -160  -50  105  238  309  328  306  249  187  157  153  145  130  127  143  172  227  344  494  585  599  586  566  541  529  543  575  592  560  477  382  324  318  354  427  526  628  716  802  903  991  1016  988  964  986  1060  1139  1169  1161  1167  1214  1289  1344  1339  1300  1264  1235  1206  1187  1188  1200  1198  1135  978  737  433  98  -191  -361  -418  -423  -436  -497  -604  -720  -803  -839  -854  -880  -921  -952  -947  -897  -825  -767  -751  -791  -885  -981  -1022  -1020  -1009  -970  -862  -714  -605  -571  -579  -595  -603  -595  -568  -529  -499  -487  -485  -489  -497  -513  -535  -551  -554  -542  -526  -530  -558  -575  -554  -511  -465  -427  -402  -393  -396  -413  -455  -528  -630  -731  -796  -808  -771  -691  -583  -466  -362  -290  -259  -263  -280  -288  -281  -264  -255  -275  -330  -398  -431  -410  -384  -390  -397  -368  -318  -293  -311  -366  -447  -516  -541  -540  -540  -542  -538  -521  -498  -490  -496  -481  -407  -293  -203  -175  -186  -204  -212  -212  -218  -231  -234  -202  -128  -38  32  72  82  49  -46  -192  -343  -481  -594  -653  -648  -598  -542  -516  -534  -571  -597  -607  -602  -572  -520  -484  -490  -538  -621  -630  -313  551  1925  3468  4705  5220  4798  3548  1849  141  -1184  -1850  -1848  -1430  -924  -522  -212  59  254  337  343  306  232  142  79  59  61  60  54  63  134  305  535  717  795  800  768  707  631  573  550  553  568  580  583  579  579  590  601  609  637  682  732  789  844  886  935  1003  1077  1147  1214  1272  1310  1332  1358  1388  1408  1416  1418  1420  1418  1400  1358  1323  1336  1389  1445  1489  1518  1531  1536  1537  1509  1404  1190  900  604  375  250  200  141  31  -102  -212  -297  -380  -456  -506  -521  -522  -548  -631  -747  -835  -864  -854  -832  -809  -793  -790  -807  -845  -891  -921  -929  -928  -931  -946  -965  -977  -979  -976  -983  -1011  -1044  -1028  -945  -855  -811  -805  -811  -814  -815  -815  -815  -816  -813  -803  -787  -770  -756  -748  -747  -752  -765  -780  -781  -761  -730  -708  -705  -715  -715  -670  -567  -458  -427  -481  -543  -566  -571  -603  -673  -706  -606  -401  -230  -161  -161  -195  -270  -382  -497  -584  -645  -695  -714  -659  -528  -382  -297  -302  -365  -442  -503  -536  -547  -548  -544  -525  -484  -433  -397  -376  -350  -312  -264  -198  -124  -72  -63  -88  -127  -159  -170  -131  -19  135  245  247  137  -27  -178  -288  -363  -404  -413  -397  -357  -310  -291  -321  -376  -417  -429  -422  -397  -336  -244  -157  -141  -259  -480  -682  -714  -294  852  2587  4325  5442  5566  4658  3039  1259  -238  -1229  -1599  -1437  -1051  -656  -308  -67  23  -31  -176  -304  -360  -367  -351  -307  -225  -135  -81  -59  -15  88  194  199  102  -5  -65  -89  -86  -52  14  93  152  185  215  261  317  364  397  430  476  524  553  532  443  321  216  144  101  115  251  536  871  1107  1192  1189  1165  1146  1130  1119  1121  1151  1212  1291  1357  1395  1428  1490  1568  1608  1595  1563  1539  1506  1423  1279  1125  1026  974  886  660  293  -76  -301  -373  -370  -339  -274  -181  -102  -90  -150  -249  -342  -397  -411  -408  -407  -409  -409  -409  -425  -471  -528  -542  -478  -370  -292  -278  -309  -353  -388  -405  -409  -408  -407  -408  -413  -423  -439  -457  -469  -465  -444  -415  -401  -419  -459  -494  -501  -473  -427  -390  -375  -373  -377  -381  -379  -362  -329  -293  -270  -264  -267  -272  -273  -264  -242  -213  -181  -148  -136  -162  -197  -197  -163  -129  -119  -121  -111  -89  -70  -58  -47  -40  -42  -50  -56  -59  -60  -60  -54  -39  -20  -8  -1  14  36  11  -107  -274  -392  -432  -443  -471  -509  -506  -429  -287  -130  -37  -39  -86  -128  -166  -209  -246  -258  -235  -188  -147  -118  -75  -6  63  108  122  102  36  -66  -162  -214  -221  -206  -186  -177  -182  -200  -221  -242  -262  -266  -239  -200  -203  -291  -439  -574  -658  -698  -716  -717  -694  -660  -652  -704  -806  -915  -983  -912  -510  397  1740  3130  4131  4574  4397  3414  1658  -231  -1493  -1948  -1937  -1792  -1609  -1362  -1080  -851  -731  -685  -639  -555  -440  -309]
