reading_id,reading_time,wire_id,result_classification,heart_rate,heart_rate_alert,firmware_version,device_app_version,hardware_version,waveform_samples
f3bddb90-60b0-11ed-8080-808080808080,Thu Nov 10 04:34:23 UTC 2022,e101e3752439,AFIB,67,NONE,20001.171.50,2.10.0,Charge 5,[0  64  423  1105  1912  2682  3417  4188  4983  5711  6303  6763  7214  7788  8406  8873  9055  9052  9281  9945  10750  11433  11868  11915  11694  11592  11814  12241  12668  12956  13077  13154  13297  13448  13542  13577  13520  13323  13044  12819  12698  12607  12479  12318  12125  11872  11577  11291  11047  10845  10612  10286  9923  9614  9342  9062  8776  8485  8206  7979  7830  7726  7550  7194  6755  6449  6322  6182  5859  5425  5089  4896  4686  4338  3883  3397  2971  2723  2675  2704  2647  2411  2078  1837  1761  1754  1679  1484  1241  1068  1009  1015  1018  997  966  945  934  905  827  715  661  734  890  1060  1201  1254  1194  1069  946  863  815  781  770  808  883  932  944  994  1097  1173  1183  1170  1180  1211  1224  1164  1025  871  764  774  1012  1434  1801  1982  2041  2059  2051  2018  1984  1970  1990  2066  2204  2323  2332  2303  2357  2458  2515  2533  2558  2608  2651  2634  2556  2473  2436  2505  2743  3084  3289  3185  2897  2780  3306  4845  7241  9770  11594  12111  11204  9394  7369  5512  4152  3460  3173  3069  3159  3362  3596  3927  4351  4710  4894  4926  4910  4955  5068  5167  5241  5388  5667  5995  6245  6381  6452  6514  6593  6711  6911  7221  7569  7829  7958  8000  7998  7987  8035  8208  8476  8727  8919  9111  9331  9547  9729  9867  9966  10064  10230  10492  10806  11127  11443  11752  12071  12413  12706  12873  12997  13278  13805  14403  14803  14951  15037  15252  15583  15858  15975  15983  15975  16003  16063  16119  16125  16054  15893  15685  15520  15414  15282  15060  14812  14659  14674  14852  15099  15289  15363  15316  15083  14480  13252  11277  8700  5792  2800  -15  -2571  -5096  -7665  -9869  -11370  -12410  -13407  -14410  -15174  -15289  -14293  -12379  -10618  -9762  -9549  -9367  -8762  -7663  -6652  -6600  -7907  -10246  -12861  -15045  -16564  -17644  -18597  -19643  -20745  -21554  -21718  -21068  -19683  -18136  -17148  -16885  -17021  -17292  -17682  -18279  -19114  -20117  -21154  -22148  -23089  -23876  -24353  -24540  -24615  -24703  -24813  -24883  -24884  -24849  -24733  -24365  -23625  -22576  -21470  -20651  -20297  -20271  -20343  -20384  -20334  -20149  -19831  -19456  -19103  -18818  -18608  -18392  -18058  -17627  -17195  -16715  -16060  -15309  -14740  -14483  -14394  -14264  -13954  -13425  -12779  -12212  -11787  -11383  -10949  -10592  -10387  -10296  -10306  -10527  -10960  -11190  -10592  -8762  -5845  -2664  -318  494  -338  -2363  -4608  -6229  -6995  -6986  -6368  -5477  -4579  -3640  -2689  -1979  -1565  -1249  -930  -656  -453  -283  -100  87  255  449  756  1143  1456  1625  1722  1828  2002  2262  2541  2782  2987  3086  2854  2098  1055  282  77  342  853  1359  1672  1776  1772  1807  2069  2648  3387  4028  4469  4736  4903  5142  5610  6213  6665  6820  6770  6663  6570  6474  6302  5957  5372  4614  3936  3594  3580  3684  3752  3768  3765  3766  3766  3738  3651  3512  3376  3270  3133  2879  2490  2075  1811  1793  1984  2249  2435  2490  2460  2401  2337  2286  2300  2486  2926  3570  4270  4866  5206  5199  4848  4271  3660  3168  2849  2688  2637  2636  2624  2556  2437  2318  2247  2232  2248  2260  2232  2157  2072  2025  2028  2100  2275  2505  2671  2725  2717  2707  2714  2711  2622  2355  1921  1483  1200  1086  1058  1054  1089  1198  1337  1394  1312  1158  1046  1013  1040  1152  1389  1684  1898  1965  1892  1692  1425  1207  1111  1130  1217  1308  1361  1378  1381  1383  1377  1372  1426  1615  1980  2516  3202  3996  4861  5753  6514  6972  7144  7185  7207  7213  7101  6718  5940  4741  3282  1960  1158  919  1112  1720  2731  4011  5356  6435  6796  6128  4494  2389  463  -852  -1386  -1212  -767  -531  -512  -429  -227  -13  221  494  726  834  754  478  150  -77  -215  -347  -483  -537  -455  -326  -300  -440  -695  -927  -1027  -1001  -926  -862  -808  -717  -512  -114  450  984  1301  1446  1601  1833  2040  2109  2027  1912  1916  2056  2248  2501  2879  3311  3620  3747  3749  3667  3479  3086  2378  1442  602  128  -23  -52  -68  -74  -60  -32  -12  -5  -2  2  -52  -298  -787  -1344  -1725  -1878  -1909  -1912  -1921  -1938  -1955  -1946  -1866  -1695  -1481  -1298  -1160  -1038  -943  -919  -963  -1032  -1088  -1085  -1028  -968  -919  -857  -762  -608  -393  -155  54  154  106  7  -42  -62  -124  -269  -480  -700  -871  -931  -798  -423  45  325  419  759  1663  2980  4384  5570  6277  6519  6462  6030  5099  3840  2666  2014  2106  2755  3449  3714  3490  3107  2848  2711  2599  2457  2233  1873  1317  551  -264  -844  -1073  -1107  -1135  -1212  -1287  -1318  -1300  -1236  -1150  -1079  -1050  -1074  -1160  -1288  -1411  -1492  -1493  -1325  -877  -212  404  769  897  899  832  695  510  343  247  210  213  277  387  382  9  -798  -1730  -2376  -2601  -2431  -1812  -790  302  1145  1766  2438  3385  4560  5624  6209  6077  5044  3182  846  -1643  -3921  -5533  -6212  -6001  -5272  -4570  -4229  -4208  -4267  -4252  -4168  -4077  -4026  -4025  -4036  -3987  -3799  -3427  -2939  -2516  -2296  -2252  -2283  -2345  -2450  -2581  -2676  -2690  -2631  -2515  -2335  -2101  -1866  -1695  -1604  -1563  -1535  -1490  -1404  -1283  -1143  -977  -795  -642  -531  -417  -256  -11  347  745  1007  1030  851  598  422  390  471  604  742  907  1180  1632  2221  2774  3150  3365  3479  3386  2778  1438  -358  -1921  -2686  -2464  -1347  153  1300  1821  1962  1961  1880  1728  1507  1231  942  701  537  441  385  343  277  157  -15  -193  -291  -246  -60  228  565  854  1009  1040  1012  973  956  1034  1288  1688  2064  2285  2396  2557  2877  3313  3710  3952  4050  4073  4079  4079  4042  3906  3629  3237  2816  2458  2171  1904  1659  1494  1412  1330  1166  947  783  734  743  683  450  81  -265  -489  -612  -680  -714  -737  -765  -797  -797  -725  -588  -453  -384  -375  -383  -417  -514  -675  -861  -1044  -1219  -1385  -1535  -1659  -1739  -1752  -1683  -1553  -1434  -1380  -1378  -1394  -1405  -1407  -1411  -1427  -1445  -1433  -1357  -1229  -1101  -1018  -994  -1033  -1123  -1225  -1297  -1321  -1317  -1312  -1322  -1340  -1355  -1360  -1361  -1361  -1358  -1349  -1337  -1326  -1319  -1325  -1358  -1431  -1538  -1638  -1685  -1674  -1629  -1530  -1348  -1136  -997  -975  -1038  -1125  -1188  -1211  -1204  -1166  -1101  -1071  -1156  -1328  -1449  -1423  -1278  -1116  -1006  -941  -904  -901  -930  -971  -1044  -1185  -1373  -1531  -1634  -1713  -1790  -1847  -1826  -1638  -1256  -823  -529  -421  -428  -521  -720  -971  -1153  -1210  -1172  -1069  -920  -805  -863  -1146  -1529  -1843  -2039  -2165  -2247  -2248  -2074  -1615  -847  59  785  1130  1159  1027  828  594  337  153  259  840  2020  3817  5931  7807  8946  9064  8177  6564  4583  2583  935  -46  -273  25  475  847  1024  960  843  874  990  1041  988  876  738  530  185  -269  -695  -948  -1003  -926  -787  -587  -280  88  388  626  957  1464  2085  2692  3130  3312  3304  3225  3117  2913  2545  2067  1613  1234  886  577  383  326  358  441  564  715  866  994  1110  1252  1454  1698  1908  2018  2047  2062  2115  2201  2263  2226  2053  1805  1609  1531  1539  1574  1584  1513  1306  942  475  -13  -474  -897  -1236  -1421  -1465  -1474  -1536  -1668  -1828  -1951  -2007  -2011  -1994  -1981  -2004  -2102  -2267  -2446  -2621  -2823  -3035  -3182  -3234  -3201  -3082  -2889  -2691  -2558  -2511  -2514  -2530  -2548  -2580  -2628  -2677  -2717  -2741  -2733  -2663  -2512  -2291  -2060  -1888  -1777  -1698  -1649  -1626  -1595  -1518  -1395  -1275  -1219  -1235  -1284  -1323  -1353  -1400  -1460  -1478  -1400  -1228  -1007  -791  -624  -534  -503  -501  -538  -622  -710  -726  -595  -297  48  274  355  388  436  491  541  603  675  725  739  745  788  892  1032  1177  1342  1527  1679  1755  1756  1697  1606  1520  1470  1451  1372  1093  611  140  -98  -128  -196  -587  -1361  -2264  -2958  -3319  -3449  -3488  -3490  -3442  -3343  -3213  -3042  -2737  -2217  -1608  -1158  -923  -791  -705  -649  -529  -229  206  586  794  889  957  1016  1049  1057  1062  1082  1129  1211  1339  1496  1643  1741  1762  1723  1666  1609  1555  1524  1533  1562  1579  1577  1574  1592  1621  1623  1592  1561  1544  1522  1471  1397  1346  1348  1380  1408  1429  1450  1467  1473  1462  1434  1385  1300  1166  1016  888  785  709  656  603  551  506  449  382  319  239  93  -99  -221  -218  -146  4  326  984  2200  3908  5573  6502  6192  4548  2043  -505  -2453  -3479  -3701  -3660  -3702  -3831  -4031  -4182  -4098  -3773  -3342  -2961  -2716  -2574  -2471  -2387  -2326  -2272  -2171  -1976  -1733  -1547  -1467  -1467  -1498  -1496  -1407  -1227  -1015  -845  -730  -637  -549  -465  -370  -226  -9  224  380  422  405  394  421  493  587  664  714  779  917  1179  1560  1965  2291  2514  2673  2809  2925  3013  3082  3151  3229  3302  3355  3396  3437  3480  3506  3446  3247  2954  2642  2332  2029  1746  1473  1190  921  708  560  453  363  277  203  161  151  153  155  161  177  195  194  177  164  152  96  -31  -197  -336  -411  -426  -397  -355  -328  -324  -332  -340  -346  -366  -413  -490  -575  -629  -634  -599  -556  -542  -578  -660  -763  -857  -927  -964  -975  -978  -982  -985  -980  -961  -935  -909  -889  -897  -952  -1053  -1183  -1318  -1446  -1559  -1636  -1671  -1670  -1625  -1520  -1388  -1296  -1268  -1272  -1274  -1266  -1260  -1286  -1356  -1451  -1531  -1575  -1589  -1593  -1621  -1706  -1844  -1976  -2050  -2068  -2067  -2074  -2101  -2136  -2140  -2079  -1967  -1863  -1807  -1768  -1676  -1512  -1342  -1240  -1207  -1208  -1248  -1360  -1540  -1724  -1865  -1956  -1982  -1928  -1816  -1704  -1640  -1630  -1668  -1753  -1878  -2009  -2104  -2152  -2157  -2115  -2042  -1987  -1925  -1739  -1268  -293  1255  2997  4301  4631  3676  1625  -795  -2837  -4094  -4457  -4112  -3496  -2962  -2586  -2359  -2260  -2228  -2205  -2167  -2112  -2056  -2010  -1957  -1879  -1787  -1708  -1675  -1727  -1892  -2128  -2312  -2351  -2276  -2180  -2103  -2040  -2002  -2005  -2058  -2143  -2229  -2289  -2306  -2284  -2248  -2227  -2226  -2233  -2240  -2245  -2249  -2255  -2261  -2244  -2110  -1655  -612  1063  2896  4241  5001  5585  6244  6819  7104  7132  7057  6972  6901  6857  6847  6871  6923  6972  6907  6572  5962  5324  4918  4776  4766  4785  4808  4837  4843  4730  4423  4025  3721  3531  3336  3117  2974  2968  3063  3193  3307  3379  3422  3462  3509  3552  3576  3590  3613  3654  3704  3748  3777  3786  3756  3673  3561  3478  3450  3457  3476  3491  3476  3410  3337  3335  3418  3525  3602  3640  3652  3666  3688  3692  3699  3818  4087  4402  4646  4823  4935  4776  4048  2618  624  -1431  -2886  -3445  -3294  -2801  -2331  -2126  -2142  -2169  -2124  -2084  -2108  -2170  -2218  -2238  -2249  -2262  -2255  -2177  -1997  -1771  -1616  -1592  -1680  -1809  -1902  -1929  -1902  -1827  -1690  -1503  -1328  -1218  -1178  -1199  -1290  -1427  -1546  -1604  -1613  -1613  -1633  -1682  -1741  -1773  -1762  -1731  -1701  -1667  -1633  -1615  -1624  -1656  -1703  -1743  -1733  -1730  -1893  -2153  -2179  -1717  -623  1050  2744  3749  3800  2912  1310  -444  -1929  -3091  -3833  -4000  -3669  -3086  -2475  -2015  -1781  -1691  -1648  -1614  -1592  -1604  -1622  -1576  -1439  -1236  -1031  -907  -895  -963  -1060  -1157  -1256  -1353  -1419  -1438  -1425  -1387  -1321  -1242  -1184  -1160  -1169  -1209  -1261  -1298  -1315  -1317  -1299  -1238  -1131  -989  -818  -640  -502  -431  -381  -282  -142  -30  37  98  158  213  276  345  425  539  668  748  748  674  539  360  161  -49  -273  -508  -747  -956  -1086  -1119  -1080  -1041  -1157  -1589  -2269  -2895  -3267  -3455  -3609  -3773  -3900  -3954  -3945  -3881  -3748  -3576  -3437  -3381  -3431  -3577  -3747  -3891  -4029  -4137  -4135  -3999  -3806  -3676  -3653  -3668  -3597  -3354  -2997  -2690  -2569  -2761  -3353  -4149  -4741  -4957  -4945  -4841  -4645  -4362  -4103  -3997  -4058  -4180  -4285  -4450  -4699  -4556  -3176  -297  3114  5641  6724  6782  6572  6770  7494  8176  8115  7081  5395  3595  2142  1213  666  336  308  747  1583  2545  3433  4195  4775  5084  5127  5003  4827  4693  4633  4612  4593  4550  4455  4299  4116  3950  3812  3681  3511  3257  2969  2775  2713  2677  2527  2200  1778  1473  1515  2057  2991  3888  4377  4456  4326  4110  3795  3347  2873  2569  2492  2548  2642  2762  2936  3143  3276  3201  2859  2378  1995  1791  1668  1529  1368  1264  1327  1626  2068  2455  2678  2769  2794  2800  2805  2811  2814  2805  2794  2814  2915  3107  3336  3530  3633  3603  3407  3068  2692  2451  2475  2675  2899  3104  3290  3592  4146  4607  4275  2729  134  -2829  -5259  -6542  -6734  -6354  -5874  -5520  -5397  -5511  -5735  -5932  -6056  -6116  -6133  -6124  -6104  -6090  -6101  -6148  -6221  -6272  -6256  -6218  -6222  -6244  -6240  -6236  -6272  -6306  -6110  -5366  -4024  -2442  -1091  -232  119  4  -615  -1697  -3017  -4339  -5422  -6013  -6040  -5661  -5159  -4819  -4748  -4864  -5032  -5155  -5211  -5203  -5084  -4808  -4464  -4236  -4201  -4252  -4089  -3296  -1773  -98  1014  1487  1736  2097  2713  3546  4326  4764  4856  4792  4722  4728  4897  5252  5664  5917  5843  5413  4816  4361  4168  4148  4206  4244  4042  3398  2465  1652  1074  514  -80  -492  -540  -220  318  818  1109  1224  1248  1229  1221  1272  1367  1459  1527  1582  1646  1717  1765  1761  1703  1619  1543  1463  1300  948  386  -208  -618  -808  -884  -924  -924  -813  -537  -179  80  160  92  -75  -274  -425  -513  -555  -509  -374  -318  -529  -984  -1467  -1807  -1996  -2058  -1965  -1755  -1564  -1474  -1458  -1460  -1482  -1574  -1763  -1992  -2183  -2331  -2460  -2552  -2550  -2362  -1932  -1343  -810  -506  -412  -374  -265  -32  304  680  1009  1239  1424  1667  1929  2063  2032  1913  1748  1571  1450  1407  1404  1415  1459  1560  1664  1676  1586  1482  1434  1430  1415  1374  1347  1351  1361  1328  1218  1068  950  896  891  919  966  1013  1047  1071  1097  1119  1110  1055  999  1039  1238  1529  1751  1815  1784  1740  1652  1411  958  380  -193  -723  -1170  -1454  -1554  -1511  -1355  -1114  -809  -445  -93  126  194  179  116  -3  -144  -226  -226  -189  -189  -327  -662  -1085  -1387  -1491  -1484  -1467  -1479  -1504  -1475  -1324  -1060  -747  -436  -156  74  230  274  203  85  7  -4  13  24  38  85  186  328  494  675  842  930  904  785  628  488  393  359  430  637  906  1097  1148  1100  1013  896  675  281  -196  -579  -830  -1054  -1298  -1481  -1511  -1410  -1257  -1078  -888  -747  -692  -690  -684  -628  -494  -288  -47  194  410  490  327  64  103  827  2337  4274  5965  6834  6666  5559  3812  1840  0  -1524  -2560  -3072  -3363  -3610  -3506  -2927  -2294  -1965  -1887  -1874  -1856  -1855  -1882  -1899  -1882  -1849  -1852  -1937  -2108  -2315  -2576  -3017  -3669  -4353  -4858  -5096  -5115  -5011  -4857  -4690  -4521  -4362  -4250  -4235  -4310  -4338  -4045  -3225  -2049  -914  1  685  1098  1284  1407  1558  1714  1845  1932  1961  1972  2043  2234  2563  2962  3293  3464  3485  3386  3169  2861  2612  2595  2784  2978  3056  3057  3056  3079  3097  3034  2828  2530  2249  2002  1767  1560  1380  1214  1086  970  801  599  487  542  703  852  954  1038  1068  913  501  -20  -385  -463  -267  124  563  877  1000  978  882  773  701  653  524  192  -326  -848  -1196  -1324  -1254  -1015  -707  -490  -442  -522  -652  -768  -840  -896  -1048  -1407  -1888  -2251  -2361  -2234  -1911  -1468  -1064  -839  -814  -948  -1204  -1542  -1862  -2003  -1810  -1263  -551  35  333  402  379  319  211  79  1  -6  0  -3  0  26  60  83  95  103  83  -15  -216  -477  -635  -494  -122  195  298  116  -319  -672  -663  -529  -684  -1389  -2881  -4926  -6591  -7047  -6046  -3921  -1557  120  756  644  346  217  286  466  661  790  832  815  758  667  560  463  389  330  285  275  315  369  399  412  424  446  483  529  572  608  634  638  621  601  598  637  709  766  768  711  622  543  483  402  248  63  -23  54  198  243  120  -155  -540  -925  -1169  -1242  -1214  -1145  -1076  -1044  -1043  -1013  -880  -635  -338  -78  92  201  305  410  483  528  579  643  682  659  592  554  594  663  682  631  552  504  502  489  357  42  -372  -723  -939  -1073  -1236  -1487  -1781  -2004  -2068  -1967  -1747  -1482  -1328  -1387  -1468  -1176  -129  1799  4251  6534  7984  8165  7061  5040  2607  378  -1052  -1444  -992  -123  698  1156  1230  1112  971  853  731  587  437  290  170  134  185  274  397  571  749  860  889  862  784  645  477  359  372  574  931  1294  1525  1607  1588  1521  1445  1377  1304  1199  1044  874  748  719  830  1069  1334  1521  1650  1851  2182  2547  2817  2970  3065  3136  3166  3141  3082  2971  2720  2291  1825  1509  1389  1388  1408  1367  1205  908  539  199  -34  -163  -238  -301  -374  -485  -649  -809  -887  -870  -787  -648  -452  -213  108  556  998  1183  1005  617  288  151  145  150  104  28  -32  -73  -124  -189  -257  -373  -608  -938  -1232  -1406  -1457  -1362  -1073  -605  -75  357  580  586  444  260  136  112  167  250  307  282  137  -101  -359  -572  -743  -915  -1101  -1269  -1423  -1575  -1675  -1653  -1487  -1249  -1061  -975  -943  -901  -820  -706  -573  -455  -404  -441  -544  -685  -854  -1006  -1065  -1030  -976  -942  -931  -996  -1240  -1697  -2247  -2691  -2923  -2995  -3001  -2973  -2926  -2894  -2888  -2871  -2792  -2640  -2465  -2331  -2257  -2204  -2121  -1986  -1806  -1589  -1337  -1079  -863  -708  -637  -684  -836  -1032  -1215  -1325  -1308  -1147  -886  -636  -504  -537  -738  -1046  -1346  -1554  -1650  -1655  -1610  -1556  -1517  -1484  -1430  -1353  -1281  -1222  -1159  -1034  -735  -244  307  810  1235  1540  1687  1742  1790  1826  1778  1591  1249  787  299  -100  -334  -455  -634  -996  -1460  -1790  -1808  -1499  -1030  -649  -477  -454  -486  -537  -596  -655  -701  -728  -725  -658  -487  -227  32  222  342  443  585  762  896  941  933  921  915  850  547  -165  -1215  -2263  -2995  -3344  -3438  -3442  -3440  -3444  -3457  -3493  -3552  -3617  -3670  -3673  -3523  -3030  -1992  -504  890  1623  1625  1364  1452  2120  3228  4639  6129  7324  8073  8281  7606  6027  4201  2775  1946  1723  1855  1763  1260  888  1058  1483  1756  1831  1808  1701  1471  1171  922  764  649  551  486  430  293  -16  -512  -1081  -1549  -1809  -1839  -1565  -870  188  1236  1873  2074  2075  2042  2002  1962  1960  2032  2177  2351  2499  2584  2619  2649  2680  2615  2355  2062  2095  2498  2930  3155  3211  3187  3079  2849  2545  2291  2170  2201  2413  2801  3254  3614  3778  3753  3610  3425  3182  2702  1863  894  178  -212  -471  -712  -927  -1071  -1088  -953  -692  -372  -93  71  124  106  51  -15  -65  -82  -72  -93  -276  -711  -1264  -1628  -1559  -1011  -243  331  501  292  -208  -792  -1180  -1289  -1242  -1157  -1062  -957  -896  -947  -1125  -1410  -1749  -2043  -2202  -2193  -2072  -1945  -1857  -1795  -1753  -1736  -1752  -1815  -1916  -2015  -2080  -2093  -1985  -1647  -1065  -354  320  816  1113  1307  1459  1560  1614  1640  1641  1634  1691  1899  2243  2604  2900  3138  3346  3519  3567  3210  2108  369  -1377  -2565  -3064  -3009  -2553  -1884  -1293  -994  -993  -1207  -1535  -1837  -2004  -2039  -2002  -1943  -1890  -1849  -1772  -1521  -996  -378  -101  -418  -1127  -1832  -2348  -2723  -3019  -3224  -3294  -3230  -3113  -3022  -2962  -2888  -2740  -2465  -2069  -1662  -1408  -1407  -1655  -2060  -2482  -2836  -3120  -3343  -3457  -3434  -3334  -3223  -3125  -3050  -2991  -2938  -2903  -2890  -2886  -2873  -2835  -2772  -2710  -2665  -2623  -2585  -2572  -2599  -2657  -2697  -2682  -2646  -2636  -2641  -2601  -2468  -2285  -2102  -1742  -845  673  2384  3700  4353  4492  4374  4135  3875  3729  3745  3789  3521  2584  1080  -328  -1007  -696  602  2561  4709  6707  8251  9158  9195  7841  4961  1167  -2627  -5537  -6973  -6887  -5538  -3247  -554  1812  3392  4204  4522  4551  4242  3488  2496  1710  1278  924  397  -274  -924  -1508  -2183  -2986  -3652  -3961  -3951  -3745  -3448  -3140  -2765  -2050  -685  1211  2954  3937  4207  4154  3979  3634  3123  2644  2391  2413  2691  3150  3644  4057  4342  4437  4255  3795  3228  2799  2620  2643  2801  3026  3175  2985  2235  1099  98  -484  -746  -808  -753  -749  -929  -1261  -1610  -1840  -1928  -1993  -2166  -2428  -2601  -2490  -1957  -961  288  1384  2077  2396  2486  2449  2192  1506  508  -329  -720  -780  -742  -769  -943  -1217  -1429  -1376  -916  -131  614  919  540  -496  -1762  -2654  -2812  -2063  -426  1512  2913  3516  3669  3704  3717  3708  3696  3697  3706  3710  3709  3722  3764  3814  3831  3772  3539  2868  1536  -89  -1225  -1589  -1534  -1427  -1376  -1372  -1434  -1610  -1921  -2365  -2887  -3324  -3536  -3588  -3636  -3658  -3332  -2344  -952  130  447  -99  -1438  -3051  -4166  -4520  -4394  -4077  -3766  -3673  -3850  -4094  -4092  -3401  -1735  540  2675  4019  4125  2898  654  -1886  -3852  -4874  -5100  -4765  -4038  -2927  -1577  -521  -80  -61  -272  -751  -1476  -2258  -2942  -3498  -3950  -4308  -4577  -4713  -4498  -3644  -2235  -827  100  468  297  -533  -1999  -3662  -4943  -5542  -5502  -4999  -4292  -3716  -3455  -3429  -3478  -3515  -3527  -3528  -3525  -3494  -3372  -3104  -2703  -2205  -1670  -1222  -941  -802  -821  -1039  -1350  -1564  -1615  -1566  -1459  -1146  -359  913  2249  3185  3641  3831  3916  3908  3822  3729  3679  3693  3760  3851  3957  4080  4216  4357  4480  4560  4603  4626  4626  4588  4527  4475  4448  4440  4446  4480  4553  4639  4688  4679  4630  4572  4533  4499  4396  4177  3893  3642  3444  3205  2837  2392  2017  1794  1695  1629  1517  1342  1124  890  689  574  573  716  965  1125  1099  1088  1227  1337  1243  1022  908  1041  1244  1124  379  -1030  -2587  -3320  -2760  -1407  -88  700  902  826  843  998  1138  1237  1333  1404  1417  1387  1357  1355  1336  1236  1091  997  979  991  965  854  691  568  552  648  812  965  1071  1161  1244  1242  1054  680  218  -239  -664  -1063  -1419  -1683  -1812  -1791  -1641  -1441  -1290  -1228  -1243  -1337  -1487  -1611  -1643  -1568  -1404  -1196  -991  -792  -594  -435  -356  -317  -216  23  346  598  697  692  673  701  801  939  1052  1101  1084  1011  917  837  763  670  571  480  398  366  412  492  551  574  581  602  638  656  651  657  654  599  508  426  448  723  1418  2703  4518  6342  7325  6776  4618  1439  -1554  -3036  -2659  -1196  453  1710  2265  2258  2094  1995  1979  2028  2121  2233  2351  2461  2553  2616  2638  2595  2480  2339  2218  2100  1947  1726  1288  345  -1186  -2890  -4217  -5005  -5406  -5584  -5629  -5540  -5348  -5185  -5130  -5143  -5143  -5048  -4823  -4539  -4321  -4205  -4117  -3985  -3823  -3709  -3670  -3657  -3590  -3397  -3079  -2745  -2513  -2357  -2171  -1945  -1776  -1713  -1714  -1723  -1707  -1644  -1549  -1439  -1283  -1027  -712  -462  -374  -532  -1002  -1641  -2155  -2432  -2562  -2612  -2620  -2676  -2861  -3138  -3391  -3577  -3727  -3881  -4078  -4301  -4473  -4569  -4625  -4656  -4639  -4561  -4450  -4358  -4305  -4285  -4290  -4307  -4282  -4092  -3600  -2812  -1925  -1183  -656  -223  240  725  1115  1333  1400  1381  1347  1357  1449  1630  1853  2049  2181  2220  2162  2086  2071  2132  2262  2427  2544  2547  2435  2272  2152  2114  2143  2222  2331  2424  2474  2496  2515  2534  2540  2533  2532  2555  2578  2530  2333  2004  1691  1525  1500  1524  1511  1423  1294  1197  1166  1166  1156  1115  1055  1006  979  971  975  981  983  989  1024  1109  1216  1286  1291  1253  1195  1098  921  706  583  599  638  599  547  590  727  866  937  948  943  955  992  1029  1024  949  797  550  170  -339  -858  -1182  -1174  -853  -404  -76  9  -133  -440  -786  -1007  -992  -704  -216  295  675  874  933  912  851  778  711  644  557  445  331  241  167  70  -45  -125  -113  10  203  388  539  662  754  824  889  949  993  1008  981  928  878  855  876  953  1090  1251  1355  1312  1085  759  476  254  -12  -388  -790  -1070  -1178  -1189  -1180  -1175  -1148  -1062  -926  -801  -734  -714  -706  -692  -646  -536  -367  -203  -135  -251  -575  -985  -1277  -1366  -1323  -1233  -1128  -1029  -959  -926  -921  -934  -953  -976  -1021  -1086  -1143  -1192  -1263  -1370  -1524  -1704  -1823  -1816  -1690  -1470  -1232  -1137  -1245  -1393  -1351  -835  405  2201  4066  5558  6245  5909  4827  3346  1635  16  -1147  -1739  -1753  -1291  -679  -280  -192  -251  -297  -302  -295  -294  -298  -291  -252  -175  -77  8  61  97  141  194  250  330  453  609  777  950  1120  1283  1429  1528  1566  1533  1390  1154  943  851  906  1113  1412  1699  1938  2135  2288  2422  2619  2947  3357  3738  4040  4257  4369  4355  4232  4136  4201  4333  4368  4336  4374  4606  5096  5666  5704  4544  2315  -118  -1937  -2503  -1563  250  1870  2567  2087  679  -998  -2319  -3022  -3235  -3246  -3240  -3279  -3378  -3514  -3613  -3529  -3103  -2337  -1435  -629  -43  376  808  1291  1670  1798  1551  819  -193  -995  -1300  -1120  -528  245  773  708  16  -931  -1615  -1914  -2115  -2401  -2678  -2832  -2885  -2898  -2864  -2748  -2586  -2465  -2419  -2415  -2409  -2374  -2301  -2215  -2157  -2146  -2161  -2180  -2191  -2176  -2096  -1933  -1729  -1567  -1481  -1453  -1459  -1490  -1537  -1595  -1653  -1696  -1710  -1714  -1728  -1725  -1666  -1570  -1494  -1459  -1435  -1404  -1376  -1364  -1380  -1432  -1504  -1563  -1588  -1564  -1461  -1264  -1032  -856  -767  -745  -765  -830  -960  -1136  -1275  -1328  -1322  -1306  -1308  -1316  -1299  -1250  -1180  -1102  -1029  -956  -879  -818  -790  -803  -873  -999  -1107  -1096  -965  -822  -751  -743  -753  -752  -737  -736  -792  -893  -952  -922  -848  -768  -674  -585  -544  -578  -680  -802  -903  -982  -1036  -1054  -1052  -1047  -1037  -1016  -985  -963  -964  -984  -1018  -1087  -1193  -1285  -1318  -1309  -1282  -1258  -1266  -1349  -1519  -1725  -1898  -2011  -2068  -2091  -2089  -2032  -1881  -1674  -1515  -1454  -1465  -1524  -1632  -1779  -1924  -2019  -2053  -2047  -2026  -2003  -1979  -1951  -1924  -1896  -1862  -1846  -1882  -1966  -2057  -2115  -2130  -2129  -2151  -2225  -2342  -2450  -2519  -2568  -2628  -2702  -2761  -2774  -2746  -2739  -2807  -2921  -2985  -2959  -2892  -2793  -2412  -1259  883  3651  6570  9377  11708  13156  13586  13071  11807  10043  7913  5635  3741  2725  2616  3058  3586  3891  3997  4077  4182  4244  4154  3838  3396  3062  2972  3124  3473  3930  4379  4731  4937  4961  4717  4117  3254  2455  1995  1854  1845  1869  1920  1961  1927  1804  1701  1769  2014  2307  2571  2804  3006  3124  3003  2507  1789  1214  966  994  1224  1566  1863  2006  2019  1990  1982  2017  2078  2134  2176  2201  2207  2224  2298  2447  2649  2854  2983  2954  2708  2270  1755  1307  1034  939  934  933  886  790  663  524  460  631  1073  1597  2013  2334  2631  2857  2926  2799  2456  1889  1105  151  -835  -1665  -2201  -2429  -2467  -2472  -2551  -2757  -3066  -3297  -3132  -2410  -1378  -559  -253  -146  209  784  1213  1048  96  -1186  -2153  -2483  -2109  -1332  -813  -936  -1443  -1894  -2153  -2293  -2294  -2015  -1400  -612  150  820  1349  1663  1757  1726  1675  1651  1646  1648  1648  1605  1469  1246  1018  831  590  183  -355  -878  -1241  -1403  -1445  -1457  -1460  -1482  -1607  -1841  -2083  -2281  -2476  -2681  -2836  -2900  -2902  -2882  -2862  -2845  -2810  -2725  -2590  -2450  -2346  -2285  -2255  -2242  -2232  -2222  -2205  -2144  -1994  -1721  -1358  -1034  -866  -840  -867  -872  -823  -729  -616  -487  -349  -278  -335  -469  -625  -823  -1087  -1419  -1783  -2074  -2209  -2209  -2151  -2041  -1823  -1525  -1281  -1195  -1235  -1280  -1249  -1165  -1095  -1065  -1052  -1038  -1032  -1035  -1016  -959  -896  -864  -871  -903  -923  -922  -946  -1013  -1073  -1083  -1058  -1048  -1095  -1192  -1276  -1300  -1301  -1337  -1405  -1462  -1496  -1529  -1557  -1541  -1475  -1399  -1338  -1245  -1077  -905  -840  -873  -922  -950  -950  -891  -736  -526  -369  -306  -283  -236  -156  -111  -198  -422  -689  -913  -1108  -1345  -1619  -1814  -1875  -1858  -1809  -1636  -1202  -650  -338  -375  -414  156  1759  4177  6644  8344  8784  7958  6178  3853  1536  -202  -1110  -1232  -793  -168  361  710  874  904  879  842  801  783  863  1100  1406  1593  1591  1458  1235  928  567  214  -65  -278  -491  -737  -971  -1114  -1106  -926  -622  -321  -124  -35  -24  -68  -129  -161  -149  -117  -79  -30  22  50  33  -18  -53  5  194  471  744  955  1105  1219  1323  1442  1587  1720  1771  1739  1702  1716  1763  1805  1865  1995  2178  2327  2402  2437  2442  2348  2085  1719  1409  1227  1119  1009  846  628  394  191  39  -81  -197  -309  -392  -431  -444  -458  -487  -506  -433  -168  257  611  666  453  187  13  -56  -63  -52  -70  -157  -307  -472  -603  -672  -687  -678  -672  -675  -697  -778  -960  -1197  -1370  -1431  -1451  -1530  -1702  -1912  -2072  -2151  -2194  -2241  -2275  -2258  -2166  -1960  -1620  -1248  -995  -884  -831  -812  -852  -915  -911  -774  -478  34  809  1664  2236  2366  2170  1838  1549  1394  1292  1068  618  22  -501  -775  -787  -634  -435  -305  -309  -440  -620  -749  -795  -792  -771  -726  -675  -678  -728  -711  -589  -463  -414  -421  -433  -400  -281  -88  93  174  141  48  -59  -185  -321  -421  -462  -456  -415  -326  -207  -113  -82  -109  -171  -235  -283  -320  -324  -252  -86  120  266  298  233  91  -94  -250  -332  -363  -378  -402  -449  -537  -661  -786  -877  -924  -946  -961  -938  -805  -504  -59  435  872  1178  1317  1276  1053  722  436  292  257  261  271  291  325  336  226  -94  -579  -1068  -1447  -1697  -1830  -1870  -1829  -1669  -1381  -1064  -850  -772  -782  -833  -913  -1029  -1135  -1045  -536  545  2260  4477  6863  8894  9983  9744  8080  5274  2075  -565  -2032  -2335  -1894  -1268  -866  -732  -708  -697  -677  -659  -654  -665  -686  -714  -742  -746  -704  -633  -576  -565  -594  -603  -514  -311  -82  56  74  29  -17  -40  -43  -47  -67  -98  -103  -62  -3  41  67  81  91  123  211  365  546  727  926  1134  1291  1373  1435  1546  1712  1886  2030  2137  2216  2272  2307  2325  2340  2361  2388  2424  2485  2564  2632  2632  2451  2010  1417  886  523  315  218  141  -20  -286  -577  -818  -974  -1034  -1033  -1034  -1034  -964  -801  -626  -566  -679  -883  -1039  -1113  -1158  -1197  -1205  -1173  -1138  -1168  -1273  -1368  -1365  -1243  -1066  -939  -923  -1004  -1125  -1225  -1277  -1292  -1282  -1251  -1208  -1172  -1154  -1143  -1127  -1119  -1151  -1238  -1348  -1424  -1450  -1453  -1457  -1458  -1431  -1347  -1206  -1035  -868  -728  -641  -603  -573  -526  -477  -479  -582  -745  -885  -976  -1027  -1019  -910  -700  -486  -391  -430  -495  -482  -362  -140  122  306  340  238  65  -100  -221  -304  -390  -530  -713  -840  -838  -733  -577  -385  -160  57  210  276  289  289  298  300  244  94  -87  -191  -202  -180  -169  -173  -177  -155  -83  13  86  112  110  106  109  113  100  68  42  21  -10  -23  5  75  213  420  634  793  883  912  859  698  479  321  304  415  576  690  694  582  399  208  48  -87  -218  -292  -218  -25  136  184  148  53  -117  -304  -352  -226  -87  21  331  1178  2736  4694  6258  6729  5921  4103  1915  60  -1235  -2065  -2355  -2140  -1710  -1265  -893  -673  -591  -520  -354  -120  58  130  132  99  46  -9  -32  -8  32  58  67  68  53  6  -72  -169  -267  -349  -395  -408  -406  -405  -412  -420  -404  -323  -173  -7  111  171  194  196  192  211  283  393  486  526  527  535  609  785  1042  1300  1485  1576  1598  1593  1605  1655  1731  1830  1964  2117  2233  2286  2283  2194  1973  1648  1320  1053  850  685  511  296  44  -226  -475  -646  -733  -789  -863  -955  -1035  -1081  -1091  -1068  -1027  -1008  -1065  -1190  -1298  -1333  -1317  -1289  -1277  -1280  -1275  -1244  -1192  -1131  -1078  -1050  -1049  -1055  -1039  -985  -908  -849  -824  -824  -850  -915  -1002  -1068  -1098  -1110  -1109  -1057  -907  -679  -454  -296  -226  -235  -290  -352  -389  -399  -397  -393  -393  -395  -415  -480  -591  -712  -781  -773  -724  -690  -706  -788  -927  -1092  -1241  -1339  -1387  -1410  -1403  -1331  -1145  -806  -335  151  532  767  880  910  857  657  284  -122  -371  -429  -437  -557  -857  -1265  -1630  -1852  -1861  -1584  -1128  -832  -962  -1459  -1905  -1683  -428  1554  3262  3621  2393  404  -1163  -1633  -1103  -206  394  510  346  103  -95  -189  -199  -168  -122  -79  -42  2  71  153  211  218  167  57  -92  -240  -329  -309  -150  102  336  479  545  558  498  348  150  -12  -88  -96  -83  -81  -97  -121  -141  -156  -175  -185  -148  -27  146  288  348  347  346  387  480  595  687  725  709  635  479  260  67  -39  -70  -50  43  235  466  627  697  752  855  1021  1245  1418  1249  571  -171  -194  903  2967  5322  7020  7511  6816  5248  3298  1395  -199  -1222  -1519  -1284  -903  -559  -172  393  1211  2175  3028  3592  3839  3747  3237  2349  1344  529  44  -177  -290  -340  -296  -196  -115  -90  -112  -147  -172  -202  -288  -469  -701  -870  -929  -925  -898  -823  -668  -476  -311  -162  27  264  498  632  539  151  -384  -775  -866  -705  -414  -117  103  248  380  557  730  778  687  576  538  532  448  227  -43  -228  -303  -328  -306  -131  282  820  1224  1301  933  91  -986  -1859  -2284  -2373  -2340  -2259  -2116  -1952  -1845  -1801  -1736  -1560  -1257  -941  -799  -944  -1337  -1809  -2180  -2375  -2429  -2428  -2428  -2442  -2460  -2476  -2488  -2486  -2442  -2332  -2176  -2020  -1888  -1793  -1759  -1779  -1797  -1795  -1810  -1830  -1737  -1418  -904  -355  102  444  702  922  1130  1294  1321  1154  878  666  595  607  630  653  698  789  897  964  974  966  961  931  835  675  494  275  -76  -580  -1066  -1349  -1410  -1306  -1044  -639  -208  115  302  402  458  485  489  486  485  487  494  520  578  656  720  749  747  725  688  640  592  540  474  410  376  369  374  384  407  459  547  646  715  699  503  71  -463  -853  -1003  -985  -868  -677  -438  -193  3  103  96  8  -110  -208  -280  -340  -388  -425  -455  -470  -462  -433  -386  -308  -213  -150  -182  -338  -559  -731  -811  -829  -804  -735  -660  -648  -701  -767  -816  -854  -861  -771  -530  -202  48  139  114  54  15  7  18  49  111  191  250  256  196  74  -86  -254  -393  -478  -522  -560  -585  -534  -334  -30  199  249  194  147  133  136  139  115  37  -98  -264  -432  -594  -758  -928  -1081  -1211  -1341  -1457  -1559  -1708  -1901  -2045  -2075  -2003  -1878  -1744  -1621  -1620  -1940  -2496  -2658  -1763  254  2862  5234  6534  6370  5078  3342  1705  507  -83  -113  186  541  762  802  759  737  742  766  832  932  1013  1046  1053  1052  1025  936  788  626  494  413  380  376  375  336  211  -21  -300  -503  -576  -569  -540  -501  -442  -359  -278  -224  -199  -183  -167  -158  -163  -168  -137  -19  210  489  713  885  1094  1349  1558  1686  1824  2074  2413  2699  2808  2754  2652  2591  2584  2620  2694  2795  2890  2940  2940  2913  2863  2774  2627  2432  2234  2071  1905  1653  1344  1106  960  792  537  226  -91  -361  -545  -651  -683  -661  -668  -745  -857  -972  -1075  -1154  -1210  -1241  -1249  -1252  -1257  -1256  -1257  -1299  -1420  -1585  -1704  -1719  -1647  -1559  -1500  -1469  -1488  -1569  -1675  -1780  -1878  -1942  -1962  -1960  -1952  -1930  -1857  -1701  -1481  -1271  -1098  -876  -501  -28  353  542  585  551  441  211  -103  -388  -571  -661  -640  -397  134  772  1213  1335  1183  825  403  115  24  55  143  270  422  547  552  408  190  -31  -249  -440  -570  -652  -715  -740  -695  -586  -436  -246  -9  234  413  497  510  479  411  308  195  138  183  321  520  749  951  950  513  -254  -818  -862  -575  -80  765  1825  2751  3437  3786  3572  2806  1868  1151  638  149  -325  -841  -1434  -1899  -2082  -2106  -2125  -2173  -2223  -2241  -2201  -2107  -1988  -1873  -1780  -1723  -1681  -1598  -1456  -1305  -1208  -1179  -1200  -1255  -1325  -1380  -1394  -1348  -1233  -1091  -991  -962  -983  -1040  -1128  -1224  -1277  -1240  -1086  -809  -423  -4  319  458  389  118  -250  -544  -669  -658  -587  -518  -474  -452  -458  -510  -630  -811  -1005  -1155  -1208  -1159  -1074  -1030  -1073  -1227  -1444  -1622  -1703  -1640  -1352  -848  -316  75  315  416  417  521  1057  2322  4338  6650  8442  8889  7656  5182  2346  8  -1281  -1501  -1080  -554  -215  -57  6  42  93  169  264  376  492  591  651  665  654  647  660  686  708  708  666  558  386  202  84  59  109  205  306  369  369  297  156  -35  -227  -346  -339  -203  18  249  413  478  469  445  438  443  467  552  714  894  1020  1096  1165  1256  1380  1550  1763  2006  2275  2527  2681  2708  2667  2631  2611  2556  2411  2163  1873  1634  1461  1292  1076  805  465  31  -444  -821  -1024  -1096  -1109  -1093  -1050  -982  -915  -887  -914  -991  -1091  -1141  -1092  -992  -910  -862  -841  -837  -839  -842  -850  -863  -870  -861  -857  -909  -1035  -1173  -1238  -1207  -1134  -1067  -956  -724  -412  -169  -62  -54  -120  -272  -481  -673  -815  -930  -1032  -1111  -1164  -1176  -1138  -1074  -1020  -989  -980  -1013  -1108  -1245  -1368  -1446  -1482  -1490  -1469  -1410  -1325  -1254  -1224  -1216  -1179  -1103  -1056  -1078  -1108  -1112  -1111  -1089  -1029  -957  -892  -835  -776  -680  -527  -354  -198  1  390  1014  1675  2067  2072  1760  1186  408  -335  -783  -929  -950  -965  -975  -957  -943  -977  -1047  -1108  -1134  -1132  -1093  -967  -731  -457  -255  -154  -76  78  321  554  687  724  720  706  672  604  521  461  434  420  405  381  324  221  100  9  5  155  471  849  1147  1314  1405  1506  1662  1841  1967  2024  2096  2233  2265  1907  1198  613  704  1791  3668  5483  6303  5763  4031  1558  -991  -2928  -3881  -3874  -3171  -2323  -1953  -2120  -2411  -2570  -2606  -2567  -2461  -2295  -2105  -1947  -1902  -1987  -2052  -1921  -1607  -1293  -1127  -1125  -1228  -1364  -1451  -1418  -1242  -998  -815  -746  -750  -786  -835  -882  -916  -947  -992  -1054  -1110  -1138  -1146  -1168  -1177  -1089  -896  -695  -545  -392  -130  281  790  1295  1674  1835  1832  1819  1865  1939  2011  2065  2136  2322  2548  2485  2026  1441  844  184  -311  -273  482  1946  3658  4610  4186  2715  868  -713  -1562  -1745  -1770  -1901  -1855  -1415  -774  -163  315  613  768  874  965  1007  969  868  744  622  487  302  84  -90  -155  -92  74  293  514  700  834  897  849  667  422  241  173  164  168  172  171  168  187  251  345  422  452  413  276  60  -142  -246  -244  -173  -82  -21  -16  -65  -138  -187  -166  -51  114  252  315  283  123  -152  -435  -591  -574  -433  -261  -138  -76  -24  61  163  233  237  171  51  -105  -279  -431  -527  -565  -566  -551  -531  -513  -507  -513  -507  -469  -396  -292  -175  -89  -50  -34  -11  35  118  216  287  326  356  388  398  361  297  242  200  152  103  83  107  154  189  202  207  216  218  189  107  -43  -226  -346  -374  -368  -361  -321  -215  -65  61  120  130  156  252  423  608  738  802  826  796  683  496  273  61  -111  -234  -293  -280  -202  -99  -24  3  12  23  37  41  10  -69  -163  -218  -211  -154  -86  -22  58  160  284  449  646  823  975  1121  1242  1317  1343  1231  767  -190  -1381  -2080  -1682  -185  2045  4511  6457  7161  6548  5060  3115  1111  -495  -1404  -1650  -1494  -1182  -937  -880  -917  -912  -822  -648  -434  -286  -268  -366  -509  -617  -646  -583  -422  -199  29  264  545  857  1150  1398  1576  1674  1718  1722  1627  1364  1014  814  928  1288  1665  1882  1942  1943  1928  1834  1558  1097  609  274  115  30  -7  166  685  1387  2022  2516  2822  2933  3087  3485  3940  4146  3921  3106  1806  508  -376  -750  -822  -1017  -1436  -1700  -1539  -1005  -329  180  359  274  69  -158  -391  -649  -923  -1179  -1390  -1532  -1600  -1655  -1844  -2292  -2968  -3698  -4298  -4723  -5000  -5117  -5093  -4905  -4422  -3615  -2778  -2364  -2623  -3415  -4286  -4823  -4996  -4981  -4926  -4946  -5023  -5032  -4948  -4845  -4772  -4740  -4728  -4712  -4708  -4739  -4788  -4793  -4703  -4526  -4318  -4146  -4068  -4082  -4126  -4153  -4130  -3855  -2998  -1569  -148  710  1049  1251  1501  1721  1810  1728  1451  1054  704  474  289  48  -287  -653  -893  -816  -296  537  1284  1650  1660  1479  1253  1082  1004  1024  1190  1537  1974  2338  2561  2681  2754  2799  2814  2810  2805  2802  2799  2794  2795  2804  2803  2777  2739  2716  2705  2671  2574  2407  2223  2103  2055  2014  1930  1811  1697  1629  1624  1672  1741  1790  1777  1681  1532  1400  1336  1327  1341  1344  1297  1171  1006  877  809  774  755  745  746  771  836  921  991  1062  1181  1346  1491  1550  1489  1310  1069  831  587  302  18  -181  -274  -319  -403  -560  -728  -816  -792  -701  -603  -526  -462  -365  -168  136  448  626  561  207  -321  -788  -1075  -1261  -1416  -1511  -1540  -1590  -1777  -2143  -2595  -2964  -3149  -3146  -2963  -2620  -2221  -1889  -1660  -1507  -1399  -1305  -1195  -1076  -969  -881  -842  -908  -1004  -858  -155  1246  3134  5051  6616  7467  7198  5756  3493  899  -1261  -2181  -1844  -1044  -509  -398  -504  -626  -725  -828  -912  -928  -878  -795  -669  -488  -310  -232  -317  -560  -866  -1098  -1178  -1114  -960  -785  -639  -541  -488  -458  -419  -357  -289  -242  -226  -231  -255  -296  -347  -373  -305  -87  229  493  607  575  434  245  105  111  323  749  1337  1963  2442  2641  2512  2062  1471  1042  899  952  1106  1319  1557  1771  1924  2011  2063  2111  2156  2167  2145  2085  1894  1459  864  377  152  106  103  93  81  65  36  -26  -141  -366  -771  -1268  -1609  -1617  -1311  -885  -583  -486  -506  -551  -587  -604  -584  -506  -375  -244  -163  -122  -40  154  435  699  876  964  904  500  -336  -1302  -1922  -1994  -1615  -1035  -541  -279  -198  -202  -228  -232  -218  -221  -237  -242  -233  -225  -222  -221  -221  -226  -243  -268  -285  -289  -285  -283  -297  -341  -419  -504  -559  -571  -574  -612  -703  -809  -873  -881  -863  -844  -796  -645  -372  -78  121  227  287  290  212  92  -1  -77  -197  -355  -474  -540  -614  -726  -864  -1043  -1306  -1625  -1867  -1907  -1736  -1475  -1283  -1212  -1200  -1213  -1300  -1530  -1862  -2149  -2260  -2144  -1826  -1422  -1045  -697  -377  -164  -88  -94  -113  -98  -46  3  0  -99  -289  -488  -613  -656  -654  -636  -621  -620  -623  -604  -542  -452  -375  -324  -282  -217  -126  -64  -49  -58  -132  -285  -420  -466  -444  -409  -423  -562  -865  -1259  -1584  -1587  -997  173  1689  3407  5195  6714  7507  7215  5787  3592  1301  -441  -1334  -1483  -1163  -670  -299  -149  -98  -16  123  258  344  399  447  513  623  741  801  783  706  611  544  518  511  507  517  562  640  724  807  889  949  953  878  721  521  349  257  244  286  370  502  677  879  1112  1367  1564  1614  1543  1451  1393  1380  1466  1732  2160  2608  2965  3199  3313  3350  3380  3403  3276  2778  1871  864  139  -226  -406  -497  -383  185  1412  3025  4255  4660  4462  4059  3753  3522  2948  1747  189  -1089  -1449  -721  462  1153  902  -89  -1346  -2412  -3014  -3206  -3209  -3179  -3174  -3181  -3181  -3184  -3199  -3205  -3176  -3125  -3102  -3129  -3175  -3219  -3278  -3351  -3404  -3417  -3401  -3373  -3339  -3291  -3231  -3174  -3116  -3041  -2958  -2914  -2931  -2946  -2852  -2652  -2470  -2421  -2512  -2582  -2346  -1550  -266  943  1470  1046  -241  -1871  -3231  -4146  -4620  -4501  -3732  -2592  -1565  -995  -809  -700  -534  -387  -302  -216  -75  146  485  935  1430  1861  2117  2159  2025  1790  1562  1421  1321  1159  936  743  602  457  287  135  38  -6  -15  14  100  232  367  470  539  569  567  589  659  730  764  765  755  751  760  772  757  690  583  483  418  390  400  469  610  783  917  963  907  769  608  511  546  731  990  1185  1241  1155  916  503  -25  -525  -914  -1223  -1488  -1677  -1742  -1674  -1494  -1268  -1088  -993  -965  -985  -1068  -1215  -1380  -1490  -1461  -1192  -683  -200  -200  -815  -1416  -1107  492  3126  5929  7708  7853  6638  4603  2243  91  -1442  -2182  -2166  -1676  -1116  -815  -858  -1059  -1217  -1295  -1340  -1375  -1398  -1408  -1406  -1377  -1299  -1172  -1061  -1049  -1110  -1132  -1065  -959  -868  -806  -765  -739  -732  -772  -888  -1049  -1148  -1060  -699  -91  613  1228  1636  1819  1849  1820  1778  1738  1729  1789  1895  1985  2033  2049  2042  2030  2045  2121  2230  2301  2327  2412  2665  3040  3387  3645  3850  4022  4147  4206  4198  4126  3972  3750  3548  3447  3433  3388  3161  2713  2181  1744  1456  1275  1169  1127  1137  1177  1204  1164  1021  821  652  540  457  405  403  452  521  572  589  588  578  558  538  533  502  381  175  -55  -251  -362  -387  -375  -376  -413  -474  -552  -719  -1091  -1632  -2113  -2359  -2408  -2379  -2308  -2138  -1807  -1341  -877  -555  -416  -403  -434  -462  -458  -378  -205  -2  135  178  150  70  -30  -98  -100  -45  22  74  102  92  48  -2  -33  -22  16  44  60  80  110  164  244  326  386  422  439  429  363  234  87  -14  -39  28  188  399  597  724  753  697  574  389  194  69  37  45  38  -3  -62  -115  -161  -214  -280  -354  -407  -440  -520  -697  -923  -1105  -1168  -1113  -999  -878  -777  -684  -565  -429  -330  -296  -305  -327  -328  -260  -99  107  267  359  483  754  1129  1419  1490  1382  1265  1249  1299  1340  1362  1389  1409  1329  1041  562  35  -428  -765  -937  -970  -915  -802  -666  -566  -510  -467  -440  -488  -668  -974  -1294  -1499  -1576  -1586  -1574  -1566  -1567  -1565  -1567  -1602  -1670  -1737  -1780  -1815  -1873  -1952  -2011  -2018  -1976  -1919  -1859  -1653  -1001  226  1736  3041  3851  4178  4059  3320  1831  -93  -1810  -2845  -3198  -3159  -2941  -2610  -2253  -1978  -1777  -1585  -1389  -1202]
