reading_id,reading_time,wire_id,result_classification,heart_rate,heart_rate_alert,firmware_version,device_app_version,hardware_version,waveform_samples
327fa1a0-5b2b-11ed-8080-808080808080,Thu Nov 03 03:54:20 UTC 2022,e101e3752439,NSR,70,NONE,20001.171.50,2.10.0,Charge 5,[0  19  46  59  -18  -268  -611  -825  -819  -703  -603  -551  -530  -528  -581  -756  -1064  -1378  -1502  -1350  -1036  -753  -576  -453  -377  -434  -657  -931  -1111  -1161  -1138  -1102  -1078  -1070  -1069  -1067  -1063  -1067  -1094  -1125  -1108  -1026  -936  -884  -865  -861  -886  -974  -1121  -1266  -1351  -1340  -1201  -941  -664  -490  -438  -453  -493  -545  -584  -591  -582  -587  -610  -659  -761  -894  -995  -1035  -1032  -996  -921  -841  -836  -934  -1057  -1114  -1074  -950  -795  -667  -632  -827  -1282  -1787  -2029  -1578  -91  2172  4453  6059  6582  5917  4267  2079  -99  -1790  -2687  -2742  -2224  -1602  -1230  -1113  -1083  -1063  -1078  -1142  -1208  -1229  -1221  -1215  -1194  -1139  -1067  -1014  -990  -984  -1000  -1059  -1161  -1268  -1324  -1281  -1119  -900  -737  -664  -629  -598  -581  -607  -669  -687  -584  -389  -197  -56  50  155  291  501  826  1227  1575  1780  1885  1955  1994  1990  1965  1949  1954  1964  1949  1876  1746  1593  1456  1352  1256  1115  911  679  459  241  -11  -284  -496  -592  -607  -617  -680  -793  -902  -953  -929  -864  -840  -902  -991  -1037  -1041  -1034  -1035  -1042  -1040  -995  -884  -743  -669  -687  -690  -619  -527  -466  -451  -463  -465  -452  -437  -427  -427  -457  -526  -605  -670  -714  -716  -677  -616  -541  -473  -434  -417  -412  -432  -492  -577  -648  -687  -695  -641  -487  -277  -126  -105  -195  -324  -416  -453  -465  -471  -451  -398  -340  -285  -200  -88  1  36  28  2  -32  -75  -92  -61  -10  35  81  129  185  255  310  321  302  267  184  12  -220  -405  -483  -494  -489  -488  -491  -484  -454  -396  -320  -223  -130  -196  -539  -889  -669  441  2200  4074  5544  6138  5700  4499  2847  1035  -524  -1493  -1774  -1463  -847  -325  -136  -224  -378  -461  -455  -385  -272  -130  40  216  341  381  343  262  198  198  238  267  273  270  269  273  279  285  293  299  298  294  307  358  450  571  717  870  1008  1138  1277  1410  1518  1607  1692  1805  1976  2186  2385  2533  2623  2643  2578  2440  2269  2096  1938  1828  1771  1697  1512  1202  866  586  355  137  -65  -244  -432  -659  -912  -1151  -1329  -1418  -1436  -1427  -1420  -1421  -1419  -1400  -1352  -1272  -1182  -1115  -1093  -1133  -1251  -1411  -1530  -1557  -1492  -1371  -1261  -1203  -1178  -1157  -1123  -1053  -951  -851  -749  -611  -460  -369  -370  -423  -473  -500  -503  -470  -384  -268  -179  -143  -147  -170  -212  -277  -356  -427  -471  -463  -392  -270  -124  4  49  -6  -113  -211  -268  -287  -283  -253  -183  -89  -22  -11  -48  -102  -139  -142  -115  -73  -36  -25  -72  -203  -393  -570  -676  -702  -669  -614  -575  -565  -573  -584  -596  -617  -644  -654  -639  -655  -781  -960  -1026  -813  -93  1298  3153  4907  5972  5933  4709  2727  668  -975  -1946  -2173  -1853  -1316  -824  -566  -568  -623  -586  -513  -463  -431  -411  -404  -392  -361  -316  -280  -274  -306  -361  -423  -485  -525  -514  -439  -328  -242  -215  -219  -191  -82  78  212  276  299  345  454  582  652  665  719  890  1142  1377  1558  1702  1819  1923  2042  2163  2241  2267  2270  2275  2270  2192  1974  1672  1431  1305  1217  1069  826  554  365  297  269  163  -83  -396  -629  -721  -723  -704  -691  -669  -621  -560  -525  -540  -595  -666  -735  -785  -798  -772  -722  -660  -602  -570  -570  -581  -584  -583  -568  -513  -436  -415  -517  -698  -848  -903  -880  -828  -787  -772  -782  -802  -817  -825  -828  -823  -792  -728  -640  -558  -509  -497  -504  -519  -535  -547  -555  -559  -562  -556  -537  -512  -488  -469  -459  -474  -533  -625  -713  -769  -791  -791  -780  -757  -701  -590  -412  -190  -17  6  -97  -207  -271  -334  -437  -547  -619  -652  -665  -661  -640  -606  -563  -515  -477  -466  -473  -469  -423  -313  -163  -91  -255  -726  -1372  -1761  -1307  195  2306  4306  5590  5831  5133  3864  2340  803  -527  -1424  -1752  -1593  -1165  -733  -491  -413  -358  -282  -233  -234  -262  -297  -321  -329  -329  -327  -328  -337  -352  -343  -271  -133  10  101  132  133  119  85  27  -41  -91  -97  -41  73  231  414  625  859  1070  1205  1264  1290  1329  1415  1577  1811  2052  2214  2281  2297  2291  2260  2198  2132  2109  2154  2214  2193  2075  1927  1790  1643  1422  1062  605  203  -22  -84  -63  -22  19  54  72  63  22  -44  -131  -225  -303  -343  -345  -338  -357  -426  -524  -600  -627  -604  -531  -424  -324  -269  -266  -296  -346  -418  -495  -527  -495  -460  -487  -559  -625  -637  -566  -446  -346  -293  -273  -266  -278  -353  -515  -717  -863  -906  -890  -875  -866  -824  -724  -595  -498  -453  -438  -430  -426  -438  -478  -535  -578  -590  -571  -539  -520  -523  -522  -507  -499  -518  -554  -566  -524  -454  -374  -284  -208  -175  -172  -173  -167  -171  -228  -375  -570  -710  -748  -719  -674  -662  -733  -884  -1034  -1060  -899  -633  -400  -298  -473  -1000  -1527  -1461  -538  1052  2880  4457  5460  5731  5164  3810  1963  45  -1442  -2066  -1856  -1283  -777  -513  -467  -490  -504  -536  -600  -672  -705  -656  -541  -411  -308  -242  -214  -222  -258  -302  -336  -373  -440  -516  -537  -474  -371  -281  -203  -91  60  194  265  283  278  278  315  408  538  662  760  858  1020  1298  1651  1958  2148  2246  2299  2340  2376  2390  2365  2305  2242  2200  2159  2093  2012  1898  1694  1414  1155  946  708  420  158  -25  -139  -210  -254  -278  -301  -365  -495  -652  -761  -770  -662  -460  -252  -130  -122  -208  -356  -524  -667  -767  -853  -965  -1091  -1177  -1183  -1106  -985  -884  -836  -829  -833  -820  -769  -695  -662  -716  -814  -888  -926  -947  -960  -965  -952  -904  -809  -677  -524  -354  -214  -180  -237  -325  -436  -552  -634  -671  -662  -622  -569  -490  -392  -317  -284  -282  -307  -369  -454  -527  -563  -564  -543  -511  -466  -413  -371  -352  -343  -325  -293  -274  -304  -387  -481  -520  -438  -237  -20  102  119  81  13  -99  -234  -326  -359  -403  -528  -709  -849  -902  -889  -828  -728  -617  -538  -525  -643  -954  -1371  -1663  -1619  -1165  -290  1067  2885  4797  6195  6588  5806  4061  1981  219  -971  -1581  -1691  -1545  -1333  -1074  -801  -618  -557  -565  -599  -645  -682  -677  -629  -572  -538  -528  -521  -499  -458  -420  -408  -406  -391  -389  -437  -510  -532  -457  -329  -225  -155  -78  10  77  115  146  185  248  358  526  707  833  917  1049  1279  1553  1763  1871  1941  2048  2195  2317  2374  2368  2293  2148  1972  1820  1692  1566  1449  1365  1285  1123  823  427  37  -256  -409  -443  -424  -397  -371  -352  -350  -364  -381  -422  -533  -724  -928  -1047  -1036  -937  -799  -669  -603  -606  -626  -626  -613  -605  -603  -602  -600  -599  -612  -657  -750  -886  -1014  -1052  -939  -709  -470  -331  -323  -371  -382  -351  -346  -395  -460  -520  -583  -644  -671  -646  -587  -517  -429  -324  -239  -207  -233  -299  -370  -414  -426  -423  -420  -417  -405  -383  -372  -394  -445  -496  -517  -498  -452  -406  -377  -358  -313  -197  -32  91  131  116  94  106  165  246  326  401  487  584  633  577  450  312  188  81  -15  -109  -187  -234  -264  -290  -310  -320  -329  -341  -349  -321  -205  11  191  93  -301  -671  -616  127  1635  3634  5427  6261  5818  4294  2240  310  -1075  -1838  -2073  -1916  -1544  -1147  -844  -661  -579  -574  -609  -635  -622  -582  -526  -439  -315  -185  -96  -67  -69  -73  -99  -156  -204  -194  -120  -38  -15  -40  -39  10  62  84  86  94  122  197  338  507  625  695  796  969  1158  1288  1338  1343  1365  1475  1691  1932  2096  2152  2141  2109  2081  2054  2014  1959  1887  1769  1578  1293  912  519  231  69  -29  -148  -334  -561  -754  -854  -869  -843  -808  -781  -770  -791  -856  -948  -1019  -1047  -1032  -979  -901  -829  -793  -815  -897  -999  -1069  -1091  -1079  -1045  -995  -953  -937  -933  -899  -801  -653  -515  -437  -424  -450  -498  -572  -658  -696  -632  -476  -306  -204  -196  -275  -411  -546  -632  -666  -680  -702  -731  -742  -722  -671  -583  -463  -339  -258  -265  -348  -454  -555  -662  -761  -797  -732  -603  -481  -380  -262  -154  -110  -107  -95  -59  -7  40  65  75  81  65  -6  -136  -274  -364  -403  -427  -451  -472  -484  -487  -495  -533  -598  -626  -571  -476  -405  -361  -345  -425  -684  -1071  -1265  -860  280  2014  3958  5467  6039  5594  4310  2543  750  -694  -1572  -1856  -1707  -1385  -1114  -954  -856  -784  -729  -685  -640  -595  -563  -551  -548  -530  -477  -403  -348  -330  -331  -323  -280  -201  -123  -89  -114  -174  -230  -260  -241  -150  5  175  321  433  502  510  471  471  618  932  1297  1574  1737  1826  1872  1887  1888  1888  1908  1976  2104  2241  2306  2252  2098  1899  1705  1559  1489  1468  1407  1216  892  537  260  43  -210  -506  -745  -865  -897  -884  -809  -643  -442  -330  -367  -495  -620  -705  -767  -827  -875  -893  -884  -874  -882  -895  -891  -871  -834  -783  -744  -746  -786  -825  -812  -761  -737  -752  -768  -774  -787  -828  -880  -898  -852  -771  -708  -685  -694  -724  -771  -823  -864  -858  -752  -529  -273  -106  -70  -114  -176  -225  -272  -336  -404  -442  -445  -441  -426  -372  -289  -222  -196  -198  -209  -231  -270  -314  -354  -378  -354  -276  -192  -141  -123  -124  -130  -137  -144  -152  -163  -174  -185  -207  -253  -314  -367  -400  -416  -420  -404  -354  -280  -220  -193  -172  -105  29  183  286  326  340  358  382  385  349  281  200  142  113  59  -40  -135  -187  -199  -199  -239  -362  -549  -718  -784  -732  -609  -482  -427  -560  -905  -1185  -979  -82  1434  3270  4924  5952  6125  5382  3838  1862  -29  -1401  -2030  -1957  -1488  -980  -618  -439  -375  -324  -255  -208  -202  -228  -283  -382  -510  -609  -649  -649  -626  -551  -393  -189  -31  38  53  50  45  43  41  36  34  49  90  152  217  280  346  420  506  612  745  897  1064  1249  1440  1595  1680  1708  1725  1775  1889  2058  2228  2338  2382  2377  2293  2090  1826  1629  1543  1496  1414  1259  1008  698  424  235  99  -24  -150  -300  -463  -591  -655  -679  -685  -677  -663  -656  -658  -648  -606  -542  -497  -496  -528  -588  -692  -819  -908  -919  -860  -777  -720  -706  -717  -727  -702  -617  -498  -405  -371  -397  -485  -619  -745  -811  -808  -750  -664  -593  -560  -549  -531  -495  -471  -490  -544  -613  -671  -698  -698  -686  -663  -640  -621  -598  -566  -526  -493  -475  -461  -455  -476  -516  -547  -546  -508  -466  -459  -501  -582  -655  -675  -654  -628  -600  -558  -496  -432  -395  -405  -444  -489  -535  -570  -578  -569  -559  -548  -539  -532  -531  -526  -504  -453  -387  -338  -321  -323  -329  -334  -338  -342  -345  -347  -343  -329  -309  -289  -278  -279  -287  -282  -231  -124  -3  82  133  167  186  194  196  191  174  136  57  -67  -192  -271  -313  -340  -367  -402  -430  -437  -428  -417  -412  -405  -368  -288  -217  -236  -365  -598  -905  -1055  -656  593  2604  4809  6484  7109  6497  4867  2727  597  -1092  -1949  -1850  -1166  -481  -161  -198  -343  -419  -444  -463  -464  -441  -404  -348  -247  -123  -59  -110  -224  -307  -313  -274  -233  -208  -188  -149  -82  -9  60  139  207  238  242  244  252  263  285  337  436  596  822  1083  1298  1422  1493  1562  1644  1749  1869  1965  2026  2066  2080  2058  2028  2037  2103  2186  2219  2163  2001  1722  1380  1101  957  916  907  883  782  539  183  -141  -334  -416  -445  -454  -480  -545  -609  -629  -612  -580  -548  -502  -427  -344  -283  -271  -340  -472  -582  -623  -620  -628  -680  -770  -855  -898  -882  -804  -690  -584  -501  -434  -392  -396  -462  -598  -768  -896  -950  -944  -883  -762  -614  -491  -413  -366  -344  -340  -345  -349  -342  -316  -274  -234  -211  -209  -224  -250  -279  -286  -248  -166  -74  -14  0  -26  -87  -168  -243  -289  -307  -308  -314  -361  -461  -551  -557  -494  -431  -397  -378  -358  -339  -315  -267  -198  -161  -193  -275  -377  -492  -594  -624  -579  -524  -499  -489  -467  -435  -417  -430  -463  -499  -536  -573  -589  -557  -473  -369  -282  -233  -224  -252  -293  -305  -264  -186  -115  -75  -61  -59  -58  -37  25  107  164  190  200  182  104  -56  -273  -468  -575  -597  -566  -499  -420  -370  -377  -439  -541  -652  -720  -699  -581  -438  -407  -584  -949  -1270  -1142  -253  1439  3602  5565  6665  6518  5163  3129  1076  -591  -1632  -1953  -1811  -1567  -1350  -1160  -980  -791  -609  -465  -369  -316  -288  -275  -271  -281  -306  -339  -361  -360  -345  -338  -349  -359  -333  -247  -118  -1  56  66  68  85  113  149  204  268  313  332  366  467  625  776  872  907  922  1005  1231  1555  1832  1975  2030  2075  2132  2175  2183  2153  2083  1968  1810  1658  1573  1558  1548  1454  1220  897  609  413  263  90  -117  -302  -414  -460  -462  -434  -397  -368  -343  -319  -328  -418  -606  -838  -1019  -1080  -1015  -879  -755  -692  -680  -687  -697  -713  -738  -765  -781  -784  -780  -777  -778  -777  -762  -735  -716  -735  -780  -785  -698  -559  -442  -375  -351  -368  -424  -502  -567  -599  -606  -601  -588  -564  -533  -502  -468  -422  -351  -266  -224  -268  -347  -399  -418  -421  -417  -411  -411  -428  -443  -434  -401  -356  -293  -224  -179  -160  -150  -143  -167  -257  -410  -561  -639  -623  -537  -433  -362  -328  -302  -274  -255  -271  -347  -461  -537  -544  -520  -508  -510  -497  -437  -335  -239  -195  -206  -248  -289  -294  -246  -152  -45  26  24  -66  -218  -361  -438  -448  -424  -394  -372  -350  -313  -251  -176  -117  -85  -64  -34  27  137  271  363  347  204  -4  -166  -228  -229  -236  -283  -359  -429  -478  -506  -497  -432  -338  -270  -251  -285  -406  -681  -1037  -1193  -892  -29  1400  3236  5088  6391  6613  5592  3652  1406  -482  -1586  -1895  -1686  -1275  -901  -695  -637  -588  -478  -369  -327  -351  -404  -453  -480  -492  -504  -511  -488  -407  -287  -191  -145  -132  -143  -185  -253  -306  -275  -151  -19  52  78  111  167  225  270  308  351  433  575  747  889  984  1059  1147  1271  1446  1669  1895  2055  2123  2142  2170  2229  2311  2394  2452  2446  2322  2050  1664  1284  1041  950  926  897  838  726  534  285  47  -150  -315  -452  -554  -622  -659  -678  -692  -701  -704  -703  -699  -699  -709  -733  -760  -788  -818  -835  -813  -749  -676  -644  -693  -819  -957  -1022  -982  -885  -811  -789  -799  -809  -790  -723  -630  -560  -530  -526  -543  -589  -651  -699  -717  -714  -701  -678  -647  -633  -653  -689  -698  -643  -530  -446  -470  -563  -651  -714  -758  -783  -798  -810  -820  -815  -780  -720  -656  -604  -567  -543  -534  -534  -538  -544  -552  -556  -531  -451  -338  -254  -231  -255  -306  -364  -409  -424  -396  -309  -183  -65  25  98  154  195  221  237  240  217  149  51  -32  -77  -93  -94  -91  -89  -97  -126  -167  -202  -224  -248  -293  -360  -446  -562  -691  -768  -768  -736  -694  -660  -692  -770  -796  -611  125  1645  3620  5338  6186  5854  4368  2147  -116  -1819  -2666  -2653  -2057  -1327  -824  -644  -651  -678  -648  -551  -400  -218  -40  77  78  -48  -226  -350  -374  -330  -266  -215  -184  -163  -149  -128  -78  -1  65  101  125  175  253  327  377  417  477  566  674  780  851  880  894  916  950  1047  1292  1669  2040  2305  2466  2546  2563  2544  2504  2460  2427  2396  2333  2204  2004  1776  1591  1471  1362  1185  935  676  460  275  73  -146  -307  -366  -363  -381  -470  -613  -737  -796  -799  -783  -781  -808  -868  -956  -1035  -1039  -929  -727  -512  -375  -340  -364  -400  -425  -437  -441  -440  -437  -433  -434  -453  -490  -508  -475  -412  -361  -342  -351  -358  -339  -309  -297  -307  -329  -351  -382  -445  -526  -588  -616  -632  -662  -705  -740  -754  -755  -754  -756  -759  -755  -723  -656  -582  -558  -593  -644  -675  -687  -693  -700  -709  -706  -663  -554  -387  -214  -90  -50  -78  -118  -123  -82  -27  -20  -76  -154  -245  -353  -446  -505  -542  -550  -516  -449  -384  -351  -362  -422  -512  -589  -612  -548  -410  -309  -362  -579  -923  -1227  -1107  -243  1396  3493  5365  6289  5915  4418  2344  320  -1174  -1948  -2070  -1773  -1364  -1074  -940  -863  -758  -639  -579  -606  -662  -680  -647  -581  -510  -462  -440  -431  -428  -434  -450  -473  -490  -480  -424  -311  -171  -62  3  50  59  8  -60  -91  -73  -15  64  137  181  198  238  411  786  1249  1593  1757  1850  1949  2028  2058  2059  2072  2122  2195  2249  2272  2284  2301  2294  2195  1954  1614  1291  1043  825  584  321  61  -174  -347  -435  -458  -455  -458  -474  -493  -507  -524  -555  -612  -698  -783  -831  -842  -840  -848  -866  -882  -877  -832  -734  -605  -502  -458  -459  -479  -507  -536  -555  -544  -498  -435  -388  -372  -381  -397  -402  -394  -373  -342  -313  -296  -292  -295  -301  -304  -293  -261  -227  -211  -223  -260  -308  -349  -378  -392  -392  -378  -357  -343  -367  -452  -575  -675  -712  -675  -561  -412  -304  -265  -267  -277  -292  -321  -358  -395  -433  -484  -561  -637  -652  -612  -565  -501  -431  -413  -459  -525  -565  -550  -466  -310  -130  -31  -70  -218  -392  -514  -553  -514  -397  -231  -77  34  108  128  83  5  -53  -49  24  105  135  109  50  -10  -74  -175  -308  -420  -462  -425  -354  -303  -319  -433  -570  -608  -553  -507  -531  -606  -700  -867  -1137  -1353  -1285  -732  454  2184  4074  5669  6528  6347  5181  3365  1299  -614  -1950  -2404  -2040  -1262  -539  -175  -165  -298  -405  -450  -459  -458  -467  -500  -559  -627  -683  -715  -720  -684  -595  -470  -346  -247  -163  -75  10  78  116  102  39  -33  -83  -74  26  223  470  675  771  775  745  720  716  745  845  1066  1397  1741  1990  2116  2177  2244  2338  2450  2573  2690  2760  2734  2574  2300  1991  1730  1547  1405  1256  1102  961  820  664  501  313  75  -160  -309  -364  -395  -449  -525  -597  -641  -659  -669  -671  -647  -589  -510  -437  -386  -359  -347  -340  -338  -356  -399  -446  -470  -491  -534  -591  -638  -663  -670  -669  -668  -668  -665  -647  -602  -532  -462  -433  -468  -555  -648  -706  -725  -731  -744  -756  -750  -719  -655  -567  -495  -467  -484  -529  -583  -631  -669  -696  -696  -651  -558  -457  -412  -462  -584  -708  -774  -762  -683  -578  -505  -482  -486  -496  -500  -493  -468  -424  -373  -337  -330  -352  -392  -445  -498  -538  -555  -547  -513  -450  -378  -336  -351  -408  -471  -507  -516  -519  -528  -541  -562  -589  -605  -578  -479  -326  -179  -75  -5  40  61  61  46  20  -18  -64  -91  -74  -18  31  36  8  -45  -149  -290  -405  -462  -490  -516  -527  -506  -463  -439  -455  -491  -514  -526  -557  -636  -745  -856  -975  -1061  -974  -488  674  2523  4570  6138  6737  6179  4612  2543  560  -934  -1689  -1700  -1313  -956  -805  -776  -758  -713  -649  -592  -551  -512  -471  -444  -439  -446  -453  -457  -460  -466  -470  -451  -392  -306  -228  -182  -180  -219  -265  -285  -264  -206  -130  -39  69  168  241  319  432  570  694  773  804  824  899  1070  1289  1471  1601  1752  1974  2222  2423  2565  2644  2616  2478  2305  2159  2032  1894  1729  1557  1414  1299  1168  1022  896  775  605  380  136  -74  -202  -254  -296  -365  -462  -565  -637  -661  -646  -615  -581  -547  -516  -508  -525  -553  -588  -619  -636  -648  -671  -702  -724  -726  -710  -684  -650  -608  -577  -578  -613  -655  -672  -666  -655  -648  -637  -629  -643  -680  -712  -715  -686  -643  -612  -617  -660  -720  -766  -785  -785  -763  -709  -638  -587  -573  -581  -583  -561  -521  -481  -458  -474  -524  -570  -602  -648  -721  -793  -818  -771  -660  -534  -450  -420  -423  -459  -547  -660  -729  -705  -609  -504  -440  -424  -431  -441  -451  -458  -444  -377  -238  -35  187  362  467  505  461  360  270  198  77  -128  -377  -580  -668  -641  -556  -469  -380  -272  -173  -130  -177  -341  -581  -767  -795  -700  -593  -553  -614  -768  -910  -821  -192  1224  3252  5223  6409  6400  5145  2991  675  -1098  -2043  -2203  -1822  -1307  -961  -799  -693  -571  -447  -359  -313  -291  -292  -326  -395  -460  -452  -360  -239  -139  -67  -12  35  68  68  42  18  -5  -46  -98  -128  -121  -105  -95  -55  61  240  415  553  656  716  751  816  968  1223  1532  1808  2010  2158  2271  2352  2419  2486  2540  2576  2602  2619  2613  2572  2503  2407  2242  1973  1639  1314  1038  784  504  225  36  -33  -48  -68  -129  -258  -442  -624  -755  -814  -798  -727  -658  -660  -736  -823  -882  -919  -947  -969  -980  -986  -989  -986  -971  -936  -877  -785  -680  -634  -691  -796  -870  -896  -898  -896  -886  -851  -774  -640  -445  -239  -102  -62  -88  -133  -172  -198  -215  -227  -233  -231  -225  -221  -222  -222  -223  -248  -331  -474  -630  -731  -732  -661  -591  -566  -575  -594  -614  -636  -660  -677  -677  -665  -651  -646  -647  -646  -640  -628  -603  -569  -539  -521  -512  -507  -504  -508  -518  -529  -537  -541  -531  -490  -410  -300  -183  -94  -60  -80  -132  -197  -260  -304  -328  -349  -392  -453  -525  -624  -740  -830  -873  -878  -857  -817  -775  -751  -750  -756  -752  -732  -699  -703  -821  -1056  -1233  -1000  -90  1444  3285  4968  5971  6003  5126  3587  1704  -143  -1523  -2124  -2030  -1585  -1072  -701  -578  -611  -665  -692  -693  -672  -639  -609  -607  -628  -630  -601  -556  -488  -397  -292  -194  -131  -112  -116  -123  -129  -136  -147  -157  -147  -89  28  180  325  439  540  645  730  763  757  749  768  860  1089  1439  1807  2091  2274  2406  2521  2604  2642  2652  2650  2634  2599  2532  2382  2092  1728  1457  1344  1315  1297  1260  1170  984  707  399  136  -26  -82  -100  -156  -269  -417  -592  -766  -883  -916  -885  -807  -684  -543  -435  -393  -409  -458  -510  -542  -550  -550  -554  -564  -578  -596  -616  -628  -631  -635  -653  -686  -717  -734  -729  -683  -578  -443  -343  -303  -301  -331  -412  -517  -579  -577  -561  -584  -652  -727  -772  -775  -737  -649  -517  -385  -308  -301  -334  -367  -378  -370  -369  -409  -499  -595  -623  -570  -512  -485  -451  -387  -312  -259  -254  -307  -392  -477  -552  -639  -735  -807  -830  -802  -734  -656  -595  -546  -494  -436  -373  -318  -284  -272  -278  -299  -325  -340  -341  -332  -316  -299  -296  -326  -419  -579  -748  -828  -764  -581  -353  -148  -9  62  85  73  32  -18  -53  -66  -70  -75  -75  -66  -55  -59  -86  -137  -196  -239  -267  -305  -380  -494  -625  -740  -814  -857  -897  -923  -877  -737  -570  -441  -353  -320  -409  -721  -1208  -1474  -1052  171  1973  3955  5609  6499  6398  5294  3446  1329  -536  -1721  -2051  -1756  -1277  -915  -748  -726  -778  -876  -990  -1061  -1049  -948  -788  -625  -509  -442  -398  -358  -329  -323  -336  -402  -572  -805  -955  -885  -584  -204  50  117  75  24  20  81  183  281  357  437  552  700  851  993  1141  1286  1383  1431  1484  1573  1712  1916  2120  2192  2120  2032  2020  2072  2148  2246  2364  2450  2426  2229  1879  1479  1142  933  829  705  442  92  -169  -267  -282  -314  -370  -378  -313  -240  -215  -230  -251  -264  -281  -322  -388  -467  -548  -618  -662  -681  -694  -700  -669  -573  -436  -324  -267  -242  -228  -231  -265  -347  -474  -597  -647  -581  -422  -251  -148  -120  -145  -211  -308  -409  -498  -573  -642  -685  -657  -543  -394  -269  -198  -180  -207  -273  -361  -441  -506  -555  -596  -640  -679  -661  -550  -408  -347  -391  -457  -480  -462  -432  -406  -379  -359  -367  -407  -455  -480  -485  -483  -470  -442  -417  -409  -409  -407  -410  -427  -442  -429  -378  -289  -179  -83  -34  -49  -124  -227  -308  -343  -346  -345  -360  -390  -414  -420  -417  -426  -465  -529  -594  -641  -662  -616  -451  -181  92  258  253  122  -17  -87  -93  -78  -75  -80  -76  -64  -61  -75  -103  -136  -166  -193  -227  -260  -288  -348  -485  -665  -796  -837  -816  -760  -663  -502  -310  -210  -325  -622  -885  -814  -161  1175  2992  4754  5863  5903  4739  2697  480  -1233  -2097  -2158  -1741  -1220  -839  -661  -620  -621  -615  -602  -599  -615  -646  -679  -704  -717  -708  -628  -437  -188  -7  44  -7  -119  -249  -358  -416  -431  -434  -451  -464  -425  -327  -207  -66  134  403  675  848  866  763  631  549  521  528  622  875  1261  1674  2031  2276  2386  2408  2411  2442  2515  2615  2717  2791  2802  2727  2551  2265  1902  1554  1311  1165  1032  845  597  325  78  -110  -226  -270  -273  -286  -351  -453  -545  -599  -625  -632  -632  -648  -701  -776  -831  -831  -776  -698  -638  -612  -608  -608  -604  -594  -582  -588  -635  -715  -778  -779  -712  -617  -549  -526  -532  -545  -555  -556  -545  -526  -510  -503  -514  -548  -598  -642  -654  -602  -468  -296  -170  -129  -159  -248  -366  -465  -516  -537  -565  -601  -600  -536  -435  -337  -291  -312  -355  -380  -397  -418  -437  -443  -431  -412  -402  -410  -420  -393  -297  -157  -44  6  20  53  133  211  203  111  4  -95  -219  -375  -525  -616  -641  -635  -625  -618  -610  -606  -622  -667  -725  -768  -796  -838  -898  -916  -849  -751  -660  -402  340  1727  3544  5233  6136  5884  4557  2589  568  -1041  -1982  -2131  -1652  -1010  -586  -472  -545  -631  -669  -684  -675  -619  -520  -421  -362  -342  -335  -327  -310  -293  -286  -289  -281  -241  -195  -195  -238  -271  -247  -153  -23  83  133  137  139  180  267  363  425  454  503  616  763  858  863  841  929  1238  1686  2045  2204  2232  2229  2233  2244  2252  2260  2277  2294  2263  2119  1864  1573  1311  1103  945  796  607  380  159  -21  -179  -346  -505  -604  -629  -611  -583  -572  -608  -698  -808  -897  -957  -995  -978  -877  -727  -616  -580  -587  -601  -609  -613  -615  -608  -582  -543  -516  -543  -654  -813  -937  -963  -885  -744  -616  -529  -451  -382  -345  -336  -337  -344  -359  -380  -397  -404  -396  -375  -341  -287  -231  -200  -201  -232  -296  -384  -471  -525  -532  -504  -462  -415  -358  -291  -246  -254  -318  -400  -447  -447  -428  -408  -380  -345  -320  -328  -376  -442  -490  -505  -504  -505  -509  -505  -480  -407  -278  -186  -257  -459  -635  -715  -754  -805  -860  -891  -860  -737  -540  -335  -180  -101  -84  -91  -97  -101  -110  -128  -140  -128  -95  -58  -45  -62  -71  -39  30  117  193  251  284  242  88  -135  -332  -438  -463  -454  -439  -433  -469  -574  -716  -806  -799  -727  -666  -687  -790  -883  -920  -919  -703  52  1441  3203  4897  5987  6064  5142  3611  1938  443  -715  -1428  -1694  -1650  -1412  -1088  -834  -698  -602  -508  -451  -445  -462  -479  -491  -497  -496  -494  -495  -502  -510  -498  -445  -367  -305  -268  -229  -169  -79  35  125  158  158  168  207  261  306  340  372  415  493  609  747  893  1031  1156  1278  1396  1502  1620  1776  1933  2039  2090  2128  2189  2269  2352  2428  2484  2480  2346  2025  1552  1074  756  639  626  605  534  424  282  118  -40  -172  -268  -328  -363  -399  -451  -494  -503  -497  -503  -522  -542  -552  -553  -551  -548  -542  -535  -529  -527  -527  -526  -520  -512  -506  -501  -496  -487  -482  -503  -571  -673  -757  -797  -806  -806  -788  -727  -628  -529  -461  -430  -425  -429  -434  -435  -426  -400  -364  -333  -316  -307  -303  -320  -378  -468  -550  -592  -594  -562  -498  -407  -304  -217  -182  -212  -265  -295  -298  -282  -259  -241  -234  -240  -257  -279  -298  -314  -325  -341  -374  -394  -369  -325  -299  -296  -298  -293  -286  -294  -331  -391  -460  -519  -537  -507  -464  -443  -443  -447  -441  -420  -389  -357  -333  -320  -322  -348  -396  -449  -482  -491  -483  -462  -433  -405  -379  -335  -251  -141  -51  3  40  70  94  112  123  132  146  155  132  61  -36  -119  -169  -215  -286  -383  -490  -576  -612  -600  -574  -567  -587  -616  -642  -677  -736  -802  -876  -978  -1003  -700  159  1630  3489  5245  6337  6385  5380  3659  1649  -190  -1392  -1813  -1722  -1413  -1049  -775  -659  -625  -591  -543  -479  -411  -354  -316  -306  -317  -332  -352  -393  -466  -559  -635  -665  -626  -489  -276  -76  31  41  10  0  21  72  160  269  346  343  257  129  32  19  117  328  618  923  1181  1371  1510  1606  1667  1734  1883  2133  2396  2575  2653  2661  2611  2500  2352  2209  2090  1988  1865  1684  1444  1153  822  515  307  200  129  30  -104  -227  -302  -336  -351  -362  -388  -466  -612  -775  -882  -919  -917  -892  -830  -732  -636  -575  -551  -556  -592  -649  -706  -748  -768  -772  -770  -768  -769  -766  -756  -731  -687  -623  -553  -501  -485  -508  -562  -619  -652  -662  -665  -668  -668  -667  -675  -699  -731  -768  -823  -893  -930  -891  -783  -652  -548  -510  -544  -612  -664  -683  -680  -665  -640  -624  -650  -733  -856  -977  -1052  -1058  -1008  -933  -868  -829  -810  -793  -760  -708  -645  -580  -510  -443  -398  -384  -402  -457  -530  -565  -528  -445  -337  -187  -3  163  280  346  358  301  154  -78  -331  -510  -604  -653  -650  -569  -452  -365  -325  -325  -348  -367  -378  -392  -403  -395  -384  -453  -695  -1068  -1350  -1273  -563  924  2907  4713  5724  5673  4644  3013  1281  -244  -1472  -2240  -2394  -2061  -1503  -903  -384  -40  107  99  -13  -182  -350  -452  -447  -341  -195  -92  -71  -110  -167  -205  -205  -172  -125  -91  -79  -86  -107  -135  -149  -117  -23  106  223  306  363  401  446  558  764  1007  1214  1379  1516  1612  1666  1717  1824  2046  2353  2617  2758  2809  2836  2862  2894  2931  2960  2944  2829  2587  2268  1940  1613  1292  1033  875  796  738  652  498  238  -110  -466  -760  -957  -1041  -1020  -912  -758  -622  -553  -561  -602  -619  -593  -552  -527  -527  -562  -640  -743  -826  -868  -877  -864  -840  -806  -741  -632  -508  -423  -392  -392  -406  -450  -531  -627  -701  -740  -758  -772  -787  -768  -657  -440  -199  -38  19  17  -29  -137  -281  -392  -432  -415  -359  -290  -242  -238  -275  -336  -387  -410  -407  -400  -417  -479  -566  -629  -635  -589  -523  -476  -472  -507  -563  -617  -658  -661  -590  -443  -267  -144  -130  -205  -306  -398  -486  -567  -618  -607  -506  -335  -169  -65  -23  -16  -17  3  44  68  38  -37  -119  -173  -196  -199  -190  -171  -144  -113  -94  -107  -167  -264  -382  -527  -693  -832  -918  -963  -963  -885  -733  -543  -421  -498  -639  -373  697  2468  4364  5723  6080  5310  3725  1848  82  -1244  -1861  -1795  -1323  -779  -495  -578  -793  -891  -857  -784  -734  -720  -731  -761  -802  -830  -813  -728  -596  -471  -378  -302  -236  -208  -237  -296  -341  -355  -353  -359  -383  -403  -373  -264  -98  68  211  345  473  568  614  649  724  846  976  1090  1185  1270  1389  1592  1869  2159  2409  2582  2671  2693  2669  2609  2527  2417  2242  1960  1582  1202  920  743  624  538  462  385  308  224  104  -60  -238  -374  -441  -449  -426  -405  -424  -505  -623  -722  -765  -748  -677  -583  -517  -495  -498  -510  -536  -582  -631  -654  -639  -614  -602  -593  -591  -608  -631  -633  -610  -586  -573  -559  -526  -489  -481  -508  -541  -557  -561  -563  -567  -563  -543  -512  -488  -484  -494  -519  -566  -621  -662  -683  -687  -676  -658  -644  -638  -637  -640  -647  -653  -643  -594  -512  -433  -390  -380  -385  -396  -415  -436  -438  -407  -368  -363  -405  -455  -474  -467  -467  -484  -493  -467  -406  -346  -316  -311  -299  -262  -209  -174  -195  -309  -509  -718  -855  -899  -880  -830  -766  -700  -644  -612  -613  -660  -752  -844  -863  -769  -607  -470  -407  -396  -403  -410  -416  -426  -428  -401  -336  -258  -193  -126  -28  85  161  181  188  242  365  520  637  682  684  666  591  410  158  -65  -195  -237  -225  -175  -97  -16  38  62  73  88  87  -1  -253  -640  -949  -898  -321  821  2460  4309  5879  6752  6768  5901  4271  2315  538  -755  -1363  -1312  -1003  -778  -607  -400  -216  -131  -151  -253  -387  -487  -528  -535  -538  -539  -514  -438  -327  -231  -178  -163  -178  -221  -277  -317  -315  -271  -209  -165  -152  -165  -190  -211  -192  -86  124  397  651  826  937  1028  1103  1147  1170  1212  1315  1507  1771  2041  2236  2327  2346  2340  2338  2345  2353  2342  2292  2196  2072  1953  1841  1690  1444  1127  850  690  603  473  209  -176  -566  -836  -957  -982  -962  -895  -773  -644  -579  -574  -577  -569  -579  -621  -679  -724  -750  -761  -751  -697  -598  -488  -409  -385  -436  -554  -675  -742  -757  -749  -729  -690  -640  -601  -586  -592  -613  -646  -682  -699  -656  -526  -346  -210  -172  -196  -229  -273  -365  -508  -660  -782  -853  -870  -829  -716  -569  -463  -429  -436  -449  -451  -433  -395  -350  -330  -352  -392  -417  -417  -404  -376  -307  -188  -61  13  8  -65  -166  -237  -249  -216  -171  -141  -136  -140  -131  -93  -34  16  37  -2  -128  -310  -481  -621  -751  -863  -902  -840  -726  -638  -601  -591  -584  -582  -592  -617  -643  -664  -687  -708  -717  -720  -722  -727  -737  -751  -763  -761  -737  -694  -651  -623  -609  -596  -582  -553  -496  -425  -376  -344  -258  -61  174  278  152  -108  -324  -423  -468  -523  -595  -658  -692  -700  -697  -696  -704  -715  -700  -601  -417  -293  -329  -467  -657  -776  -473  551  2261  4276  5936  6562  5887  4210  2124  219  -1099  -1727  -1858  -1754  -1553  -1327  -1134  -970  -807  -649  -541  -533  -640  -820  -1000  -1114  -1148  -1142  -1119  -1080  -1034  -1003  -997  -998  -971  -877  -718  -553  -439  -384  -361  -346  -312  -237  -117  37  208  346  426  481  569  714  904  1096  1231  1289  1302  1315  1367  1501  1713  1937  2106  2210  2295  2397  2495  2554  2532  2383  2142  1930  1794  1670  1501  1313  1144  983  807  622  420  175  -78  -269  -370  -421  -462  -505  -536  -547  -541  -525  -509  -512  -559  -652  -767  -870  -937  -967  -969  -940  -871  -784  -721  -702  -706  -714  -718  -717  -714  -712  -721  -747  -786  -820  -841  -837  -783  -678  -572  -532  -578  -661  -722  -741  -734  -715  -696  -688  -707  -764  -841  -904  -947  -979  -968  -882  -760  -686  -704  -779  -824  -785  -714  -680  -705  -775  -860  -923  -957  -969  -953  -892  -778  -633  -508  -418  -331  -239  -209  -298  -467  -615  -673  -607  -387  -42  282  458  491  467  445  445  476  546  646  748  814  822  772  664  508  333  181  98  129  288  507  665  686  577  405  262  205  227  297  401  550  721  811  714  419  32  -182  154  1290  3139  5273  7031  7778  7254  5678  3548  1417  -215  -1050  -1166  -842  -337  105  352  445  469  470  462  455  461  492  546  611  670  715  752  793  835  861  851  799  722  649  595  560  549  554  568  581  571  535  490  439  368  280  200  152  146  183  273  417  576  686  730  754  799  877  977  1085  1214  1389  1576  1700  1715  1601  1362  1069  810  601  412  236  94  -13  -109  -179  -172  -81  34  105  95  15  -118  -317  -553  -741  -835  -865  -877  -890  -907  -955  -1060  -1190  -1268  -1279  -1272  -1299  -1383  -1503  -1610  -1685  -1753  -1837  -1930  -1997  -2002  -1903  -1697  -1465  -1323  -1303  -1347  -1347  -1173  -768  -283  48  161  145  89  39  21  46  109  188  252  269  231  164  108  79  81  137  271  444  578  621  534  280  -86  -406  -573  -625  -655  -703  -766  -846  -909  -853  -655  -449  -345  -357  -444  -486  -420  -390  -571  -1045  -1864  -2915  -3870  -4498  -4771  -4672  -4158  -3291  -2251  -1281  -617  -315  -231  -205  -148  22  383  888  1340  1579  1627  1600  1575  1568  1575  1586  1556  1401  1070  617  190  -107  -343  -694  -1250  -1912  -2523  -3024  -3401  -3633  -3750  -3805  -3755  -3493  -3028  -2568  -2305  -2207  -2121  -1994  -1880  -1804  -1741  -1672  -1602  -1528  -1438  -1360  -1338  -1361  -1380  -1370  -1331  -1274  -1195  -1103  -1032  -994  -957  -899  -821  -730  -632  -609  -806  -1169  -1254  -547  1102  3442  5928  7855  8696  8431  7397  5953  4392  2923  1710  970  846  1199  1642  1805  1626  1323  1074  902  770  666  612  622  655  671  674  675  677  673  664  676  744  880  1030  1126  1157  1153  1136  1106  1090  1174  1447  1846  2176  2349  2450  2564  2692  2800  2875  2918  2942  2966  2996  3001  2953  2863  2759  2694  2727  2846  2974  3062  3126  3203  3293  3356  3356  3282  3153  2993  2811  2616  2454  2344  2199  1915  1525  1151  807  450  145  -19  -65  -90  -167  -294  -436  -578  -717  -841  -949  -1072  -1257  -1552  -2007  -2596  -3152  -3508  -3689  -3849  -4092  -4410  -4734  -4981  -5105  -5127  -5094  -5019  -4869  -4565  -4054  -3454  -2975  -2694  -2521  -2389  -2301  -2227  -2085  -1855  -1625  -1470  -1359  -1207  -982  -735  -553  -467  -442  -439  -452  -495  -563  -650  -771  -925  -1065  -1161  -1229  -1291  -1340  -1356  -1319  -1237  -1144  -1073  -1026  -991  -975  -1022  -1169  -1379  -1577  -1762  -1954  -2118  -2221  -2290  -2354  -2405  -2422  -2374  -2206  -1846  -1304  -728  -285  -39  70  139  212  275  306  303  283  269  258  227  181  161  182  213  213  137  -50  -329  -597  -749  -753  -633  -443  -250  -122  -143  -358  -676  -914  -995  -963  -873  -768  -694  -668  -671  -677  -667  -633  -572  -497  -417  -328  -216  -95  -3  39  50  75  152  281  423  536  615  675  707  653  467  206  12  -21  106  334  553  670  667  576  453  367  364  453  599  715  698  506  282  333  977  2394  4388  6313  7466  7437  6268  4409  2414  722  -362  -778  -710  -414  -83  183  376  529  653  735  770  756  658  452  191  -4  -71  -52  -19  -18  -68  -159  -258  -339  -378  -321  -135  115  319  447  528  553  500  398  313  277  278  289  297  299  299  303  324  372  440  518  619  776  991  1231  1472  1718  1977  2222  2393  2459  2430  2338  2241  2188  2175  2168  2129  2020  1816  1534  1203  840  497  271  185  162  118  33  -63  -139  -183  -213  -282  -433  -627  -763  -806  -798  -772  -719  -633  -562  -552  -572  -580  -581  -589  -602  -610  -608  -593  -562  -521  -490  -480  -473  -460  -455  -471  -487  -455  -345  -196  -97  -82  -144  -265  -395  -463  -454  -397  -320  -243  -176  -125  -90  -64  -51  -54  -57  -59  -71  -82  -87  -97  -110  -119  -125  -126  -112  -74  -28  -2  -3  -9  -2  19  42  63  82  71  1  -124  -267  -371  -413  -412  -394  -361  -297  -189  -57  52  110  136  165  215  278  325  330  292  239  189  149  116  89  74  72  58  -26  -214  -445  -608  -670  -683  -695  -707  -690  -631  -568  -585  -746  -997  -1173  -1222  -1296  -1481  -1613  -1377  -463  1216  3320  5174  6092  5708  4213  2181  186  -1308  -2056  -2160  -1900  -1554  -1310  -1137  -894  -606  -434  -456  -581  -686  -722  -716  -694  -668  -641  -621  -612  -609  -592  -541  -447  -317  -164  -15  89  142  167  173  153  120  94  79  72  78  117  205  331  455  557  660  799  970  1150  1312  1431  1517  1625  1792  2008  2252  2485  2666  2798  2902  2984  3067  3204  3375  3451  3304  2945  2559  2320  2203  2029  1688  1255  896  700  601  492  343  199  100  39  -9  -63  -113  -142  -151  -163  -200  -258  -310  -337  -342  -355  -425  -557  -691  -766  -779  -768  -777  -842  -959  -1081  -1164  -1192  -1177  -1129  -1038  -907  -775  -688  -651  -648  -678  -754  -860  -957  -1030  -1101  -1185  -1282  -1394  -1507  -1603  -1711  -1885  -2122  -2357  -2516  -2578  -2569  -2523  -2465  -2420  -2419  -2498  -2673  -2906  -3121  -3270  -3349  -3360  -3271  -3030  -2644  -2240  -1960  -1816  -1740  -1695  -1688  -1737  -1853  -1994  -2090  -2106  -2057  -1978  -1895  -1818  -1748  -1671  -1553  -1402  -1287  -1245  -1249  -1246  -1206  -1146  -1105  -1088  -1077  -1078  -1092  -1090  -1018  -823  -520  -225  -46  21  32  15  0  21  93  184  242  245  218  188  162  149  179  274  404  499  529  516  492  468  449  442  458  506  575  642  685  673  541  261  -64  -270  -264  -72  180  341  365  314  253  224  268  405  606  810  938  831  265  -706  -1513  -1364  131  2597  5120  6870  7449  6908  5617  3962  2161  455  -767  -1249  -1066  -504  101  454  486  368  268  234  246  273  306  351  405  448  473  487  496  500  507  508  480  399  294  242  284  380  455  480  475  467  470  491  520  544  565  601  663  742  833  966  1154  1349  1483  1545  1581  1644  1755  1919  2107  2254  2313  2309  2321  2386  2467  2531  2579  2607  2599  2545  2455  2353  2249  2122  1934  1649  1275  884  560  337  208  147  109  36  -116  -347  -612  -850  -1011  -1087  -1112  -1139  -1206  -1316  -1440  -1547  -1613  -1643  -1665  -1690  -1708  -1727  -1784  -1895  -2022  -2103  -2121  -2107  -2108  -2180  -2345  -2546  -2688  -2729  -2684  -2586  -2462  -2329  -2186  -2044  -1925  -1845  -1813  -1809  -1780  -1677  -1527  -1414  -1381  -1402  -1421  -1392  -1316  -1239  -1177  -1105  -1020  -952  -904  -831  -686  -482  -297  -214  -247  -355  -472  -551  -583  -582  -557  -508  -439  -356  -260  -164  -85  -8  111  270  395  433  395  318  232  152  87  54  58  81  103  120  151  215  293  353  412  514  640  725  750  747  741  739  738  739  752  781  796  732  570  393  293  272  284  295  287  246  179  114  84  93  119  158  240  374  525  657  752  797  790  754  733  735  721  665  590  522  478  478  575  812  1128  1372  1460  1407  1254  1054  870  730  630  559  508  484  496  535  590  663  744  828  920  1002  1033  993  873  677  468  391  696  1633  3223  5162  6956  8152  8493  7877  6451  4703  3087  1817  1104  1030  1324  1628  1791  1836  1810  1744  1664  1608  1595  1625  1690  1777  1868  1948  2017  2090  2168  2233  2252  2177  1976  1709  1506  1428  1472  1626  1840  2019  2117  2171  2234  2318  2384  2385  2313  2240  2256  2356  2454  2497  2505  2517  2568  2678  2829  3012  3267  3589  3863  3998  4019  3997  3962  3902  3796  3640  3452  3269  3073  2777  2350  1859  1309  624  -165  -868  -1323  -1574  -1788  -2158  -2935  -4203  -5546  -6384  -6649  -6729  -6897  -7118  -7261  -7303  -7317  -7360  -7424  -7460  -7445  -7403  -7366  -7339  -7331  -7397  -7589  -7854  -8048  -8080  -7973  -7813  -7690  -7638  -7607  -7524  -7364  -7175  -7006  -6852  -6677  -6456  -6208  -5991  -5857  -5804  -5799  -5795  -5758  -5695  -5643  -5584  -5398  -4987  -4452  -4011  -3769  -3690  -3696  -3711  -3679  -3571  -3369  -3051  -2645  -2252  -1956  -1732  -1525  -1350  -1255  -1273  -1423  -1698  -2048  -2383  -2583  -2537  -2200  -1679  -1193  -881  -722  -629  -563  -540  -552  -568  -590  -627  -660  -671  -660  -622  -528  -343  -102  107  247  349  474  685  1001  1380  1728  1961  2079  2143  2167  2128  2017  1875  1773  1737  1747  1783  1843  1932  2048  2157  2213  2196  2128  2050  1993  1953  1918  1893  1889  1906  1930  1907  1770  1526  1271  1078  1036  1409  2515  4349  6427  8036  8601  7912  6166  3881  1677  26  -835  -971  -734  -460  -284  -202  -143  -29  161  394  599  727  774  774  756  734  731  796  975  1236  1470  1590  1614  1613  1633  1679  1734  1775  1797  1799  1785  1762  1742  1732  1741  1780  1853  1982  2181  2417  2616  2738  2814  2902  3021  3134  3201  3238  3326  3523  3783  3994  4108  4156  4185  4218  4256  4293  4316  4267  4112  3916  3725  3505  3258  3043  2900  2798  2639  2345  1946  1553  1271  1113  1002  895  822  802  785  707  565  425  339  307  313  324  310  278  241  181  81  -45  -159  -251  -372  -562  -771  -929  -1044  -1181  -1342  -1456  -1487  -1459  -1417  -1392  -1394  -1412  -1410  -1325  -1122  -867  -683  -617  -621  -641  -652  -647  -611  -544  -459  -373  -293  -228  -174  -118  -46  34  98  121  121  127  150  173  181  173  159  153  172  225  306  391  460  500  506  465  375  256  150  96  104  153  212  260  282  250  117  -116  -372  -567  -695  -808  -934  -1044  -1106  -1124  -1125  -1137  -1166  -1192  -1200  -1192  -1189  -1217  -1297  -1405  -1477  -1479  -1429  -1340  -1179  -938  -691  -533  -479  -489  -524  -545  -500  -373  -218  -117  -78  -35  78  232  295  164  -119  -408  -590  -666  -703  -778  -933  -1157  -1379  -1512  -1518  -1435  -1351  -1321  -1329  -1350  -1415  -1563  -1770  -1956  -2070  -2115  -2115  -2099  -2085  -2081  -2086  -2089  -2098  -2144  -2260  -2401  -2399  -2050  -1199  217  2094  4099  5747  6592  6374  5079  3033  832  -996  -2120  -2397  -2074  -1638  -1366  -1314  -1444  -1611  -1691  -1653  -1509  -1319  -1171  -1076  -967  -799  -607  -441  -313  -196  -89  -20  0  -5  -12  -9  3  18  23  22  53  146  276  383  450  515  603  704  800  876  924  943  924  837  666  439  209  0]
