reading_id,reading_time,wire_id,result_classification,heart_rate,heart_rate_alert,firmware_version,device_app_version,hardware_version,waveform_samples
4a50af60-c9ec-11ed-8080-808080808080,Fri Mar 24 02:33:41 UTC 2023,e12964476439,NSR,60,NONE,20001.188.58,2.13.0,Charge 5,[4703  5136  5389  5432  5335  5154  4903  4581  4239  3981  3854  3822  3830  3821  3722  3484  3137  2793  2566  2468  2424  2351  2200  1982  1788  1662  1552  1395  1196  1071  1140  1341  1473  1438  1272  1061  877  722  574  448  346  255  177  90  -36  -200  -360  -505  -670  -883  -1140  -1428  -1701  -1921  -2166  -2531  -2957  -3321  -3626  -3941  -4265  -4540  -4722  -4808  -4819  -4787  -4743  -4731  -4802  -4988  -5239  -5437  -5538  -5599  -5665  -5732  -5781  -5795  -5778  -5770  -5818  -5935  -6085  -6188  -6210  -6192  -6172  -6165  -6188  -6250  -6335  -6408  -6463  -6515  -6544  -6490  -6330  -6143  -6003  -5894  -5772  -5638  -5531  -5468  -5404  -5324  -5265  -5226  -5194  -5178  -5173  -5163  -5124  -5034  -4897  -4755  -4664  -4636  -4637  -4643  -4648  -4648  -4635  -4611  -4590  -4568  -4494  -4324  -4067  -3791  -3571  -3437  -3362  -3293  -3198  -3093  -3025  -3011  -3009  -2958  -2836  -2693  -2599  -2568  -2563  -2567  -2602  -2696  -2831  -2944  -3000  -2998  -2970  -2966  -2998  -3025  -3027  -3019  -3013  -3009  -3009  -3022  -3062  -3150  -3332  -3551  -3530  -2972  -1740  101  2210  4104  5359  5577  4547  2521  196  -1641  -2589  -2787  -2609  -2367  -2217  -2160  -2148  -2157  -2168  -2174  -2190  -2244  -2336  -2428  -2476  -2439  -2292  -2080  -1898  -1787  -1724  -1684  -1669  -1684  -1719  -1752  -1764  -1733  -1644  -1524  -1428  -1368  -1307  -1221  -1126  -1058  -1029  -1013  -985  -939  -875  -798  -701  -562  -396  -273  -223  -209  -192  -163  -114  -40  55  160  267  400  586  804  1000  1165  1312  1429  1523  1624  1724  1792  1821  1820  1764  1612  1363  1083  849  680  560  448  278  34  -209  -371  -437  -450  -458  -477  -511  -546  -542  -485  -420  -389  -387  -392  -395  -397  -403  -413  -425  -441  -453  -419  -285  -58  158  273  292  268  245  263  365  548  743  877  931  940  936  920  887  885  1006  1278  1590  1782  1815  1764  1712  1694  1698  1706  1729  1797  1905  2018  2122  2216  2291  2351  2422  2526  2661  2798  2896  2921  2875  2819  2826  2920  3053  3155  3212  3275  3361  3438  3485  3507  3516  3516  3511  3507  3519  3569  3665  3793  3935  4066  4151  4182  4192  4223  4289  4387  4501  4588  4602  4582  4579  4572  4542  4508  4473  4445  4432  4426  4423  4428  4427  4382  4252  4048  3820  3611  3438  3271  3069  2853  2708  2680  2737  2818  2872  2886  2885  2875  2791  2559  2260  2099  2232  2791  3890  5461  7241  8772  9424  8760  6904  4456  2192  799  475  834  1370  1772  1892  1759  1542  1377  1297  1276  1279  1268  1197  1047  867  731  671  677  738  817  854  803  664  475  302  191  99  -73  -345  -615  -793  -881  -912  -914  -902  -888  -891  -948  -1080  -1246  -1388  -1519  -1684  -1862  -1999  -2070  -2075  -2014  -1912  -1813  -1739  -1693  -1678  -1683  -1695  -1710  -1721  -1688  -1565  -1385  -1243  -1189  -1194  -1213  -1230  -1249  -1275  -1303  -1340  -1417  -1564  -1755  -1928  -2066  -2190  -2318  -2468  -2674  -2925  -3175  -3397  -3562  -3649  -3681  -3703  -3751  -3825  -3865  -3840  -3820  -3863  -3935  -3993  -4018  -4007  -3962  -3866  -3715  -3553  -3436  -3373  -3344  -3326  -3312  -3306  -3307  -3298  -3252  -3170  -3085  -3034  -3021  -3040  -3090  -3156  -3209  -3229  -3225  -3214  -3195  -3151  -3063  -2923  -2751  -2587  -2475  -2430  -2453  -2547  -2691  -2827  -2899  -2897  -2846  -2762  -2651  -2527  -2427  -2371  -2338  -2298  -2251  -2210  -2153  -2042  -1892  -1753  -1613  -1434  -1258  -1211  -1371  -1666  -1932  -2074  -2113  -2106  -2094  -2089  -2092  -2094  -2087  -2064  -2030  -2004  -1999  -2009  -2024  -2039  -2072  -2166  -2287  -2301  -2192  -2095  -1955  -1492  -528  932  2708  4247  4790  4014  2255  135  -1708  -2734  -2851  -2485  -2038  -1618  -1271  -1078  -1046  -1104  -1181  -1248  -1314  -1384  -1437  -1455  -1432  -1365  -1277  -1214  -1192  -1182  -1142  -1057  -942  -835  -775  -765  -778  -774  -715  -596  -458  -361  -329  -323  -274  -136  57  221  301  313  306  299  287  273  270  297  394  605  903  1201  1426  1555  1603  1608  1601  1588  1558  1519  1500  1534  1639  1803  1973  2097  2169  2192  2157  2072  1933  1705  1397  1094  845  607  346  116  -19  -71  -94  -123  -161  -197  -225  -272  -374  -518  -637  -691  -697  -685  -668  -648  -631  -623  -619  -605  -566  -511  -471  -460  -466  -469  -450  -393  -300  -200  -138  -129  -155  -194  -232  -270  -334  -425  -471  -407  -277  -172  -123  -109  -100  -93  -83  -47  12  61  75  68  67  103  186  287  357  381  385  405  448  486  502  530  610  700  706  640  615  667  769  909  1045  1114  1103  1038  959  903  882  893  921  943  962  1015  1123  1249  1346  1413  1465  1495  1505  1535  1628  1768  1892  1961  1986  1986  1955  1854  1655  1411  1230  1148  1118  1101  1107  1152  1219  1258  1220  1088  910  772  717  752  868  970  914  709  593  960  2103  3905  5904  7553  8326  7943  6562  4636  2676  1180  479  468  696  800  740  646  602  598  600  591  567  538  518  510  509  514  539  595  680  764  815  828  824  824  832  841  825  776  732  739  808  891  911  854  788  759  757  758  756  769  821  898  963  998  1017  1035  1060  1100  1165  1250  1330  1391  1446  1504  1562  1625  1693  1768  1842  1894  1922  1941  1964  2010  2100  2214  2298  2305  2217  2044  1825  1593  1373  1183  1007  801  540  271  83  4  -8  -23  -81  -183  -297  -382  -416  -411  -387  -390  -494  -653  -718  -663  -580  -543  -591  -720  -878  -1013  -1098  -1140  -1178  -1223  -1245  -1209  -1117  -1012  -942  -923  -967  -1105  -1341  -1587  -1746  -1791  -1707  -1475  -1168  -947  -897  -983  -1112  -1201  -1227  -1223  -1220  -1216  -1189  -1124  -1057  -1034  -1049  -1067  -1068  -1054  -1037  -1043  -1101  -1213  -1330  -1403  -1436  -1452  -1454  -1418  -1318  -1162  -1009  -925  -936  -1032  -1163  -1260  -1293  -1267  -1193  -1097  -1038  -1067  -1183  -1292  -1285  -1172  -1036  -944  -963  -1088  -1217  -1285  -1305  -1301  -1275  -1212  -1105  -978  -880  -824  -784  -736  -685  -654  -654  -678  -708  -722  -709  -674  -633  -597  -561  -505  -423  -335  -262  -205  -171  -181  -244  -351  -476  -576  -623  -628  -624  -636  -691  -803  -943  -1042  -1047  -953  -809  -687  -602  -494  -358  -370  -704  -1213  -1474  -1024  396  2511  4640  6207  6834  6321  4864  2913  897  -682  -1428  -1462  -1203  -930  -790  -826  -934  -1007  -1047  -1082  -1115  -1130  -1122  -1100  -1073  -1032  -970  -907  -848  -749  -596  -435  -326  -288  -302  -330  -357  -394  -440  -472  -473  -445  -401  -355  -314  -278  -240  -178  -75  41  121  145  143  151  186  240  302  397  562  757  890  938  970  1070  1280  1555  1797  1949  2027  2075  2132  2223  2357  2505  2623  2697  2733  2700  2528  2214  1888  1677  1572  1496  1405  1281  1122  945  770  631  571  574  544  411  205  27  -37  -10  25  28  4  -46  -132  -237  -311  -322  -278  -209  -153  -141  -208  -367  -562  -694  -729  -705  -670  -649  -643  -645  -651  -660  -659  -621  -522  -396  -316  -307  -322  -318  -309  -323  -361  -414  -489  -582  -658  -683  -626  -471  -268  -122  -73  -90  -132  -177  -201  -189  -154  -147  -217  -344  -447  -488  -488  -466  -416  -343  -280  -252  -252  -253  -242  -245  -306  -401  -429  -339  -199  -114  -120  -178  -231  -229  -151  -41  32  55  62  83  114  141  166  202  253  302  325  325  327  329  278  104  -176  -442  -597  -664  -719  -791  -863  -925  -978  -1011  -1012  -972  -890  -796  -784  -993  -1442  -1940  -2168  -1804  -716  981  3029  5021  6483  7001  6311  4496  2090  -165  -1651  -2118  -1838  -1348  -1019  -946  -1044  -1164  -1229  -1251  -1258  -1278  -1340  -1436  -1530  -1584  -1595  -1586  -1577  -1549  -1467  -1340  -1227  -1157  -1117  -1094  -1084  -1083  -1078  -1055  -1009  -964  -931  -868  -713  -501  -336  -256  -209  -157  -97  -28  44  96  121  136  153  175  226  338  507  704  920  1133  1302  1430  1549  1654  1727  1783  1863  2000  2181  2347  2447  2474  2440  2342  2198  2053  1928  1823  1718  1561  1318  1011  709  483  334  213  105  39  22  30  43  50  28  -40  -123  -167  -185  -227  -293  -343  -369  -382  -393  -406  -415  -409  -404  -452  -592  -775  -883  -871  -811  -796  -866  -997  -1114  -1161  -1135  -1056  -962  -896  -859  -824  -769  -700  -652  -638  -643  -647  -652  -696  -815  -963  -1013  -886  -657  -474  -406  -434  -523  -632  -706  -710  -650  -558  -464  -370  -278  -215  -194  -197  -210  -232  -252  -251  -216  -146  -55  23  60  64  56  52  51  50  47  44  54  87  132  162  141  76  41  110  264  432  582  706  792  833  839  819  764  654  490  299  105  -72  -200  -260  -268  -239  -177  -105  -70  -117  -253  -439  -605  -676  -599  -416  -298  -382  -586  -672  -378  487  1913  3673  5371  6483  6593  5586  3635  1285  -647  -1611  -1638  -1144  -621  -374  -340  -303  -201  -93  -12  58  128  170  155  95  31  -21  -84  -155  -203  -203  -157  -104  -83  -81  -29  122  320  448  448  354  237  159  137  139  142  142  156  193  237  259  276  325  397  462  515  569  629  690  750  815  884  949  1021  1108  1197  1274  1344  1411  1471  1506  1501  1472  1451  1451  1454  1449  1444  1457  1482  1467  1332  1037  647  276  -7  -209  -383  -597  -840  -1040  -1179  -1289  -1378  -1453  -1532  -1607  -1663  -1689  -1686  -1654  -1611  -1581  -1592  -1654  -1743  -1809  -1820  -1767  -1667  -1566  -1511  -1495  -1467  -1382  -1262  -1171  -1137  -1136  -1145  -1164  -1209  -1270  -1319  -1340  -1328  -1273  -1170  -1034  -903  -820  -794  -814  -869  -947  -1025  -1084  -1109  -1080  -974  -796  -602  -469  -454  -568  -754  -915  -990  -983  -915  -800  -639  -429  -209  -52  15  28  7  -59  -161  -258  -330  -382  -415  -431  -462  -558  -726  -899  -1012  -1054  -1046  -1004  -941  -876  -827  -796  -776  -760  -727  -680  -683  -848  -1217  -1569  -1456  -530  1283  3672  5879  7078  6857  5334  3081  873  -663  -1286  -1227  -929  -657  -503  -468  -462  -448  -441  -408  -355  -344  -408  -513  -578  -545  -453  -377  -319  -217  -50  108  177  141  46  -49  -114  -132  -103  -41  26  86  141  186  206  181  109  10  -85  -152  -174  -112  81  363  594  693  692  658  628  634  711  882  1131  1390  1576  1658  1687  1731  1810  1900  1980  2046  2100  2146  2188  2222  2220  2134  1935  1648  1318  979  650  349  110  -37  -111  -165  -268  -437  -612  -733  -819  -898  -952  -961  -939  -913  -903  -903  -903  -900  -897  -898  -913  -945  -970  -965  -928  -869  -807  -763  -741  -734  -738  -753  -795  -885  -997  -1059  -1017  -891  -755  -679  -662  -652  -614  -563  -543  -562  -588  -599  -600  -598  -598  -601  -612  -638  -685  -749  -801  -801  -742  -662  -598  -551  -503  -452  -407  -379  -367  -363  -367  -392  -447  -510  -539  -514  -459  -412  -388  -385  -406  -458  -519  -540  -493  -371  -188  -3  108  122  62  -28  -102  -133  -133  -135  -167  -210  -216  -176  -125  -86  -54  -23  21  89  161  204  214  208  197  184  168  160  179  225  291  382  481  529  492  411  353  343  351  353  360  394  454  522  608  756  981  1216  1389  1471  1456  1370  1271  1184  1095  1004  938  901  876  829  714  511  286  138  88  87  101  143  257  432  588  685  758  799  697  370  -85  -333  125  1552  3689  5981  7825  8730  8530  7326  5370  3143  1268  208  13  324  682  827  780  692  642  602  541  465  413  412  464  538  590  588  532  451  387  360  355  359  367  382  421  497  590  656  681  683  680  676  661  619  548  476  445  490  624  802  933  978  954  887  802  741  737  803  923  1041  1103  1112  1113  1157  1257  1388  1522  1662  1795  1888  1939  1982  2031  2066  2070  2033  1956  1855  1749  1653  1574  1505  1415  1264  1021  718  442  226  29  -164  -311  -378  -390  -387  -389  -403  -429  -470  -515  -543  -549  -544  -546  -575  -643  -727  -787  -806  -802  -798  -804  -827  -868  -920  -970  -1013  -1062  -1109  -1135  -1141  -1138  -1127  -1106  -1092  -1135  -1274  -1451  -1551  -1542  -1486  -1435  -1399  -1377  -1373  -1390  -1434  -1508  -1608  -1707  -1761  -1758  -1733  -1727  -1753  -1797  -1830  -1845  -1863  -1893  -1928  -1962  -1974  -1938  -1862  -1787  -1742  -1727  -1726  -1729  -1730  -1731  -1735  -1746  -1764  -1792  -1840  -1916  -1980  -1953  -1814  -1647  -1547  -1533  -1571  -1631  -1691  -1735  -1765  -1784  -1784  -1758  -1719  -1702  -1720  -1743  -1729  -1677  -1611  -1562  -1550  -1575  -1596  -1571  -1505  -1447  -1424  -1421  -1423  -1439  -1484  -1555  -1632  -1696  -1721  -1692  -1635  -1586  -1563  -1580  -1620  -1635  -1595  -1520  -1449  -1394  -1347  -1314  -1306  -1332  -1389  -1455  -1486  -1447  -1337  -1199  -1084  -1010  -961  -917  -866  -781  -629  -441  -306  -283  -373  -535  -695  -803  -888  -998  -1125  -1217  -1248  -1223  -1148  -1053  -985  -965  -975  -996  -999  -936  -751  -486  -371  -636  -1176  -1558  -1329  -214  1747  4129  6258  7549  7716  6719  4772  2438  413  -819  -1150  -842  -355  -30  71  47  -8  -58  -102  -146  -182  -175  -110  -29  19  32  27  23  34  77  161  270  362  412  436  449  447  410  332  241  175  154  196  322  500  655  752  808  841  856  865  873  874  862  845  841  861  907  974  1062  1196  1408  1664  1873  1980  2006  2010  2046  2138  2281  2443  2581  2665  2686  2638  2534  2420  2344  2310  2277  2186  2002  1755  1500  1276  1099  945  788  645  535  441  322  152  -33  -164  -217  -231  -249  -275  -297  -310  -314  -333  -386  -450  -489  -500  -499  -497  -497  -500  -502  -497  -475  -441  -412  -397  -394  -405  -439  -509  -613  -730  -829  -885  -899  -897  -899  -910  -921  -925  -923  -924  -933  -939  -931  -915  -896  -869  -822  -750  -677  -635  -638  -672  -709  -727  -725  -719  -712  -698  -677  -657  -649  -650  -656  -660  -655  -636  -608  -577  -551  -537  -530  -521  -510  -505  -524  -581  -659  -713  -702  -616  -490  -372  -273  -194  -162  -192  -253  -304  -332  -337  -320  -290  -267  -257  -256  -257  -259  -266  -279  -288  -271  -212  -122  -41  0  -2  -21  -31  -37  -79  -174  -283  -336  -284  -157  -42  10  23  49  118  198  235  242  272  321  334  285  225  207  192  123  42  12  27  57  109  231  436  652  793  852  855  798  676  534  441  408  386  332  252  160  50  -82  -210  -300  -337  -320  -258  -143  1  95  56  -94  -243  -350  -522  -778  -850  -333  986  3006  5346  7389  8458  8159  6656  4493  2279  601  -202  -286  -57  163  208  91  -49  -119  -110  -58  -15  -10  -39  -82  -137  -204  -257  -269  -233  -156  -67  -7  7  -5  -16  11  115  290  461  539  512  442  390  373  383  406  421  422  420  443  516  617  690  708  709  756  890  1084  1254  1339  1352  1338  1329  1340  1372  1408  1426  1428  1460  1569  1739  1902  2013  2076  2097  2079  2028  1961  1899  1841  1753  1604  1401  1164  911  656  423  237  117  51  -3  -72  -146  -222  -315  -425  -523  -592  -659  -750  -856  -938  -953  -889  -797  -736  -712  -707  -709  -731  -792  -875  -937  -959  -950  -924  -889  -853  -826  -811  -809  -815  -828  -842  -854  -866  -874  -876  -886  -918  -974  -1035  -1084  -1108  -1101  -1070  -1038  -1031  -1043  -1052  -1055  -1065  -1078  -1075  -1051  -1014  -975  -929  -880  -845  -833  -832  -831  -824  -816  -808  -795  -787  -798  -823  -842  -834  -794  -749  -717  -677  -615  -554  -525  -527  -537  -540  -539  -538  -541  -547  -551  -542  -508  -461  -432  -448  -498  -529  -502  -438  -376  -331  -297  -282  -321  -430  -550  -592  -525  -403  -311  -281  -286  -296  -296  -284  -263  -230  -175  -107  -54  -35  -59  -129  -221  -287  -305  -289  -264  -236  -195  -142  -95  -74  -94  -163  -259  -339  -383  -383  -320  -189  -26  109  182  215  242  275  299  300  286  286  322  377  384  292  151  43  -25  -109  -225  -335  -416  -464  -478  -476  -502  -583  -696  -785  -820  -813  -784  -727  -631  -568  -712  -1128  -1571  -1546  -665  1018  3124  5175  6665  7206  6645  5099  2959  806  -778  -1484  -1461  -1118  -796  -637  -619  -654  -697  -745  -784  -802  -812  -835  -858  -868  -882  -913  -953  -990  -1017  -1035  -1040  -1024  -977  -911  -859  -833  -821  -807  -788  -772  -762  -762  -776  -810  -878  -967  -1034  -1035  -953  -802  -639  -518  -441  -379  -319  -277  -245  -184  -89  7  84  141  187  251  370  524  649  708  732  770  846  943  1025  1075  1107  1150  1204  1229  1157  963  709  490  332  205  68  -109  -355  -636  -862  -989  -1052  -1090  -1116  -1144  -1174  -1197  -1208  -1221  -1262  -1350  -1460  -1542  -1583  -1598  -1598  -1593  -1587  -1584  -1589  -1599  -1604  -1586  -1532  -1455  -1389  -1351  -1345  -1388  -1503  -1648  -1708  -1612  -1414  -1235  -1147  -1138  -1170  -1217  -1245  -1241  -1228  -1233  -1249  -1260  -1263  -1265  -1257  -1215  -1127  -1011  -905  -845  -852  -894  -908  -877  -839  -823  -823  -822  -811  -795  -776  -741  -686  -613  -521  -419  -333  -277  -240  -209  -185  -171  -162  -150  -134  -119  -105  -81  -40  4  47  127  283  478  623  680  678  642  570  467  370  319  316  336  373  447  560  687  793  851  852  801  727  678  690  758  852  941  1003  1031  1041  1049  1057  1055  1048  1058  1115  1226  1346  1418  1434  1441  1485  1569  1653  1719  1807  1969  2185  2370  2472  2503  2497  2481  2474  2490  2524  2549  2533  2472  2383  2279  2173  2077  1984  1873  1757  1671  1634  1662  1778  1962  2134  2237  2285  2309  2285  2157  1950  1761  1688  1890  2591  3936  5807  7766  9239  9727  8958  7069  4641  2444  1091  768  1197  1907  2507  2786  2785  2696  2637  2621  2623  2625  2634  2656  2685  2707  2720  2723  2715  2695  2669  2650  2642  2640  2646  2667  2703  2734  2736  2720  2706  2699  2697  2713  2760  2829  2880  2884  2832  2749  2666  2598  2544  2510  2505  2541  2630  2755  2874  2949  2985  3013  3041  3058  3059  3050  3047  3059  3084  3105  3119  3143  3183  3239  3301  3344  3358  3355  3309  3164  2918  2663  2493  2420  2358  2133  1616  907  284  -70  -198  -242  -303  -406  -558  -766  -997  -1196  -1349  -1468  -1572  -1678  -1796  -1925  -2064  -2213  -2354  -2469  -2556  -2615  -2660  -2712  -2762  -2792  -2812  -2838  -2874  -2925  -3009  -3151  -3347  -3539  -3671  -3735  -3752  -3747  -3755  -3792  -3855  -3945  -4053  -4155  -4237  -4321  -4429  -4562  -4693  -4778  -4812  -4837  -4878  -4935  -4992  -5038  -5072  -5104  -5129  -5145  -5162  -5197  -5240  -5266  -5263  -5236  -5194  -5153  -5129  -5118  -5118  -5142  -5196  -5261  -5306  -5323  -5322  -5316  -5310  -5303  -5286  -5251  -5207  -5179  -5183  -5234  -5344  -5500  -5650  -5719  -5663  -5488  -5242  -5012  -4881  -4855  -4875  -4877  -4824  -4714  -4587  -4492  -4442  -4409  -4358  -4291  -4247  -4229  -4197  -4120  -4001  -3868  -3747  -3650  -3560  -3415  -3162  -2849  -2611  -2516  -2512  -2525  -2528  -2524  -2522  -2520  -2515  -2512  -2527  -2566  -2581  -2529  -2446  -2382  -2346  -2332  -2347  -2395  -2448  -2453  -2374  -2214  -2013  -1829  -1730  -1800  -2004  -2096  -1800  -919  667  2815  5013  6602  7063  6243  4461  2337  522  -533  -836  -757  -596  -446  -316  -181  -52  30  72  101  134  178  233  310  430  578  691  731  718  697  702  728  741  743  760  798  859  964  1121  1283  1385  1412  1399  1391  1426  1529  1690  1858  1987  2050  2054  2045  2094  2250  2480  2681  2777  2786  2783  2823  2906  2996  3057  3094  3167  3341  3585  3792  3913  3970  4005  4066  4184  4321  4403  4385  4266  4093  3934  3825  3732  3590  3378  3131  2912  2777  2731  2706  2623  2448  2205  1965  1806  1739  1717  1703  1677  1625  1544  1439  1314  1194  1120  1101  1111  1121  1114  1079  1026  984  973  984  996  968  864  703  566  512  532  576  610  643  704  788  858  886  873  840  816  817  837  863  885  899  893  862  824  799  799  817  837  852  862  870  872  865  850  835  823  816  804  780  748  720  700  682  668  667  696  756  826  887  921  876  725  529  372  284  252  265  320  405  501  591  648  656  626  583  554  545  542  521  457  361  272  215  173  134  123  164  220  245  220  157  96  68  73  86  87  73  62  74  106  143  174  196  203  175  95  -14  -95  -112  -78  -22  23  43  41  27  9  -3  -10  -11  -3  13  32  51  75  87  59  16  15  79  180  260  295  287  237  128  -44  -258  -466  -619  -692  -713  -721  -727  -721  -707  -695  -686  -683  -710  -794  -906  -987  -1076  -1300  -1606  -1642  -1025  435  2644  5084  6989  7777  7274  5657  3382  1104  -552  -1330  -1376  -1046  -774  -779  -902  -962  -971  -980  -999  -1029  -1053  -1040  -951  -769  -542  -370  -310  -356  -477  -623  -736  -795  -816  -801  -734  -632  -543  -497  -456  -374  -267  -193  -171  -173  -169  -158  -148  -145  -144  -133  -91  -10  90  196  295  351  337  293  278  289  292  294  352  519  770  1032  1248  1371  1370  1295  1244  1258  1314  1368  1399  1412  1423  1439  1446  1407  1276  1046  781  555  360  132  -146  -409  -581  -651  -664  -665  -671  -693  -745  -828  -914  -973  -1002  -1010  -1000  -980  -958  -959  -1005  -1074  -1116  -1102  -1050  -999  -970  -962  -975  -1012  -1075  -1163  -1248  -1278  -1212  -1077  -944  -854  -794  -755  -765  -821  -879  -915  -948  -1002  -1066  -1094  -1055  -965  -878  -831  -825  -833  -828  -794  -736  -680  -644  -623  -603  -573  -538  -538  -603  -694  -755  -777  -783  -790  -798  -783  -692  -494  -249  -83  -54  -121  -226  -325  -390  -425  -452  -474  -468  -422  -359  -313  -287  -256  -216  -194  -208  -244  -278  -299  -314  -316  -282  -214  -140  -67  24  129  200  214  188  151  126  116  109  104  101  103  110  121  130  134  127  105  76  54  46  52  69  92  110  116  110  98  94  114  157  205  237  248  249  247  231  189  126  73  54  73  111  141  161  202  290  412  528  608  646  662  674  688  698  709  718  682  518  203  -152  -400  -493  -489  -467  -475  -527  -601  -655  -674  -669  -642  -581  -495  -439  -497  -716  -1042  -1374  -1578  -1446  -809  398  2143  4178  6047  7215  7257  6075  3988  1628  -285  -1275  -1383  -1046  -656  -431  -445  -585  -697  -750  -778  -803  -835  -859  -867  -887  -957  -1056  -1094  -1017  -878  -760  -684  -638  -612  -591  -561  -526  -494  -466  -437  -404  -390  -432  -537  -638  -644  -551  -444  -378  -347  -310  -245  -172  -111  -64  -46  -28  64  239  416  519  550  550  551  578  646  749  857  943  1018  1123  1271  1426  1541  1607  1633  1635  1615  1556  1450  1324  1206  1072  887  671  495  393  308  116  -227  -594  -808  -833  -771  -715  -693  -691  -707  -749  -815  -877  -902  -890  -865  -851  -837  -805  -757  -708  -658  -605  -552  -495  -428  -361  -316  -314  -364  -458  -563  -628  -621  -561  -490  -446  -435  -436  -416  -352  -259  -193  -211  -330  -503  -650  -731  -741  -687  -615  -571  -558  -549  -523  -491  -473  -469  -453  -408  -349  -305  -281  -268  -269  -298  -337  -357  -349  -330  -313  -291  -247  -187  -146  -140  -154  -164  -162  -154  -146  -132  -105  -72  -51  -49  -59  -66  -68  -67  -71  -85  -102  -112  -112  -106  -98  -88  -88  -132  -237  -338  -329  -211  -87  -23  -14  -35  -63  -86  -93  -82  -69  -67  -63  -49  -21  32  93  130  135  114  79  29  -34  -97  -125  -112  -86  -69  -66  -87  -145  -217  -258  -254  -241  -250  -260  -241  -201  -172  -162  -145  -92  -13  52  82  88  86  85  83  79  76  82  116  190  285  356  385  394  396  352  195  -72  -332  -474  -501  -478  -459  -470  -527  -624  -729  -811  -850  -856  -865  -907  -956  -935  -862  -852  -925  -892  -353  1072  3355  5920  7866  8433  7412  5148  2398  109  -1086  -1206  -686  -82  157  -13  -323  -533  -594  -574  -539  -509  -491  -490  -507  -529  -548  -560  -568  -568  -532  -433  -302  -222  -231  -287  -323  -318  -303  -296  -274  -229  -190  -163  -107  -4  107  176  185  154  106  61  31  34  102  250  438  592  675  729  806  903  977  1019  1063  1126  1193  1255  1329  1440  1574  1683  1744  1780  1824  1882  1929  1951  1956  1952  1930  1850  1667  1389  1088  814  589  420  266  63  -166  -329  -399  -432  -463  -469  -441  -420  -442  -515  -635  -763  -832  -818  -760  -738  -785  -824  -766  -625  -485  -404  -382  -393  -432  -513  -621  -705  -743  -747  -739  -728  -708  -664  -604  -548  -485  -394  -295  -234  -232  -280  -343  -386  -400  -406  -421  -434  -423  -388  -346  -305  -266  -252  -294  -370  -378  -290  -227  -253  -304  -343  -373  -393  -415  -453  -487  -483  -429  -359  -316  -306  -314  -339  -383  -436  -475  -491  -494  -484  -449  -395  -373  -411  -466  -500  -496  -443  -382  -374  -435  -518  -556  -533  -492  -471  -475  -492  -507  -503  -442  -298  -113  18  48  -3  -95  -207  -329  -414  -422  -375  -312  -271  -272  -297  -314  -324  -339  -359  -366  -341  -268  -149  -28  26  -12  -120  -250  -359  -413  -401  -337  -233  -89  66  177  228  255  300  361  409  424  420  397  324  173  -18  -173  -264  -317  -357  -396  -451  -522  -592  -650  -706  -759  -785  -785  -802  -854  -905  -899  -815  -775  -885  -1013  -890  -280  944  2704  4659  6227  6799  6064  4159  1635  -714  -2196  -2549  -2030  -1203  -566  -279  -244  -332  -464  -597  -682  -705  -690  -661  -621  -561  -469  -373  -352  -455  -619  -717  -694  -607  -524  -445  -349  -262  -204  -150  -86  -30  -9  -40  -98  -142  -158  -167  -186  -193  -131  -6  90  104  56  -9  -48  -16  109  330  621  909  1126  1262  1339  1370  1376  1397  1464  1565  1668  1775  1907  2075  2275  2468  2602  2657  2646  2564  2387  2146  1923  1741  1571  1407  1261  1142  1045  956  870  775  633  438  244  94  -15  -96  -142  -153  -145  -140  -143  -133  -89  -19  43  94  157  242  342  436  501  528  528  509  467  409  370  394  502  650  757  793  790  783  775  753  720  692  675  651  607  543  459  362  276  249  307  412  494  524  516  490  463  441  426  426  446  468  476  472  472  497  550  578  523  425  359  331  327  360  410  440  448  455  487  549  594  574  503  439  438  514  614  680  706  699  670  637  616  634  689  738  735  652  501  348  262  265  343  453  543  590  608  616  643  720  836  945  1023  1074  1104  1119  1122  1096  1014  888  771  680  573  423  245  64  -79  -156  -177  -173  -147  -88  -11  38  39  12  -15  -49  -100  -172  -303  -482  -508  -108  907  2563  4586  6370  7220  6711  4953  2550  265  -1285  -1851  -1645  -1126  -676  -496  -586  -767  -873  -895  -891  -887  -886  -885  -896  -927  -973  -1011  -1034  -1048  -1060  -1073  -1089  -1101  -1110  -1126  -1152  -1174  -1167  -1144  -1164  -1244  -1329  -1371  -1375  -1367  -1362  -1364  -1377  -1394  -1397  -1354  -1239  -1052  -849  -711  -668  -702  -791  -898  -968  -981  -963  -945  -921  -877  -820  -776  -736  -668  -576  -500  -449  -392  -309  -221  -176  -204  -309  -493  -749  -1013  -1196  -1304  -1440  -1672  -1955  -2238  -2558  -2937  -3270  -3451  -3488  -3454  -3405  -3367  -3354  -3395  -3516  -3680  -3799  -3829  -3795  -3744  -3706  -3685  -3680  -3692  -3721  -3752  -3753  -3702  -3632  -3583  -3568  -3570  -3565  -3526  -3437  -3324  -3238  -3201  -3197  -3201  -3202  -3197  -3184  -3157  -3103  -3017  -2923  -2858  -2824  -2791  -2749  -2717  -2704  -2704  -2714  -2734  -2756  -2760  -2729  -2654  -2540  -2387  -2196  -2013  -1907  -1889  -1919  -1961  -1999  -2021  -2020  -1978  -1874  -1723  -1569  -1442  -1361  -1332  -1346  -1373  -1395  -1409  -1424  -1431  -1401  -1318  -1208  -1111  -1028  -945  -880  -846  -808  -720  -589  -476  -425  -423  -435  -428  -383  -306  -218  -126  -32  50  110  148  165  168  165  165  167  172  174  167  152  143  177  279  422  541  600  614  610  610  630  668  709  740  766  798  840  889  941  987  1032  1132  1332  1577  1752  1823  1850  1904  2018  2164  2285  2357  2396  2416  2416  2358  2183  1891  1591  1414  1399  1496  1626  1721  1763  1762  1713  1618  1535  1536  1588  1594  1556  1534  1463  1241  961  904  1383  2542  4266  6286  8219  9611  10072  9361  7595  5314  3199  1786  1290  1454  1798  2053  2120  1958  1707  1566  1565  1620  1661  1672  1669  1664  1664  1662  1652  1636  1631  1654  1695  1733  1750  1749  1744  1746  1754  1753  1723  1658  1581  1530  1519  1548  1630  1764  1903  1989  2019  2026  2027  2020  1991  1935  1867  1818  1802  1817  1865  1947  2072  2247  2436  2580  2669  2745  2827  2902  2957  2989  2988  2935  2836  2729  2651  2601  2561  2524  2500  2498  2507  2473  2308  1966  1538  1188  996  911  836  696  475  249  112  76  91  121  161  197  189  111  7  -55  -62  -50  -46  -53  -67  -94  -143  -204  -267  -325  -378  -432  -481  -511  -520  -510  -483  -434  -356  -255  -163  -111  -95  -100  -126  -192  -302  -436  -561  -640  -640  -579  -518  -491  -488  -504  -547  -618  -698  -767  -815  -854  -891  -919  -932  -934  -927  -904  -862  -815  -792  -813  -879  -968  -1046  -1089  -1103  -1101  -1059  -946  -789  -668  -630  -663  -730  -776  -775  -763  -768  -777  -782  -792  -822  -865  -900  -913  -894  -838  -763  -707  -684  -681  -684  -702  -753  -830  -903  -951  -972  -971  -959  -940  -910  -856  -790  -749  -742  -748  -729  -670  -599  -561  -552  -551  -567  -614  -682  -755  -834  -918  -993  -1022  -951  -793  -648  -581  -567  -561  -551  -545  -561  -622  -727  -839  -915  -951  -964  -948  -876  -728  -540  -394  -325  -305  -297  -277  -212  -81  74  148  62  -163  -424  -630  -766  -855  -903  -916  -915  -912  -913  -916  -921  -926  -927  -921  -914  -934  -1022  -1182  -1341  -1380  -1272  -1154  -1077  -738  261  2009  4224  6337  7611  7517  6023  3591  1022  -914  -1836  -1805  -1241  -660  -379  -411  -565  -692  -791  -890  -973  -1021  -1040  -1045  -1052  -1054  -1015  -904  -753  -641  -603  -612  -644  -694  -751  -792  -793  -740  -638  -526  -443  -405  -404  -412  -405  -385  -361  -336  -299  -240  -158  -66  13  73  126  180  224  251  287  358  469  614  762  869  930  969  995  1014  1039  1064  1087  1154  1325  1557  1728  1776  1740  1673  1582  1425  1188  942  776  694  622  502  327  132  -42  -183  -331  -512  -701  -873  -1014  -1100  -1124  -1107  -1068  -1024  -992  -977  -977  -1002  -1064  -1138  -1159  -1096  -996  -941  -968  -1033  -1063  -1023  -945  -884  -857  -838  -810  -784  -767  -746  -705  -650  -605  -575  -545  -518  -522  -573  -644  -697  -720  -723  -719  -710  -692  -659  -619  -590  -581  -582  -586  -591  -593  -592  -587  -576  -551  -499  -417  -316  -223  -161  -130  -118  -110  -109  -142  -227  -326  -365  -334  -292  -281  -301  -334  -362  -372  -350  -279  -177  -97  -82  -161  -330  -517  -607  -557  -423  -275  -153  -104  -164  -293  -405  -456  -458  -435  -407  -384  -369  -360  -355  -354  -353  -349  -331  -285  -228  -197  -215  -260  -296  -310  -311  -303  -284  -260  -261  -303  -350  -349  -281  -176  -90  -45  -27  -20  -16  -13  -13  -23  -45  -71  -90  -96  -89  -62  -15  40  86  108  113  133  210  364  549  684  731  691  566  378  187  37  -68  -159  -252  -333  -393  -442  -484  -516  -523  -489  -432  -380  -346  -327  -308  -324  -507  -927  -1357  -1398  -811  429  2232  4358  6363  7666  7799  6629  4457  2020  80  -997  -1232  -908  -451  -175  -132  -208  -310  -417  -522  -598  -632  -639  -629  -591  -515  -426  -353  -300  -264  -246  -243  -243  -241  -236  -232  -232  -231  -223  -210  -198  -192  -188  -173  -126  -43  40  69  33  -10  -2  59  150  247  310  326  329  346  372  418  543  775  1032  1192  1232  1213  1197  1218  1289  1391  1490  1568  1623  1657  1680  1700  1726  1769  1809  1821  1814  1810  1786  1663  1396  1058  759  528  345  200  69  -85  -281  -477  -608  -657  -668  -678  -693  -701  -693  -679  -672  -680  -703  -732  -752  -745  -701  -618  -522  -454  -423  -418  -448  -527  -629  -697  -703  -656  -589  -532  -494  -466  -438  -407  -383  -374  -358  -315  -262  -236  -257  -325  -431  -548  -634  -678  -683  -633  -528  -420  -350  -322  -327  -335  -300  -203  -93  -47  -92  -179  -245  -269  -271  -271  -274  -276  -270  -257  -235  -210  -191  -186  -194  -208  -220  -237  -269  -299  -300  -275  -248  -256  -306  -362  -397  -420  -437  -438  -418  -385  -361  -365  -394  -443  -506  -569  -613  -633  -629  -595  -535  -466  -410  -392  -426  -467  -458  -392  -304  -252  -271  -333  -401  -465  -499  -483  -439  -389  -329  -257  -184  -111  -47  -12  -3  13  82  204  328  392  379  327  264  177  55  -87  -237  -379  -482  -541  -585  -640  -704  -763  -802  -819  -823  -826  -833  -833  -805  -783  -869  -1055  -1149  -956  -327  903  2729  4792  6514  7351  6902  5112  2493  -44  -1696  -2194  -1830  -1112  -474  -164  -178  -310  -393  -421  -431  -433  -425  -408  -381  -336  -261  -169  -89  -40  -19  -16  -26  -49  -84  -124  -165  -204  -236  -245  -214  -126  8  138  213  235  244  258  269  274  281  309  368  447  522  591  663  739  803  854  895  927  956  1012  1117  1247  1412  1669  1970  2181  2258  2264  2272  2304  2334  2323  2267  2178  2074  1992  1947  1909  1826  1666  1442  1201  992  828  669  453  150  -171  -416  -570  -692  -806  -879  -861  -757  -634  -559  -533  -534  -568  -660  -797  -923  -989  -983  -926  -853  -789  -744  -714  -687  -657  -632  -616  -609  -607  -603  -603  -623  -675  -746  -799  -814  -802  -782  -752  -709  -657  -611  -583  -572  -570  -573  -584  -605  -630  -648  -654  -652  -646  -635  -619  -604  -599  -618  -660  -694  -682  -623  -559  -530  -540  -563  -584  -611  -644  -663  -655  -627  -599  -586  -586  -588  -585  -579  -575  -576  -577  -577  -580  -588  -594  -587  -570  -550  -522  -477  -418  -354  -280  -184  -80  5  48  45  6  -53  -135  -244  -389  -566  -745  -881  -960  -1002  -1024  -1023  -1004  -976  -923  -825  -706  -627  -636  -747  -902  -1008  -1112  -1321  -1543  -1506  -891  511  2523  4619  6220  6805  6057  4167  1771  -410  -1786  -2091  -1617  -1014  -708  -671  -712  -729  -709  -676  -650  -634  -630  -631  -614  -558  -478  -418  -391  -383  -380  -377  -377  -386  -410  -433  -433  -407  -379  -364  -349  -312  -256  -195  -126  -51  15  76  152  233  291  319  348  389  425  440  443  465  531  625  711  793  916  1087  1257  1388  1482  1545  1598  1678  1823  2023  2203  2295  2290  2211  2090  1961  1848  1769  1716  1617  1374  992  612  355  215  126  55  -10  -84  -174  -277  -379  -462  -519  -552  -574  -599  -634  -684  -748  -810  -851  -865  -834  -732  -576  -429  -331  -279  -266  -295  -351  -410  -453  -472  -465  -446  -439  -453  -444  -381  -306  -294  -381  -537  -683  -759  -775  -767  -733  -650  -534  -440  -396  -396  -421  -456  -483  -489  -458  -387  -321  -304  -330  -363  -386  -401  -414  -432  -450  -454  -424  -359  -291  -253  -244  -242  -233  -225  -229  -246  -269  -279  -259  -217  -180  -164  -167  -175  -181  -185  -185  -185  -186  -189  -194  -203  -220  -249  -270  -259  -216  -166  -141  -155  -182  -196  -196  -193  -191  -191  -192  -194  -195  -196  -210  -250  -309  -364  -397  -409  -402  -375  -315  -209  -61  87  175  174  105  12  -60  -85  -61  -7  41  61  63  62  50  0  -103  -233  -355  -449  -505  -531  -558  -630  -737  -794  -741  -641  -599  -671  -825  -968  -1093  -1243  -1258  -851  153  1758  3748  5695  7094  7505  6713  4858  2478  341  -949  -1285  -1018  -610  -382  -427  -596  -691  -667  -583  -501  -454  -447  -469  -506  -548  -584  -587  -533  -414  -252  -128  -90  -99  -105  -104  -125  -193  -290  -368  -393  -351  -244  -112  -6  67  112  131  147  197  294  413  497  526  525  528  562  636  717  772  807  863  959  1085  1237  1405  1547  1629  1681  1756  1854  1928  1954  1954  1947  1931  1894  1843  1798  1768  1743  1707  1649  1548  1338  954  468  77  -101  -116  -73  -32  -14  -19  -45  -78  -103  -113  -111  -96  -68  -45  -72  -171  -304  -403  -437  -419  -362  -276  -191  -154  -180  -232  -273  -300  -327  -357  -373  -357  -318  -277  -246  -220  -190  -164  -164  -201  -265  -330  -368  -371  -355  -344  -347  -353  -351  -350  -362  -377  -386  -415  -501  -628  -728  -754  -729  -698  -672  -622  -539  -457  -418  -430  -466  -494  -505  -504  -501  -499  -495  -490  -489  -505  -549  -598  -618  -605  -568  -507  -438  -385  -353  -345  -363  -394  -421  -436  -445  -449  -449  -443  -435  -433  -436  -430  -407  -363  -302  -240  -202  -198  -224  -261  -294  -327  -390  -504  -638  -753  -813  -749  -573  -393  -261  -183  -157  -165  -175  -173  -165  -167  -188  -220  -258  -305  -359  -401  -423  -436  -457  -482  -491  -468  -424  -378  -330  -280  -248  -256  -306  -371  -420  -452  -478  -479  -434  -360  -296  -273  -295  -337  -364  -375  -386  -397  -395  -351  -240  -67  101  191  199  176  161  161  170  180  170  103  -32  -204  -362  -486  -584  -672  -755  -822  -872  -914  -929  -908  -882  -870  -858  -841  -837  -891  -1029  -1214  -1393  -1509  -1403  -826  369  2117  4166  6071  7284  7450  6511  4660  2355  241  -1107  -1470  -1133  -649  -401  -436  -608  -770  -878  -953  -995  -980  -933  -913  -931  -957  -961  -913  -807  -688  -616  -596  -589  -566  -531  -496  -475  -476  -495  -507  -493  -445  -379  -325  -293  -264  -200  -85  41  114  102  29  -19  22  131  251  347  409  446  471  483  482  497  570  701  844  970  1107  1270  1418  1514  1562  1576  1567  1560  1596  1710  1857  1925  1855  1701  1552  1414  1249  1059  884  761  683  601  478  322  157  3  -122  -211  -269  -304  -334  -379  -425  -438  -417  -392  -381  -374  -360  -345  -343  -347  -344  -337  -344  -387  -460  -534  -584  -607  -607  -591  -557  -506  -447  -391  -347  -322  -329  -351  -358  -352  -367  -430  -533  -629  -665  -653  -641  -636  -595  -482  -332  -218  -166  -155  -158  -160  -156  -158  -179  -220  -263  -290  -291  -252  -193  -148  -123  -112  -120  -139  -152  -155  -155  -151  -140  -113  -65  -3  62  136  212  263  266  225  164  104  47  -19  -93  -156  -198  -221  -222  -180  -90  14  96  142  165  180  187  180  156  117  71  35  24  44  97  155  186  180  150  117  88  40  -42  -129  -139  -18  173  320  377  379  364  336  301  273  260  257  256  255  252  250  243  227  208  221  314  496  717  918  1065  1141  1148  1108  1039  952  860  778  717  652  532  342  124  -47  -124  -110  -60  -48  -103  -173  -207  -210  -208  -217  -223  -195  -148  -184  -373  -625  -746  -469  470  2118  4239  6416  8088  8707  7991  6052  3436  1015  -437  -758  -353  223  563  524  252  -5  -123  -134  -110  -87  -69  -48  -22  11  61  118  156  171  198  273  380  464  491  473  427  359  280  225  221  271  355  439  497  520  522  531  568  629  695  761  822  865  883  893  910  933  950  972  1025  1119  1234  1341  1421  1472  1503  1510  1507  1551  1686  1888  2095  2251  2315  2277  2178  2075  2001  1959  1913  1786  1536  1216  928  720  558  386  190  -11  -213  -405  -566  -679  -744  -786  -845  -939  -1047  -1144  -1216  -1260  -1289  -1332  -1400  -1477  -1526  -1519  -1450  -1353  -1282  -1257  -1266  -1296  -1342  -1396  -1448  -1490  -1519  -1534  -1538  -1536  -1536  -1540  -1538  -1520  -1492  -1488  -1548  -1654  -1740  -1776  -1779  -1762  -1720  -1655  -1591  -1551  -1534  -1535  -1570  -1654  -1751  -1790  -1756  -1687  -1624  -1591  -1593  -1602  -1601  -1598  -1601  -1603  -1588  -1554  -1531  -1540  -1563  -1583  -1609  -1652  -1718  -1796  -1858  -1885  -1885  -1875  -1866  -1858  -1849  -1835  -1816  -1799  -1792  -1794  -1792  -1781  -1766  -1752  -1737  -1716  -1703  -1737  -1826  -1914  -1961  -1970  -1960  -1947  -1919  -1852  -1759  -1673  -1599  -1532  -1480  -1448  -1417  -1384  -1362  -1354  -1334  -1276  -1193  -1137  -1134  -1167  -1207  -1246  -1297  -1389  -1533  -1691  -1812  -1889  -1945  -1984  -2001  -2002  -1992  -1982  -1979  -1994  -2030  -2077  -2131  -2185  -2194  -2089  -1960  -1972  -1980  -1564  -431  1435  3683  5516  6110  5189  3096  520  -1678  -2866  -3040  -2601  -1944  -1383  -1104  -1072  -1132  -1187  -1218  -1224  -1210  -1184  -1168  -1173  -1187  -1188  -1151  -1058  -941  -846  -774  -705  -640  -591  -563  -553  -555  -561  -565  -555  -508  -400  -235  -64  63  149  219  275  304  304  297  301  337  435  593  753  851  881  886  930  1048  1217  1380  1501  1590  1662  1725  1794  1899  2061  2274  2482  2610  2624  2557  2470  2416  2399  2395  2382  2334  2231  2086  1930  1741  1453  1064  694  472  379  304  192  63  -55  -152  -208  -196  -129  -56  -16  -11  -17  -3  45  107  134  103  39  -20  -67  -107  -122  -76  42  185  281  309  301  289  286  297  326  366  398  412  408  393  367  334  322  348  366  329  275  277  339  389  372  321  321  420  585  733  810  828  821  808  787  753  713  672  626  582  541  461  334  248  291  448  621  719  722  666  596  524  455  420  442  500  561  600  609  604  608  644  712  783  829  845  849  859  883  944  1063  1227  1383  1499  1571  1578  1499  1364  1247  1186  1134  1013  804  571  386  289  287  342  400  430  425  379  293  190  108  81  133  241  307  265  125  -21  75  738  2145  4144  6205  7612  7811  6673  4571  2218  267  -893  -1183  -847  -299  139  344  370  320  241  140  44  -17  -48  -59  -59  -60  -80  -103  -78  54  293  548  725  797  792  732  624  478  334  243  225  258  314  372  422  480  566  659  725  745  732  708  690  692  731  814  916  999  1055  1099  1152  1233  1339  1441  1515  1569  1639  1752  1884  1985  2034  2048  2068  2118  2184  2219  2194  2110  1986  1854  1736  1625  1491  1328  1132  844  428  -8  -303  -429  -481  -527  -565  -580  -569  -534  -489  -455  -444  -453  -479  -538  -643  -779  -896  -946  -904  -760  -567  -425  -383  -416  -490  -575  -641  -678  -684  -655  -596  -544  -537  -582  -656  -721  -739  -709  -661  -615  -584  -573  -581  -616  -676  -735  -759  -743  -697  -629  -558  -513  -521  -588  -689  -791  -871  -900  -859  -783  -723  -695  -686  -679  -673  -682  -716  -764  -799  -809  -804  -798  -800  -819  -877  -983  -1100  -1149  -1092  -980  -901  -886  -897  -904  -921  -958  -988  -962  -855  -730  -690  -739  -807  -838  -787  -684  -630  -658  -716  -766  -811  -865  -928  -982  -1007  -989  -918  -823  -758  -741  -745  -739  -705  -655  -620  -633  -712  -829  -909  -868  -670  -398  -197  -123  -120  -116  -72  21  131  203  204  136  28  -76  -146  -178  -190  -209  -241  -266  -268  -263  -312  -467  -689  -864  -937  -939  -917  -894  -870  -841  -825  -875  -1036  -1281  -1535  -1613  -1187  -47  1712  3797  5792  7227  7714  7089  5471  3244  980  -675  -1391  -1373  -969  -459  -179  -258  -484  -650  -739  -790  -809  -794  -753  -712  -689  -683  -672  -640  -588  -531  -476  -430  -403  -397  -395  -384  -372  -365  -360  -344  -315  -285  -277  -299  -323  -312  -256  -185  -143  -142  -160  -180  -191  -165  -57  134  362  561  687  738  740  726  726  771  871  1004  1129  1224  1294  1349  1394  1438  1475  1492  1497  1498  1482  1432  1338  1206  1048  884  733  596  452  298  156  32  -85  -223  -414  -640  -818  -888  -871  -830  -798  -764  -728  -707  -711  -731  -749  -756  -744  -719  -692  -675  -669  -674  -679  -674  -669  -679  -716  -788  -874  -930  -941  -923  -897  -857  -774  -636  -500  -442  -485  -579  -651  -673  -669  -666  -671  -678  -677  -652  -601  -530  -451  -403  -418  -464  -500  -535  -591  -670  -757  -818  -822  -755  -648  -577  -585  -632  -662  -649  -591  -512  -456  -449  -483  -532  -569  -582  -575  -549  -507  -468  -449  -453  -469  -485  -507  -543  -584  -618  -660  -696  -667  -568  -474  -418  -366  -306  -275  -298  -351  -394  -420  -450  -488  -519  -531  -531  -523  -503  -467  -434  -433  -463  -490  -485  -449  -406  -366  -320  -280  -278  -328  -406  -458  -446  -372  -280  -218  -195  -184  -169  -156  -158  -190  -254  -331  -389  -409  -373  -268  -127  -8  67  114  146  194  300  448  564  607  590  537  466  390  314  223  92  -63  -187  -234  -211  -156  -104  -76  -93  -191  -371  -535  -569  -507  -472  -515  -613  -734  -857  -972  -985  -600  508  2344  4459  6203  7151  7242  6469  4803  2590  590  -594  -963  -900  -732  -585  -486  -438  -441  -476  -507  -517  -512  -506  -505  -505  -502  -494  -457  -366  -241  -148  -127  -176  -270  -363  -407  -383  -300  -184  -75  -13  0]
