reading_id,reading_time,wire_id,result_classification,heart_rate,heart_rate_alert,firmware_version,device_app_version,hardware_version,waveform_samples
52bc8240-5805-11ed-8080-808080808080,Sun Oct 30 03:45:40 UTC 2022,e101e3752439,UNREADABLE,0,NONE,20001.171.50,2.10.0,Charge 5,[20184  23513  27564  32767  32767  32767  32767  32767  32767  32767  32767  26319  15578  8150  3401  875  249  1919  6529  12620  17037  18444  18029  17231  16818  17434  19557  22559  24796  24939  22594  18515  14535  12125  11231  10754  9448  6719  3137  -104  -2177  -2940  -2545  -1190  545  1816  2323  2359  2220  2142  2595  3985  5908  7347  7792  7449  6563  5231  3788  2862  2950  4082  5688  6926  7421  7405  7402  8396  11483  16244  20475  22578  22924  22500  21423  18729  13438  6441  523  -2398  -2882  -2482  -2077  -1834  -1928  -2885  -5009  -7567  -9350  -9929  -9536  -8219  -5862  -2699  421  2523  3404  3547  3471  3799  5345  8259  11416  13365  13414  11507  8160  4852  3302  3570  3721  2185  -480  -2138  43  7998  19741  29668  32767  30693  23055  14054  7137  3097  527  -1425  -2321  -1747  82  2599  4952  6334  6554  5906  4714  3247  1759  456  -592  -1482  -2292  -3020  -3851  -5121  -6757  -8289  -9520  -10543  -11344  -11850  -12017  -11624  -10409  -8711  -7502  -7645  -9328  -11758  -13476  -13344  -11168  -7940  -5259  -3905  -3529  -3578  -3914  -4660  -5629  -6121  -5424  -3350  -373  2647  5029  6543  7240  7375  7318  7264  7131  6776  6230  5562  4615  3277  1783  400  -865  -2124  -3376  -4453  -5151  -5408  -5261  -4758  -4075  -3506  -3193  -3098  -3194  -3502  -3940  -4322  -4547  -4653  -4620  -4257  -3430  -2413  -1742  -1740  -2349  -3188  -3779  -3966  -3929  -3860  -3823  -3826  -3888  -4022  -4139  -3924  -2989  -1352  304  1021  323  -1413  -3305  -4659  -5607  -6825  -8596  -10422  -11685  -12908  -15696  -20909  -27287  -31727  -31276  -25717  -18051  -12144  -9870  -10293  -11353  -11912  -11979  -11835  -11687  -11937  -13183  -15496  -17983  -19604  -19877  -18412  -14899  -10214  -6326  -4418  -3975  -3909  -3738  -3806  -5083  -8399  -13180  -17424  -19617  -20005  -19614  -18966  -17990  -16565  -14833  -13058  -11317  -9496  -7767  -6648  -6333  -6540  -6972  -7451  -7700  -7177  -5439  -2929  -571  1468  3447  5090  6012  6206  5576  3904  1700  104  -354  -46  477  791  463  -784  -2548  -3912  -4424  -4354  -4030  -3360  -1855  703  3518  5334  5648  4731  3117  1545  698  900  2124  3835  5184  5807  5953  5875  5527  4939  4732  5700  8073  11450  14848  17287  18846  20375  22259  23908  23681  19815  12935  6410  3264  4140  7828  11945  13869  12630  9492  6179  3359  818  -1859  -4860  -7943  -10459  -11897  -12250  -11428  -9095  -5698  -2277  890  3932  6533  8543  10060  10917  10902  10048  8723  7559  6918  6619  6354  6045  5767  5576  5448  5224  4750  4146  3655  3138  2056  83  -2273  -3982  -4569  -4326  -3648  -2772  -1862  -982  -50  1142  2712  4293  5260  5359  4795  3970  3261  2829  2723  3012  3664  4530  5587  7058  9034  11028  12372  12781  12004  9596  5831  2049  -480  -1545  -1769  -1844  -2113  -2666  -3525  -4670  -6031  -7369  -8241  -8116  -6568  -3801  -928  953  1749  1997  2040  1950  1801  1581  1171  634  221  40  -10  -32  -63  -112  -221  -499  -1034  -1824  -2910  -4440  -6300  -8038  -9377  -10360  -10964  -10922  -9762  -7253  -4006  -1263  151  345  -200  -1168  -2286  -3360  -4431  -5452  -6142  -6360  -6204  -5800  -5296  -4862  -4549  -4178  -3481  -2498  -1639  -1182  -1055  -1178  -1568  -2096  -2563  -2986  -3505  -4075  -4492  -4650  -4621  -4514  -4371  -4200  -4059  -4083  -4453  -5217  -6113  -6767  -6992  -6712  -5864  -4637  -3479  -2697  -2295  -2110  -1979  -1864  -1816  -1800  -1747  -1710  -1821  -2113  -2478  -2786  -2985  -3092  -3128  -3009  -2421  -924  1613  4745  7853  10690  13167  14753  14665  12684  9320  5667  3257  3106  4847  7124  8383  7353  3622  -1869  -7248  -10969  -12380  -11448  -9061  -6571  -4374  -2254  -373  1055  2063  2782  3411  4003  4387  4450  4243  3883  3471  3072  2807  2991  4034  6006  8434  10566  11771  11794  10684  8849  7133  6218  6041  6142  6226  6263  6337  6468  6541  6487  6404  6302  5900  4963  3742  2692  1805  717  -549  -1360  -846  1403  4488  6719  7408  7195  6924  7181  8237  9717  10799  11057  10662  9966  9237  8614  8159  7881  7663  7291  6697  6082  5669  5493  5516  5715  6002  6240  6377  6474  6606  6806  7127  7639  8301  8911  9285  9407  9378  9272  9109  8923  8796  8803  8969  9255  9593  9894  9797  8517  5516  1425  -2327  -4785  -5854  -5607  -3743  -285  3494  5869  5883  3310  -1142  -5490  -7961  -8462  -7762  -6203  -3859  -1349  354  993  1116  1150  981  327  -758  -1807  -2405  -2594  -2651  -2602  -2068  -666  1327  3049  3956  4216  4057  3155  986  -2259  -5508  -7712  -8632  -8724  -8494  -8108  -7572  -6880  -5840  -4208  -2329  -1062  -906  -1673  -2754  -3507  -3674  -3399  -3052  -3426  -5630  -10040  -15787  -21574  -26280  -29210  -30519  -30603  -28769  -23892  -16829  -10311  -6216  -4389  -3166  -282  5603  13421  19607  20110  13068  227  -13910  -24549  -28603  -25624  -17773  -8315  479  7744  12851  15368  15815  15038  13410  11419  9989  9810  11064  13397  15784  17137  16993  15469  13294  11574  10755  10275  9430  8089  6638  5362  3941  1852  -926  -4239  -8238  -12550  -16037  -18134  -19204  -19758  -20277  -21255  -22829  -24602  -26069  -27017  -27504  -27788  -28178  -28706  -28954  -28234  -26224  -23681  -21891  -21285  -21425  -21996  -22971  -24127  -25032  -25467  -25569  -25553  -25474  -25245  -24762  -23900  -22553  -20943  -19618  -18877  -18508  -18165  -17599  -16285  -13164  -7547  -523  5487  9062  10743  11752  13008  15193  18372  21571  23724  24721  25102  25319  25339  24473  22032  18606  15860  14703  14653  14888  14861  14136  12453  10006  7284  4678  2527  1230  970  1763  3590  6019  8220  9603  10152  10225  10199  10237  10271  10057  9308  8041  6725  5856  5550  5725  6340  7223  7892  7623  5762  2535  -734  -2926  -4097  -4813  -5278  -5354  -4890  -3854  -2476  -1205  -299  232  390  270  129  148  337  689  1220  1766  1977  1691  1206  983  1091  1387  2325  4671  8017  10737  11786  11474  10587  9644  8858  8345  8116  7857  7067  5567  3575  1266  -1310  -3775  -5474  -6197  -6304  -6200  -6054  -5893  -5823  -6220  -7456  -9227  -10659  -11113  -10231  -7740  -4149  -917  839  1227  839  -36  -1169  -2141  -2751  -3157  -3495  -3727  -3832  -3880  -3899  -3757  -3172  -1801  535  3443  5946  7292  7619  7544  7412  7086  6142  4302  1977  123  -707  -771  -587  -472  -593  -1046  -1688  -2167  -2188  -1653  -728  137  557  533  286  -178  -1183  -2861  -4708  -6018  -6472  -5915  -4224  -1920  11  1286  2325  3305  4039  4561  5194  5985  6574  6677  6317  5727  5225  5021  5109  5387  5777  6187  6415  6114  5055  3613  2565  2218  2259  2338  2355  2339  2290  2160  2001  2196  3423  6020  9362  12250  14022  14967  15775  16999  18677  20073  20407  19746  18602  17413  16581  16029  14834  11975  7428  2639  -180  350  3948  9080  13582  15537  14477  11242  6764  2048  -1521  -3214  -3701  -4154  -5061  -6103  -6832  -7182  -7471  -8162  -9662  -12084  -14855  -16919  -17764  -17786  -17570  -17366  -17104  -16479  -15189  -13402  -11718  -10566  -9930  -9536  -9052  -8279  -7233  -6019  -4759  -3622  -2629  -1620  -512  663  1849  2906  3766  4690  5994  7461  8339  7725  5195  1727  -811  -1615  -1241  -386  555  1315  1775  1995  2041  1774  934  -432  -1869  -2996  -3813  -4444  -4886  -5048  -4702  -3479  -1333  1044  2744  3520  3763  3829  3763  3427  2740  1817  904  243  -65  -110  -26  127  310  451  515  526  534  589  708  836  890  864  809  756  720  687  636  586  546  494  424  285  -102  -893  -1892  -2553  -2306  -933  1034  2608  3285  3210  2643  1733  619  -517  -1566  -2532  -3352  -3837  -3820  -3220  -2171  -1137  -557  -446  -553  -660  -589  -142  776  2058  3468  4741  5712  6417  6981  7311  6872  5015  2003  -772  -2257  -2691  -2860  -3353  -4485  -6006  -7121  -7132  -5835  -3700  -1769  -810  -846  -1553  -2518  -3177  -2876  -1186  1442  3738  4894  5198  5256  5200  4762  3960  3276  2968  2848  2752  2672  2609  2556  2509  2394  2049  1301  121  -1166  -1970  -1802  -572  1145  2355  2417  1408  -13  -1039  -1389  -1305  -1023  -594  11  785  1605  2342  2923  3256  3246  2843  2117  1250  395  -358  -914  -1217  -1302  -1258  -1161  -1058  -1017  -1206  -1776  -2558  -3124  -3242  -3012  -2679  -2448  -2369  -2378  -2440  -2564  -2720  -2823  -2836  -2816  -2877  -3109  -3462  -3765  -3845  -3603  -3144  -2757  -2574  -2412  -1925  -825  905  2918  4680  5748  5904  5282  4685  5494  8403  12244  14709  13805  8716  559  -7998  -14738  -18857  -20284  -19331  -16734  -13539  -10790  -8835  -7173  -5268  -3140  -1243  -51  295  -9  -664  -1428  -2225  -3070  -3910  -4553  -4776  -4543  -4084  -3711  -3581  -3747  -4242  -4901  -5379  -5496  -5403  -5379  -5518  -5634  -5426  -4486  -2425  524  3344  5101  5718  5604  4923  3647  2077  722  -245  -1028  -1817  -2562  -3102  -3461  -3818  -4206  -4495  -4622  -4616  -4453  -4090  -3629  -3303  -3308  -3725  -4448  -5156  -5486  -5173  -4090  -2437  -699  755  1802  2351  2368  2144  2498  4461  8076  11786  13958  14528  14480  14505  14687  14892  15041  15116  15014  14438  13037  10848  8415  6255  4576  3441  2804  2544  2585  2871  3249  3536  3676  3662  3279  2108  -1  -2557  -4775  -6261  -7174  -7796  -8209  -8392  -8375  -8212  -7978  -7825  -7987  -8637  -9590  -10349  -10451  -9572  -7693  -5407  -3521  -2342  -1702  -1374  -1202  -1068  -872  -585  -268  -3  134  49  -312  -813  -1182  -1317  -1382  -1720  -2604  -3810  -4745  -5130  -5034  -4363  -2946  -1104  412  1242  1747  2383  3249  4347  5671  7252  9464  12430  15213  16420  15114  11004  4863  -1386  -5667  -6639  -4462  -916  2077  3616  3760  3278  2947  2926  3006  3074  3148  3234  3266  3153  2926  2805  2935  3166  3309  3380  3509  3857  4542  5439  6288  7013  7662  8271  8976  9892  10854  11578  11933  11726  10465  7685  3595  -512  -3069  -3777  -3569  -3289  -3182  -3186  -3241  -3432  -3967  -4938  -6064  -6873  -7141  -6943  -6432  -5767  -5042  -4202  -3123  -1780  -458  386  672  733  834  1021  1325  1861  2693  3675  4543  5137  5489  5640  5371  4273  2334  311  -888  -950  -65  1302  2511  3129  3052  2216  688  -1043  -2340  -2947  -3099  -3157  -3255  -3300  -3165  -2699  -1643  261  2933  5632  7387  7808  6938  4813  1883  -871  -2781  -3918  -4549  -4791  -4901  -5531  -7240  -9555  -11257  -11878  -12045  -12483  -13402  -14682  -16148  -17486  -18340  -18609  -18244  -16926  -14447  -11268  -8199  -5672  -3761  -2428  -1488  -760  -186  348  1059  2065  3306  4609  5788  6634  6910  6778  6975  7951  9205  9652  7846  2567  -5221  -12326  -16095  -15766  -12282  -7965  -4906  -3601  -3400  -3469  -3405  -3231  -3035  -2833  -2534  -1884  -757  507  1350  1343  163  -2109  -4554  -6062  -6280  -5462  -4057  -2715  -1917  -1484  -891  18  1015  2003  3044  3971  4495  4570  4372  4096  3924  4048  4584  5365  6016  6250  5819  4529  2783  1532  1437  2480  4052  5142  4714  2267  -1395  -4565  -6329  -6855  -6052  -3310  1025  5159  7589  8356  8324  8151  8047  7964  7827  7658  7546  7528  7528  7395  7023  6479  5928  5410  4790  3841  2385  602  -1105  -2870  -5457  -9195  -13109  -15751  -16766  -16813  -16216  -14544  -11426  -7420  -3908  -2075  -2219  -3950  -6324  -8179  -8980  -8670  -6917  -3506  949  5332  8821  11125  12212  12362  12296  12623  13334  14169  14956  15411  15314  14705  13231  10072  5105  -662  -5799  -8806  -8450  -5006  -490  2987  4414  4085  3243  2862  3153  4146  5683  7140  7966  8245  8315  8060  6793  4058  593  -2089  -3249  -3393  -3313  -3309  -3376  -3724  -4741  -6357  -7919  -8855  -9074  -8789  -8326  -7995  -7966  -8336  -9176  -10316  -11280  -11424  -9896  -6243  -1554  2148  3918  4274  4043  3658  3289  3072  3128  3477  3960  4341  4554  4687  4766  4801  4995  5681  6865  8065  8801  9001  8774  8153  7215  6107  4934  3886  3219  3011  3268  4136  5617  7241  8385  8816  8657  8082  7349  6788  6548  6641  7193  8284  9655  10840  11596  12035  12357  12640  12883  13008  12697  11528  9593  7614  6203  5384  4895  4570  4328  4048  3640  3173  2791  2467  1880  536  -1733  -4233  -5836  -5926  -4556  -2339  -315  745  652  -637  -2889  -5183  -6553  -6815  -6259  -5126  -3676  -2158  -502  1524  3717  5415  6154  5855  4401  1462  -3028  -8185  -12412  -14745  -15537  -15631  -15478  -15163  -14637  -13827  -12889  -12186  -11896  -11996  -12533  -13500  -14578  -15366  -15703  -15465  -14357  -12427  -10483  -9371  -9101  -9097  -8914  -8526  -8205  -8155  -8398  -9021  -10119  -11472  -12642  -13375  -13722  -13873  -13974  -14074  -14066  -13664  -12614  -10985  -9103  -7124  -4774  -1766  1634  4674  6368  5902  3373  42  -2559  -3850  -4299  -4664  -5425  -6352  -6778  -6553  -6133  -5776  -5219  -4015  -2020  301  2141  3089  3445  3732  4113  4426  4597  4885  5717  7224  8941  10213  10764  10657  9946  8666  6991  5311  4113  3577  3515  3747  4241  4916  5610  6234  6771  7119  6991  5997  4140  2181  997  811  1394  2458  3633  4543  5058  5283  5351  5323  5237  5153  5121  5143  5198  5427  6322  8324  10997  13197  14242  14151  12925  10536  7407  4228  1493  -560  -1947  -3113  -4772  -7158  -9574  -11061  -11110  -9524  -6498  -2955  -15  1772  2514  2665  2622  2535  2646  3334  4489  5519  5953  5724  5224  4777  4031  2383  -373  -3864  -7041  -8699  -8531  -7347  -6155  -5348  -4705  -3773  -2373  -929  -28  310  508  796  1077  1221  1249  1246  1245  1254  1466  2356  4197  6497  8358  9311  9516  9361  9143  8969  8720  8207  7468  6774  6171  5239  3529  1283  -612  -1550  -1713  -1609  -1510  -1436  -1313  -1019  -425  431  1298  1903  2176  2230  2223  2250  2316  2350  2323  2197  1702  498  -1386  -3480  -5148  -6001  -6020  -5391  -4528  -4163  -5034  -7210  -9892  -11853  -11705  -8654  -3777  663  3086  2990  922  -1662  -3644  -4938  -5884  -6718  -7498  -8193  -8756  -9014  -8370  -6105  -2497  1040  3354  4374  4672  4760  4811  4805  4715  4560  4375  4166  3959  3813  3754  3783  3883  3904  3449  2183  392  -1162  -2058  -2400  -2343  -1678  101  3020  6184  8527  9622  9620  8740  7071  4804  2519  1061  1055  2683  5442  8066  9498  9646  8864  7446  5748  4114  2544  791  -1173  -3174  -5130  -6959  -8523  -9733  -10249  -9518  -7383  -4213  -927  1155  1230  -571  -3737  -7676  -11683  -15129  -17341  -17316  -14410  -9200  -3296  1525  4282  5193  5112  4724  4293  3881  3431  2774  1838  801  -42  -499  -619  -608  -607  -625  -735  -1261  -2469  -4046  -5332  -6071  -6499  -7014  -7928  -9143  -10172  -10714  -10848  -10542  -9495  -7624  -5269  -2927  -1112  -141  130  0  -510  -1516  -2884  -4151  -4917  -5227  -5360  -5437  -5370  -5029  -4437  -3784  -3128  -2135  -476  1447  2716  2829  1975  781  -40  -160  280  904  1332  1410  1222  939  705  597  726  1291  2363  3693  4945  5980  6757  7206  7328  7151  6576  5497  4103  2900  2286  2276  2696  3327  3881  4099  3812  3007  1945  890  -277  -1686  -3006  -3848  -4174  -3941  -2799  -643  1804  3537  4242  4322  4185  3923  3520  3035  2534  2009  1473  1144  1500  2952  5134  6970  7842  8062  8123  8187  8259  8370  8525  8699  8897  9095  9182  9079  8852  8635  8492  8440  8608  9278  10638  12435  14126  15390  16204  16632  16715  16305  15141  13332  11296  9179  7041  5324  4474  4617  5810  7876  10053  11368  11419  10581  9553  8926  8908  9212  9221  8250  5892  2288  -1846  -5319  -6931  -6068  -3021  836  3685  4623  4146  3298  2724  2525  2594  2725  2505  1428  -515  -2557  -3858  -4287  -4249  -4125  -4079  -4190  -4507  -4936  -5293  -5533  -5720  -5860  -5938  -5987  -6035  -6071  -6083  -6079  -6074  -6083  -6113  -6162  -6244  -6399  -6619  -6793  -6928  -7509  -9351  -12640  -16407  -19307  -20653  -20507  -19205  -17274  -15407  -14052  -13252  -12854  -12642  -12331  -11660  -10727  -9954  -9565  -9439  -9471  -9680  -10016  -10350  -10577  -10640  -10494  -10041  -9228  -8304  -7685  -7488  -7540  -7715  -7990  -8265  -8341  -8030  -7195  -5813  -4110  -2565  -1637  -1563  -2494  -4437  -6861  -8857  -9862  -9872  -9018  -7492  -5868  -4947  -5389  -7398  -10136  -12110  -12617  -12050  -11087  -10234  -9685  -9355  -9133  -9020  -9028  -9071  -8950  -8458  -7633  -6799  -6157  -5542  -4783  -3965  -3265  -2764  -2427  -2127  -1777  -1420  -1104  -772  -319  289  950  1490  1834  2028  2119  2075  1824  1390  950  658  510  484  671  1156  1840  2534  3285  4365  5861  7530  8966  9863  10317  10688  11120  11451  11503  11270  10825  10150  9236  8210  7188  6160  5148  4265  3580  3019  2440  1853  1456  1382  1608  2067  2672  3278  3711  3891  3867  3741  3612  3527  3483  3474  3514  3629  3793  3950  4069  4073  3719  2757  1335  18  -775  -1130  -1310  -1400  -1343  -1105  -777  -500  -302  -139  -12  55  70  129  487  1364  2572  3634  4265  4518  4585  4603  4604  4583  4548  4507  4470  4463  4544  4811  5318  5999  6669  7141  7345  7312  7161  7217  7833  8934  9989  10522  10591  10814  11780  13272  14345  14034  11871  8303  4471  1280  -864  -1890  -2062  -1602  -489  1077  2569  3606  4205  4566  4831  5027  5139  5184  5216  5255  5212  4891  4188  3290  2511  2006  1764  1697  1708  1755  1856  1994  2030  1736  930  -391  -2082  -3898  -5448  -6349  -6571  -6336  -5703  -4514  -2667  -394  1668  2893  3213  2923  2183  1130  153  -388  -511  -455  -359  -218  14  358  741  991  923  449  -274  -899  -1216  -1238  -951  -245  909  2301  3505  4174  4334  4236  4050  3849  3686  3558  3407  3203  2958  2689  2452  2316  2286  2326  2390  2388  2161  1582  720  -158  -809  -1243  -1634  -2079  -2528  -2911  -3278  -3741  -4312  -4875  -5294  -5524  -5627  -5671  -5643  -5453  -5048  -4517  -4034  -3745  -3844  -4643  -6303  -8577  -10927  -12843  -14074  -14654  -14780  -14568  -13982  -13120  -12342  -11893  -11596  -11016  -9896  -8447  -7108  -6087  -5313  -4639  -3961  -3264  -2609  -2076  -1690  -1336  -850  -284  100  66  -456  -1276  -2021  -2493  -2767  -2945  -3090  -3289  -3602  -3967  -4258  -4404  -4362  -4036  -3410  -2722  -2285  -2207  -2427  -2862  -3409  -3928  -4303  -4527  -4692  -4910  -5268  -5788  -6383  -6890  -7173  -7049  -6209  -4572  -2655  -1207  -492  -200  0  152  222  265  344  400  215  -428  -1397  -2222  -2565  -2317  -1433  -96  1165  1928  2204  2183  1956  1579  1157  771  464  274  190  151  152  312  742  1324  1778  1972  1994  1977  1999  2073  2076  1675  603  -826  -1909  -2300  -2021  -1002  775  2872  4542  5351  5477  5347  5209  5124  5120  5214  5364  5454  5351  4935  4152  3173  2362  1925  1789  1875  2307  3258  4596  5853  6634  6920  6969  7034  7173  7319  7479  7711  7973  8158  8250  8300  8237  7742  6438  4447  2515  1238  551  81  -413  -942  -1395  -1736  -2011  -2238  -2389  -2435  -2406  -2390  -2483  -2746  -3183  -3772  -4502  -5253  -5774  -5895  -5565  -4755  -3470  -1748  237  1984  2946  3023  2474  1653  874  293  -19  208  1422  3631  6043  7754  8522  8680  8628  8565  8488  8281  7836  7224  6690  6416  6370  6417  6464  6459  6314  5883  5078  3934  2576  1290  428  64  -16  0  106  359  705  952  951  691  313  16  -94  -5  273  639  911  1008  1003  979  934  816  608  283  -332  -1488  -3120  -4740  -5851  -6287  -5993  -4858  -3130  -1521  -472  291  1313  2855  4782  6765  8583  10197  11512  12301  12547  12484  12308  12097  11917  11739  11375  10831  10379  9906  8794  6856  4842  3738  4141  6124  8836  10842  11552  11497  11322  11239  11186  11077  10932  10753  10330  9456  8377  7613  7359  7466  7798  8195  8407  8368  8480  9494  11761  14479  16268  16344  14736  12047  9080  6445  4793  4671  6036  8713  12408  16078  18521  19094  17509  14209  10758  8834  9342  12348  16790  20826  23080  23067  20987  17687  14298  11613  9639  7586  4531  559  -2967  -4759  -4578  -2856  -483  1392  2201  2005  805  -1361  -3934  -6062  -7247  -7572  -7321  -6652  -5792  -5110  -4729  -4406  -3880  -3067  -2049  -1045  -292  62  -132  -1021  -2425  -3861  -5070  -6167  -7382  -8817  -10243  -11239  -11653  -11680  -11503  -11110  -10475  -9748  -9185  -8917  -8865  -8951  -9396  -10588  -12464  -14314  -15505  -16083  -16438  -16822  -17357  -18036  -18696  -19238  -19724  -20186  -20545  -20743  -20818  -20835  -20810  -20699  -20446  -20098  -19804  -19657  -19614  -19597  -19578  -19562  -19549  -19517  -19419  -19225  -18996  -18853  -18842  -18938  -19139  -19409  -19649  -19791  -19858  -19907  -19971  -20056  -20141  -20202  -20243  -20283  -20332  -20376  -20405  -20420  -20442  -20509  -20672  -20965  -21351  -21718  -21978  -22138  -22239  -22301  -22356  -22486  -22778  -23248  -23763  -24124  -24288  -24380  -24474  -24558  -24675  -24942  -25390  -25896  -26297  -26537  -26685  -26834  -27041  -27365  -27842  -28364  -28714  -28826  -28847  -28984  -29342  -29828  -30224  -30418  -30490  -30603  -30873  -31299  -31763  -32158  -32475  -32732  -32768  -32768  -32768  -32768  -32768  -32768  -32768  -32086  -30064  -26814  -22612  -17876  -12302  -5174  3272  11399  17185  19852  20269  19543  18068  16168  14582  14207  16049  20585  26593  31557  32767  32558  30606  30383  32767  32767  32767  32767  32767  32501  30303  30178  31095  32009  32479  32452  32125  31832  31742  31730  31630  31467  31421  31638  32039  32392  32556  32591  32613  32630  32536  32275  31945  31663  31460  31342  31393  31788  32582  32767  32767  32767  32767  32767  31912  31236  30985  30618  29375  26923  23450  19479  15997  13983  13471  13823  14559  15351  15852  15994  16056  16317  16784  17321  17879  18408  18765  18841  18586  17988  17194  16476  16009  15768  15632  15536  15430  15060  14142  12893  12004  12018  13000  14463  15625  16094  16063  15861  15652  15417  15050  14488  13719  12821  11958  11183  10438  9560  8253  6398  4323  2573  1444  767  196  -416  -1020  -1517  -1827  -1928  -1845  -1601  -1198  -588  383  1765  3165  4044  4321  4268  3999  3398  2402  1036  -682  -2581  -4230  -5269  -5741  -5989  -6230  -6431  -6570  -6774  -7220  -8006  -8996  -9834  -10229  -10072  -9397  -8504  -7876  -7738  -7954  -8268  -8482  -8554  -8552  -8532  -8513  -8512  -8525  -8480  -8228  -7666  -6931  -6300  -5879  -5792  -6517  -8412  -11070  -13636  -15267  -14995  -12295  -8212  -5041  -4664  -7199  -11075  -14200  -15393  -15486  -16496  -19160  -22055  -23300  -22308  -19826  -17151  -15379  -14665  -14203  -13188  -11742  -10649  -10279  -10347  -10494  -10598  -10662  -10675  -10628  -10575  -10593  -10671  -10566  -9785  -7960  -5319  -2670  -797  84  214  -96  -569  -1000  -1344  -1638  -1867  -2007  -2139  -2435  -3042  -3921  -4770  -5281  -5298  -4677  -3341  -1537  272  1695  2522  2729  2332  1370  196  -648  -979  -1006  -959  -929  -935  -978  -1032  -1043  -947  -716  -421  -206  -214  -570  -1376  -2756  -4716  -6739  -8066  -8408  -7811  -6282  -4161  -2303  -1349  -1175  -1319  -1527  -1715  -1599  -564  1860  5260  8356  10114  10640  10699  10731  10680  10453  10140  9878  9737  9700  9717  9771  9874  9996  9960  9428  8154  6262  4181  2353  1044  316  54  32  58  111  311  735  1297  1906  2715  3948  5425  6595  7147  7201  6887  6191  5292  4618  4555  5353  6976  8901  10485  11464  11905  12005  11911  11564  10825  9768  8711  7963  7605  7529  7597  7655  7555  7275  6898  6441  5849  5176  4617  4266  3981  3582  2993  2066  655  -993  -2510  -3969  -5702  -7829  -10101  -11965  -13021  -13648  -14851  -17479  -21717  -26705  -30834  -32768  -32768  -32768  -32768  -32768  -32768  -32768  -32768  -32768  -32768  -32768  -32768  -32768  -32768  -32768  -32768  -32768  -32768  -31447  -29340  -28725  -28600  -28566  -28363  -27440  -25393  -22312  -18402  -13753  -8764  -4233  -554  2637  5957  9768  13754  17040  19112  20306  21486  23389  25908  28163  29472  29925  29984  29949  29792  29140  27526  25062  22652  21157  20632  20623  20783  21042  21411  21775  21961  22047  22347  22971  23793  25004  26967  29299  31048  31872  32165  32300  32412  32591  32767  32767  32767  31975  30519  29201  28539  28316  27807  26323  23886  21425  19863  19284  19522  20969  24029  28074  31756  32767  32767  32767  32767  32767  32767  32767  32767  32743  28682  25920  25837  28441  32031  32767  32767  32508  29625  27036  25339  24264  23096  21480  19793  18549  17621  16147  13124  8423  3377  -227  -1883  -2550  -3468  -5430  -8495  -11832  -14536  -16605  -18530  -20535  -22531  -24276  -25568  -26445  -27044  -27431  -27693  -27926  -28111  -28188  -28171  -28124  -28065  -27948  -27731  -27425  -27113  -26907  -26850  -26882  -26927  -26920  -26727  -26215  -25480  -24834  -24461  -24241  -23942  -23466  -22913  -22383  -21853  -21315  -20789  -20223  -19620  -19102  -18707  -18371  -18080  -17866  -17703  -17521  -17259  -16886  -16417  -15905  -15406  -14966  -14618  -14353  -14148  -13984  -13820  -13625  -13379  -13039  -12588  -12126  -11780  -11574  -11455  -11358  -11243  -11099  -10880  -10514  -10049  -9629  -9305  -9016  -8725  -8430  -8162  -7961  -7787  -7535  -7183  -6802  -6458  -6183  -5963  -5729  -5477  -5284  -5168  -5069  -4956  -4830  -4602  -4062  -3145  -2132  -1372  -979  -896  -1059  -1391  -1781  -2110  -2311  -2384  -2342  -2159  -1841  -1503  -1267  -1148  -1097  -1078  -1069  -1038  -890  -483  183  886  1397  1704  1899  2020  2082  2135  2224  2371  2598  2942  3389  3827  4148  4336  4429  4446  4338  4037  3607  3243  3050  2968  2893  2672  2034  739  -1042  -2693  -3710  -4087  -3917  -2961  -1093  1078  2687  3569  4144  4656  4985  4946  4517  3919  3494  3395  3531  3739  3923  4075  4188  4203  4110  3982  3881  3788  3634  3398  3160  3009  2951  2912  2823  2685  2555  2469  2371  2104  1581  959  515  375  472  671  850  938  922  816  663  533  455  399  341  264  99  -208  -580  -864  -1001  -1046  -1065  -1064  -986  -769  -439  -127  51  96  186  711  2064  4125  6094  7196  7375  7057  6624  6289  6117  6092  6178  6294  6333  6238  6045  5810  5514  5131  4735  4412  4129  3817  3497  3243  3078  2980  2939  2949  2978  2950  2759  2372  1877  1408  1049  830  745  778  884  980  999  949  904  913  956  1018  1127  1272  1375  1347  1158  888  680  617  717  1004  1468  1969  2316  2464  2506  2506  2475  2413  2335  2293  2394  2738  3346  4108  4796  5238  5426  5441  5307  4941  4311  3593  3023  2693  2567  2555  2557  2497  2341  2100  1828  1599  1459  1409  1463  1673  1998  2267  2368  2342  2289  2259  2199  1981  1541  1001  579  361  258  181  131  125  137  96  -71  -315  -309  215  955  1407  1526  1468  1228  751  -18  -1279  -3215  -5659  -8038  -9587  -9637  -8067  -5463  -2688  -424  969  1509  1498  1238  861  432  34  -265  -465  -590  -655  -666  -623  -527  -387  -230  -109  -56  -62  -105  -160  -209  -246  -271  -277  -267  -258  -266  -302  -357  -407  -434  -446  -484  -606  -840  -1148  -1414  -1532  -1512  -1454  -1424  -1416  -1410  -1411  -1454  -1567  -1704  -1779  -1783  -1779  -1835  -2006  -2281  -2552  -2694  -2648  -2419  -2110  -1874  -1770  -1757  -1789  -1855  -1956  -2064  -2116  -2106  -2073  -2027  -1912  -1619  -1113  -539  -68  253  472  688  1007  1386  1650  1711  1617  1462  1336  1290  1319  1378  1422  1437  1433  1420  1395  1340  1215  988  684  406  241  188  205  292  463  663  806  869  881  836  718  562  440  373  329  290  268  277  320  399  513  638  722  738  704  656  621  605  602  620  670  728  746  709  655  603  492  233  -117  -372  -411  -270  -66  77  127  122  108  117  180  312  509  734  923  1026  1050  1029  1010  1091  1427  2068  2748  3035  2776  2191  1627  1352  1387  1506  1441  1026  192  -1121  -2941  -5070  -7008  -8048  -7521  -5299  -2182  480  1758  1783  1363  1070  971  977  1043  1144  1237  1289  1302  1291  1251  1180  1098  1038  1016  1039  1114  1216  1291  1298  1225  1093  958  875  863  908  973  1024  1053  1063  1053  1024  973  900  824  761  716  693  691  705  716  678  534  291  50  -104  -190  -254  -304  -348  -431  -570  -743  -913  -1043  -1107  -1089  -992  -866  -775  -708  -577  -332  -36  189  299  353  465  705  1033  1327  1533  1681  1799  1884  1930  1942  1934  1919  1915  1934  1959  1971  1985  2033  2115  2160  2112  2008  1912  1843  1809  1788  1731  1627  1516  1436  1392  1380  1420  1538  1708  1847  1907  1900  1856  1794  1727  1663  1596  1532  1512  1566  1660  1752  1837  1886  1866  1773  1614  1430  1303  1277  1330  1414  1480  1476  1355  1108  819  600  498  473  450  369  252  180  211  330  493  654  779  857  904  939  958  933  850  751  691  685  727  801  848  799  578  148  -223  -123  406  871  792  -180  -2199  -4935  -7612  -9466  -10004  -9004  -6780  -4191  -2011  -620  -63  -55  -230  -433  -625  -761  -845  -935  -1075  -1271  -1478  -1625  -1689  -1710  -1724  -1746  -1787  -1863  -1990  -2170  -2393  -2630  -2818  -2917  -2964  -3049  -3230  -3463  -3648  -3749  -3812  -3883  -3960  -4023  -4087  -4198  -4388  -4638  -4884  -5081  -5255  -5450  -5680  -5944  -6237  -6526  -6744  -6869  -6950  -7075  -7321  -7677  -8007  -8194  -8285  -8422  -8656  -8903  -9061  -9082  -8913  -8524  -8050  -7730  -7685  -7874  -8173  -8435  -8584  -8648  -8682  -8722  -8771  -8806  -8816  -8819  -8849  -8928  -9036  -9121  -9171  -9246  -9395  -9574  -9691  -9726  -9766  -9887  -10062  -10201  -10308  -10478  -10726  -10956  -11095  -11175  -11288  -11475  -11661  -11736  -11702  -11660  -11539  -10848  -9082  -6516  -3957  -1541  1466  5299  8812  10716  10984  10447  10028  10906  14140  19047  23253  25134  24738  22647  19786  17496  16519  16563  17052  17593  17924  17916  17577  17220  17596  18851  19382  17784  15294  14424  16797  22407  29141  32767  32767  31212  24991  18040  12255  9611  10955  14970  19039  20744  19048  14954  10914  8755  8375  8720  9071  9073  8353  6757  4858  3459  2646  2033  1620  2007  4086  8145  12868  16220  17452  17005  15136  11969  7991  3629  -844  -4765  -7297  -8357  -8602  -8646  -8754  -9016  -9475  -10092  -10673  -10987  -10918  -10489  -9903  -9470  -9363  -9581  -10052  -10595  -10978  -11093  -10977  -10759  -10718  -11239  -12676  -15092  -17988  -20593  -22479  -23555  -23847  -23557  -23096  -22865  -22947  -23081  -23071  -23018  -22996  -22734  -21865  -20436  -18869  -17455  -16348  -15539  -14323  -11698  -7822  -4245  -2340  -2211  -3248  -4794  -6256  -7250  -7782  -8337  -9540  -11318  -12749  -12766  -10809  -7247  -2751  2889  10192  18222  24480  26867  25105  20317  14047  7803  2872  -129  -1013  379  3060  4718  4133  2233  258  -1560  -3517  -5955  -9138  -12726  -15813  -17831  -18870  -19237  -19260  -19271  -19504  -20004  -20682  -21412  -21849  -21030  -17867  -12840  -8178  -5391  -3988  -2851  -1022  2524  7953  13825  18547  21831  24145  25636  26131  25855  25592  25828  26227  26491  27314  29705  32767  32767  32767  32767  32767  32767  32767  32767  32767  32767  32767  32767  32767  32767  32767  32767  32767  32767  32767  32767  32767  32767  32345  28142  23947  19511  15101  11439  9072  8537  11087  16926  23058  25281  22132  16319  12544  14091  20626  27734  29858  24675  14076  2282  -6984  -13005  -17895  -23920  -30922  -32768  -32768  -32768  -32768  -32768  -32768  -32768  -32768  -32768  -32768  -32768  -32768  -32768  -32768  -30936  -29363  -29147  -29343  -29407  -29241  -28944  -28608  -28229  -27830  -27365  -26309  -23804  -19836  -15858  -13442  -12786  -13164  -14060  -15477  -17679  -20809  -24782  -29389  -32768  -32768  -32768  -32768  -32768  -32768  -32768  -32768  -32768  -32768  -32768  -32768  -32768  -32768  -32768  -32768  -32768  -32768  -28856  -20844  -13689  -9729  -8896  -9250  -8167  -5479  -4042  -6729  -14628  -26328  -32768  -32768  -32768  -32768  -32768  -32768  -32768  -32768  -32768  -32768  -32768  -32768  -32768  -32768  -21957  -9378  -1716  1484  3026  4641  6437  7848  8412  7695  5264  1719  -1273  -2762  -3095  -2501  -183  4576  10713  16026  19441  21308  22332  23127  24020  24875  25364  25323  24808  24091  23551  23416  23758  24642  26107  28058  30161  31955  32767  32767  32767  32767  32767  32767  32534  32067  31456  30719  29992  29403  29008  28818  28811  28941  29175  29520  30034  30802  31784  32717  32767  32767  32767  32767  32767  32565  31832  31212  30711  30153  29555  29097  28828  28706  28723  28776  28641  28228  27654  27076  26621  26440  26700  27475  28579  29627  30338  30723  31023  31452  31935  32172  31968  31399  30745  30286  30154  30300  30529  30619  30443  29912  28977  27862  26982  26526  26406  26594  27231  28334  29530  30306  30372  29599  28159  26920  26877  28124  29982  31793  32767  32767  32767  32767  32767  32767  32767  32767  32767  32767  32767  32767  32767  32767  32767  32767  32767  32767  32767  32767  32767  32767  32767  32767  32767  32767  32767  32767  32767  32767  32767  32767  32767  32767  32767  32767  32767  32767  32767  22482  -5598  -29770  -32768  -32768  -32768  -32768  -32768  -32768  -32768  -32768  -32768  -32768  -32768  -32768  -32768  -32768  -32768  -32768  -32768  -32768  -32768  -32768  -32768  -32768  -32768  -32768  -32768  -32768  -32768  -32768  -32768  -32768  -32768  -32768  -32768  -32768  -32768  -32768  -32768  -32768  -32768  -32768  -32768  -32768  -32768  -32768  -32768  -32768  -32768  -32768  -32768  -32768  -32768  -32768  -32768  -32768  -32768  -32768  -32551  -31483  -30421  -29548  -28931  -28496  -28106  -27629  -26973  -26136  -25225  -24383  -23677  -23095  -22625  -22219  -21750  -21147  -20462  -19729  -19001  -18435  -18093  -17822  -17450  -16903  -16177  -15355  -14620  -14087  -13648  -13164  -12664  -12240  -11904  -11630  -11352  -10940  -10311  -9541  -8814  -8273  -7925  -7641  -7265  -6764  -6254  -5855  -5593  -5418  -5267  -5090  -4837  -4498  -4112  -3725  -3387  -3147  -3003  -2879  -2662  -2265  -1734  -1257  -973  -821  -606  -178  410  936  1293  1581  1890  2176  2397  2572  2737  2939  3176  3367  3466  3539  3674  3855  3984  3996  3863  3434  2400  718  -1029  -2138  -2361  -1632  139  2557  4664  5820  6213  6352  6483  6596  6691  6832  7018  7160  7210  7201  7181  7183  7242  7390  7609  7826  7977  8052  8069  8050  8018  7989  7967  7951  7935  7914  7891  7871  7855  7838  7827  7850  7929  8043  8123  8098  7942  7723  7566  7535  7606  7715  7802  7825  7738  7509  7202  6937  6761  6648  6578  6541  6514  6478  6439  6424  6436  6470  6526  6588  6626  6630  6608  6573  6547  6570  6683  6865  7032  7135  7251  7470  7754  7991  8166  8337  8507  8622  8664  8663  8652  8652  8659  8632  8504  8261  7998  7824  7759  7772  7847  7978  8103  8132  8056  7942  7836  7741  7653  7574  7523  7515  7530  7540  7520  7460  7364  7252  7155  7102  7086  7054  6959  6831  6738  6708  6712  6715  6702  6667  6617  6553  6471  6378  6299  6255  6234  6217  6197  6187  6181  6130  5965  5677  5352  5088  4924  4852  4837  4834  4813  4783  4753  4711  4649  4570  4474  4362  4247  4160  4108  4063  3990  3874  3715  3525  3297  3041  2789  2556  2362  2244  2209  2216  2224  2220  2209  2202  2207  2215  2197  2119  1978  1790  1552  1311  1207  1250  1257  1097  779  434  276  368  515  401  -309  -1811  -4007  -6572  -8993  -10663  -11129  -10217  -8221  -5970  -4267  -3311  -2870  -2712  -2725  -2866  -3100  -3355  -3565  -3743  -3946  -4188  -4431  -4621  -4749  -4864  -5027  -5231  -5416  -5580  -5826  -6257  -6859  -7465  -7862  -8026  -8119  -8247  -8408  -8653  -9070  -9568  -9912  -10009  -9967  -9930  -10047  -10462  -11204  -12096  -12909  -13551  -14053  -14450  -14793  -15171  -15610  -16050  -16479  -16945  -17467  -18031  -18631  -19196  -19595  -19831  -20034  -20289  -20617  -21016  -21395  -21625  -21696  -21702  -21720  -21764  -21825  -21900  -21935  -21733  -21100  -20198  -19549  -19614  -20489  -21773  -22796  -23216  -23064  -22361  -21160  -19717  -18408  -17586  -17609  -18915  -21529  -24403  -26209  -26754  -26780  -26827  -26976  -27252  -27734  -28403  -29168  -29907  -30351  -30251  -29712  -29076  -28411  -27430  -25995  -24332  -22812  -21787  -21324  -21021  -20283  -18401  -14093  -6027  5426  18049  29677  32767  32767  32767  32767  32767  32767  32767  32767  32767  32767  32767  32767  32767  32767  32767  32767  32767  32767  25195  18136  13892  11367  9299  7381  5709  4275  3076  1864  2  -2729  -5757  -8479  -10891  -13521  -16966  -21232  -25460  -28384  -29200  -28134  -26377  -25502  -25962  -25502  -20041  -7676  8111  20437  23183  13434  -5800  -25783  -32768  -32768  -32768  -32768  -32768  -32735  -26757  -18779  -11636  -7357  -5495  -4914  -4825  -4301  -2315  1238  5396  9344  12887  15966  18502  20315  21243  21537  21629  21640  21611  21795  22303  22904  23451  24130  25216  26863  29204  32367  32767  32767  32767  32767  32767  32767  32767  32487  30030  29247  29414  29908  30505  31071  31510  31846  32087  32104  31871  31594  31367  30984  30245  29192  27950  26609  25397  24622  24283  24084  23831  23473  22786  21521  19936  18676  18048  17740  17138  15847  14071  12376  11097  10183  9481  8952  8581  8163  7237  5248  2140  -1064  -3032  -3439  -2878  -2000  -1199  -597  -126  244  464  445  53  -825  -2017  -3025  -3527  -3642  -3572  -3235  -2300  -637  1212  2414  2744  2616  2469  2564  3020  3691  4217  4276  3667  2399  848  -454  -1280  -1741  -1966  -2002  -1970  -2141  -2817  -3999  -5273  -6290  -7225  -8461  -9875  -10920  -11378  -11473  -11364  -11024  -10488  -9922  -9494  -9355  -9664  -10425  -11333  -11965  -12047  -11396  -9957  -8204  -7110  -7167  -7794  -8228  -8319  -8017  -6923  -4975  -3027  -2004  -2281  -3982  -6588  -8876  -10174  -10739  -11005  -11268  -11627  -11872  -11800  -11491  -11041  -10319  -9162  -7698  -6340  -5354  -4729  -4433  -4525  -5023  -5746  -6381  -6756  -6901  -6924  -6972  -7175  -7528  -7855  -7983  -7932  -7900  -8011  -8168  -8321  -8773  -9874  -11363  -12485  -12726  -11956  -10235  -7967  -5935  -4777  -4488  -4673  -5059  -5496  -5814  -5862  -5512  -4749  -3854  -3199  -2823  -2458  -1934  -1379  -1026  -929  -979  -1082  -1182  -1218  -1163  -1044  -845  -374  547  1694  2512  2493  1297  -979  -3558  -5479  -6337  -6283  -5545  -4368  -3209  -2418  -1906  -1428  -896  -289  401  1050  1436  1399  933  256  -233  -138  745  2174  3497  4272  4568  4667  4845  5283  5934  6574  7009  7139  6843  6049  4998  4098  3492  3107  2951  3045  3290  3535  3696  3769  3720  3362  2539  1505  755  451  419  558  897  1426  2059  2660  3087  3305  3384  3366  3207  2856  2397  2002  1685  1221  459  -376  -871  -715  152  1351  2202  2294  1701  832  175  -60  21  293  695  1171  1661  2105  2413  2541  2541  2492  2458  2535  2851  3418  4021  4361  4181  3362  2162  1104  467  186  114  131  160  176  192  246  362  490  560  601  769  1167  1647  1871  1626  1036  447  113  41  94  130  17  -323  -818  -1281  -1643  -2034  -2632  -3457  -4302  -4906  -5181  -5162  -4778  -3960  -2976  -2314  -2220  -2619  -3259  -3819  -4111  -4176  -4084  -3754  -3071  -2100  -1058  -144  483  701  362  -646  -2060  -3266  -3915  -4115  -4085  -3991  -3965  -4069  -4279  -4525  -4713  -4724  -4398  -3635  -2587  -1626  -1007  -607  -29  992  2200  3042  3244  2827  1895  739  -252  -1100  -2329  -4186  -6063  -7163  -7379  -7126  -6758  -6361  -5888  -5390  -5029  -4861  -4857  -5158  -5975  -7111  -7922  -7830  -6710  -5073  -3752  -3148  -2980  -2438  -418  3379  7509  10096  10821  10643  10414  10465  10853  11503  12196  12642  12654  12249  11652  11109  10628  10086  9515  9077  8827  8607  8072  6878  4967  2582  159  -1699  -2634  -2905  -3186  -4090  -5704  -7570  -9166  -10023  -9635  -7988  -5749  -3559  -1695  -194  1290  3205  5301  6634  6381  4298  866  -2529  -4469  -4878  -4661  -4473  -4572  -4958  -5412  -5823  -6256  -6725  -7121  -7334  -7367  -7290  -7151  -6934  -6503  -5710  -4709  -3903  -3458  -3191  -3003  -3078  -3574  -4379  -5177  -5686  -5862  -5864  -5829  -5795  -5846  -6333  -7780  -10212  -12710  -14205  -14452  -13802  -12532  -10632  -8101  -5455  -3472  -2361  -1750  -1332  -1071  -896  -622  -216  141  288  115  -489  -1470  -2493  -3213  -3554  -3663  -3675  -3657  -3674  -3737  -3621  -2886  -1290  798  2737  4346  5885  7346  8352  8739  8747  8667  8615  8570  8512  8447  8278  7719  6597  5260  4329  4017  4050  4088  3979  3770  3578  3440  3333  3308  3554  4236  5163  5830  5858  5210  4178  3213  2596  2332  2301  2430  2732  3202  3804  4595  5614  6642  7337  7596  7586  7487  7379  7296  7329  7636  8276  9045  9634  9934  10037  10042  9939  9660  9203  8489  7208  5206  2896  997  -39  -237  253  1402  2994  4589  5840  6584  6858  6878  6827  6704  6394  5876  5183  4185  2918  1796  1051  659  566  514  165  -726  -2226  -4092  -6124  -8301  -10339  -11832  -12757  -13267  -13409  -13331  -13300  -13410  -13441  -12932  -11516  -9376  -7162  -5427  -4369  -3910  -3828  -3818  -3508  -2703  -1688  -1003  -908  -1274  -1790  -2153  -2284  -2319  -2382  -2455  -2489  -2544  -2728  -3008  -3241  -3347  -3326  -3125  -2672  -2048  -1461  -1046  -792  -648  -596  -597  -546  -332  21  351  522  504  311  -1  -221  92  1357  3304  4983  5766  5861  5741  5607  5405  5056  4623  4294  4175  4173  4119  3902  3444  2655  1568  495  -154  -192  350  1255  2107  2571  2660  2596  2537  2516  2501  2455  2355  2188  1967  1751  1515  1197  991  1203  2078  4147  7829  12335  15865  16641  13415  6377  -2123  -9150  -13378  -15174  -15317  -14302  -12510  -10257  -7737  -5407  -3891  -3334  -3334  -3454  -3509  -3509  -3511  -3518  -3383  -2822  -1685  -295  760  1228  1315  1250  957  239  -756  -1599  -2109  -2419  -2632  -2719  -2565  -2082  -1430  -954  -798  -849  -964  -1018  -789  -66  1000  2000  2769  3394  3842  3985  3834  3511  3084  2608  2223  2040  2033  2109  2168  2047  1567  794  93  -260  -311  -242  -150  -41  86  164  -2  -602  -1554  -2638  -3820  -5015  -5860  -6015  -5253  -3558  -1532  -60  636  1024  1389  1576  1480  1294  1248  1353  1535  1877  2484  3182  3651  3776  3656  3397  3085  2821  2664  2597  2587  2623  2681  2736  2760  2679  2389  1861  1238  748  506  468  542  647  719  715  577  199  -471  -1240  -1754  -1834  -1536  -1021  -499  -135  27  19  -134  -418  -787  -1220  -1740  -2319  -2836  -3195  -3382  -3442  -3435  -3402  -3361  -3321  -3294  -3285  -3287  -3286  -3289  -3347  -3504  -3728  -3949  -4139  -4304  -4417  -4381  -4023  -3256  -2215  -1156  -326  117  216  147  50  -20  -54  -56  -31  28  149  335  523  621  607  534  420  165  -328  -920  -1319  -1396  -1249  -1042  -904  -868  -895  -942  -978  -960  -830  -573  -278  -56  77  200  289  18  -1139  -3293  -5687  -7364  -8093  -8258  -8237  -8190  -8146  -8075  -7907  -7611  -7283  -7078  -6997  -6710  -5768  -4156  -2387  -874  423  1642  2692  3399  3712  3679  3366  2870  2340  1882  1538  1330  1222  1127  997  849  675  371  -175  -901  -1565  -1958  -1921  -1169  422  2321  3741  4526  5084  5644  6083  6338  6587  7022  7628  8212  8638  8944  9205  9326  9037  8139  6768  5419  4569  4238  4151  4143  4006  3228  1407  -1268  -4227  -6760  -8018  -7517  -5555  -2786  210  2793  4381  4975  5034  4892  4583  4056  3345  2592  1992  1647  1493  1403  1282  1108  916  699  427  152  -77  -318  -622  -934  -1168  -1296  -1353  -1398  -1456  -1505  -1501  -1378  -1028  -387  392  993  1240  1192  972  710  535  487  509  534  505  388  214  67  10  72  272  544  749  798  674  409  113  -83  -161  -179  -178  -164  -159  -218  -396  -683  -989  -1210  -1301  -1310  -1359  -1589  -2067  -2656  -3054  -3025  -2553  -1891  -1422  -1354  -1620  -2004  -2274  -2313  -2135  -1832  -1546  -1363  -1245  -1072  -720  -201  304  645  827  924  1005  1096  1185  1265  1337  1387  1423  1495  1687  2073  2582  3000  3187  3145  2897  2485  1991  1448  865  343  -44  -360  -661  -903  -1036  -1091  -1131  -1143  -973  -475  203  703  875  863  814  747  637  542  574  735  891  916  775  535  313  187  164  220  315  360  208  -230  -799  -1202  -1329  -1308  -1278  -1276  -1293  -1347  -1452  -1508  -1277  -607  283  948  1192  1170  1078  1008  998  1063  1150  1030  360  -912  -2298  -3224  -3602  -3607  -3125  -1866  -66  1463  2190  2237  1874  1245  571  141  44  172  388  578  654  582  387  151  24  252  1017  2075  2839  2950  2488  1805  1283  1058  1014  1023  1017  888  531  35  -329  -362  -39  484  936  1121  1059  892  707  460  60  -472  -988  -1342  -1517  -1573  -1560  -1494  -1414  -1433  -1642  -1953  -2193  -2312  -2379  -2457  -2546  -2586  -2424  -1924  -1221  -671  -452  -444  -479  -493  -492  -497  -519  -555  -564  -429  -48  468  871  1054  1089  1056  1004  952  836  570  212  -55  -126  -3  266  579  801  877  834  702  494  237  7  -121  -182  -321  -623  -1001  -1300  -1462  -1546  -1608  -1626  -1521  -1223  -728  -152  339  755  1273  1894  2356  2483  2368  2165  1889  1497  1066  733  540  417  360  606  1512  3050  4589  5483  5539  4811  3436  1709  -7  -1359  -2065  -2113  -1714  -1148  -665  -337  -79  159  352  476  538  540  453  260  0  -261  -487  -693  -898  -1047  -1039  -886  -701  -545  -463  -705  -1633  -3178  -4659  -5441  -5426  -4832  -3999  -3305  -2883  -2585  -2273  -1910  -1484  -967  -324  448  1377  2474  3492  3955  3656  2873  1995  1133  162  -1235  -3400  -6145  -8627  -9995  -9785  -7885  -4773  -1550  707  1601  1528  1200  1024  1010  1072  1187  1325  1419  1414  1305  1154  1045  1012  1028  1060  1081  1046  905  672  427  247  196  348  725  1193  1542  1673  1578  1252  779  353  91  -18  -18  45  116  172  216  254  276  264  204  109  24  -17  -23  -10  12  24  -31  -229  -576  -948  -1181  -1187  -944  -512  -56  328  725  1222  1760  2210  2494  2662  2841  3066  3259  3364  3411  3450  3478  3410  3175  2839  2538  2327  2160  1960  1676  1264  703  88  -443  -876  -1242  -1491  -1596  -1599  -1505  -1262  -827  -241  333  675  662  324  -154  -524  -654  -533  -165  336  710  669  0  -1211  -2505  -3460  -4030  -4343  -4472  -4457  -4365  -4278  -4234  -4222  -4210  -4153  -4030  -3882  -3699  -3261  -2330  -1074  -15  492  482  147  -307  -667  -830  -860  -849  -816  -714  -501  -236  -48  5  -35  -103  -80  268  1120  2273  3261  3855  4147  4258  4250  4193  4144  4106  4009  3680  2914  1709  391  -625  -1115  -1130  -847  -381  207  934  1933  3254  4536  5163  4805  3616  2085  972  866  1548  2150  1950  735  -1329  -3950  -6838  -9479  -11148  -11380  -9992  -7059  -3494  -692  784  1349  1515  1522  1485  1503  1659  1950  2238  2364  2276  2050  1782  1453  985  398  -193  -683  -1041  -1386  -1866  -2439  -2920  -3202  -3335  -3458  -3666  -3868  -3883  -3713  -3510  -3284  -2870  -2168  -1283  -469  58  297  413  514  589  622  635  655  692  760  860  980  1096  1146  1092  986  894  812  725  660  652  697  791  962  1181  1351  1422  1428  1401  1334  1233  1138  1082  1062  1072  1132  1264  1442  1619  1766  1837  1667  1052  72  -822  -1205  -991  -341  491  1214  1644  1947  2449  3128  3645  3853  3897  3884  3697  3182  2482  1961  1780  1817  1938  2099  2282  2480  2736  3109  3539  3895  4168  4408  4593  4710  4714  4263  2943  1022  -636  -1614  -2157  -2498  -2616  -2493  -2269  -2136  -2150  -2198  -2176  -2107  -2055  -2038  -2023  -1935  -1724  -1471  -1357  -1463  -1687  -1895  -2088  -2330  -2620  -2915  -3206  -3470  -3624  -3567  -3256  -2811  -2502  -2575  -3093  -3819  -4355  -4519  -4381  -4047  -3622  -3226  -2892  -2556  -2195  -1854  -1504  -1039  -418  274  918  1494  2040  2507  2800  2917  2944  2936  2838  2568  2192  1901  1790  1784  1748  1530  987  14  -1374  -2895  -4059  -4571  -4403  -3585  -2356  -1256  -646  -431  -385  -401  -421  -397  -340  -287  -259  -252  -250  -256  -287  -337  -392  -459  -570  -783  -1138  -1551  -1856  -1973  -1936  -1799  -1596  -1386  -1228  -1111  -983  -818  -612  -404  -251  -184  -267  -635  -1319  -2065  -2529  -2616  -2474  -2281  -2146  -2084  -2037  -1953  -1861  -1854  -2000  -2305  -2719  -3163  -3584  -3929  -4132  -4277  -4662  -5516  -6615  -7468  -7944  -8314  -8696  -8895  -8716  -8190  -7489  -6791  -6163  -5478  -4638  -3845  -3377  -3239  -3258  -3317  -3391  -3482  -3568  -3649  -3813  -4078  -4298  -4327  -4160  -3920  -3680  -3243  -2338  -1108  -46  585  907  1139  1410  1704  1961  2194  2388  2443  2332  2163  2049  2012  2016  2028  2032  2017  1987  1964  1958  1925  1872  1983  2451  3153  3723  3985  4048  4029  3896  3542  2986  2437  2090  1955  1925  1962  2178  2720  3599  4600  5376  5710  5644  5341  4941  4534  4210  4055  4065  4077  3816  3094  2125  1402  1165  1323  1744  2246  2592  2697  2645  2538  2496  2762  3640  5196  6996  8389  9112  9312  8951  7666  5338  2418  -261  -1917  -2340  -1718  -106  2478  5662  8573  10265  10316  8825  6390  4140  2921  2637  2739  2866  2900  2778  2463  2010  1477  813  0]
