reading_id,reading_time,wire_id,result_classification,heart_rate,heart_rate_alert,firmware_version,device_app_version,hardware_version,waveform_samples
5b150e60-5a55-11ed-8080-808080808080,Wed Nov 02 02:23:36 UTC 2022,e101e3752439,NSR,68,NONE,20001.171.50,2.10.0,Charge 5,[850  921  960  880  613  248  -22  -121  -117  -80  -38  -46  -164  -412  -735  -1033  -1259  -1457  -1679  -1899  -2029  -2051  -2025  -1995  -1965  -1945  -1984  -2142  -2386  -2595  -2705  -2746  -2741  -2704  -2644  -2554  -2465  -2418  -2403  -2398  -2392  -2382  -2376  -2380  -2386  -2388  -2401  -2429  -2456  -2460  -2437  -2393  -2329  -2229  -2089  -1935  -1831  -1858  -2018  -2219  -2361  -2402  -2310  -2069  -1775  -1613  -1673  -1857  -2017  -2104  -2147  -2164  -2145  -2086  -1992  -1887  -1811  -1780  -1781  -1794  -1801  -1791  -1765  -1737  -1700  -1629  -1513  -1378  -1272  -1207  -1178  -1195  -1267  -1351  -1366  -1285  -1162  -1040  -908  -768  -649  -571  -549  -583  -646  -704  -744  -791  -906  -1121  -1358  -1509  -1552  -1538  -1506  -1461  -1412  -1402  -1478  -1645  -1868  -2053  -2014  -1680  -1362  -1454  -1863  -2041  -1493  -79  1867  3578  4319  3872  2496  730  -891  -2131  -2906  -3111  -2772  -2147  -1570  -1255  -1192  -1249  -1334  -1425  -1498  -1519  -1476  -1381  -1258  -1163  -1139  -1194  -1307  -1421  -1466  -1405  -1240  -1047  -909  -838  -794  -746  -683  -617  -556  -501  -452  -411  -373  -339  -320  -334  -392  -472  -534  -559  -548  -495  -381  -221  -78  -7  16  84  260  458  543  548  591  672  736  805  912  1047  1184  1308  1415  1497  1560  1633  1715  1740  1622  1348  1032  806  685  598  498  383  261  114  -74  -275  -436  -539  -600  -611  -563  -495  -465  -482  -520  -549  -560  -564  -567  -568  -570  -579  -586  -565  -496  -405  -345  -333  -324  -251  -90  76  96  -115  -454  -718  -828  -851  -836  -730  -459  -99  161  228  138  -32  -214  -349  -411  -406  -355  -289  -243  -225  -225  -240  -283  -352  -417  -440  -409  -340  -233  -96  3  1  -94  -185  -155  -14  122  184  185  170  179  243  368  546  758  945  1025  952  744  476  254  156  186  280  344  331  267  194  131  85  43  -22  -97  -146  -168  -201  -263  -300  -272  -225  -161  140  967  2294  3750  4883  5268  4683  3345  1777  437  -437  -800  -793  -608  -350  -132  -33  1  17  -11  -59  -55  20  111  155  157  150  130  56  -85  -252  -376  -419  -388  -335  -296  -279  -272  -246  -168  -44  78  152  163  134  97  78  104  164  211  242  292  348  371  360  344  362  426  520  641  782  927  1085  1240  1333  1354  1367  1428  1527  1614  1669  1713  1754  1773  1753  1708  1666  1641  1631  1617  1558  1426  1263  1150  1113  1073  906  571  184  -82  -191  -235  -309  -432  -558  -616  -576  -481  -401  -359  -335  -316  -309  -335  -405  -493  -554  -578  -593  -616  -627  -602  -552  -514  -501  -497  -485  -468  -459  -469  -488  -498  -493  -476  -451  -391  -269  -113  5  56  56  10  -89  -222  -333  -395  -412  -396  -358  -295  -211  -135  -89  -61  -38  -20  -11  -14  -32  -57  -70  -58  -31  -3  22  54  98  158  226  269  273  282  352  467  562  617  664  714  744  755  724  587  367  187  110  87  54  -8  -74  -111  -118  -122  -151  -207  -243  -229  -188  -152  -112  -76  -141  -376  -634  -597  27  1308  2887  4105  4424  3695  2252  749  -291  -765  -785  -522  -217  -65  -96  -220  -313  -318  -284  -263  -250  -228  -216  -236  -269  -281  -261  -226  -200  -203  -244  -310  -369  -391  -378  -351  -331  -321  -306  -276  -250  -262  -351  -524  -680  -667  -493  -323  -258  -265  -273  -236  -153  -59  14  71  139  253  417  578  676  700  680  652  640  674  787  951  1103  1216  1278  1279  1255  1245  1254  1252  1195  1074  932  824  750  665  546  424  347  328  333  285  131  -86  -258  -345  -395  -458  -529  -549  -484  -374  -294  -268  -278  -294  -307  -318  -327  -327  -318  -302  -283  -261  -237  -223  -242  -310  -403  -492  -548  -512  -367  -189  -59  7  42  70  60  -22  -143  -229  -260  -260  -230  -153  -38  64  121  142  145  126  69  -28  -151  -288  -410  -469  -447  -382  -326  -291  -269  -251  -232  -208  -187  -176  -158  -130  -84  -5  93  169  206  215  210  222  246  207  82  -47  -145  -245  -351  -423  -450  -451  -434  -379  -283  -177  -96  -48  -60  -225  -569  -863  -836  -617  -546  -603  -387  363  1496  2625  3283  3108  2195  1009  -37  -767  -1177  -1325  -1279  -1082  -812  -602  -497  -449  -425  -404  -359  -297  -247  -226  -224  -227  -227  -233  -257  -312  -408  -519  -591  -597  -536  -399  -216  -51  55  107  130  152  158  57  -233  -611  -796  -625  -249  53  163  154  125  110  95  58  20  48  192  391  532  578  580  596  650  724  796  881  1011  1159  1263  1302  1304  1276  1197  1063  902  750  629  564  556  551  490  353  156  -57  -249  -413  -570  -724  -848  -910  -923  -933  -961  -985  -972  -902  -793  -678  -567  -479  -440  -467  -572  -741  -927  -1077  -1158  -1136  -975  -714  -481  -364  -342  -356  -390  -463  -564  -609  -543  -439  -391  -405  -431  -445  -446  -442  -437  -435  -449  -482  -522  -558  -583  -581  -546  -498  -456  -423  -388  -328  -249  -178  -130  -111  -104  -83  -38  29  104  162  198  230  278  343  394  413  419  437  470  502  528  559  582  528  334  41  -226  -394  -472  -491  -468  -394  -244  -24  150  147  35  -44  -97  -177  -211  85  968  2276  3511  4137  3789  2546  948  -420  -1204  -1297  -884  -322  111  323  374  361  327  292  275  297  372  473  548  573  570  560  548  539  553  617  720  800  824  823  829  840  855  870  888  907  907  857  761  666  615  615  650  696  726  731  725  724  737  781  877  1007  1122  1185  1197  1186  1189  1210  1230  1239  1241  1245  1279  1372  1533  1723  1873  1940  1947  1930  1845  1638  1373  1166  1046  971  882  733  539  371  271  224  178  73  -89  -219  -241  -179  -116  -96  -107  -136  -191  -277  -359  -415  -470  -523  -558  -590  -641  -703  -757  -792  -796  -755  -661  -522  -380  -278  -230  -229  -293  -442  -633  -768  -807  -791  -770  -758  -752  -750  -752  -755  -749  -723  -676  -611  -531  -463  -441  -452  -467  -485  -495  -465  -399  -345  -345  -394  -446  -477  -494  -506  -508  -485  -436  -388  -374  -376  -358  -326  -306  -302  -301  -299  -297  -307  -338  -380  -408  -409  -401  -431  -538  -690  -786  -765  -637  -470  -350  -310  -305  -266  -193  -162  -208  -267  -283  -275  -292  -371  -512  -693  -881  -1020  -1078  -1079  -1075  -1111  -1180  -1240  -1289  -1282  -1136  -941  -893  -1070  -1368  -1454  -933  312  1995  3519  4237  3789  2349  492  -1193  -2337  -2806  -2700  -2260  -1710  -1225  -930  -831  -823  -833  -857  -903  -936  -921  -877  -850  -883  -1001  -1166  -1284  -1293  -1192  -1036  -895  -807  -769  -777  -834  -931  -1033  -1105  -1138  -1131  -1076  -986  -892  -817  -766  -729  -693  -640  -563  -472  -396  -360  -341  -287  -196  -123  -100  -108  -103  -52  42  150  244  324  433  628  878  1067  1142  1139  1069  911  713  591  606  698  786  855  926  967  936  839  695  524  351  172  -30  -213  -313  -334  -319  -304  -306  -341  -409  -465  -428  -295  -194  -224  -333  -414  -420  -378  -334  -312  -292  -247  -181  -136  -145  -181  -204  -208  -205  -204  -206  -210  -216  -232  -267  -314  -352  -373  -387  -392  -387  -366  -328  -282  -242  -213  -199  -198  -205  -217  -248  -303  -363  -404  -423  -418  -409  -423  -447  -461  -470  -478  -477  -437  -335  -202  -86  0  44  37  15  17  41  66  79  80  80  85  98  101  52  -69  -198  -235  -181  -92  11  116  213  312  400  450  468  472  455  394  307  256  291  384  441  460  583  843  1072  1152  1118  1038  922  733  481  244  95  35  29  51  86  118  146  176  180  75  -182  -529  -808  -769  -148  1166  3034  4999  6369  6555  5452  3498  1384  -273  -1112  -1141  -767  -433  -260  -174  -118  -73  -62  -114  -204  -292  -350  -328  -224  -127  -87  -71  -32  29  78  98  107  114  89  -6  -156  -269  -271  -155  12  142  195  198  184  172  180  234  344  497  650  740  736  659  561  486  455  493  640  884  1126  1278  1346  1395  1457  1515  1566  1643  1756  1878  1981  2063  2135  2208  2279  2328  2291  2113  1858  1649  1523  1450  1394  1321  1203  1031  823  601  393  249  192  193  214  229  210  121  -33  -208  -367  -495  -583  -644  -701  -749  -761  -724  -658  -607  -587  -578  -574  -607  -695  -805  -887  -921  -902  -824  -700  -582  -515  -496  -503  -539  -619  -716  -770  -767  -746  -741  -754  -756  -726  -678  -636  -609  -600  -619  -669  -746  -835  -908  -932  -896  -831  -779  -756  -741  -698  -620  -548  -558  -697  -912  -1085  -1152  -1150  -1140  -1159  -1196  -1189  -1081  -905  -762  -708  -732  -801  -873  -923  -954  -963  -929  -848  -753  -683  -645  -622  -610  -605  -586  -569  -612  -713  -796  -799  -730  -650  -583  -482  -338  -206  -126  -101  -111  -129  -140  -144  -128  -82  -13  47  70  18  -137  -347  -502  -560  -559  -539  -513  -482  -463  -461  -419  -320  -332  -580  -864  -800  -122  1121  2640  4099  5157  5533  5084  3699  1583  -526  -1899  -2219  -1641  -736  -95  79  -46  -235  -389  -497  -517  -415  -249  -119  -52  -12  1  -42  -145  -275  -394  -472  -464  -341  -148  15  91  70  -41  -195  -320  -388  -422  -434  -415  -363  -287  -181  -43  80  150  180  194  207  241  319  439  568  651  667  619  521  409  343  393  609  926  1190  1311  1336  1358  1425  1496  1486  1380  1249  1170  1162  1183  1185  1154  1100  1030  951  865  741  550  319  112  -34  -123  -168  -182  -182  -198  -250  -326  -396  -453  -512  -570  -610  -622  -614  -609  -625  -636  -595  -487  -353  -255  -207  -173  -132  -106  -133  -220  -298  -276  -162  -51  7  44  77  66  -41  -230  -405  -495  -501  -457  -387  -313  -243  -181  -149  -171  -232  -301  -345  -358  -361  -366  -365  -360  -357  -351  -336  -317  -308  -312  -317  -315  -315  -323  -335  -344  -365  -410  -450  -411  -251  -26  162  287  378  448  494  513  482  364  167  -29  -149  -190  -199  -220  -268  -332  -392  -454  -539  -639  -711  -705  -585  -367  -179  -197  -494  -936  -1260  -1179  -444  1033  2977  4799  5876  5838  4765  3106  1336  -166  -1128  -1534  -1604  -1510  -1276  -966  -711  -577  -530  -499  -454  -447  -515  -617  -707  -779  -826  -815  -713  -528  -338  -228  -207  -232  -265  -290  -309  -316  -278  -159  6  133  184  176  109  -27  -186  -275  -262  -198  -143  -102  -56  5  95  232  397  542  644  721  795  865  932  1004  1040  1001  936  916  956  1029  1093  1120  1116  1098  1078  1062  1053  1048  1019  928  773  605  483  425  366  197  -107  -456  -724  -855  -880  -864  -852  -849  -843  -819  -793  -814  -897  -982  -1016  -1008  -985  -962  -938  -912  -895  -892  -895  -885  -849  -799  -761  -746  -745  -750  -756  -761  -766  -769  -769  -767  -765  -771  -792  -823  -845  -832  -774  -691  -617  -553  -475  -388  -325  -302  -315  -350  -384  -410  -447  -505  -549  -551  -526  -496  -459  -406  -336  -269  -220  -188  -172  -170  -171  -169  -169  -173  -183  -197  -206  -198  -167  -127  -118  -149  -178  -158  -106  -73  -106  -236  -429  -599  -696  -735  -727  -659  -580  -613  -806  -1001  -1079  -1117  -1131  -927  -258  984  2668  4398  5618  5893  5094  3432  1391  -460  -1632  -1893  -1455  -806  -343  -219  -323  -442  -480  -453  -399  -349  -321  -320  -350  -412  -489  -546  -560  -537  -485  -395  -261  -105  23  100  113  50  -57  -139  -170  -172  -164  -142  -115  -101  -109  -133  -160  -192  -233  -259  -196  7  291  511  600  606  593  580  568  563  590  694  866  1049  1198  1300  1366  1411  1460  1536  1636  1673  1533  1264  1050  978  981  964  892  803  728  658  590  524  433  292  103  -86  -211  -280  -362  -478  -565  -563  -462  -319  -204  -137  -92  -63  -67  -128  -247  -374  -452  -474  -467  -438  -359  -204  -27  75  85  56  26  1  -18  -38  -62  -86  -101  -108  -119  -147  -186  -216  -238  -272  -308  -332  -349  -364  -371  -346  -289  -281  -393  -555  -652  -645  -563  -458  -385  -353  -330  -302  -280  -266  -246  -224  -247  -357  -511  -622  -660  -662  -667  -683  -695  -684  -646  -567  -439  -313  -219  -122  3  143  250  267  194  99  49  54  77  85  80  71  39  -58  -233  -424  -546  -570  -536  -498  -478  -480  -510  -587  -716  -870  -961  -856  -582  -312  25  715  1838  3247  4670  5605  5503  4240  2270  317  -1015  -1493  -1301  -897  -695  -775  -919  -937  -839  -705  -598  -548  -531  -500  -432  -354  -332  -416  -541  -590  -556  -529  -561  -628  -645  -581  -506  -479  -492  -508  -477  -352  -154  8  38  -39  -128  -172  -165  -86  94  339  549  670  717  720  691  632  568  540  564  630  715  800  913  1098  1320  1498  1615  1708  1749  1686  1540  1376  1243  1172  1173  1230  1293  1317  1300  1263  1195  1077  919  755  613  481  332  163  2  -121  -183  -192  -200  -247  -347  -509  -703  -846  -894  -865  -783  -683  -615  -593  -597  -608  -643  -724  -829  -903  -927  -929  -925  -899  -827  -733  -680  -708  -795  -882  -930  -939  -919  -862  -763  -652  -574  -545  -552  -585  -650  -730  -797  -850  -907  -950  -943  -876  -759  -632  -548  -508  -468  -422  -418  -501  -649  -774  -799  -744  -686  -658  -628  -570  -524  -556  -638  -676  -650  -596  -532  -477  -453  -453  -460  -464  -462  -455  -445  -438  -437  -441  -446  -454  -473  -505  -541  -557  -540  -497  -457  -422  -362  -265  -144  -50  -53  -139  -204  -180  -105  -37  34  161  309  364  264  40  -220  -409  -474  -453  -410  -385  -357  -264  -132  -127  -309  -533  -720  -810  -521  411  1966  3902  5737  6717  6332  4804  2727  667  -754  -1217  -1078  -856  -683  -505  -356  -287  -282  -308  -359  -419  -452  -428  -352  -271  -235  -244  -273  -308  -335  -329  -278  -198  -125  -73  -35  -8  3  7  21  48  90  149  207  238  246  250  263  289  324  357  371  368  356  347  350  363  372  372  380  430  549  724  891  991  1048  1147  1315  1483  1579  1603  1600  1608  1638  1677  1705  1712  1704  1691  1665  1603  1472  1251  941  595  308  122  8  -77  -167  -263  -339  -368  -365  -348  -319  -266  -176  -58  31  25  -101  -294  -458  -542  -566  -565  -558  -550  -535  -517  -511  -530  -542  -486  -360  -267  -285  -378  -456  -487  -490  -488  -468  -404  -299  -184  -77  17  79  83  14  -130  -317  -484  -578  -596  -567  -520  -476  -423  -345  -268  -203  -136  -75  -31  -13  -33  -108  -242  -394  -502  -553  -571  -549  -476  -374  -279  -223  -192  -141  -113  -185  -306  -384  -417  -441  -470  -499  -518  -520  -498  -451  -386  -298  -179  -77  -58  -110  -160  -179  -195  -237  -297  -346  -377  -406  -436  -468  -522  -598  -667  -706  -719  -723  -722  -687  -592  -455  -333  -254  -214  -202  -208  -221  -230  -226  -205  -159  -81  14  98  148  152  81  -84  -325  -566  -717  -764  -756  -722  -655  -572  -525  -557  -671  -826  -996  -1201  -1428  -1475  -1070  -133  1311  3128  4813  5809  5887  5012  3388  1527  -97  -1186  -1594  -1465  -1116  -748  -513  -507  -625  -707  -727  -727  -728  -705  -600  -373  -89  107  130  5  -171  -297  -343  -337  -297  -208  -83  34  117  169  198  204  179  129  74  43  54  113  222  351  448  496  523  545  561  575  590  607  626  649  679  722  793  913  1063  1180  1235  1249  1262  1310  1402  1536  1704  1857  1935  1922  1847  1741  1623  1513  1419  1350  1303  1243  1124  970  855  805  749  586  288  -64  -353  -510  -554  -549  -536  -547  -600  -656  -662  -611  -519  -427  -384  -390  -401  -401  -406  -454  -561  -687  -770  -797  -803  -814  -825  -804  -722  -602  -499  -439  -405  -383  -379  -405  -476  -595  -727  -816  -851  -858  -853  -811  -701  -546  -414  -344  -320  -323  -362  -461  -608  -747  -844  -912  -961  -943  -796  -539  -277  -100  -34  -78  -227  -422  -560  -599  -570  -517  -463  -421  -396  -371  -327  -276  -249  -248  -252  -255  -269  -309  -365  -407  -423  -428  -441  -475  -523  -560  -575  -573  -559  -528  -460  -354  -264  -205  -121  -22  34  42  14  -55  -175  -314  -416  -453  -447  -424  -400  -383  -378  -393  -435  -477  -446  -280  -31  171  261  279  280  284  287  283  260  227  205  177  111  30  -51  -146  -229  -280  -312  -330  -330  -336  -397  -545  -709  -765  -704  -624  -585  -588  -631  -689  -673  -413  269  1446  3027  4677  5858  6119  5288  3530  1382  -413  -1361  -1566  -1436  -1177  -870  -654  -586  -597  -598  -532  -425  -359  -373  -443  -508  -510  -450  -380  -338  -310  -263  -192  -145  -157  -205  -256  -298  -326  -335  -329  -312  -281  -218  -121  -30  29  82  144  207  263  313  366  406  417  420  438  477  539  615  692  778  887  1005  1119  1233  1333  1394  1418  1428  1451  1503  1570  1620  1636  1620  1587  1560  1557  1561  1528  1448  1364  1316  1281  1180  950  627  337  166  91  33  -78  -255  -440  -573  -638  -661  -672  -682  -677  -637  -569  -513  -483  -469  -464  -487  -558  -654  -719  -720  -666  -590  -518  -457  -413  -393  -395  -411  -426  -431  -436  -465  -524  -588  -597  -513  -374  -264  -224  -256  -354  -487  -601  -667  -692  -684  -642  -577  -515  -478  -463  -459  -461  -471  -496  -539  -581  -599  -594  -580  -564  -550  -538  -530  -527  -522  -503  -477  -444  -388  -327  -332  -459  -664  -834  -897  -834  -655  -429  -261  -204  -254  -408  -618  -779  -799  -670  -481  -335  -256  -208  -170  -146  -149  -199  -297  -407  -481  -506  -503  -480  -427  -343  -237  -147  -136  -192  -208  -151  -89  -76  -119  -178  -206  -205  -191  -154  -81  7  69  94  107  114  84  -25  -209  -400  -536  -603  -615  -605  -609  -636  -659  -666  -667  -678  -703  -738  -752  -741  -761  -765  -494  337  1794  3655  5398  6357  6129  4804  2861  927  -543  -1347  -1507  -1290  -980  -702  -508  -419  -399  -405  -426  -479  -570  -659  -688  -628  -496  -332  -175  -65  -28  -27  2  73  132  145  138  112  -8  -225  -409  -477  -457  -382  -251  -76  78  155  162  149  171  252  363  445  473  465  447  439  475  586  750  904  1013  1084  1139  1207  1319  1459  1577  1655  1702  1724  1737  1769  1824  1845  1782  1665  1560  1476  1376  1249  1119  987  852  731  610  462  303  179  100  17  -118  -324  -573  -788  -906  -944  -949  -939  -887  -756  -567  -409  -347  -377  -452  -525  -575  -603  -593  -537  -458  -392  -374  -398  -444  -502  -556  -585  -576  -523  -462  -430  -430  -444  -453  -450  -441  -435  -440  -450  -444  -407  -341  -266  -217  -206  -207  -207  -216  -246  -288  -304  -280  -263  -288  -332  -372  -403  -422  -418  -392  -361  -340  -326  -303  -263  -242  -272  -327  -379  -460  -601  -750  -795  -672  -448  -259  -166  -134  -132  -154  -203  -279  -388  -518  -628  -686  -695  -674  -632  -579  -533  -491  -402  -197  97  353  486  508  456  360  260  187  145  107  43  -70  -214  -303  -284  -207  -160  -169  -193  -205  -236  -312  -423  -528  -627  -734  -662  -94  1017  2464  3980  5122  5414  4697  3109  996  -1028  -2286  -2488  -1903  -1048  -348  -21  -21  -132  -206  -228  -232  -237  -265  -341  -447  -534  -569  -542  -451  -329  -233  -186  -159  -115  -49  16  74  115  131  145  183  226  247  248  245  245  249  249  240  237  287  425  594  675  632  533  445  392  386  461  643  889  1097  1212  1284  1381  1507  1611  1661  1669  1661  1647  1627  1611  1608  1611  1615  1647  1729  1810  1823  1747  1559  1235  847  533  355  246  110  -85  -291  -446  -539  -598  -652  -720  -812  -890  -881  -790  -705  -700  -773  -852  -851  -771  -677  -617  -597  -599  -581  -541  -537  -620  -764  -884  -922  -892  -846  -800  -731  -633  -523  -412  -320  -282  -331  -481  -689  -866  -963  -996  -998  -961  -846  -648  -446  -328  -300  -297  -261  -198  -162  -210  -356  -525  -611  -627  -662  -722  -764  -789  -812  -829  -814  -744  -619  -501  -446  -439  -439  -440  -451  -476  -509  -550  -595  -627  -634  -628  -622  -617  -616  -624  -653  -697  -721  -704  -671  -666  -713  -800  -886  -942  -959  -910  -761  -540  -338  -225  -183  -136  -36  75  137  150  148  150  143  97  0  -115  -198  -235  -246  -250  -263  -300  -373  -469  -578  -705  -810  -814  -673  -447  -329  -446  -735  -1081  -1338  -1209  -344  1342  3449  5227  6004  5528  4053  2194  515  -704  -1341  -1412  -1152  -817  -585  -544  -616  -676  -688  -669  -638  -618  -631  -676  -722  -747  -757  -757  -727  -644  -523  -419  -370  -369  -380  -363  -307  -239  -193  -178  -179  -183  -191  -209  -231  -238  -212  -143  -33  95  217  312  379  447  553  688  809  883  905  895  881  896  975  1120  1291  1450  1594  1716  1795  1823  1822  1815  1811  1817  1836  1863  1888  1902  1890  1833  1720  1558  1367  1192  1081  1036  983  834  592  325  70  -149  -316  -461  -605  -703  -696  -576  -409  -293  -273  -312  -342  -317  -267  -261  -310  -363  -393  -414  -437  -454  -465  -481  -510  -549  -586  -608  -604  -572  -525  -492  -501  -564  -660  -756  -822  -820  -724  -581  -479  -447  -452  -448  -415  -376  -377  -431  -513  -587  -626  -616  -557  -476  -419  -411  -444  -492  -526  -538  -534  -517  -485  -445  -410  -394  -391  -380  -360  -352  -373  -415  -456  -475  -464  -447  -437  -417  -380  -343  -320  -324  -333  -309  -253  -190  -135  -98  -77  -69  -106  -232  -426  -593  -665  -652  -584  -484  -348  -178  -34  -8  -140  -358  -512  -528  -465  -372  -228  -50  81  132  134  112  44  -86  -244  -373  -439  -427  -348  -238  -120  -10  65  99  98  78  40  -25  -118  -220  -313  -389  -454  -516  -569  -598  -603  -602  -608  -620  -596  -479  -343  -386  -646  -841  -517  630  2458  4397  5820  6322  5802  4491  2772  957  -562  -1368  -1459  -1151  -671  -281  -205  -322  -427  -514  -602  -669  -703  -702  -667  -608  -531  -431  -296  -142  -25  20  -16  -140  -304  -426  -472  -470  -462  -455  -414  -292  -107  68  193  274  315  323  313  293  266  241  259  346  460  562  655  719  742  758  786  831  910  1026  1167  1331  1496  1618  1683  1721  1764  1819  1871  1896  1881  1846  1803  1736  1653  1577  1498  1390  1244  1068  896  783  724  643  463  187  -98  -291  -369  -384  -375  -353  -352  -413  -520  -610  -629  -588  -541  -509  -474  -432  -413  -445  -520  -598  -644  -653  -642  -628  -629  -650  -676  -694  -695  -670  -611  -529  -455  -406  -387  -416  -505  -612  -682  -704  -699  -667  -593  -492  -421  -408  -440  -495  -562  -627  -671  -658  -561  -424  -323  -259  -184  -111  -110  -184  -247  -243  -205  -190  -209  -231  -246  -259  -272  -288  -318  -374  -436  -468  -454  -406  -341  -277  -225  -189  -171  -165  -153  -130  -100  -73  -58  -60  -81  -117  -163  -216  -260  -286  -312  -344  -373  -404  -436  -460  -465  -441  -376  -280  -185  -130  -134  -200  -308  -415  -474  -465  -395  -298  -219  -185  -205  -280  -370  -398  -332  -237  -210  -264  -330  -363  -375  -380  -355  -271  -153  -67  -51  -101  -192  -290  -357  -359  -290  -177  -56  46  118  155  153  121  110  177  319  455  474  315  38  -235  -439  -567  -630  -658  -678  -697  -717  -741  -763  -753  -664  -499  -357  -357  -531  -763  -734  -80  1294  3142  4947  6047  5985  4828  3027  1113  -396  -1148  -1195  -896  -586  -459  -512  -598  -613  -559  -454  -337  -283  -352  -526  -717  -846  -886  -842  -722  -557  -407  -316  -291  -311  -340  -367  -405  -454  -486  -467  -393  -308  -224  -84  68  43  -181  -394  -447  -366  -229  -80  72  210  293  311  295  279  303  398  554  716  832  887  895  892  919  1015  1216  1515  1818  2009  2064  2055  2040  2020  1952  1805  1606  1417  1278  1183  1079  933  771  628  506  395  285  187  129  108  59  -72  -254  -394  -450  -449  -434  -438  -489  -574  -663  -749  -834  -891  -894  -834  -731  -629  -565  -542  -543  -549  -553  -554  -546  -521  -485  -471  -508  -577  -647  -708  -734  -706  -636  -524  -391  -288  -250  -265  -303  -348  -405  -465  -509  -526  -503  -435  -339  -247  -176  -122  -77  -41  -43  -124  -273  -420  -517  -558  -568  -568  -555  -507  -412  -301  -247  -281  -351  -387  -365  -299  -234  -197  -179  -172  -192  -262  -369  -468  -527  -543  -521  -449  -328  -186  -61  8  4  -67  -166  -238  -259  -256  -268  -322  -399  -450  -446  -377  -252  -120  -5  111  210  253  252  240  232  229  230  231  234  239  242  219  139  1  -151  -266  -321  -330  -333  -359  -404  -442  -457  -442  -379  -277  -249  -448  -899  -1373  -1401  -644  833  2737  4554  5612  5525  4388  2593  686  -809  -1625  -1799  -1541  -1104  -710  -495  -472  -539  -592  -607  -596  -577  -562  -539  -492  -398  -240  -55  78  116  58  -82  -263  -416  -502  -523  -488  -406  -296  -190  -118  -75  -16  79  180  243  275  298  307  306  322  385  507  656  760  787  771  770  830  971  1151  1294  1361  1371  1377  1422  1526  1666  1793  1894  1980  2052  2099  2121  2126  2125  2124  2129  2137  2133  2082  1928  1628  1224  832  497  198  -36  -171  -239  -295  -350  -401  -465  -542  -601  -623  -633  -651  -671  -696  -743  -813  -881  -924  -934  -937  -999  -1159  -1325  -1336  -1175  -978  -844  -768  -711  -662  -616  -557  -499  -483  -543  -685  -853  -975  -1025  -1036  -1041  -1044  -1033  -985  -877  -729  -596  -518  -493  -495  -502  -502  -495  -481  -467  -479  -554  -691  -795  -786  -701  -629  -606  -610  -592  -508  -364  -211  -92  -20  -2  -62  -229  -454  -616  -653  -597  -515  -458  -438  -446  -477  -527  -569  -570  -530  -484  -475  -506  -543  -576  -624  -682  -721  -730  -718  -705  -696  -674  -647  -632  -636  -660  -692  -716  -720  -708  -691  -677  -671  -682  -714  -758  -798  -823  -827  -799  -726  -602  -453  -340  -301  -320  -370  -425  -463  -463  -403  -293  -173  -65  33  124  215  327  440  486  439  337  219  91  -50  -189  -291  -337  -341  -337  -360  -434  -539  -625  -666  -674  -661  -603  -478  -357  -377  -596  -907  -985  -418  852  2499  4165  5497  6123  5878  4843  3235  1440  -74  -996  -1268  -1064  -683  -383  -298  -410  -566  -646  -656  -646  -627  -582  -493  -362  -232  -164  -168  -200  -228  -257  -302  -361  -415  -449  -463  -454  -393  -266  -129  -55  -41  -36  -22  -2  37  114  203  246  207  119  51  51  153  365  620  798  853  835  804  803  879  1056  1269  1410  1445  1431  1436  1502  1624  1785  1994  2227  2397  2448  2367  2165  1925  1762  1689  1639  1574  1502  1422  1295  1072  769  465  245  139  105  69  3  -75  -161  -265  -395  -541  -646  -636  -516  -377  -289  -266  -290  -331  -372  -407  -429  -426  -397  -352  -304  -257  -217  -204  -244  -349  -482  -587  -658  -717  -762  -782  -761  -681  -565  -473  -438  -441  -454  -443  -398  -354  -365  -448  -562  -656  -714  -755  -790  -803  -770  -690  -599  -542  -531  -545  -562  -571  -571  -567  -564  -537  -451  -307  -134  -9  -51  -245  -427  -485  -443  -374  -329  -312  -304  -303  -347  -473  -640  -754  -779  -755  -721  -655  -505  -280  -81  16  21  -24  -99  -197  -313  -420  -480  -457  -324  -115  69  140  79  -73  -237  -343  -391  -423  -462  -472  -416  -317  -232  -191  -174  -135  -57  3  -22  -143  -310  -441  -463  -400  -335  -290  -207  -41  178  374  475  432  229  -58  -290  -399  -428  -441  -474  -531  -594  -636  -632  -573  -476  -392  -375  -440  -551  -673  -826  -1035  -1220  -1228  -921  -164  1158  2994  4953  6377  6756  5989  4320  2276  472  -715  -1235  -1265  -1047  -764  -589  -583  -613  -580  -522  -469  -430  -408  -395  -391  -399  -419  -439  -457  -478  -503  -531  -562  -583  -587  -590  -601  -587  -492  -326  -168  -76  -41  -28  -9  20  53  87  97  61  0  -34  4  105  233  384  557  716  829  899  951  993  1013  1017  1032  1079  1188  1367  1558  1689  1749  1783  1827  1875  1915  1946  1967  1972  1954  1892  1747  1498  1223  1041  973  920  767  485  157  -115  -327  -505  -629  -678  -678  -667  -655  -629  -587  -548  -538  -575  -667  -813  -982  -1120  -1185  -1190  -1176  -1170  -1171  -1178  -1183  -1171  -1120  -1029  -917  -806  -709  -637  -595  -585  -596  -617  -630  -632  -641  -646  -627  -596  -595  -656  -770  -890  -932  -828  -622  -437  -343  -323  -335  -347  -348  -345  -365  -429  -517  -583  -613  -630  -642  -641  -626  -606  -570  -489  -374  -292  -271  -265  -243  -191  -114  -77  -118  -180  -211  -219  -229  -253  -283  -308  -323  -327  -320  -300  -269  -235  -211  -189  -150  -100  -66  -66  -104  -169  -212  -206  -179  -147  -119  -125  -150  -161  -170  -191  -202  -186  -163  -166  -192  -214  -224  -254  -333  -430  -477  -455  -395  -322  -253  -209  -177  -110  3  124  203  230  228  220  224  247  282  312  330  339  336  302  217  84  -56  -174  -276  -358  -417  -454  -470  -511  -598  -655  -637  -588  -567  -615  -716  -851  -996  -994  -561  540  2297  4252  5716  6187  5503  3805  1578  -448  -1789  -2335  -2136  -1496  -891  -561  -471  -488  -501  -474  -416  -338  -243  -166  -167  -258  -387  -495  -548  -535  -464  -369  -301  -287  -316  -362  -391  -365  -260  -111  8  63  68  47  28  52  154  300  420  489  522  532  521  501  482  467  459  485  592  796  1043  1242  1342  1371  1383  1394  1390  1384  1442  1617  1863  2090  2261  2348  2326  2223  2118  2077  2083  2066  1987  1845  1669  1497  1326  1114  876  689  578  481  334  145  -24  -130  -187  -241  -339  -518  -763  -978  -1079  -1061  -963  -822  -681  -583  -521  -451  -366  -303  -282  -290  -312  -339  -365  -395  -446  -528  -616  -675  -700  -711  -717  -697  -611  -471  -342  -271  -249  -247  -254  -290  -371  -476  -558  -600  -619  -629  -633  -626  -606  -571  -524  -474  -440  -426  -417  -417  -463  -591  -764  -894  -941  -938  -914  -868  -799  -724  -664  -630  -619  -618  -608  -576  -525  -470  -428  -405  -406  -432  -475  -521  -561  -597  -634  -669  -681  -646  -574  -496  -436  -412  -415  -407  -353  -242  -85  91  250  352  393  399  386  336  219  15  -241  -466  -600  -654  -667  -643  -567  -452  -358  -348  -411  -484  -548  -639  -806  -1043  -1231  -1201  -874  -225  829  2315  3994  5389  5960  5310  3483  1110  -964  -2168  -2372  -1892  -1234  -722  -468  -471  -590  -665  -662  -627  -610  -628  -652  -661  -669  -688  -695  -612  -379  -89  75  59  -49  -170  -238  -223  -172  -140  -132  -135  -138  -142  -143  -134  -108  -70  -31  4  42  101  224  422  619  737  777  782  778  777  788  810  840  881  952  1075  1242  1418  1560  1649  1718  1827  1975  2101  2167  2188  2189  2174  2141  2094  2048  1996  1869  1602  1267  1027  930  862  703  427  117  -129  -305  -439  -524  -567  -602  -633  -630  -591  -560  -579  -649  -748  -836  -860  -788  -653  -528  -466  -456  -453  -440  -436  -466  -529  -583  -588  -549  -504  -476  -463  -460  -475  -521  -588  -634  -605  -471  -283  -145  -121  -204  -354  -513  -629  -669  -654  -622  -583  -528  -448  -356  -295  -301  -368  -458  -520  -530  -498  -455  -426  -410  -379  -312  -236  -216  -294  -426  -526  -558  -547  -533  -535  -548  -546  -519  -483  -448  -409  -368  -339  -332  -344  -368  -396  -422  -442  -467  -513  -574  -607  -564  -458  -336  -230  -158  -130  -144  -185  -229  -266  -305  -350  -390  -420  -438  -424  -357  -241  -108  14  108  166  185  169  134  89  45  18  11  12  5  -13  -30  -42  -60  -84  -112  -158  -228  -310  -398  -488  -570  -625  -655  -680  -712  -766  -853  -953  -971  -694  135  1590  3430  5118  6074  6013  4997  3369  1647  285  -520  -829  -776  -531  -354  -399  -547  -641  -667  -678  -690  -672  -605  -508  -412  -354  -347  -373  -401  -408  -395  -402  -466  -569  -648  -668  -644  -604  -557  -480  -344  -165  -11  50  8  -74  -125  -110  -14  146  329  484  570  570  499  401  330  317  369  477  622  783  946  1090  1192  1268  1344  1422  1503  1602  1711  1778  1791  1813  1874  1934  1966  1988  2000  1933  1704  1341  990  767  675  652  619  507  276  -35  -322  -500  -570  -576  -543  -477  -396  -336  -320  -345  -399  -473  -563  -649  -700  -695  -631  -543  -481  -477  -527  -603  -672  -719  -736  -720  -689  -648  -581  -499  -436  -401  -373  -333  -284  -244  -227  -243  -300  -379  -448  -505  -557  -590  -596  -587  -579  -579  -581  -567  -539  -523  -529  -546  -564  -573  -569  -561  -560  -564  -566  -547  -496  -435  -407  -417  -438  -449  -439  -430  -449  -485  -513  -520  -510  -499  -505  -530  -548  -533  -491  -451  -420  -398  -379  -362  -350  -350  -366  -392  -410  -412  -413  -413  -402  -379  -359  -360  -374  -353  -259  -117  11  81  77  4  -107  -208  -268  -298  -319  -335  -348  -374  -432  -518  -557  -457  -253  -90  -41  -62  -93  -114  -131  -147  -151  -129  -82  -33  6  56  127  213  284  301  271  224  169  121  91  69  34  -35  -150  -290  -422  -515  -557  -562  -545  -509  -458  -399  -327  -237  -139  -84  -201  -598  -1122  -1346  -875  445  2435  4531  6068  6675  6265  4938  3042  1089  -451  -1284  -1406  -1129  -817  -620  -509  -453  -447  -464  -474  -475  -483  -511  -551  -583  -596  -598  -599  -595  -578  -543  -501  -480  -485  -484  -459  -428  -405  -395  -394  -377  -322  -244  -179  -147  -135  -127  -108  -80  -68  -77  -66  12  166  353  496  569  616  656  675  679  696  756  873  1043  1250  1462  1645  1777  1837  1827  1779  1727  1692  1681  1701  1761  1849  1924  1944  1859  1626  1291  984  799  705  587  349  2  -325  -512  -557  -548  -550  -571  -597  -616  -637  -673  -711  -724  -712  -693  -680  -672  -658  -628  -587  -557  -549  -551  -548  -530  -502  -481  -476  -484  -507  -545  -601  -668  -728  -765  -769  -748  -708  -644  -561  -494  -463  -454  -440  -400  -351  -330  -352  -401  -460  -520  -580  -634  -666  -651  -580  -477  -391  -345  -331  -336  -354  -373  -378  -373  -391  -436  -454  -391  -269  -175  -151  -168  -188  -201  -207  -201  -195  -224  -321  -459  -561  -588  -571  -553  -549  -552  -551  -549  -554  -562  -547  -462  -301  -136  -62  -108  -217  -311  -358  -365  -338  -282  -219  -179  -190  -253  -340  -404  -432  -443  -445  -429  -393  -354  -335  -343  -355  -354  -348  -352  -368  -388  -396  -394  -401  -415  -406  -336  -185  9  167  248  278  296  316  337  352  339  265  116  -73  -257  -414  -546  -649  -711  -733  -725  -682  -587  -447  -331  -323  -416  -525  -605  -719  -950  -1178  -1070  -370  971  2806  4713  6138  6653  6064  4522  2534  686  -574  -1033  -906  -695  -626  -597  -553  -531  -534  -544  -535  -496  -445  -408  -391  -388  -381  -348  -282  -202  -144  -126  -154  -234  -335  -388  -348  -240  -117  -21  32  54  58  38  -6  -47  -48  0  70  126  155  177  212  264  330  403  477  551  606  632  648  699  823  1014  1198  1304  1337  1365  1444  1582  1757  1922  2024  2056  2054  2043  2010  1937  1821  1683  1552  1461  1414  1391  1340  1174  845  431  91  -89  -146  -157  -174  -213  -269  -344  -458  -603  -716  -766  -773  -766  -769  -796  -830  -844  -837  -822  -812  -811  -818  -829  -840  -850  -853  -831  -763  -669  -596  -572  -577  -591  -607  -622  -627  -620  -605  -589  -576  -578  -621  -718  -796  -744  -574  -411  -333  -322  -353  -430  -540  -632  -667  -642  -581  -519  -483  -480  -499  -528  -564  -603  -627  -616  -581  -546  -532  -544  -564  -567  -549  -530  -528  -537  -538  -529  -526  -536  -546  -542  -534  -541  -567  -578  -563  -552  -553  -542  -516  -491  -483  -495  -520  -546  -564  -569  -552  -512  -427  -294  -176  -126  -114  -88  -50  -58  -136  -212  -211  -150  -80  -27  5  23  29  29  51  120  216  290  324  335  313  212  11  -215  -365  -419  -437  -471  -523  -558  -558  -532  -498  -480  -502  -563  -647  -758  -900  -1040  -1084  -872  -195  1049  2750  4511  5710  5871  4898  3004  780  -987  -1882  -1953  -1489  -950  -705  -693  -645  -511  -406  -386  -434  -498  -535  -549  -555  -560  -569  -580  -590  -600  -592  -518  -341  -110  59  122  121  108  99  94  86  87  121  206  313  389  435  500  591  651  644  619  639  698  768  838  891  910  896  875  863  856  861  940  1164  1473  1716  1821  1835  1838  1906  2068  2272  2422  2474  2468  2454  2446  2424  2367  2246  2040  1737  1355  989  742  588  414  179  -43  -185  -253  -300  -370  -448  -501  -540  -609  -713  -806  -843  -831  -810  -798  -760  -661  -537  -475  -498  -552  -592  -606  -602  -593  -580  -561  -550  -549  -520  -428  -289  -165  -96  -72  -65  -79  -150  -297  -476  -608  -653  -643  -607  -536  -425  -315  -252  -245  -264  -280  -285  -282  -279  -285  -304  -331  -361  -397  -448  -513  -576  -581  -492  -358  -254  -196  -149  -95  -52  -52  -117  -244  -392  -511  -581  -600  -582  -552  -527  -506  -492  -486  -472  -428  -343  -244  -180  -174  -223  -312  -422  -522  -579  -571  -508  -422  -337  -250  -159  -89  -67  -114  -242  -394  -480  -470  -406  -337  -288  -253  -210  -169  -171  -239  -328  -358  -317  -266  -243  -244  -247  -230  -170  -71  28  73  51  8  -8  -8  -27  -85  -163  -230  -283  -330  -362  -373  -370  -360  -350  -344  -356  -401  -477  -561  -605  -546  -427  -458  -750  -1082  -1022  -197  1460  3594  5546  6611  6385  5005  2989  958  -519  -1176  -1179  -869  -526  -378  -477  -642  -719  -711  -657  -574  -490  -439  -425  -425  -422  -426  -459  -516  -550  -532  -476  -402  -313  -222  -159  -143  -166  -185  -164  -115  -76  -61  -59  -60  -72  -108  -160  -197  -173  -67  86  227  341  422  442  398  349  364  481  666  853  1021  1173  1280  1327  1335  1367  1488  1675  1824  1885  1887  1869  1846  1821  1795  1772  1752  1719  1629  1431  1158  896  671  461  277  133  29  -49  -129  -220  -306  -396  -504  -602  -639  -609  -554  -517  -485  -434  -422  -530  -736  -923  -1014  -1026  -1005  -962  -884  -775  -673  -629  -656  -711  -757  -798  -838  -863  -853  -788  -649  -433  -206  -97  -171  -350  -515  -624  -681  -672  -603  -513  -441  -400  -396  -429  -502  -613  -730  -807  -804  -714  -572  -448  -381  -360  -362  -384  -430  -490  -540  -567  -570  -528  -416  -268  -160  -131  -159  -209  -273  -358  -456  -523  -534  -497  -443  -409  -428  -506  -591  -610  -543  -440  -395  -455  -562  -632  -655  -652  -629  -575  -484  -368  -253  -181  -202  -304  -412  -472  -483  -449  -361  -241  -142  -99  -112  -172  -264  -368  -457  -496  -457  -338  -160  41  221  341  395  390  313  153  -32  -163  -222  -253  -285  -312  -330  -353  -401  -485  -604  -727  -816  -838  -781  -675  -579  -520  -503  -565  -736  -942  -971  -521  598  2250  4039  5510  6225  5918  4687  2914  1052  -454  -1247  -1332  -1069  -782  -564  -426  -374  -388  -439  -486  -491  -454  -417  -402  -404  -408  -403  -385  -361  -345  -339  -337  -328  -310  -284  -264  -262  -260  -243  -233  -258  -298  -308  -273  -211  -133  -34  71  150  191  209  218  232  273  357  474  580  667  759  839  886  932  1013  1114  1203  1270  1324  1399  1532  1712  1867  1941  1952  1951  1977  2043  2131  2208  2245  2198  1996  1638  1223  885  687  585  495  392  300  228  162  70  -82  -293  -494  -622  -682  -713  -726  -716  -692  -672  -657  -646  -643  -652  -654  -622  -546  -472  -479  -578  -698  -779  -811  -814  -803  -784  -762  -735  -683  -597  -511  -463  -444  -451  -481  -500  -480  -445  -441  -480  -537  -579  -608  -650  -710  -757  -751  -680  -565  -457  -388  -357  -349  -362  -413  -513  -637  -746  -806  -788  -695  -581  -508  -489  -500  -518  -534  -549  -556  -553  -547  -560  -586  -602  -615  -650  -689  -694  -645  -543  -434  -363  -312  -223  -97  -3  5  -61  -145  -180  -159  -90  28  151  186  87  -82  -204  -236  -230  -251  -328  -454  -581  -664  -710  -750  -785  -787  -742  -662  -560  -485  -531  -757  -1060  -1119  -590  600  2288  4113  5513  5988  5273  3433  1004  -1234  -2662  -2972  -2337  -1401  -739  -498  -561  -725  -821  -824  -774  -699  -626  -571  -527  -481  -442  -420  -412  -408  -416  -456  -541  -638  -699  -690  -610  -495  -394  -318  -250  -187  -134  -81  -26  37  115  181  208  207  205  215  237  261  289  334  403  478  530  565  633  791  1021  1234  1370  1450  1516  1575  1619  1656  1701  1748  1807  1902  2018  2106  2148  2160  2144  2079  1961  1801  1603  1363  1072  750  475  296  181  73  -52  -189  -347  -528  -687  -778  -801  -785  -754  -710  -654  -609  -599  -638  -707  -745  -708  -618  -508  -400  -325  -299  -307  -328  -352  -367  -370  -365  -361  -372  -411  -467  -507  -488  -392  -258  -162  -147  -200  -276  -330  -348  -348  -349  -356  -359  -358  -379  -438  -497  -500  -445  -391  -376  -390  -404  -402  -389  -381  -384  -403  -435  -466  -487  -498  -504  -512  -530  -561  -600  -626  -633  -637  -654  -677  -666  -591  -460  -298  -150  -67  -72  -152  -262  -339  -355  -326  -284  -219  -95  67  195  251  253  236  225  219  197  139  44  -68  -182  -279  -344  -375  -393  -414  -433  -428  -380  -329  -311  -274  -221  -324  -630  -847  -529  559  2244  4055  5431  5905  5382  4178  2655  1099  -128  -795  -985  -860  -579  -368  -348  -446  -556  -633  -653  -610  -498  -315  -111  20  52  31  2  -28  -82  -154  -212  -235  -218  -163  -93  -43  -32  -49  -81  -124  -181  -226  -212  -133  -24  73  134  154  170  243  399  601  763  825  790  723  680  672  697  771  901  1066  1214  1300  1322  1324  1351  1409  1474  1524  1573  1662  1818  2000  2126  2148  2083  1981  1857  1665  1361  978  602  299  79  -65  -142  -186  -239  -315  -394  -452  -495  -548  -619  -679  -692  -690  -725  -778  -803  -790  -759  -739  -753  -793  -834  -860  -871  -872  -855  -809  -744  -686  -645  -607  -571  -548  -541  -540  -536  -529  -537  -586  -694  -826  -915  -928  -883  -820  -771  -738  -712  -708  -768  -912  -1089  -1208  -1222  -1139  -1001  -868  -777  -734  -732  -758  -786  -800  -797  -786  -777  -768  -754  -738  -728  -747  -812  -897  -947  -929  -866  -804  -766  -760  -775  -792  -790  -771  -751  -723  -669  -597  -544  -529  -533  -530  -505  -466  -426  -391  -363  -344  -324  -299  -261  -198  -132  -133  -251  -433  -578  -655  -710  -762  -792  -789  -764  -740  -728  -716  -690  -669  -704  -835  -1034  -1207  -1326  -1455  -1487  -1077  26  1745  3746  5587  6764  6851  5817  4009  1894  29  -1087  -1373  -1155  -812  -544  -412  -420  -499  -557  -566  -550  -534  -523  -505  -471  -417  -340  -247  -169  -129  -122  -126  -126  -120  -118  -125  -139  -148  -146  -155  -186  -219  -238  -242  -221  -156  -51  58  144  198  240  287  322  329  348  412  510  619  722  798  844  880  942  1045  1220  1495  1808  2021  2089  2078  2048  2008  1964  1936  1930  1930  1915  1881  1831  1773  1686  1525  1275  980  714  548  465  378  242  71  -130  -337  -476  -520  -513  -498  -482  -463  -458  -494  -559  -613  -631  -624  -607  -582  -550  -515  -490  -504  -575  -667  -712  -691  -662  -677  -709  -720  -712  -703  -702  -699  -679  -632  -569  -514  -495  -514  -543  -547  -510  -450  -400  -372  -349  -317  -301  -333  -401  -467  -502  -507  -499  -492  -489  -487  -485  -483  -485  -496  -518  -536  -525  -487  -450  -438  -440  -422  -336  -167  -26  -82  -323  -559  -673  -690  -652  -564  -441  -325  -247  -212  -205  -206  -207  -220  -265  -340  -412  -441  -430  -429  -458  -483  -470  -429  -390  -374  -371  -359  -332  -309  -309  -332  -359  -379  -391  -398  -406  -416  -421  -405  -345  -238  -117  -13  75  153  207  255  318  380  417  402  281  38  -240  -437  -511  -508  -478  -446  -429  -436  -455  -484  -535  -611  -695  -762  -800  -825  -868  -894  -731  -115  1100  2672  4036  4808  5031  4807  4008  2636  1123  -14  -599  -767  -746  -682  -600  -481  -350  -272  -266  -290  -299  -283  -252  -224  -204  -179  -144  -106  -77  -63  -59  -59  -61  -68  -84  -109  -135  -156  -156  -101  39  219  337  343  282  209]
