reading_id,reading_time,wire_id,result_classification,heart_rate,heart_rate_alert,firmware_version,device_app_version,hardware_version,waveform_samples
4c7226d0-63c5-11ed-8080-808080808080,Mon Nov 14 02:37:36 UTC 2022,e101e3752439,NSR,72,NONE,20001.171.50,2.10.0,Charge 5,[7514  7643  7925  8515  9298  9833  9741  8905  7472  5828  4240  2796  1682  837  -268  -1857  -3575  -5115  -6156  -6363  -6176  -6332  -6760  -7135  -7540  -8062  -8678  -9445  -10342  -11151  -11634  -11750  -11593  -11209  -10653  -10114  -9804  -9754  -9833  -9842  -9457  -8334  -6602  -4842  -3384  -2203  -1295  -626  97  1247  2738  4039  4814  5187  5477  5882  6343  6680  6816  6842  6949  7277  7739  8080  8171  8077  7924  7817  7795  7852  8011  8316  8724  9108  9336  9358  9236  9156  9366  9865  10331  10594  10815  11147  11565  11966  12239  12324  12232  12022  11825  11756  11795  11851  11870  11875  11907  11966  12038  12110  12116  11996  11798  11634  11537  11378  10993  10455  10007  9734  9559  9449  9417  9431  9392  9136  8537  7682  6930  6711  7325  8872  11108  13513  15472  16329  15687  13708  11014  8402  6493  5503  5152  4746  3802  2620  1789  1423  1237  927  326  -491  -1265  -1822  -2180  -2459  -2853  -3508  -4310  -5010  -5506  -5826  -6035  -6294  -6760  -7339  -7797  -8107  -8362  -8534  -8587  -8581  -8598  -8665  -8727  -8711  -8652  -8654  -8726  -8793  -8799  -8755  -8706  -8678  -8626  -8499  -8313  -8062  -7698  -7273  -6938  -6762  -6698  -6691  -6711  -6742  -6764  -6788  -6851  -6980  -7157  -7346  -7560  -7858  -8239  -8581  -8763  -8790  -8743  -8688  -8651  -8633  -8639  -8700  -8860  -9156  -9550  -9905  -10099  -10080  -9814  -9332  -8818  -8473  -8327  -8286  -8258  -8208  -8177  -8235  -8396  -8607  -8785  -8842  -8644  -8085  -7345  -6809  -6625  -6634  -6684  -6769  -6918  -7059  -7053  -6872  -6629  -6449  -6373  -6368  -6386  -6399  -6389  -6338  -6238  -6097  -5938  -5802  -5723  -5685  -5604  -5389  -5082  -4861  -4817  -4862  -4878  -4845  -4834  -4914  -5102  -5337  -5489  -5419  -5074  -4597  -4246  -4118  -4121  -4163  -4244  -4384  -4543  -4589  -4354  -3783  -3079  -2566  -2367  -2375  -2444  -2463  -2349  -2125  -1930  -1861  -1887  -1900  -1812  -1634  -1449  -1327  -1290  -1324  -1363  -1360  -1331  -1265  -1109  -908  -809  -939  -1218  -1332  -1184  -1065  -1016  -654  320  2051  4548  7335  9524  10393  9569  7199  4246  1974  986  955  1132  1049  783  600  552  483  311  115  -14  -65  2  297  823  1351  1588  1452  1102  735  422  173  39  93  357  718  986  1074  1020  873  702  621  691  853  986  1020  983  939  930  966  1041  1140  1237  1301  1330  1364  1462  1706  2159  2714  3122  3265  3254  3241  3243  3184  3061  2952  2878  2791  2654  2492  2339  2188  2037  1934  1905  1896  1813  1576  1165  632  119  -177  -116  302  869  1277  1427  1448  1440  1374  1214  1024  904  876  892  903  899  894  895  901  910  906  867  790  714  683  698  724  752  790  830  839  809  764  730  721  736  785  890  1044  1212  1377  1524  1555  1321  783  161  -230  -257  12  394  695  872  1007  1128  1178  1132  1058  1043  1102  1188  1248  1268  1267  1244  1149  956  732  579  535  575  653  709  684  572  462  497  716  989  1161  1199  1160  1060  869  606  338  130  22  8  35  30  -77  -303  -568  -757  -835  -851  -856  -857  -853  -858  -907  -1021  -1173  -1324  -1541  -1954  -2551  -3060  -2985  -1843  456  3450  6325  8168  8316  6807  4294  1574  -668  -2060  -2647  -2738  -2698  -2760  -2912  -3056  -3185  -3321  -3441  -3522  -3593  -3705  -3859  -3996  -4089  -4151  -4169  -4164  -4232  -4394  -4543  -4619  -4659  -4697  -4704  -4668  -4661  -4762  -4929  -5050  -5064  -4959  -4700  -4283  -3838  -3531  -3382  -3247  -2970  -2524  -1993  -1429  -837  -272  176  461  651  862  1117  1338  1452  1441  1354  1279  1261  1279  1303  1334  1367  1329  1083  579  -45  -605  -1018  -1274  -1385  -1405  -1413  -1475  -1601  -1744  -1877  -2029  -2195  -2317  -2397  -2502  -2638  -2733  -2752  -2743  -2780  -2883  -2984  -3004  -2983  -3023  -3157  -3342  -3458  -3364  -3092  -2805  -2565  -2331  -2093  -1870  -1681  -1551  -1450  -1315  -1129  -917  -662  -323  63  392  605  744  877  1037  1209  1367  1517  1679  1830  1932  1979  1976  1930  1889  1950  2199  2595  2925  3009  2908  2815  2844  2973  3119  3210  3239  3233  3208  3152  3057  2954  2917  2988  3124  3238  3281  3270  3252  3241  3220  3179  3116  3024  2924  2849  2792  2739  2702  2700  2730  2771  2799  2804  2796  2787  2781  2776  2773  2790  2845  2910  2922  2856  2767  2704  2658  2610  2558  2486  2376  2238  2094  1933  1764  1643  1590  1556  1490  1375  1214  1044  923  843  721  506  218  -74  -305  -430  -254  559  2136  4315  6728  8754  9729  9313  7581  4944  2167  179  -625  -595  -223  88  12  -364  -680  -812  -853  -836  -729  -526  -300  -148  -101  -123  -179  -256  -351  -448  -491  -441  -348  -284  -261  -233  -90  242  664  970  1078  1057  998  952  940  973  1050  1158  1281  1388  1425  1363  1249  1187  1257  1462  1732  2006  2259  2459  2573  2623  2650  2655  2622  2571  2536  2524  2515  2474  2366  2177  1944  1739  1608  1528  1437  1295  1119  927  702  431  135  -144  -358  -471  -488  -452  -401  -326  -201  -43  86  171  215  175  42  -119  -261  -355  -405  -460  -558  -651  -621  -411  -150  -12  -8  -43  -84  -147  -228  -292  -326  -352  -380  -383  -340  -281  -236  -215  -239  -311  -388  -438  -467  -498  -531  -548  -537  -511  -497  -500  -484  -428  -364  -348  -424  -576  -738  -872  -987  -1086  -1141  -1089  -870  -519  -179  34  117  128  109  47  -90  -308  -537  -687  -733  -724  -706  -695  -689  -677  -643  -538  -354  -245  -334  -507  -615  -646  -642  -656  -776  -1071  -1458  -1732  -1740  -1478  -1079  -724  -539  -655  -1195  -2046  -2699  -2516  -1267  864  3646  6500  8436  8834  7629  5098  2033  -512  -1850  -1915  -1259  -657  -475  -604  -863  -1134  -1340  -1461  -1511  -1522  -1526  -1528  -1502  -1419  -1284  -1149  -1078  -1085  -1130  -1177  -1227  -1279  -1311  -1300  -1226  -1071  -834  -558  -338  -275  -367  -522  -660  -752  -794  -784  -692  -479  -186  65  201  258  309  381  461  531  589  642  709  803  925  1069  1210  1305  1342  1330  1258  1095  839  565  391  346  328  203  -75  -434  -767  -1002  -1114  -1140  -1149  -1185  -1245  -1300  -1329  -1332  -1328  -1322  -1306  -1276  -1267  -1326  -1446  -1564  -1617  -1603  -1554  -1479  -1384  -1343  -1432  -1626  -1834  -1984  -2046  -2031  -1967  -1884  -1811  -1767  -1751  -1746  -1749  -1760  -1764  -1723  -1603  -1439  -1323  -1292  -1300  -1287  -1240  -1215  -1271  -1394  -1518  -1590  -1605  -1595  -1585  -1587  -1618  -1675  -1715  -1670  -1500  -1266  -1090  -1009  -976  -962  -950  -903  -825  -726  -601  -513  -522  -600  -677  -710  -699  -689  -771  -1014  -1329  -1487  -1343  -979  -586  -299  -154  -113  -115  -153  -271  -472  -667  -749  -698  -588  -489  -388  -227  -33  52  -86  -427  -837  -1177  -1349  -1299  -1030  -664  -403  -377  -580  -898  -1165  -1275  -1228  -1086  -956  -932  -1017  -1045  -615  721  2977  5603  7920  9320  9238  7580  4980  2296  235  -752  -803  -542  -419  -431  -422  -372  -377  -485  -645  -763  -809  -821  -819  -762  -596  -364  -191  -165  -288  -499  -691  -768  -697  -515  -309  -158  -74  -27  -18  -78  -212  -348  -400  -373  -325  -233  6  396  769  970  1026  1062  1149  1260  1341  1403  1488  1593  1702  1825  1938  2002  2055  2174  2352  2489  2519  2468  2387  2306  2230  2132  1949  1628  1232  924  788  761  751  721  677  639  612  535  339  71  -127  -194  -180  -134  -42  134  363  543  610  547  351  79  -161  -297  -324  -266  -167  -68  11  68  73  -16  -176  -280  -241  -114  -15  5  -17  -37  -43  -45  -57  -74  -86  -85  -80  -89  -134  -213  -286  -302  -251  -197  -200  -251  -303  -332  -341  -350  -362  -346  -269  -160  -111  -180  -323  -445  -504  -517  -510  -498  -486  -473  -452  -425  -403  -395  -404  -431  -483  -561  -638  -685  -694  -668  -604  -500  -386  -312  -292  -296  -290  -274  -315  -479  -707  -868  -903  -849  -755  -645  -522  -397  -281  -184  -123  -117  -172  -281  -428  -617  -843  -1060  -1203  -1268  -1294  -1300  -1253  -1123  -941  -798  -752  -775  -834  -975  -1269  -1685  -1964  -1605  -240  1987  4583  6938  8440  8667  7577  5567  3250  1228  -24  -458  -494  -495  -527  -633  -889  -1209  -1418  -1483  -1483  -1469  -1417  -1281  -1069  -848  -683  -603  -613  -706  -874  -1075  -1230  -1287  -1204  -947  -604  -359  -302  -379  -494  -568  -568  -504  -422  -363  -296  -152  65  280  449  576  666  720  740  733  707  677  679  757  913  1115  1332  1531  1660  1702  1683  1633  1565  1468  1333  1179  1032  865  628  367  191  130  104  39  -74  -184  -219  -153  -31  70  112  81  -49  -280  -551  -797  -986  -1099  -1126  -1108  -1072  -983  -844  -719  -648  -607  -538  -456  -489  -704  -1011  -1258  -1352  -1312  -1214  -1071  -847  -588  -410  -351  -348  -339  -325  -344  -407  -490  -570  -644  -707  -751  -765  -727  -615  -464  -348  -297  -285  -295  -349  -468  -613  -712  -742  -734  -721  -715  -714  -717  -727  -739  -726  -668  -579  -493  -475  -608  -852  -1029  -1016  -827  -579  -394  -296  -244  -239  -306  -453  -638  -749  -657  -386  -108  38  45  -21  -98  -169  -239  -285  -264  -155  3  135  188  163  88  -18  -156  -309  -424  -472  -474  -465  -451  -423  -401  -408  -453  -550  -689  -799  -824  -773  -694  -626  -576  -596  -781  -978  -778  127  1798  3980  6129  7689  8237  7422  5282  2536  168  -1149  -1279  -624  111  424  258  -118  -404  -511  -531  -540  -542  -542  -556  -580  -602  -618  -642  -671  -682  -646  -549  -418  -304  -206  -94  21  100  124  94  16  -83  -163  -192  -146  -1  210  411  560  659  726  807  937  1086  1202  1282  1373  1502  1684  1927  2190  2405  2539  2608  2643  2648  2604  2491  2304  2041  1740  1490  1345  1269  1202  1111  978  810  640  455  210  -78  -292  -325  -214  -79  24  84  26  -239  -670  -1098  -1388  -1473  -1334  -1032  -681  -367  -123  31  84  10  -212  -511  -724  -757  -642  -476  -357  -319  -345  -417  -510  -584  -602  -523  -328  -84  96  176  180  84  -166  -505  -744  -782  -684  -557  -459  -412  -412  -437  -472  -519  -606  -735  -854  -922  -945  -932  -878  -779  -667  -594  -600  -693  -831  -937  -942  -794  -504  -193  -5  13  -100  -288  -490  -653  -732  -697  -558  -384  -268  -228  -196  -115  7  119  161  133  82  28  -37  -123  -250  -425  -582  -662  -744  -934  -1191  -1377  -1396  -1273  -1100  -954  -958  -1270  -1819  -2133  -1637  -88  2318  4970  7048  7989  7647  6120  3781  1308  -555  -1388  -1263  -661  -253  -370  -768  -1088  -1235  -1273  -1280  -1282  -1271  -1234  -1166  -1067  -946  -809  -673  -571  -525  -519  -522  -525  -530  -543  -561  -577  -570  -520  -419  -255  -49  112  162  134  99  102  146  224  373  637  952  1174  1250  1253  1260  1299  1370  1465  1566  1649  1702  1735  1762  1783  1798  1812  1826  1815  1724  1516  1206  856  560  389  331  309  259  161  32  -97  -192  -248  -315  -490  -805  -1170  -1445  -1567  -1568  -1509  -1430  -1331  -1186  -1016  -895  -855  -861  -871  -871  -873  -900  -966  -1031  -1026  -943  -843  -780  -762  -783  -845  -928  -994  -1021  -997  -909  -764  -597  -453  -368  -354  -404  -506  -622  -699  -723  -718  -710  -707  -712  -721  -726  -699  -616  -503  -420  -394  -403  -422  -432  -412  -344  -246  -176  -181  -276  -423  -560  -643  -662  -626  -566  -511  -454  -379  -319  -339  -456  -607  -711  -746  -720  -631  -478  -293  -128  -31  -6  -14  -23  -23  -13  3  24  32  14  -18  -46  -58  -66  -95  -166  -270  -390  -533  -748  -1058  -1380  -1586  -1630  -1538  -1322  -951  -457  -114  -311  -1015  -1596  -1269  347  2995  5902  8188  9260  8940  7429  5227  2868  760  -718  -1334  -1231  -808  -473  -412  -504  -563  -529  -427  -282  -102  74  170  87  -233  -679  -1012  -1085  -901  -541  -170  46  74  -25  -174  -310  -405  -460  -462  -368  -143  146  355  414  399  419  495  581  635  659  687  744  850  1000  1139  1229  1292  1348  1389  1402  1391  1357  1293  1226  1232  1377  1612  1807  1879  1807  1571  1211  872  674  586  501  368  206  47  -79  -187  -317  -464  -568  -607  -615  -623  -628  -608  -557  -499  -445  -383  -322  -293  -322  -421  -560  -680  -756  -800  -821  -799  -700  -514  -302  -146  -60  -14  -18  -120  -324  -546  -688  -716  -628  -435  -202  -33  21  -21  -124  -237  -317  -363  -396  -419  -408  -336  -210  -82  -3  16  2  -6  1  -4  -71  -200  -311  -314  -217  -121  -98  -143  -215  -275  -311  -328  -344  -385  -462  -550  -616  -641  -615  -525  -401  -310  -292  -334  -406  -479  -542  -599  -659  -699  -696  -654  -599  -575  -596  -601  -530  -408  -283  -148  5  136  212  247  256  238  196  123  29  -22  32  173  277  213  -14  -274  -470  -599  -675  -704  -708  -708  -705  -694  -677  -688  -782  -961  -1122  -1191  -1195  -1081  -632  424  2227  4549  6799  8350  8744  7730  5565  3010  780  -716  -1363  -1342  -1036  -765  -647  -698  -874  -1048  -1150  -1195  -1206  -1194  -1171  -1134  -1080  -1014  -931  -824  -713  -619  -541  -487  -473  -487  -501  -505  -502  -499  -506  -530  -580  -651  -719  -740  -623  -292  179  574  758  780  750  722  696  668  661  718  872  1088  1278  1397  1470  1541  1630  1703  1705  1658  1619  1596  1582  1580  1580  1564  1499  1343  1062  674  288  9  -172  -321  -434  -472  -439  -391  -389  -437  -497  -548  -609  -681  -737  -760  -760  -751  -748  -763  -781  -764  -684  -569  -482  -451  -452  -458  -461  -469  -485  -511  -543  -566  -557  -507  -436  -379  -349  -340  -338  -338  -345  -379  -450  -515  -505  -421  -340  -327  -397  -521  -652  -755  -812  -828  -814  -778  -724  -662  -601  -556  -533  -527  -543  -576  -602  -605  -565  -475  -391  -365  -381  -396  -400  -401  -405  -409  -403  -378  -335  -293  -270  -261  -253  -250  -269  -319  -368  -385  -396  -429  -418  -269  -1  248  387  439  459  464  459  445  412  318  119  -144  -354  -442  -434  -373  -295  -230  -190  -172  -170  -170  -162  -153  -174  -246  -371  -599  -953  -1338  -1562  -1379  -547  1035  3221  5565  7402  8099  7334  5278  2641  294  -1152  -1522  -1193  -780  -575  -527  -540  -551  -517  -430  -300  -192  -209  -359  -521  -587  -533  -392  -211  -44  63  105  107  68  -26  -138  -173  -85  93  283  394  396  348  314  318  359  429  517  626  759  903  1028  1113  1154  1157  1141  1125  1142  1235  1436  1757  2172  2553  2741  2736  2650  2552  2468  2396  2308  2178  1983  1688  1313  956  702  531  368  196  79  47  47  -3  -144  -337  -518  -644  -706  -716  -694  -657  -635  -703  -931  -1265  -1532  -1613  -1520  -1327  -1110  -940  -880  -927  -995  -1012  -1000  -997  -999  -977  -907  -791  -684  -658  -713  -786  -837  -874  -911  -953  -1005  -1066  -1121  -1141  -1114  -1068  -1047  -1059  -1072  -1050  -996  -967  -1016  -1126  -1220  -1246  -1224  -1210  -1215  -1201  -1136  -1012  -865  -759  -711  -706  -763  -928  -1170  -1379  -1470  -1404  -1160  -812  -527  -403  -395  -432  -485  -528  -499  -342  -103  92  168  111  -74  -328  -537  -652  -711  -769  -837  -863  -848  -884  -982  -1043  -1060  -1114  -1197  -1187  -949  -530  -282  -501  -1053  -1554  -1637  -1030  357  2407  4711  6635  7664  7492  5953  3390  773  -1052  -1877  -1936  -1643  -1345  -1094  -756  -342  -23  93  3  -302  -758  -1167  -1382  -1416  -1336  -1147  -844  -520  -309  -248  -268  -305  -335  -352  -346  -301  -202  -74  22  53  30  2  16  76  141  193  274  402  526  600  633  673  759  877  997  1115  1236  1346  1441  1534  1649  1814  1999  2121  2142  2089  1985  1862  1771  1722  1679  1576  1343  986  630  395  263  140  -19  -186  -309  -366  -375  -381  -413  -461  -497  -511  -512  -508  -499  -484  -467  -460  -483  -550  -639  -705  -730  -734  -739  -740  -711  -642  -545  -441  -351  -291  -258  -237  -219  -209  -238  -347  -529  -703  -788  -766  -669  -557  -465  -381  -312  -297  -356  -474  -602  -711  -779  -765  -662  -520  -399  -334  -325  -352  -391  -426  -438  -401  -292  -144  -35  -11  -56  -138  -233  -334  -432  -492  -499  -481  -465  -461  -465  -445  -393  -348  -336  -341  -318  -237  -122  -34  -4  -22  -74  -137  -184  -206  -209  -186  -111  7  119  191  232  275  330  353  281  132  -1  -72  -103  -135  -184  -238  -279  -303  -312  -330  -394  -499  -599  -667  -706  -730  -718  -623  -494  -477  -591  -653  -442  269  1646  3575  5635  7276  8020  7583  5994  3739  1573  85  -547  -567  -426  -388  -360  -189  55  197  183  67  -92  -264  -405  -454  -402  -326  -325  -435  -597  -714  -752  -753  -760  -770  -727  -566  -313  -90  12  34  67  123  126  17  -173  -331  -370  -298  -157  -4  117  243  449  739  1018  1198  1293  1372  1456  1513  1535  1552  1591  1647  1694  1723  1731  1691  1576  1417  1278  1176  1073  930  732  511  340  259  247  269  283  210  -13  -323  -554  -632  -598  -507  -407  -361  -396  -477  -542  -565  -548  -501  -441  -398  -388  -399  -416  -427  -423  -388  -331  -284  -260  -243  -223  -211  -206  -187  -131  -48  28  77  66  -51  -257  -452  -554  -563  -527  -487  -458  -439  -437  -459  -488  -471  -343  -108  134  285  328  278  126  -95  -301  -438  -528  -600  -649  -648  -567  -385  -113  174  354  306  -28  -540  -980  -1184  -1168  -1001  -742  -448  -157  88  229  247  169  33  -132  -305  -461  -574  -614  -574  -492  -419  -381  -368  -361  -350  -338  -331  -317  -282  -220  -150  -101  -67  -9  82  172  222  219  176  117  77  64  65  66  66  71  72  18  -157  -445  -731  -900  -947  -941  -939  -937  -874  -704  -490  -365  -365  -441  -594  -892  -1323  -1616  -1244  146  2367  4919  7259  8719  8777  7419  5039  2310  69  -1139  -1402  -1172  -816  -515  -398  -495  -661  -761  -796  -809  -815  -821  -825  -800  -721  -608  -525  -504  -513  -521  -524  -529  -535  -525  -467  -354  -220  -104  -21  18  1  -80  -203  -322  -408  -454  -443  -338  -110  221  559  777  842  826  808  826  897  1026  1197  1354  1441  1459  1450  1444  1448  1461  1480  1495  1463  1323  1076  806  593  457  383  341  269  74  -256  -595  -799  -852  -796  -665  -516  -451  -535  -723  -903  -1011  -1057  -1071  -1054  -992  -894  -797  -718  -672  -693  -782  -884  -957  -995  -1015  -1039  -1057  -1025  -909  -750  -635  -603  -616  -622  -593  -543  -496  -444  -355  -240  -186  -288  -549  -849  -1035  -1027  -827  -524  -269  -152  -156  -234  -347  -464  -579  -718  -881  -1020  -1081  -1040  -894  -669  -441  -285  -197  -149  -159  -276  -506  -751  -869  -827  -719  -626  -575  -561  -563  -553  -511  -447  -381  -313  -246  -199  -185  -196  -215  -233  -249  -264  -272  -264  -256  -302  -445  -639  -768  -778  -723  -677  -650  -608  -529  -433  -358  -324  -320  -328  -332  -326  -294  -210  -63  99  197  202  160  124  104  82  37  -20  -65  -88  -96  -98  -99  -115  -176  -306  -477  -614  -652  -548  -337  -212  -355  -700  -1030  -1073  -426  1187  3549  6084  8142  9088  8566  6778  4308  1843  17  -839  -875  -507  -178  -185  -467  -733  -805  -708  -555  -442  -391  -377  -382  -407  -448  -482  -485  -475  -483  -508  -531  -550  -563  -539  -439  -257  -36  151  241  222  150  94  73  75  85  101  122  153  222  376  623  890  1064  1119  1126  1159  1221  1259  1224  1115  1005  987  1094  1286  1504  1705  1871  1989  2023  1953  1804  1604  1331  982  637  379  214  55  -197  -518  -769  -884  -903  -852  -714  -502  -302  -194  -189  -251  -342  -427  -486  -504  -477  -438  -425  -445  -481  -506  -510  -511  -552  -667  -829  -946  -928  -742  -458  -221  -117  -123  -183  -253  -302  -325  -342  -372  -418  -456  -471  -485  -518  -553  -569  -569  -564  -565  -576  -587  -569  -506  -433  -398  -405  -430  -463  -516  -567  -556  -482  -434  -473  -570  -652  -689  -695  -682  -646  -587  -521  -469  -447  -459  -509  -597  -708  -803  -854  -858  -810  -692  -524  -369  -280  -260  -268  -250  -166  -40  64  114  122  94  14  -116  -260  -370  -408  -368  -279  -185  -110  -76  -136  -334  -608  -817  -898  -899  -864  -782  -625  -394  -199  -243  -600  -1087  -1352  -1017  215  2367  4918  6970  7798  7079  4928  2042  -544  -2031  -2205  -1519  -718  -237  -93  -132  -227  -328  -427  -518  -593  -652  -699  -720  -705  -665  -585  -418  -184  17  132  184  214  229  215  149  15  -166  -329  -410  -391  -269  -41  247  495  633  675  679  689  733  824  963  1132  1304  1446  1521  1532  1531  1584  1722  1918  2131  2352  2552  2676  2717  2718  2683  2573  2378  2148  1927  1705  1450  1140  781  420  138  -25  -119  -212  -326  -439  -523  -569  -578  -564  -550  -557  -591  -648  -712  -766  -802  -819  -822  -817  -811  -812  -825  -855  -887  -904  -903  -895  -882  -867  -858  -861  -868  -859  -795  -630  -365  -108  -2  -98  -307  -482  -552  -545  -525  -552  -657  -807  -923  -974  -985  -979  -941  -841  -695  -569  -523  -552  -607  -634  -623  -615  -652  -734  -825  -884  -904  -894  -857  -794  -711  -585  -395  -227  -230  -412  -628  -765  -809  -794  -765  -741  -723  -695  -648  -591  -534  -474  -428  -407  -374  -283  -143  -31  -14  -67  -106  -77  2  76  117  147  184  195  118  -60  -291  -490  -608  -654  -665  -664  -666  -679  -700  -722  -744  -767  -798  -869  -1003  -1135  -1179  -1196  -1258  -1182  -645  556  2401  4643  6778  8094  8060  6641  4247  1695  -105  -788  -672  -314  -153  -355  -724  -984  -1076  -1076  -1014  -850  -595  -362  -241  -221  -236  -249  -257  -272  -304  -353  -407  -442  -440  -395  -325  -264  -232  -223  -227  -237  -246  -224  -135  13  154  235  267  283  297  317  382  550  814  1079  1261  1343  1362  1359  1354  1353  1383  1494  1695  1912  2056  2106  2097  2055  1974  1827  1607  1358  1128  922  730  532  300  70  -78  -131  -142  -159  -191  -228  -272  -337  -407  -446  -440  -407  -384  -405  -480  -599  -748  -892  -979  -963  -839  -669  -542  -494  -496  -533  -613  -716  -793  -825  -834  -850  -887  -936  -975  -1001  -1025  -1031  -981  -861  -720  -623  -589  -590  -619  -687  -785  -867  -902  -898  -880  -869  -869  -866  -855  -841  -810  -737  -637  -567  -580  -673  -782  -837  -831  -785  -703  -603  -519  -461  -407  -355  -350  -453  -659  -864  -962  -949  -887  -798  -683  -578  -524  -516  -532  -560  -579  -576  -551  -510  -468  -444  -439  -439  -439  -436  -432  -431  -445  -487  -546  -592  -605  -578  -479  -281  -25  182  283  307  309  310  290  223  127  47  -26  -160  -380  -622  -790  -854  -837  -748  -569  -336  -155  -93  -121  -216  -447  -849  -1277  -1535  -1553  -1229  -305  1396  3748  6262  8232  9016  8253  6144  3500  1195  -260  -789  -715  -513  -439  -460  -474  -463  -450  -439  -440  -480  -570  -654  -639  -530  -422  -374  -371  -385  -411  -442  -456  -433  -376  -294  -201  -123  -74  -44  -22  -21  -74  -159  -210  -202  -159  -96  -21  63  174  333  513  651  747  876  1076  1307  1504  1626  1661  1622  1551  1527  1599  1715  1778  1759  1701  1659  1652  1663  1637  1490  1181  797  496  338  262  171  5  -210  -386  -475  -499  -484  -447  -426  -476  -610  -772  -876  -887  -839  -767  -686  -613  -568  -551  -555  -591  -670  -766  -828  -844  -838  -828  -807  -775  -751  -753  -762  -764  -767  -791  -851  -935  -1005  -1008  -941  -833  -707  -589  -512  -489  -526  -626  -761  -865  -906  -901  -881  -862  -855  -863  -865  -811  -662  -466  -360  -422  -581  -724  -814  -864  -887  -887  -851  -763  -630  -488  -394  -379  -407  -411  -366  -326  -383  -548  -731  -858  -911  -905  -859  -775  -659  -558  -497  -425  -268  -70  30  -40  -237  -462  -628  -713  -738  -690  -531  -289  -75  29  36  -6  -57  -85  -73  -20  48  100  123  121  98  49  -44  -172  -279  -329  -336  -328  -317  -298  -275  -259  -264  -284  -305  -322  -354  -423  -545  -709  -899  -1142  -1412  -1545  -1312  -443  1245  3576  6029  7954  8724  8025  6124  3739  1613  138  -720  -1146  -1262  -1188  -1036  -833  -614  -461  -406  -409  -432  -463  -498  -521  -528  -530  -534  -531  -510  -479  -443  -379  -259  -106  16  61  34  -21  -69  -99  -102  -51  71  240  413  551  624  615  546  476  471  540  656  811  986  1121  1185  1209  1261  1404  1632  1854  1990  2042  2059  2058  1978  1753  1447  1222  1146  1151  1166  1179  1168  1031  658  151  -218  -311  -204  -39  77  98  12  -178  -426  -641  -758  -782  -769  -768  -793  -830  -866  -882  -830  -668  -444  -280  -257  -366  -539  -693  -798  -875  -932  -967  -973  -930  -848  -780  -758  -756  -728  -649  -530  -408  -340  -366  -451  -508  -508  -477  -432  -385  -352  -363  -443  -566  -667  -713  -721  -715  -688  -599  -431  -252  -171  -227  -351  -445  -475  -477  -491  -517  -506  -438  -364  -358  -439  -539  -552  -465  -360  -279  -193  -93  -16  10  -21  -114  -241  -342  -360  -284  -145  -9  59  45  0  14  126  286  409  464  480  473  396  201  -69  -309  -472  -571  -605  -586  -555  -543  -554  -575  -598  -615  -623  -623  -608  -564  -507  -533  -707  -870  -718  16  1546  3795  6134  7700  7889  6562  4158  1601  -204  -920  -826  -447  -258  -446  -762  -903  -872  -791  -692  -579  -473  -369  -262  -189  -198  -311  -483  -609  -630  -578  -501  -422  -349  -283  -232  -200  -181  -171  -178  -215  -279  -302  -187  38  235  335  392  462  536  581  608  673  821  1048  1299  1491  1600  1668  1738  1824  1912  1981  2041  2128  2244  2347  2395  2366  2249  2051  1823  1613  1431  1256  1047  778  477  185  -72  -278  -427  -521  -559  -562  -561  -572  -601  -668  -812  -1020  -1201  -1288  -1302  -1293  -1284  -1259  -1204  -1143  -1111  -1098  -1059  -993  -937  -917  -925  -951  -1002  -1074  -1136  -1143  -1059  -893  -720  -619  -595  -600  -595  -580  -595  -678  -813  -948  -1047  -1095  -1086  -1019  -914  -792  -668  -560  -501  -487  -482  -452  -401  -351  -316  -306  -339  -426  -540  -634  -681  -699  -724  -771  -829  -880  -911  -922  -917  -889  -837  -804  -819  -811  -715  -583  -479  -399  -334  -297  -302  -350  -433  -530  -615  -657  -639  -588  -550  -557  -564  -464  -242  -9  153  247  305  346  349  306  261  241  222  165  52  -132  -397  -675  -856  -923  -933  -918  -876  -822  -782  -759  -732  -688  -692  -870  -1204  -1342  -842  390  2108  4026  5839  7163  7695  7270  5834  3653  1368  -346  -1151  -1175  -817  -449  -291  -344  -466  -571  -665  -754  -809  -799  -739  -687  -670  -672  -672  -661  -643  -623  -616  -637  -676  -694  -655  -543  -391  -268  -209  -197  -204  -207  -193  -151  -85  -14  32  55  80  133  219  317  396  464  550  690  896  1121  1287  1386  1466  1555  1651  1739  1803  1833  1827  1793  1747  1698  1640  1564  1466  1327  1129  893  654  428  223  39  -155  -354  -488  -521  -483  -419  -352  -292  -266  -298  -372  -457  -533  -590  -631  -666  -696  -712  -709  -700  -704  -736  -787  -823  -829  -806  -754  -680  -599  -527  -499  -532  -598  -653  -682  -697  -713  -721  -700  -652  -598  -562  -545  -534  -519  -504  -498  -514  -561  -639  -729  -785  -753  -608  -414  -290  -304  -433  -593  -696  -706  -646  -571  -520  -482  -413  -307  -213  -172  -171  -182  -203  -250  -314  -368  -395  -400  -391  -368  -343  -332  -338  -360  -383  -387  -382  -406  -474  -591  -727  -819  -810  -699  -547  -433  -364  -282  -173  -85  -49  -44  -44  -50  -83  -157  -253  -328  -362  -356  -290  -145  36  166  200  170  114  22  -123  -293  -432  -487  -424  -287  -177  -166  -249  -371  -465  -512  -517  -467  -413  -540  -952  -1386  -1332  -387  1553  4215  6972  9069  9839  8940  6669  3890  1503  14  -593  -702  -715  -789  -812  -691  -529  -424  -347  -259  -204  -242  -349  -446  -487  -498  -519  -544  -553  -554  -563  -574  -569  -528  -438  -318  -209  -117  -26  64  134  170  178  181  199  218  193  109  15  -36  -16  107  332  590  808  958  1053  1141  1272  1439  1576  1656  1715  1767  1812  1880  1994  2071  1988  1767  1533  1325  1124  957  839  713  491  161  -187  -431  -527  -526  -494  -462  -430  -397  -379  -407  -492  -614  -741  -857  -952  -1000  -992  -950  -897  -838  -763  -682  -641  -666  -695  -663  -578  -477  -387  -323  -301  -355  -523  -760  -947  -1007  -929  -725  -467  -283  -254  -387  -629  -860  -955  -885  -730  -591  -500  -438  -400  -399  -427  -472  -524  -566  -586  -587  -582  -579  -585  -607  -649  -700  -742  -766  -771  -743  -678  -604  -563  -559  -565  -568  -585  -623  -669  -701  -715  -721  -710  -650  -515  -346  -227  -191  -203  -220  -228  -221  -193  -149  -109  -85  -75  -65  -45  -10  27  31  -16  -46  10  98  105  -6  -173  -296  -355  -407  -483  -565  -640  -693  -705  -700  -719  -754  -779  -789  -795  -826  -932  -1114  -1294  -1359  -1158  -466  978  3172  5628  7590  8404  7705  5601  2795  274  -1249  -1604  -1135  -456  -40  15  -145  -331  -434  -460  -455  -440  -419  -385  -331  -278  -253  -257  -265  -266  -264  -268  -288  -320  -341  -310  -201  -48  68  108  82  3  -99  -175  -178  -87  81  260  376  418  414  386  364  431  683  1085  1451  1643  1701  1739  1829  1962  2089  2189  2261  2305  2332  2360  2389  2394  2321  2122  1814  1486  1228  1083  1034  991  845  574  276  39  -154  -348  -540  -709  -840  -927  -979  -1005  -1017  -1026  -1030  -1025  -1024  -1060  -1166  -1320  -1439  -1440  -1270  -954  -631  -432  -363  -358  -390  -465  -563  -629  -641  -626  -615  -614  -622  -628  -616  -575  -533  -522  -538  -549  -545  -536  -534  -548  -575  -606  -636  -660  -676  -688  -725  -816  -940  -1031  -1067  -1077  -1092  -1108  -1108  -1066  -963  -816  -680  -600  -586  -614  -642  -651  -649  -658  -689  -733  -755  -738  -689  -602  -456  -278  -152  -115  -129  -149  -167  -181  -180  -159  -132  -133  -187  -286  -395  -477  -523  -565  -625  -687  -739  -800  -868  -924  -958  -973  -983  -997  -995  -923  -774  -672  -788  -1132  -1435  -1202  -41  2031  4573  6867  8225  8260  6970  4770  2366  415  -717  -1055  -937  -719  -574  -534  -575  -631  -643  -609  -563  -533  -518  -511  -513  -545  -616  -685  -688  -610  -496  -387  -310  -275  -275  -287  -299  -310  -314  -286  -199  -73  22  47  21  -7  -17  -13  0  52  204  457  705  847  894  932  1024  1172  1331  1467  1563  1618  1647  1701  1839  2046  2227  2318  2352  2377  2365  2203  1807  1276  814  518  340  201  56  -77  -161  -206  -265  -371  -500  -597  -629  -609  -587  -599  -635  -667  -662  -578  -398  -185  -58  -149  -520  -1029  -1399  -1490  -1371  -1166  -961  -797  -689  -621  -583  -599  -687  -822  -956  -1037  -1031  -948  -800  -627  -493  -423  -407  -446  -525  -611  -687  -752  -802  -833  -860  -890  -887  -787  -595  -424  -397  -493  -586  -595  -542  -505  -526  -568  -586  -581  -575  -578  -590  -608  -612  -551  -395  -202  -67  -18  -25  -72  -178  -342  -511  -635  -708  -741  -748  -745  -729  -659  -503  -305  -155  -79  -44  -29  -52  -128  -222  -277  -298  -330  -370  -368  -304  -195  -81  11  85  158  236  305  362  415  458  489  506  479  354  124  -143  -363  -494  -545  -548  -536  -522  -509  -503  -514  -546  -581  -618  -723  -996  -1396  -1576  -1040  483  2863  5550  7761  8862  8618  7192  5039  2750  873  -245  -597  -516  -395  -376  -410  -458  -522  -590  -601  -513  -370  -287  -332  -481  -648  -745  -749  -715  -692  -671  -639  -601  -563  -531  -510  -494  -459  -400  -339  -312  -338  -396  -439  -426  -316  -97  157  326  355  283  178  106  109  198  351  531  732  950  1139  1251  1304  1350  1421  1501  1550  1556  1543  1537  1546  1549  1513  1412  1257  1097  961  811  600  337  88  -68  -125  -169  -288  -481  -677  -811  -859  -835  -770  -671  -543  -437  -416  -482  -563  -589  -571  -550  -531  -504  -489  -520  -623  -768  -884  -930  -896  -770  -588  -437  -370  -363  -378  -422  -520  -653  -756  -790  -767  -721  -688  -692  -720  -749  -762  -757  -736  -697  -637  -562  -494  -463  -485  -532  -558  -539  -476  -399  -348  -336  -337  -325  -283  -212  -132  -73  -53  -83  -176  -309  -433  -515  -537  -498  -450  -448  -488  -535  -566  -574  -550  -483  -392  -322  -292  -286  -287  -291  -313  -368  -441  -497  -521  -521  -508  -490  -462  -424  -381  -342  -311  -284  -264  -268  -310  -377  -416  -375  -267  -157  -76  -14  32  62  81  92  102  120  139  138  84  -33  -166  -251  -274  -269  -267  -277  -289  -294  -303  -355  -469  -605  -696  -720  -698  -647  -574  -534  -636  -900  -1158  -1055  -116  1906  4644  7266  8946  9164  7883  5633  3206  1203  -73  -629  -734  -689  -648  -634  -617  -591  -578  -575  -566  -534  -463  -362  -275  -229  -213  -193  -164  -140  -128  -119  -113  -134  -203  -298  -367  -389  -388  -389  -393  -376  -296  -124  91  249  308  315  333  387  457  502  523  563  655  772  859  899  927  989  1099  1237  1390  1570  1787  2012  2182  2260  2253  2167  1993  1751  1519  1353  1245  1134  952  719  537  435  327  144  -70  -241  -360  -469  -574  -642  -662  -658  -648  -638  -629  -627  -628  -614  -566  -494  -444  -468  -592  -770  -919  -1021  -1104  -1127  -1022  -805  -577  -439  -410  -451  -523  -606  -663  -650  -535  -341  -161  -89  -159  -333  -520  -633  -660  -645  -632  -643  -671  -695  -710  -724  -744  -769  -775  -706  -537  -367  -345  -469  -600  -655  -637  -571  -486  -410  -356  -335  -371  -485  -648  -781  -840  -845  -836  -829  -813  -763  -680  -607  -573  -556  -524  -452  -340  -231  -172  -177  -234  -308  -361  -368  -334  -276  -215  -161  -104  -36  10  18  22  51  94  115  101  80  68  25  -97  -272  -420  -528  -646  -776  -868  -901  -901  -895  -879  -830  -757  -745  -871  -1116  -1299  -1044  7  1893  4303  6634  8085  8095  6708  4425  1969  63  -951  -1243  -1151  -953  -852  -872  -879  -833  -801  -804  -818  -827  -830  -832  -827  -796  -721  -626  -553  -515  -500  -498  -501  -502  -499  -497  -506  -523  -540  -544  -517  -434  -276  -89  41  96  128  169  204  224  246  293  391  558  763  931  1016  1051  1117  1283  1534  1774  1922  1987  2035  2094  2138  2120  2020  1886  1788  1746  1704  1588  1365  1067  760  506  343  262  208  137  42  -68  -192  -327  -469  -633  -844  -1075  -1240  -1290  -1252  -1143  -944  -695  -513  -469  -553  -719  -890  -994  -1011  -959  -859  -745  -658  -628  -636  -624  -573  -521  -495  -482  -462  -444  -452  -490  -532  -559  -561  -540  -503  -471  -469  -500  -545  -595  -651  -706  -736  -705  -597  -450  -341  -311  -336  -370  -394  -426  -478  -538  -580  -592  -594  -619  -653  -632  -487  -227  31  156  93  -125  -386  -558  -612  -598  -560  -511  -456  -406  -377  -377  -396  -409  -377  -276  -139  -42  -20  -47  -94  -153  -207  -234  -230  -213  -201  -196  -183  -152  -125  -130  -156  -155  -114  -64  -32  -21  -29  -72  -149  -193  -108  95  303  447  539  589  594  557  486  394  271  86  -168  -457  -694  -790  -711  -517  -295  -114  -8  13  -58  -242  -545  -934  -1309  -1499  -1296  -432  1270  3537  5710  7258  7964  7809  6877  5338  3473  1613  138  -649  -815  -708  -635  -715  -866  -945  -938  -921  -931  -960  -986  -986  -951  -902  -864  -845  -831  -820  -822  -837  -852  -855  -847  -831  -805  -769  -722  -656  -581  -524  -504  -500  -471  -382  -259  -165  -123  -102  -76  -53  -41  -5  129  388  682  875  940  946  972  1078  1266  1471  1633  1745  1823  1842  1785  1683  1579  1492  1431  1378  1291  1141  916  620  309  57  -112  -213  -261  -281  -308  -353  -411  -487  -582  -665  -705  -712  -711  -713  -703  -652  -557  -478  -483  -560  -635  -669  -672  -658  -621  -552  -458  -365  -306  -298  -335  -394  -446  -479  -508  -535  -547  -537  -502  -451  -392  -331  -277  -237  -216  -213  -205  -173  -133  -105  -87  -80  -104  -178  -279  -359  -405  -436  -437  -376  -270  -172  -119  -106  -123  -176  -259  -330  -331  -234  -82  39  91  99  91  61  -5  -90  -150  -172  -183  -224  -309  -403  -439  -412  -376  -365  -377  -395  -421  -470  -532  -564  -543  -494  -467  -490  -550  -616  -684  -756  -795  -759  -669  -567  -497  -505  -574  -624  -609  -555  -512  -490  -467  -426  -372  -323  -296  -300  -323  -340  -307  -183  10  194  306  339  323  291  272  278  304  329  335  316  267  159  -39  -295  -508  -611  -623  -587  -521  -438  -359  -298  -277  -337  -495  -659  -710  -711  -807  -989  -1106  -832  245  2231  4776  7256  8938  9274  8195  6083  3578  1343  -138  -735  -678  -343  -22  81  -96  -416  -705  -920  -1078  -1172  -1196  -1152  -1022  -796  -540  -367  -318  -334  -343  -310  -232  -147  -95  -94  -138  -216  -319  -442  -559  -627  -626  -563  -441  -251  -21  181  314  406  513  632  717  755  779  808  827  831  846  906  1006  1110  1217  1363  1527  1643  1700  1748  1816  1886  1924  1869  1650  1292  957  778  728  695  606  475  350  231  58  -189  -442  -616  -701  -749  -812  -902  -995  -1063  -1099  -1110  -1106  -1096  -1088  -1075  -1028  -925  -810  -758  -776  -822  -875  -923  -951  -959  -957  -955  -963  -981  -993  -976  -914  -822  -743  -712  -716  -713  -679  -626  -577  -546  -538  -559  -615  -686  -723  -700  -643  -593  -576  -596  -654  -729  -784  -804  -808  -814  -816  -785  -709  -609  -524  -476  -459  -464  -506  -601  -719  -802  -827  -810  -770  -714  -643  -563  -488  -423  -360  -309  -299  -339  -416  -502  -538  -489  -409  -378  -402  -425  -425  -448  -526  -622  -696  -725  -688  -578  -437  -332  -269  -208  -139  -88  -72  -80  -92  -84  -46  6  49  70  77  57  -25  -173  -334  -459  -550  -636  -722  -772  -759  -709  -651  -575  -470  -363  -317  -410  -673  -1009  -1259  -1235  -635  845  3126  5605  7486  8137  7319  5334  2913  812  -529  -1072  -1087  -944  -854  -820  -776  -706  -646  -621  -627  -637  -601  -484  -320  -199  -180  -262  -401  -529  -593  -568  -447  -265  -101  -8  14  -6  -40  -79  -146  -229  -272  -228  -105  63  247  403  494  525  538  581  690  868  1064  1202  1252  1253  1283  1411  1656  1943  2169  2291  2336  2339  2322  2300  2276  2252  2240  2249  2257  2224  2117  1932  1681  1368  1031  747  526  305  81  -87  -195  -288  -407  -556  -702  -790  -780  -700  -636  -648  -713  -760  -749  -717  -705  -708  -700  -672  -650  -640  -601  -538  -505  -510  -519  -519  -510  -486  -432  -344  -235  -142  -107  -151  -248  -346  -411  -436  -432  -415  -393  -363  -340  -355  -420  -504  -564  -590  -602  -615  -633  -652  -651  -592  -456  -285  -160  -121  -160  -268  -420  -559  -635  -652  -645  -639  -637  -637  -629  -615  -603  -602  -609  -617  -626  -632  -622  -575  -480  -364  -278  -240  -221  -196  -183  -223  -317  -400  -382  -227  -5  157  211  209  201  192  155  70  -35  -128  -219  -333  -461  -582  -684  -746  -748  -706  -655  -608  -563  -531  -540  -620  -780  -1009  -1280  -1452  -1198  -219  1450  3512  5614  7281  7981  7461  5862  3656  1495  -28  -672  -660  -389  -139  -83  -253  -503  -681  -758  -780  -787  -803  -833  -857  -828  -718  -566  -460  -436  -447  -428  -377  -347  -352  -359  -353  -348  -350  -351  -339  -303  -247  -182  -122  -99  -112  -92  3  137  255  340  407  466  504  522  558  664  866  1137  1424  1663  1816  1901  1951  1980  1989  1989  1982  1963  1930  1884  1807  1659  1416  1108  770  395  23  -229  -317  -311  -296  -313  -371  -448  -519  -575  -620  -652  -669  -678  -684  -687  -684  -681  -681  -686  -723  -832  -1006  -1186  -1306  -1310  -1167  -931  -730  -650  -651  -634  -585  -590  -675  -763  -790  -752  -687  -639  -624  -624  -626  -631  -640  -650  -653  -628  -562  -477  -414  -392  -417  -491  -591  -675  -729  -763  -778  -758  -692  -587  -475  -403  -399  -466  -578  -682  -727  -681  -541  -354  -202  -145  -181  -269  -370  -472  -559  -593  -545  -439  -336  -274  -253  -288  -417  -635  -845  -936  -880  -736  -571  -390  -191  -22  59  16  -187  -516  -823  -985  -989  -867  -669  -478  -365  -321  -277  -192  -92  -20  21  58  101  148  183  190  172  141  90  4  -128  -303  -480  -614  -689  -717  -717  -707  -692  -672  -646  -616  -591  -565  -541  -606  -850  -1202  -1424  -1171  -120  1768  4134  6438  8169  8879  8311  6594  4239  1906  179  -658  -780  -631  -526  -517  -558  -624  -695  -730  -698  -597  -476  -395  -371  -358  -315  -254  -235  -304  -433  -541  -582  -582  -564  -483  -271  21  235  271  149  -44  -217  -313  -328  -284  -197  -81  40  160  278  367  421  481  601  787  969  1074  1110  1128  1151  1180  1234  1346  1525  1714  1843  1892  1894  1874  1826  1741  1641  1549  1430  1231  966  708  528  434  380  303  183  42  -89  -228  -397  -567  -679  -725  -741  -748  -744  -727  -700  -672  -647  -635  -642  -663  -673  -646  -593  -550  -533  -532  -536  -548  -578  -631  -688  -707  -666  -600  -574  -628  -728  -808  -838  -822  -761  -666  -563  -494  -479  -487  -482  -467  -460  -469  -495  -523  -536  -541  -557  -601  -656  -682  -649  -573  -502  -466  -461  -464  -454  -418  -369  -333  -323  -328  -334  -336  -330  -314  -290  -276  -319  -455  -646  -786  -816  -747  -626  -507  -430  -400  -405  -432  -470  -506  -532  -542  -538  -529  -522  -522  -531  -550  -574  -584  -552  -473  -381  -325  -321  -351  -386  -409  -418  -417  -406  -379  -344  -325  -342  -389  -437  -457  -414  -278  -63  148  284  347  366  352  302  209  57  -171  -443  -667  -780  -802  -773  -701  -603  -517  -462  -427  -400  -403  -509  -781  -1216  -1673  -1764  -1051  624  3083  5776  7914  8922  8612  7086  4783  2417  604  -415  -732  -641  -490  -456  -520  -596  -633  -631  -613  -598  -605  -637  -674  -686  -657  -592  -518  -461  -423  -390  -356  -333  -324  -318  -303  -281  -248  -201  -167  -179  -234  -305  -371  -418  -417  -318  -111  124  290  369  406  429  455  523  672  890  1114  1275  1356  1406  1482  1584  1668  1715  1742  1761  1779  1834  1979  2204  2417  2505  2370  1975  1444  963  566  217  -32  -133  -136  -117  -119  -171  -290  -453  -600  -693  -738  -774  -824  -847  -801  -732  -729  -820  -956  -1054  -1086  -1087  -1094  -1108  -1085  -980  -810  -656  -577  -562  -571  -577  -573  -570  -586  -622  -655  -661  -658  -666  -680  -686  -685  -681  -678  -676  -676  -679  -680  -664  -614  -521  -386  -249  -191  -266  -431  -587  -661  -638  -531  -394  -296  -260  -258  -273  -323  -420  -520  -562  -545  -493  -405  -303  -231  -211  -244  -333  -455  -557  -613  -630  -610  -544  -440  -334  -259  -218  -173  -86  15  73  81  79  94  124  158  186  204  187  122  25  -86  -200  -291  -358  -431  -533  -640  -713  -750  -773  -763  -682  -563  -493  -483  -423  -259  -163  -359  -817  -1258  -1354  -819  546  2683  5093  7038  7906  7336  5425  2828  434  -1054  -1454  -1166  -752  -505  -458  -552  -682  -769  -804  -798  -749  -663  -570  -508  -488  -492  -500  -506  -509  -501  -473  -435  -405  -393  -396  -405  -417  -429  -422  -363  -225  -23  163  257  248  183  139  165  263  412  578  703  761  787  814  844  881  979  1201  1496  1726  1848  1918  1976  2035  2116  2220  2305  2319  2215  1980  1701  1495  1372  1240  1024  764  564  430  268  43  -187  -373  -500  -565  -595  -630  -668  -686  -683  -676  -689  -731  -792  -855  -924  -1000  -1062  -1102  -1128  -1137  -1121  -1084  -1051  -1034  -1019  -996  -952  -866  -756  -672  -629  -608  -597  -593  -595  -602  -604  -569  -471  -335  -234  -231  -348  -550  -743  -853  -881  -876  -867  -865  -876  -907  -952  -985  -988  -974  -954  -914  -831  -723  -643  -619  -646  -709  -781  -829  -838  -816  -780  -761  -778  -819  -862  -901  -926  -932  -918  -902  -907  -937  -970  -988  -991  -970  -911  -826  -745  -680  -627  -593  -584  -607  -657  -707  -719  -669  -566  -463  -410  -402  -409  -414  -416  -421  -430  -432  -414  -391  -391  -422  -485  -573  -669  -750  -798  -817  -829  -852  -896  -956  -1011  -1042  -1043  -1010  -949  -893  -917  -1076  -1303  -1426  -1241  -456  1205  3580  6012  7790  8422  7702  5851  3514  1390  -167  -1106  -1502  -1554  -1437  -1216  -987  -838  -765  -738  -751  -812  -918  -1045  -1153  -1209  -1190  -1095  -963  -849  -767  -702  -662  -651  -650  -635  -591  -522  -449  -391  -336  -264  -187  -133  -102  -74  -41  -13  -6  -9  23  141  324  495  622  740  875  1002  1091  1171  1321  1568  1835  2032  2130  2159  2165  2180  2217  2272  2334  2392  2422  2355  2113  1731  1374  1155  1037  932  827  761  740  698  568  381  237  193  233  319  407  451  438  392  341  299  261]
