reading_id,reading_time,wire_id,result_classification,heart_rate,heart_rate_alert,firmware_version,device_app_version,hardware_version,waveform_samples
34740fa0-60b2-11ed-8080-808080808080,Thu Nov 10 04:43:21 UTC 2022,e100638d1a39,UNREADABLE,0,NONE,20001.171.50,2.10.0,Charge 5,[7833  7949  7862  7334  6310  5044  3887  2993  2227  1361  389  -533  -1392  -2288  -3208  -4032  -4667  -5142  -5625  -6231  -6913  -7633  -8437  -9302  -10085  -10691  -11147  -11540  -11993  -12664  -13694  -14998  -16175  -16887  -17253  -17670  -18336  -19107  -19785  -20371  -20996  -21693  -22354  -22946  -23584  -24335  -25137  -25943  -26743  -27423  -27868  -28184  -28607  -29214  -29869  -30427  -30849  -31152  -31406  -31741  -32240  -32768  -32768  -32768  -32768  -32768  -32768  -32768  -32768  -32768  -32768  -32768  -32768  -32768  -32768  -32768  -32768  -32768  -32768  -32768  -32768  -32768  -32768  -32768  -32768  -32768  -32768  -32768  -32768  -32768  -32768  -32768  -32768  -32768  -32768  -32768  -32768  -32768  -32768  -32768  -32768  -32768  -32768  -32768  -32768  -32768  -32768  -32768  -32768  -32768  -32768  -32768  -32768  -32768  -32768  -32768  -32768  -32768  -32768  -32768  -32768  -32768  -32768  -32768  -32768  -32768  -32768  -32768  -32768  -32768  -32768  -32768  -32768  -32768  -32768  -32768  -32768  -32768  -32768  -32768  -32768  -32768  -32768  -32768  -32768  -32768  -32768  -32768  -32768  -32768  -32768  -32768  -32768  -32768  -32768  -32768  -32768  -32768  -32768  -32768  -17005  -376  11432  21808  32767  32767  32767  32767  32767  32767  32767  32767  32767  32767  32767  32767  32767  32767  32767  32767  32767  32767  32767  32767  32767  32767  32767  32767  32767  32767  32767  32767  32767  32767  32767  32767  32767  32767  32767  32767  32767  32767  32767  32767  32767  32767  32767  32767  32767  32767  32767  32767  32767  32767  32767  32767  32767  32767  32767  32767  32767  32767  32767  32767  32767  32767  32767  32767  32767  32767  32767  32767  32767  32767  32767  32767  32767  32767  32767  32767  32767  32767  32767  32767  32767  32767  32767  32767  32767  32767  32767  32767  32767  32767  32767  32767  32767  32767  32767  32767  32767  32767  23323  14606  7780  3301  1028  469  897  1680  2416  2420  376  -4465  -10432  -14422  -14844  -12318  -8743  -6242  -5910  -7596  -10540  -14062  -18208  -23262  -28422  -32031  -32768  -32768  -32429  -31412  -30596  -30299  -30566  -31167  -31747  -32038  -31938  -31469  -30844  -30376  -30183  -30154  -30082  -29637  -28478  -26607  -24294  -21645  -18863  -16653  -15581  -15465  -15802  -16291  -16807  -17111  -16517  -14198  -10424  -6810  -4674  -3947  -3880  -3946  -3940  -3764  -3378  -2821  -2237  -1808  -1601  -1545  -1536  -1499  -1409  -1229  -709  543  2417  4127  4995  5113  5237  5975  7088  7919  8133  7846  7287  6258  3878  -593  -6198  -10188  -10108  -5748  666  5759  6948  3997  -793  -4564  -6288  -6774  -7005  -7253  -7397  -7551  -8271  -10040  -12479  -14578  -15903  -16809  -17600  -18220  -18581  -18789  -19006  -19243  -19427  -19531  -19594  -19688  -19826  -19882  -19750  -19530  -19375  -19245  -18940  -18323  -17457  -16518  -15559  -14478  -13304  -12263  -11494  -10949  -10507  -10071  -9605  -9130  -8706  -8363  -8002  -7442  -6649  -5756  -4837  -3868  -2977  -2391  -2173  -2338  -3098  -4604  -6573  -8497  -10042  -11070  -11568  -11666  -11500  -11108  -10549  -9963  -9427  -8909  -8328  -7611  -6807  -6055  -5362  -4645  -3993  -3536  -3131  -2438  -1273  265  1902  3307  4240  4711  4956  5344  6126  7110  7841  8146  8235  8447  9087  10340  12126  13993  15377  16042  15885  14485  11531  7671  4341  2565  2350  3340  5238  7391  8963  9749  10150  10478  10730  10720  10426  10384  11251  13093  15514  17895  19167  18209  14712  9274  3370  -922  -2316  -1160  1108  2975  3831  4018  3904  3375  1955  -1006  -5653  -10639  -13866  -14566  -13534  -11906  -10551  -9815  -9536  -9419  -9225  -8750  -7929  -6879  -5749  -4600  -3380  -2049  -822  -76  74  -138  -424  -609  -679  -712  -747  -804  -984  -1417  -2095  -2926  -3940  -5135  -6194  -6770  -6897  -6849  -6802  -6756  -6637  -6422  -6186  -6059  -6112  -6275  -6426  -6539  -6668  -6803  -6747  -6130  -4726  -2809  -1049  85  659  946  1087  1154  1189  1105  694  -107  -1022  -1666  -1953  -2076  -2189  -2292  -2339  -2300  -2153  -1938  -1759  -1689  -1715  -1767  -1809  -1850  -1897  -1935  -1969  -2011  -2062  -2224  -2814  -4091  -5916  -7859  -9492  -10552  -11063  -11516  -13015  -16828  -23225  -30580  -32768  -32768  -32768  -32768  -32013  -29840  -27891  -25620  -23729  -24208  -28919  -32768  -32768  -32768  -32768  -32768  -32768  -31225  -19614  -11980  -8546  -7803  -8065  -8414  -8636  -8754  -8581  -7574  -5293  -2119  816  2645  3651  4960  7316  10422  13644  16580  18810  20068  20577  20491  19251  16071  11025  5302  374  -2943  -4791  -5762  -6328  -6760  -7169  -7304  -6291  -3117  2122  7989  13116  16978  19456  20700  21090  20688  19133  16477  13684  11803  11095  11310  12265  13704  15052  15764  15554  14301  12348  10593  9670  9398  9293  9134  8863  8324  7455  6508  5722  5035  4348  3774  3441  3307  3214  3007  2634  2205  1882  1721  1682  1718  1855  2192  2777  3561  4513  5720  7427  9717  12126  13945  14896  15247  15377  15450  15500  15570  15643  15509  14830  13505  11879  10523  9779  9537  9536  9849  10845  12539  14253  15249  15384  14885  13979  12890  11854  11051  10544  10284  10158  10031  9708  8982  7834  6431  4920  3500  2434  1785  1403  1182  1109  1185  1378  1659  2022  2435  2784  2971  2981  2844  2604  2323  2062  1893  1854  1919  2018  2068  2088  2163  2275  2379  2521  2771  3144  3550  3845  3981  3986  3789  3222  2203  857  -505  -1538  -2093  -2291  -2372  -2461  -2539  -2570  -2573  -2584  -2609  -2593  -2455  -2217  -2020  -1943  -1941  -1971  -2079  -2371  -2872  -3444  -3898  -4152  -4257  -4298  -4314  -4310  -4303  -4324  -4401  -4531  -4692  -4876  -5050  -5156  -5182  -5166  -5150  -5143  -5112  -4964  -4575  -3909  -3062  -2073  -913  200  865  906  462  -161  -639  -853  -887  -831  -690  -419  -25  392  675  529  -485  -2452  -4647  -6114  -6568  -6390  -6061  -5818  -5643  -5445  -5228  -5058  -4989  -5009  -5056  -5161  -5485  -6055  -6572  -6804  -7052  -7666  -8155  -7390  -4611  -68  4540  6490  4459  70  -3876  -5428  -4074  -1114  1125  1188  -813  -3829  -6508  -7954  -8214  -7752  -6785  -5377  -3855  -2739  -2229  -2085  -2031  -1973  -1929  -1949  -2059  -2271  -2677  -3367  -4243  -5069  -5659  -5965  -6072  -6123  -6224  -6407  -6661  -6976  -7335  -7673  -7910  -8029  -8106  -8320  -8828  -9545  -10165  -10489  -10553  -10435  -10142  -9743  -9390  -9175  -9090  -9072  -8952  -8424  -7330  -6004  -4986  -4390  -3978  -3635  -3439  -3499  -3871  -4455  -5014  -5438  -5837  -6264  -6590  -6720  -6726  -6721  -6726  -6656  -6401  -5991  -5617  -5425  -5394  -5433  -5491  -5550  -5575  -5443  -4872  -3683  -2266  -1310  -1024  -1090  -1190  -1215  -1162  -1065  -1004  -1121  -1530  -2108  -2524  -2521  -2078  -1430  -930  -718  -636  -479  -169  261  816  1564  2409  3056  3358  3417  3411  3531  4016  5055  6514  7924  8890  9351  9478  9474  9436  9321  9057  8695  8350  8054  7810  7668  7642  7694  7826  8069  8427  8872  9307  9594  9678  9571  9288  8921  8647  8584  8762  9182  9809  10520  11116  11446  11527  11442  11191  10739  10123  9415  8665  7963  7457  7199  7107  7099  7144  7228  7347  7519  7778  8129  8492  8754  8952  9253  9722  10218  10563  10668  10416  9669  8595  7625  6950  6420  5879  5323  4831  4426  4050  3669  3344  3179  3204  3347  3502  3641  3853  4254  4807  5347  5767  6016  5845  4783  2676  148  -1830  -2775  -2841  -2304  -1336  -279  440  723  742  622  422  234  132  106  109  109  99  80  48  22  83  336  763  1173  1400  1429  1307  1047  640  133  -344  -675  -873  -1049  -1317  -1743  -2308  -2924  -3501  -3943  -4168  -4156  -3892  -3364  -2622  -1811  -1146  -787  -789  -1229  -2117  -3130  -3809  -4008  -3883  -3617  -3341  -3108  -2803  -2279  -1606  -1043  -772  -787  -1008  -1341  -1687  -2001  -2289  -2578  -2903  -3250  -3551  -3774  -3972  -4184  -4355  -4398  -4257  -3927  -3507  -3169  -3004  -3004  -3132  -3320  -3495  -3639  -3766  -3869  -3979  -4177  -4483  -4789  -4953  -4900  -4637  -4284  -3976  -3642  -3089  -2342  -1635  -1093  -707  -479  -394  -413  -563  -895  -1337  -1724  -1970  -2083  -2081  -2011  -1896  -1619  -1052  -334  219  466  487  395  255  121  43  25  4  -107  -325  -548  -643  -566  -330  61  541  981  1391  1893  2450  2861  3026  2944  2550  1846  1080  539  231  -21  -284  -459  -453  -268  -5  189  263  240  126  -91  -396  -777  -1330  -2154  -3066  -3711  -3956  -3809  -3138  -1883  -384  852  1646  2145  2481  2679  2716  2517  1993  1149  205  -487  -777  -747  -429  202  980  1576  1832  1853  1803  1743  1665  1596  1680  2150  3060  4083  4797  5069  4935  4331  3302  2242  1598  1526  2019  3079  4594  6185  7342  7870  7984  7963  7948  7956  7897  7622  7114  6587  6278  6208  6250  6305  6333  6296  6154  5921  5669  5439  5248  5133  5105  5125  5143  5108  4941  4489  3615  2493  1599  1204  1147  1140  1005  619  -59  -860  -1500  -1848  -1980  -2038  -2110  -2215  -2329  -2391  -2295  -1955  -1470  -1103  -1056  -1393  -2038  -2761  -3329  -3714  -4041  -4384  -4762  -5247  -5876  -6542  -7062  -7311  -7295  -7112  -6927  -6882  -6968  -7059  -7052  -6905  -6621  -6151  -5339  -4160  -2908  -1957  -1464  -1364  -1546  -1915  -2368  -2934  -3828  -5040  -6150  -6834  -7168  -7332  -7358  -7219  -7008  -6925  -7093  -7437  -7787  -8061  -8310  -8622  -9010  -9408  -9761  -10045  -10252  -10390  -10482  -10541  -10541  -10433  -10249  -10093  -9968  -9739  -9264  -8491  -7539  -6708  -6180  -5847  -5575  -5423  -5463  -5629  -5798  -5898  -5906  -5762  -5340  -4595  -3708  -2981  -2572  -2356  -2097  -1724  -1342  -1022  -729  -411  -39  435  1036  1656  2126  2423  2655  2942  3396  4021  4639  5094  5423  5698  5899  6003  6026  5919  5571  5001  4390  3908  3610  3485  3508  3605  3686  3749  3862  4051  4239  4297  4131  3773  3347  2962  2673  2481  2333  2194  2094  2049  2021  2002  2079  2375  2890  3420  3655  3433  2843  2105  1615  1820  2789  4204  5609  6445  6080  4045  392  -4089  -8038  -10071  -9589  -7172  -4157  -1909  -1065  -1209  -1554  -1732  -1803  -1997  -2511  -3288  -4016  -4464  -4661  -4721  -4677  -4567  -4595  -5083  -6109  -7258  -8001  -8207  -8044  -7651  -7184  -6851  -6724  -6731  -6851  -7127  -7481  -7733  -7823  -7864  -7934  -7850  -7142  -5529  -3456  -1696  -555  82  396  662  1158  1817  2313  2524  2617  2751  2967  3313  3833  4400  4765  4779  4470  4012  3647  3492  3489  3545  3632  3771  4002  4329  4670  4904  4991  4926  4660  4165  3481  2664  1870  1331  1102  1035  1006  1064  1348  1875  2455  2895  3182  3419  3716  4116  4560  4971  5349  5679  5879  5921  5874  5801  5745  5754  5891  6222  6705  7168  7480  7660  7826  8063  8316  8477  8523  8516  8518  8565  8655  8758  8857  8942  8917  8578  7792  6731  5795  5244  4994  4828  4639  4438  4235  3955  3482  2839  2213  1791  1623  1601  1488  1073  396  -223  -515  -495  -352  -240  -193  -171  -130  -60  -8  -22  -48  33  264  570  858  1089  1255  1344  1353  1329  1330  1406  1596  1878  2135  2261  2269  2234  2155  1930  1448  743  26  -518  -867  -1057  -1128  -1128  -1090  -1018  -973  -1164  -1830  -2873  -3823  -4364  -4591  -4675  -4586  -4236  -3739  -3341  -3100  -2875  -2616  -2338  -1789  -629  1061  2925  4750  6496  8096  9162  9002  7278  4473  1611  -262  -665  -25  830  1430  1726  1844  1871  1747  1447  1113  838  522  61  -439  -767  -866  -852  -821  -773  -678  -569  -496  -398  -116  397  987  1442  1664  1704  1671  1630  1606  1643  1807  2106  2449  2716  2837  2770  2494  2096  1748  1543  1467  1548  1890  2479  3074  3429  3494  3294  2850  2297  1849  1573  1376  1178  961  716  445  195  17  -112  -290  -600  -1041  -1478  -1746  -1810  -1753  -1654  -1592  -1711  -2162  -2873  -3538  -3930  -4069  -4106  -4159  -4232  -4238  -4092  -3783  -3422  -3173  -3097  -3123  -3160  -3165  -3137  -3089  -3020  -2977  -3139  -3716  -4651  -5612  -6309  -6659  -6818  -7217  -8266  -9797  -11113  -11770  -11910  -11821  -11582  -11102  -10240  -9011  -7780  -7008  -6767  -6745  -6563  -5950  -4889  -3708  -2769  -2080  -1454  -876  -455  -212  -17  355  1152  2405  3718  4491  4257  2854  725  -1280  -2652  -3390  -3584  -3042  -1494  630  2280  2886  2536  1421  -67  -1361  -2281  -2997  -3518  -3708  -3474  -2827  -2005  -1366  -1046  -930  -894  -886  -873  -825  -725  -596  -495  -458  -506  -654  -879  -1118  -1346  -1586  -1934  -2601  -3662  -4809  -5604  -5896  -5781  -5383  -4874  -4467  -4232  -3998  -3414  -2347  -1239  -684  -803  -1092  -655  1152  4178  7502  9707  9593  7197  3880  1311  504  1401  2987  4036  3956  2963  1756  971  758  968  1485  2146  2747  3283  3887  4552  5101  5384  5380  5157  4833  4566  4443  4414  4399  4401  4551  5059  5983  7032  7782  8012  7549  6189  4238  2569  1770  1780  2390  3409  4433  5041  5217  5242  5347  5634  6135  6753  7290  7642  7828  7841  7670  7414  7221  7095  6924  6672  6318  5698  4731  3712  3018  2676  2461  2217  1911  1590  1397  1551  2195  3131  3916  4255  3933  2649  529  -1610  -3038  -3775  -4276  -4835  -5419  -5881  -6143  -6218  -6188  -6225  -6558  -7277  -8115  -8667  -8835  -8812  -8820  -9025  -9513  -10178  -10783  -11182  -11386  -11489  -11588  -11712  -11850  -12006  -12138  -12141  -11989  -11776  -11602  -11492  -11412  -11319  -11129  -10596  -9349  -7258  -4750  -2494  -840  194  707  920  1107  1353  1550  1596  1487  1274  1048  850  590  89  -778  -1975  -3220  -4119  -4502  -4491  -4192  -3589  -2814  -2200  -1933  -1947  -2160  -2566  -3175  -3957  -4744  -5291  -5528  -5491  -5020  -3805  -1815  352  1971  2963  3629  4029  4149  4170  4350  4804  5403  5896  6135  6122  5875  5421  4920  4619  4705  5204  5887  6374  6496  6361  6153  6009  6009  6187  6506  6823  6999  7014  6939  6888  7059  7631  8474  9211  9538  9112  7491  4919  2643  1705  2051  3070  4274  5469  6621  7484  7418  5706  2391  -1240  -3616  -4197  -3602  -2895  -2749  -2898  -2379  -658  1534  2976  3163  2330  1025  -93  -671  -850  -920  -1003  -1124  -1353  -1778  -2387  -3039  -3539  -3765  -3738  -3511  -2983  -2010  -797  150  573  613  419  -38  -761  -1556  -2158  -2446  -2498  -2451  -2338  -2090  -1682  -1237  -927  -809  -852  -1044  -1358  -1734  -2222  -3065  -4378  -5837  -6941  -7496  -7619  -7327  -6418  -4865  -3024  -1418  -427  -25  115  274  551  909  1243  1490  1672  1840  2070  2484  3149  3916  4523  4869  5013  4974  4649  3989  3222  2695  2525  2626  2909  3262  3534  3679  3759  3748  3386  2399  952  -421  -1413  -2053  -2364  -2280  -1802  -1134  -620  -474  -786  -1574  -2618  -3536  -4111  -4346  -4321  -4121  -3847  -3612  -3438  -3233  -2932  -2531  -2032  -1470  -982  -715  -726  -988  -1408  -1826  -2122  -2275  -2337  -2375  -2415  -2398  -2130  -1349  -7  1479  2506  2842  2659  2170  1509  807  243  -44  -102  -114  -232  -491  -874  -1357  -1845  -2188  -2334  -2349  -2316  -2247  -2066  -1685  -1109  -492  -59  100  82  35  82  287  579  792  815  652  398  194  128  193  295  237  -81  -317  39  1118  2872  5186  7456  8779  8559  6727  3772  578  -1958  -3280  -3335  -2437  -1011  403  1248  1380  1096  706  353  69  -179  -427  -667  -856  -946  -945  -962  -1204  -1818  -2646  -3320  -3661  -3734  -3653  -3584  -3670  -3927  -4323  -4788  -5105  -4924  -3965  -2442  -1073  -358  -157  18  621  1756  3001  3790  4009  4001  4102  4343  4571  4793  5170  5675  6046  6108  5903  5605  5390  5316  5327  5354  5350  5286  5164  5038  4984  5020  5104  5183  5191  4945  4223  3094  1909  915  155  -423  -988  -1769  -2806  -3797  -4380  -4525  -4450  -4336  -4234  -4118  -3950  -3741  -3505  -3145  -2544  -1743  -870  -6  746  1294  1629  1781  1805  1865  2214  2947  3785  4317  4431  4300  4117  3961  3781  3485  3050  2583  2252  2147  2306  2755  3344  3791  3982  4030  4076  4161  4240  4216  3990  3610  3217  2820  2330  1633  634  -453  -1103  -979  -166  946  1840  2218  2205  2091  2000  1871  1665  1471  1369  1339  1325  1334  1455  1780  2260  2704  2974  3070  3004  2730  2212  1457  566  -203  -641  -809  -880  -925  -949  -969  -1002  -1057  -1140  -1211  -1166  -934  -570  -208  65  234  308  305  220  24  -253  -510  -664  -708  -680  -641  -716  -1075  -1764  -2595  -3212  -3248  -2588  -1426  -75  1249  2512  3516  3692  2480  -351  -4516  -9024  -12588  -14379  -14288  -12779  -10693  -8903  -7791  -7189  -6872  -6788  -6995  -7596  -8524  -9419  -9937  -10037  -9840  -9433  -8931  -8429  -7846  -7052  -6159  -5445  -4990  -4571  -3912  -2909  -1702  -655  -71  88  68  14  -112  -387  -706  -828  -574  234  1782  3785  5448  6261  6420  6345  6227  6061  5765  5200  4304  3314  2629  2381  2450  2770  3315  3894  4243  4245  3960  3590  3439  3684  4209  4764  5201  5507  5769  6081  6366  6336  5660  4276  2586  1213  550  489  487  91  -690  -1526  -2062  -2132  -1726  -925  29  825  1334  1663  1930  2097  1991  1435  491  -490  -1203  -1660  -2166  -3112  -4622  -6341  -7701  -8412  -8586  -8402  -7879  -7043  -5971  -4677  -3320  -2261  -1636  -1231  -821  -367  79  510  923  1264  1482  1559  1423  997  406  -50  -179  72  698  1525  2261  2744  3006  3150  3202  3018  2390  1392  437  -112  -103  635  2151  3938  5220  5724  5755  5644  5462  5190  4902  4706  4628  4635  4734  4950  5230  5439  5435  5113  4440  3513  2579  1863  1206  37  -1952  -4203  -5823  -6604  -6986  -7326  -7650  -7890  -8056  -8198  -8316  -8245  -7596  -6111  -4182  -2617  -1817  -1577  -1574  -1640  -1687  -1586  -1192  -553  62  455  627  504  -219  -1672  -3339  -4471  -4863  -4880  -4934  -5279  -6015  -7018  -7999  -8721  -9120  -9296  -9386  -9359  -8940  -7837  -6137  -4458  -3393  -2854  -2343  -1661  -1003  -582  -427  -436  -507  -582  -636  -627  -464  -50  595  1281  1772  1976  1948  1748  1423  1046  690  375  60  -306  -703  -1036  -1202  -1108  -637  332  1764  3232  4157  4379  4160  3791  3460  3264  3197  3212  3304  3482  3692  3833  3869  3807  3567  3043  2374  1891  1704  1639  1549  1436  1339  1268  1227  1273  1523  2008  2574  3007  3236  3324  3344  3320  3272  3246  3307  3485  3722  3907  3977  3924  3756  3538  3382  3339  3379  3457  3556  3703  3939  4218  4441  4550  4476  4063  3272  2416  1881  1717  1727  1810  2030  2430  2918  3353  3629  3672  3458  3025  2332  1261  6  -948  -1406  -1579  -1704  -1864  -2021  -2111  -2139  -2160  -2185  -2145  -1943  -1533  -982  -452  -77  145  317  485  608  650  629  590  566  570  592  601  555  438  288  178  98  -133  -714  -1537  -2211  -2505  -2509  -2358  -2071  -1690  -1340  -1004  -438  541  1804  2956  3640  3813  3612  3138  2556  2126  1937  1873  1792  1568  1104  495  5  -284  -687  -1582  -2963  -4422  -5411  -5509  -4662  -3217  -1757  -900  -1103  -2631  -5484  -9068  -12218  -13808  -13271  -10849  -7635  -5088  -4109  -4434  -5111  -5514  -5625  -5642  -5659  -5636  -5440  -4906  -4013  -2948  -1906  -1041  -522  -376  -400  -242  431  1586  2732  3451  3752  3838  3841  3790  3657  3438  3203  3036  2956  2918  2871  2808  2751  2709  2658  2597  2621  2952  3717  4681  5407  5710  5693  5442  4963  4357  3806  3439  3281  3251  3196  3025  2832  2749  2699  2549  2459  2845  3909  5266  6227  6393  5689  4234  2503  1164  522  331  205  0  -276  -665  -1195  -1773  -2329  -2867  -3320  -3582  -3674  -3673  -3546  -3206  -2735  -2374  -2243  -2259  -2343  -2625  -3443  -4970  -6753  -8023  -8498  -8440  -8140  -7734  -7326  -6990  -6726  -6535  -6433  -6360  -6021  -4953  -3062  -986  450  1031  1210  1505  1969  2350  2617  2983  3476  3855  3926  3672  3173  2508  1750  1082  722  684  786  860  857  813  785  849  1113  1600  2129  2470  2639  2940  3681  4851  6097  7019  7487  7664  7732  7711  7431  6618  5221  3625  2381  1800  1764  1909  1977  2028  2316  2921  3662  4323  4796  5066  5142  5035  4822  4621  4457  4277  4128  4172  4511  5069  5639  6014  6145  6122  6006  5764  5391  4995  4702  4573  4663  5091  5968  7123  8092  8515  8240  7223  5787  4534  3635  2608  903  -1357  -3320  -4276  -4183  -3341  -2206  -1331  -1141  -1985  -4090  -7102  -10080  -12165  -13053  -12825  -11651  -9983  -8607  -7987  -7954  -8155  -8408  -8655  -8814  -8637  -7766  -6225  -4666  -3766  -3616  -3966  -4606  -5326  -5868  -6065  -5927  -5578  -5142  -4710  -4367  -4182  -4242  -4688  -5544  -6548  -7363  -7882  -8127  -8075  -7767  -7369  -6999  -6667  -6327  -5937  -5523  -5195  -5043  -5034  -5075  -5077  -4938  -4535  -3844  -2995  -2141  -1454  -1211  -1594  -2421  -3215  -3639  -3724  -3670  -3583  -3461  -3312  -3198  -3184  -3319  -3588  -3862  -3998  -4002  -3976  -3974  -3968  -3885  -3663  -3308  -2887  -2505  -2241  -2076  -1935  -1768  -1512  -1067  -373  537  1556  2555  3391  3926  4153  4209  4223  4235  4240  4221  4175  4117  4070  4052  4062  4123  4317  4684  5123  5504  5801  6027  6173  6240  6219  6084  5853  5592  5357  5162  4974  4768  4581  4456  4354  4153  3770  3270  2779  2338  1935  1621  1474  1483  1622  1949  2466  2980  3280  3292  3026  2532  1946  1423  1062  911  961  1138  1336  1505  1688  1928  2186  2399  2518  2512  2355  2058  1690  1343  1082  954  981  1096  1178  1149  954  579  143  -174  -301  -273  -164  -62  -10  7  8  -45  -232  -567  -947  -1232  -1348  -1247  -867  -246  378  750  857  879  942  1065  1253  1578  2112  2753  3242  3450  3468  3434  3402  3356  3300  3354  3712  4393  5160  5748  6114  6516  7285  8500  9843  10625  10034  7644  3885  -29  -2730  -3403  -2195  -5  2124  3403  3604  3177  2775  2712  2957  3316  3584  3699  3700  3546  3072  2149  983  66  -319  -332  -284  -429  -1018  -2191  -3618  -4640  -5014  -5084  -5249  -5616  -6031  -6286  -6298  -6108  -5842  -5641  -5566  -5603  -5740  -5958  -6219  -6489  -6709  -6797  -6715  -6509  -6258  -5999  -5779  -5726  -5967  -6483  -7152  -7896  -8687  -9407  -9877  -10091  -10183  -10228  -10233  -10221  -10238  -10330  -10510  -10764  -11098  -11517  -11936  -12248  -12505  -12813  -13063  -13073  -12883  -12541  -11739  -10178  -8220  -6599  -5627  -5125  -4813  -4525  -4210  -3792  -3198  -2518  -1974  -1686  -1595  -1507  -1185  -536  209  696  855  890  979  1150  1329  1452  1558  1731  1974  2252  2646  3269  4026  4722  5279  5682  5899  5960  5943  5890  5802  5694  5633  5750  6151  6714  7133  7205  6913  6387  5875  5586  5550  5706  6001  6378  6767  7125  7433  7657  7778  7822  7822  7831  7932  8188  8550  8865  8985  8848  8513  8135  7840  7603  7328  6955  6489  5946  5288  4536  3789  3054  2328  1655  1010  395  -66  -318  -425  -391  -84  597  1498  2268  2687  2800  2778  2766  2822  2919  2997  3033  3047  3062  3087  3116  3107  2984  2695  2315  2021  1959  2010  1754  1226  1206  2283  4381  7073  9731  11534  11699  9837  5986  733  -4573  -8455  -10222  -10099  -8903  -7562  -6685  -6350  -6282  -6261  -6250  -6267  -6345  -6510  -6715  -6696  -5930  -4060  -1481  899  2447  3134  3341  3481  3684  3857  3933  3948  3943  3907  3791  3604  3445  3401  3446  3495  3532  3630  3852  4165  4462  4666  4775  4819  4804  4691  4398  3873  3179  2500  2002  1675  1449  1349  1393  1522  1673  1809  1909  1974  2011  2032  2078  2197  2373  2518  2542  2425  2219  1931  1421  583  -387  -1140  -1526  -1689  -1919  -2481  -3402  -4378  -5043  -5284  -5177  -4769  -4170  -3641  -3411  -3494  -3639  -3388  -2518  -1411  -559  2  467  921  1381  1742  1642  636  -1241  -3291  -4831  -5733  -6131  -6196  -6173  -6208  -6190  -6001  -5774  -5708  -5816  -5987  -6084  -5984  -5626  -5039  -4287  -3477  -2818  -2495  -2514  -2776  -3138  -3443  -3586  -3464  -2968  -2216  -1563  -1246  -1183  -1194  -1205  -1180  -972  -428  349  1041  1440  1542  1428  1205  1004  928  1060  1499  2220  2953  3362  3254  2620  1734  1034  726  687  733  813  943  1045  981  567  -355  -1577  -2546  -2961  -3012  -3007  -3054  -3131  -3291  -3729  -4536  -5438  -6021  -6207  -6211  -6154  -5915  -5355  -4630  -4092  -3884  -3870  -3877  -3717  -3161  -2268  -1508  -1233  -1346  -1334  -521  1347  3989  6749  8509  8234  5759  1856  -2024  -4402  -4676  -3277  -1150  776  2136  3091  3711  3781  3028  1448  -356  -1579  -2040  -2198  -2562  -3317  -4280  -5079  -5455  -5343  -4809  -4097  -3517  -3109  -2715  -2320  -2019  -1774  -1426  -902  -303  180  430  489  515  741  1412  2521  3703  4623  5255  5757  6311  6994  7746  8538  9330  9941  10242  10319  10329  10320  10214  9884  9305  8647  8164  7943  7862  7802  7736  7579  7094  6170  5127  4405  4058  3889  3779  3655  3411  3033  2630  2323  2206  2295  2498  2793  3358  4300  5337  6022  6277  6372  6532  6771  6973  6932  6384  5274  4036  3201  2841  2704  2637  2594  2530  2398  2109  1503  512  -680  -1643  -2018  -2082  -2753  -4833  -8413  -12799  -16702  -18838  -18808  -17354  -15690  -14792  -14881  -15352  -15560  -15406  -15102  -14836  -14645  -14423  -14042  -13487  -12919  -12513  -12250  -11987  -11689  -11415  -11175  -10976  -10809  -10453  -9623  -8451  -7444  -6891  -6688  -6642  -6649  -6675  -6721  -6746  -6586  -6032  -5152  -4350  -3929  -3830  -3867  -3927  -3937  -3855  -3719  -3586  -3384  -2896  -2009  -943  -112  285  453  772  1440  2312  3091  3600  3894  4108  4276  4357  4352  4323  4381  4620  5031  5572  6269  7051  7773  8462  9180  9800  10137  9986  9054  7358  5559  4375  3840  3534  3196  2814  2463  2201  1987  1705  1265  623  -246  -1395  -2534  -2616  -970  1511  3335  3640  2610  1293  488  177  -3  -604  -2322  -5306  -8662  -11102  -11721  -10233  -7303  -4455  -2928  -2656  -2657  -2326  -1845  -1474  -1200  -979  -914  -1040  -1126  -921  -511  -277  -582  -1498  -2722  -3782  -4431  -4758  -4931  -5030  -5113  -5239  -5461  -5872  -6581  -7547  -8493  -9061  -8961  -8002  -6306  -4338  -2517  -1082  -216  88  44  -191  -576  -1062  -1522  -1834  -2003  -2116  -2209  -2250  -2242  -2179  -1925  -1312  -397  545  1301  1866  2357  2906  3648  4646  5744  6656  7252  7605  7913  8492  9616  11219  12794  13773  14008  13624  12736  11618  10706  10164  9811  9479  9155  8832  8508  8261  8143  8096  8043  8008  8090  8336  8580  8549  8238  7923  7771  7719  7686  7740  8087  8830  9710  10320  10547  10528  10299  9752  8895  7948  7036  6023  4948  4171  3828  3615  3164  2360  1389  476  -501  -1854  -3426  -4526  -4463  -2844  87  3276  5573  6663  7070  7506  8451  9907  11345  12075  11586  9623  6336  2402  -1029  -2679  -1929  684  3783  6016  6925  6991  6916  7072  7492  8018  8424  8444  7713  5996  3559  1049  -910  -2002  -2351  -2318  -2178  -2067  -2087  -2348  -2893  -3647  -4556  -5614  -6624  -7271  -7495  -7491  -7390  -7118  -6531  -5654  -4770  -4155  -3887  -4145  -5488  -8232  -11466  -13648  -14254  -13895  -13206  -12419  -11613  -10970  -10662  -10647  -10703  -10574  -10104  -9402  -8777  -8419  -8283  -8282  -8470  -8947  -9590  -10087  -10302  -10340  -10334  -10343  -10372  -10426  -10498  -10474  -9956  -8344  -5497  -2245  326  1819  2428  2511  2393  2280  2288  2471  2768  3034  3192  3249  3182  2907  2411  1803  1205  703  399  372  532  698  880  1288  2048  3008  3862  4462  5006  5715  6461  6977  7173  6965  6134  4736  3367  2590  2337  2140  1681  1022  420  31  -170  -264  -295  -252  -92  172  443  674  920  1156  1210  986  625  354  270  318  421  563  719  827  840  771  701  846  1502  2714  4030  4902  5241  5322  5355  5372  5351  5320  5281  5059  4362  3037  1253  -466  -1552  -1923  -1901  -1654  -1107  -336  357  861  1561  3142  5933  9348  12212  13692  13785  13084  12148  11173  10111  8603  6484  4436  3111  2434  2271  2524  2798  2810  2644  2437  2199  1898  1516  1065  628  321  154  17  -189  -462  -717  -873  -912  -883  -853  -833  -767  -600  -333  49  692  1808  3360  4889  5784  5459  3443  -43  -3963  -7238  -9310  -10251  -10615  -10934  -11410  -11981  -12463  -12702  -12604  -12130  -11436  -10899  -10957  -11968  -13832  -15755  -16909  -17099  -16482  -15204  -13563  -12033  -10932  -10299  -10033  -9984  -9969  -9841  -9523  -9034  -8515  -8185  -8204  -8605  -9241  -9851  -10305  -10648  -10916  -11078  -11138  -11157  -11098  -10711  -9644  -7754  -5430  -3433  -2195  -1543  -1110  -678  -251  46  176  198  149  20  -201  -451  -601  -624  -558  -269  461  1483  2331  2786  2974  3042  3057  3068  3115  3202  3325  3486  3663  3830  4022  4260  4465  4455  3993  2915  1300  -470  -1849  -2533  -2673  -2570  -2360  -2013  -1363  -234  1152  2244  2825  3147  3436  3620  3442  2745  1787  1089  859  895  974  1019  1019  940  749  457  89  -381  -1008  -1753  -2414  -2789  -2828  -2542  -1942  -1173  -512  -125  65  283  828  1971  3560  4934  5591  5613  5332  5012  4806  4722  4673  4605  4536  4493  4462  4486  4816  5701  6883  7738  8021  8002  7972  7999  8059  8182  8379  8476  8164  7302  6219  5471  5285  5529  5991  6459  6755  6836  6766  6625  6484  6394  6382  6485  6729  7036  7238  7185  6841  6354  5970  5767  5653  5573  5546  5550  5477  5189  4650  3971  3248  2504  1856  1496  1531  1957  2616  3204  3529  3620  3519  3223  2850  2609  2541  2483  2275  1942  1634  1472  1639  2439  3888  5419  6361  6405  5443  3552  1219  -907  -2392  -3109  -3254  -3172  -3095  -3094  -3170  -3294  -3415  -3457  -3286  -2793  -2133  -1654  -1496  -1527  -1594  -1630  -1587  -1404  -1090  -761  -522  -437  -653  -1379  -2516  -3558  -4108  -4202  -4021  -3571  -2778  -1796  -1023  -745  -988  -1626  -2398  -3041  -3509  -3879  -4128  -4083  -3518  -2317  -637  1007  1998  2070  1369  298  -638  -1159  -1320  -1281  -1110  -812  -456  -169  -25  2  -39  -145  -310  -484  -598  -636  -686  -862  -1191  -1663  -2361  -3375  -4555  -5552  -6175  -6475  -6579  -6601  -6621  -6656  -6616  -6313  -5627  -4746  -4037  -3673  -3512  -3279  -2679  -1596  -376  428  671  620  531  502  546  657  806  906  798  344  -353  -953  -1188  -1012  -510  140  748  1181  1319  1123  771  477  220  -180  -719  -1157  -1345  -1362  -1331  -1282  -1184  -1053  -963  -941  -931  -887  -820  -749  -645  -466  -247  -95  -58  -66  -7  212  586  996  1329  1563  1721  1814  1841  1779  1552  1083  456  -80  -330  -205  347  1188  1943  2363  2509  2539  2537  2530  2528  2533  2549  2566  2560  2507  2413  2280  2078  1786  1469  1218  1050  882  550  -112  -1031  -1846  -2265  -2318  -2186  -2000  -1838  -1749  -1766  -1919  -2192  -2480  -2669  -2709  -2550  -2173  -1782  -1711  -2018  -2389  -2423  -1834  -610  850  1974  2249  1240  -1074  -4124  -7124  -9271  -9933  -9145  -7625  -6174  -5163  -4562  -4237  -4111  -4099  -4054  -3829  -3415  -2977  -2676  -2553  -2590  -2757  -2993  -3229  -3430  -3590  -3709  -3788  -3838  -3883  -3944  -4012  -4064  -4122  -4245  -4439  -4628  -4741  -4764  -4696  -4524  -4286  -4073  -3921  -3774  -3590  -3429  -3351  -3238  -2835  -2021  -979  -58  511  747  820  935  1324  2104  3029  3650  3707  3214  2381  1566  1045  828  769  756  788  917  1172  1605  2301  3148  3796  4057  4086  4127  4313  4686  5193  5656  5902  5874  5604  5208  4864  4672  4585  4518  4430  4318  4199  4082  3940  3735  3440  2976  2088  522  -1438  -3108  -4212  -4881  -5069  -4692  -4026  -3526  -3364  -3388  -3413  -3367  -3278  -3195  -3095  -2900  -2523  -1920  -1122  -254  590  1435  2300  3107  3822  4648  5947  7740  9428  10381  10522  10072  9172  7950  6636  5449  4373  3193  1973  1215  1346  2281  3493  4387  4717  4717  4698  4536  3724  1932  -651  -3436  -5676  -6885  -7189  -7063  -6916  -6953  -7043  -6896  -6483  -6002  -5618  -5416  -5415  -5572  -5804  -6013  -6094  -5865  -5137  -4040  -3056  -2558  -2528  -2705  -2838  -2828  -2727  -2651  -2677  -2805  -3013  -3251  -3445  -3574  -3620  -3389  -2543  -927  1125  3023  4485  5573  6297  6630  6717  6706  6514  5935  5064  4355  4040  3885  3609  3249  3228  4105  6021  8383  10112  10204  8219  4560  368  -3019  -4722  -4671  -3353  -1401  520  1946  2852  3491  4145  5042  6225  7427  8332  8950  9526  10262  11254  12353  13181  13560  13673  13742  13819  13866  13802  13326  12130  10556  9402  8911  8680  8418  7976  6887  4726  1922  -417  -1589  -1752  -1314  -481  468  1128  1342  1261  1062  889  918  1342  2223  3357  4435  5341  6153  6915  7441  7428  6662  5056  2889  881  -268  -246  698  1827  2494  2575  2267  1809  1330  836  343  -54  -291  -384  -391  -343  -243  -137  -148  -375  -752  -1107  -1342  -1435  -1458  -1793  -3011  -5202  -7682  -9580  -10482  -10500  -9959  -9200  -8577  -8283  -8215  -8107  -7629  -6590  -5290  -4345  -4019  -4151  -4591  -5255  -6003  -6696  -7281  -7756  -8096  -8282  -8370  -8432  -8469  -8412  -8177  -7713  -7015  -6140  -5234  -4474  -3979  -3747  -3672  -3648  -3624  -3617  -3661  -3758  -3891  -4030  -4117  -4091  -3933  -3709  -3535  -3472  -3529  -3723  -4062  -4597  -5428  -6497  -7514  -8202  -8501  -8508  -8315  -7955  -7460  -6818  -5935  -4789  -3658  -2945  -2714  -2677  -2612  -2485  -2300  -2042  -1759  -1569  -1564  -1743  -2043  -2424  -2926  -3520  -4060  -4445  -4680  -4835  -5003  -5242  -5512  -5718  -5813  -5840  -5919  -6224  -6878  -7761  -8525  -8922  -8876  -8319  -7394  -6586  -6274  -6325  -6221  -5359  -3399  -672  1785  2831  1935  -642  -4069  -7192  -8912  -8666  -6773  -4239  -2167  -1351  -1814  -2781  -3584  -4094  -4345  -4398  -4370  -4353  -4376  -4437  -4516  -4542  -4363  -3856  -3173  -2661  -2444  -2347  -2204  -1997  -1721  -1300  -725  -127  377  757  996  1102  1130  1133  1115  1027  854  824  1557  3579  6407  8761  9958  10345  10435  10397  10222  9864  9279  8611  8142  7936  7821  7731  7765  7977  8297  8616  8847  8933  8764  8194  7330  6576  6230  6285  6603  6998  7274  7380  7391  7353  7279  7244  7389  7777  8263  8606  8711  8612  8319  7833  7269  6780  6392  6074  5873  5827  5885  5978  6090  6221  6354  6478  6608  6789  7084  7438  7643  7525  7042  6215  5172  4254  3762  3662  3726  3807  3882  3958  4026  4076  4095  4045  3873  3578  3204  2782  2315  1779  1209  751  520  495  648  1000  1537  2175  2771  3159  3268  3157  2939  2725  2562  2405  2213  2043  1990  2092  2307  2539  2719  2831  2878  2863  2788  2649  2450  2175  1741  1084  337  -242  -549  -639  -541  -235  193  495  378  -311  -1342  -2176  -2483  -2358  -2067  -1804  -1635  -1546  -1532  -1663  -2021  -2531  -2975  -3247  -3441  -3642  -3815  -3938  -4072  -4242  -4389  -4448  -4370  -4174  -3953  -3597  -2882  -1918  -1156  -1249  -2834  -5882  -9505  -12579  -14091  -13469  -11175  -8381  -6121  -4905  -4570  -4559  -4540  -4506  -4501  -4505  -4495  -4486  -4493  -4504  -4501  -4460  -4357  -4171  -3853  -3334  -2642  -1934  -1354  -909  -497  -64  312  551  660  717  796  912  1024  1089  1080  957  678  259  -176  -462  -557  -549  -505  -421  -291  -137  19  179  337  498  737  1128  1580  1910  2065  2118  2130  2120  2073  1960  1776  1549  1309  1050  765  445  17  -572  -1230  -1783  -2152  -2355  -2365  -2050  -1309  -328  524  1104  1480  1685  1745  1736  1719  1708  1702  1722  1828  2081  2444  2773  2958  3025  3087  3227  3408  3518  3501  3392  3245  3090  2920  2692  2365  1992  1689  1511  1416  1353  1293  1233  1197  1183  1118  929  643  365  123  -109  -299  -403  -433  -398  -264  -17  253  432  493  479  419  308  151  -31  -236  -441  -590  -664  -687  -671  -588  -371  48  646  1234  1567  1487  985  295  -188  -224  144  662  1029  1139  1091  986  854  683  458  171  -202  -728  -1383  -1975  -2334  -2492  -2611  -2806  -3134  -3684  -4513  -5476  -6278  -6719  -6783  -6430  -5574  -4347  -3109  -2184  -1699  -1536  -1469  -1402  -1473  -1943  -2881  -3923  -4575  -4653  -4250  -3611  -3159  -3155  -3212  -2679  -1349  588  2701  4226  4400  2973  279  -3008  -6004  -7764  -7874  -6660  -4727  -2809  -1683  -1508  -1701  -1762  -1673  -1564  -1483  -1432  -1440  -1555  -1799  -2105  -2365  -2500  -2452  -2211  -1877  -1600  -1462  -1434  -1470  -1567  -1730  -1918  -2031  -1874  -1224  -63  1348  2648  3550  4000  4154  4201  4251  4330  4368  4274  4027  3680  3299  2908  2507  2107  1703  1285  921  758  973  1676  2751  3940  5089  6061  6662  6857  6817  6718  6632  6527  6345  6115  5942  5866  5836  5805  5774  5761  5784  5873  6081  6413  6761  6979  6994  6789  6364  5776  5165  4674  4268  3700  2726  1381  -2  -1087  -1751  -2048  -2099  -1966  -1626  -1142  -726  -561  -759  -1361  -2179  -2842  -3131  -3022  -2506  -1671  -794  -140  254  561  929  1319  1613  1781  1876  1943  2006  2106  2277  2474  2588  2575  2494  2401  2223  1824  1231  664  295  84  -168  -632  -1300  -1964  -2395  -2537  -2491  -2394  -2362  -2490  -2810  -3220  -3493  -3410  -2911  -2223  -1727  -1576  -1630  -1726  -1813  -1910  -2022  -2153  -2369  -2761  -3351  -4049  -4674  -5102  -5366  -5625  -6022  -6587  -7264  -7949  -8541  -9039  -9551  -10181  -10887  -11496  -11906  -12136  -12176  -11906  -11238  -10229  -8907  -7271  -5576  -4160  -3018  -2007  -1125  -366  276  716  924  1002  1025  965  799  649  748  1259  2269  3842  5766  7411  8080  7321  5052  1738  -1651  -3990  -4575  -3588  -1871  -341  299  -144  -1127  -1845  -1900  -1337  -480  252  682  935  1181  1511  1935  2348  2607  2677  2604  2425  2198  2007  1872  1761  1614  1259  482  -607  -1614  -2358  -2961  -3455  -3704  -3690  -3569  -3442  -3290  -3067  -2754  -2357  -1918  -1544  -1310  -1143  -876  -412  158  659  1039  1371  1663  1812  1791  1712  1700  1811  2082  2499  2906  3134  3145  2988  2754  2556  2460  2444  2459  2485  2529  2574  2580  2514  2361  2114  1768  1375  1020  745  586  625  842  1078  1219  1297  1397  1536  1693  1899  2167  2412  2535  2505  2345  2135  1987  1934  1933  1955  2017  2134  2291  2489  2798  3269  3790  4138  4237  4187  4101  4020  3956  3941  3981  4003  3924  3763  3572  3334  3010  2627  2262  1961  1688  1406  1174  1059  1036  1040  1033  1018  1003  989  982  987  994  973  901  804  734  698  661  599  536  514  569  674  733  695  582  437  310  222  142  69  3  -188  -712  -1536  -2301  -2699  -2772  -2726  -2687  -2675  -2676  -2683  -2692  -2699  -2696  -2693  -2714  -2761  -2811  -2852  -2885  -2904  -2902  -2918  -3050  -3378  -3812  -4144  -4274  -4238  -4061  -3734  -3311  -2889  -2550  -2347  -2257  -2158  -1931  -1575  -1183  -804  -369  225  1050  2170  3481  4550  4845  3915  1537  -1871  -5192  -7163  -7068  -5078  -2128  537  1962  1971  1173  374  -26  -111  -103  -126  -210  -365  -598  -871  -1111  -1283  -1394  -1453  -1449  -1328  -1001  -466  150  705  1145  1548  2000  2427  2676  2681  2482  2188  1931  1767  1670  1612  1604  1700  1949  2275  2510  2585  2566  2526  2504  2545  2697  2958  3299  3728  4231  4729  5132  5395  5542  5609  5573  5350  4888  4224  3466  2739  2116  1628  1263  923  498  -11  -529  -977  -1284  -1445  -1500  -1438  -1225  -899  -538  -212  20  103  2  -290  -689  -1033  -1211  -1232  -1179  -1125  -1095  -1077  -1060  -1068  -1172  -1421  -1751  -2046  -2325  -2675  -3043  -3274  -3325  -3290  -3309  -3508  -3931  -4548  -5282  -6040  -6746  -7313  -7631  -7681  -7533  -7268  -6972  -6708  -6491  -6328  -6233  -6181  -6125  -6058  -6013  -6011  -6019  -5963  -5730  -5126  -4026  -2737  -1875  -1782  -2344  -3170  -3819  -4023  -3584  -2301  -384  1384  2320  2372  1877  1221  744  651  1075  2045  3229  4088  4409  4396  4314  4308  4428  4648  4878  5036  5105  5126  5168  5288  5504  5807  6146  6423  6568  6642  6830  7285  7919  8404  8360  7484  5826  3945  2472  1623  1223  994  787  618  533  522  553  602  590  456  399  843  2132  4186  6333  7575  7172  5074  2003  -937  -2875  -3527  -3134  -2195  -1150  -202  606  1253  1691  1899  1934  1883  1781  1654  1574  1649  1944  2352  2657  2758  2706  2566  2398  2271  2213  2223  2297  2401  2504  2639  2856  3109  3263  3258  3157  3055  3009  3080  3334  3722  4065  4254  4415  4829  5636  6564  7176  7353  7303  7244  7259  7367  7590  7895  8185  8409  8589  8771  8996  9247  9463  9629  9801  9983  10022  9644  8731  7538  6442  5582  4916  4362  3774  2963  1791  244  -1477  -2931  -3785  -4170  -4435  -4719  -4962  -5108  -5077  -4658  -3699  -2436  -1341  -643  -294  -291  -676  -1335  -1995  -2465  -2773  -3124  -3868  -5182  -6780  -8265  -9435  -10170  -10453  -10442  -10276  -9912  -9319  -8643  -8076  -7627  -7080  -6252  -5268  -4441  -3952  -3789  -3884  -4190  -4580  -4854  -4904  -4771  -4557  -4329  -4080  -3811  -3590  -3472  -3513  -3857  -4671  -6010  -7650  -9035  -9587  -9104  -7838  -6309  -5007  -4162  -3740  -3592  -3560  -3563  -3609  -3681  -3700  -3654  -3602  -3589  -3631  -3760  -4025  -4394  -4757  -5067  -5365  -5662  -5920  -6094  -6174  -6186  -6158  -6094  -5983  -5826  -5658  -5511  -5401  -5335  -5303  -5280  -5259  -5296  -5515  -5998  -6625  -7123  -7303  -7143  -6717  -6201  -5801  -5600  -5536  -5518  -5476  -5384  -5250  -5073  -4829  -4499  -4100  -3628  -2921  -1833  -493  739  1328  766  -1011  -3447  -5545  -6389  -5641  -3625  -1171  734  1570  1501  993  423  -13  -322  -609  -910  -1170  -1344  -1444  -1498  -1520  -1517  -1494  -1449  -1384  -1313  -1234  -1130  -1020  -937  -928  -1036  -1230  -1425  -1596  -1756  -1875  -1904  -1784  -1468  -1003  -512  -22  553  1220  1845  2329  2691  2981  3200  3320  3345  3304  3213  3085  2961  2891  2926  3111  3414  3716  3932  4050  4037  3813  3362  2839  2531  2638  3189  4139  5275  6248  6979  7787  8902  10034  10668  10502  9478  7946  6691  6150  5956  5530  4745  3993  3775  4281  5391  6777  7980  8722  9066  9188  9205  9187  9164  9155  9192  9313  9489  9591  9448  8956  8184  7323  6543  5956  5601  5438  5390  5374  5318  5173  4944  4689  4478  4363  4340  4341  4286  4135  3914  3701  3573  3545  3586  3671  3771  3862  3960  4089  4195  4172  4034  3917  3918  4027  4167  4271  4315  4295  4224  4134  4053  3986  3915  3777  3500  3111  2727  2416  2189  2065  2037  2059  2101  2126  2032  1646  852  -255  -1386  -2280  -2886  -3325  -3731  -4147  -4519  -4783  -4920  -4936  -4853  -4736  -4675  -4668  -4663  -4664  -4687  -4739  -4861  -5111  -5532  -6074  -6606  -7051  -7414  -7679  -7835  -7931  -7990  -7937  -7766  -7764  -8273  -9208  -10040  -10093  -8776  -6090  -2987  -958  -1214  -3952  -8164  -12184  -14536  -14660  -13082  -10870  -8928  -7651  -6980  -6719  -6655  -6514  -6072  -5354  -4612  -4010  -3491  -3025  -2712  -2608  -2687  -2916  -3239  -3541  -3687  -3541  -3031  -2345  -1841  -1651  -1615  -1560  -1452  -1341  -1278  -1335  -1629  -2211  -3001  -3837  -4497  -4776  -4650  -4254  -3602  -2582  -1406  -596  -340  -351  -305  -87  243  686  1524  3066  5120  7084  8520  9253  9113  7879  5701  3383  1767  978  548  61  -493  -852  -780  -230  541  1119  1336  1341  1283  1138  817  355  -60  -279  -314  -267  -211  -163  -113  -59  10  97  219  887  2969  6360  9959  13024  15292  16510  16662  15819  13600  9823  5550  2466  1609  3218  6724  10246  11530  10205  7832  5842  4658  4138  3990  3989  4075  4305  4715  5200  5577  5755  5756  5621  5369  5030  4655  4330  4143  4076  4002  3776  3317  2691  2050  1520  1131  819  544  360  332  493  826  1223  1600  2044  2615  3147  3410  3281  2726  2091  2341  3951  5876  6642  5480  2260  -2213  -6381  -9330  -11227  -12424  -13051  -13215  -12967  -12341  -11606  -11115  -10937  -10906  -10878  -10789  -10627  -10444  -10361  -10476  -10744  -11020  -11212  -11359  -11539  -11739  -11875  -11884  -11723  -11362  -10742  -9806  -8735  -7944  -7604  -7471  -7251  -6846  -6202  -5238  -4145  -3352  -3058  -3242  -3987  -5263  -6591  -7403  -7549  -7166  -6389  -5359  -4200  -2902  -1354  520  2574  4357  5481  6001  6281  6622  7071  7493  7779  8015  8408  8979  9502  9748  9536  8683  7292  5933  5126  4863  4906  5306  6282  7681  8974  9796  10127  10102  9840  9458  9111  8929  8982  9307  9829  10314  10562  10522  10244  9861  9598  9660  10123  10811  11342  11338  10547  9005  7122  5381  4031  3101  2512  2135  1847  1567  1274  960  583  124  -328  -637  -779  -853  -958  -1087  -1191  -1346  -1775  -2569  -3363  -3554  -2962  -1921  -793  241  1156  1945  2325  1783  73  -2372  -4726  -6506  -7653  -8013  -7337  -5719  -3641  -1767  -627  -247  -303  -545  -852  -1123  -1292  -1323  -1184  -888  -559  -358  -358  -529  -764  -940  -1002  -953  -764  -344  358  1164  1725  1869  1662  1208  621  78  -267  -434  -581  -820  -1112  -1360  -1514  -1560  -1406  -943  -243  494  1210  1898  2427  2697  2797  2884  3011  3130  3200  3220  3183  3052  2819  2524  2233  1961  1507  592  -603  -1487  -1786  -1706  -1483  -1226  -1077  -1344  -2320  -3786  -5061  -5747  -6074  -6494  -7258  -8299  -9291  -9892  -10077  -10107  -10226  -10544  -11066  -11670  -12148  -12299  -12129  -12002  -12256  -12705  -12812  -12159  -10749  -9089  -7863  -7558  -8368  -10185  -12612  -14974  -16405  -16349  -14933  -12765  -10631  -9138  -8233  -7415  -6513  -5761  -5217  -4592  -3719  -2851  -2342  -2211  -2227  -2208  -2064  -1731  -1271  -897  -714  -529  20  1091  2344  3222  3515  3320  2713  1864  1140  801  874  1331  2071  2881  3600  4185  4629  4953  5198  5397  5572  5709  5701  5313  4398  3217  2300  1909  1880  1954  2024  2086  2111  2018  1789  1534  1384  1368  1441  1596  1887  2362  2978  3632  4320  5076  5762  6138  6068  5581  4922  4451  4330  4478  4755  4991  4874  3972  2224  333  -804  -863  -54  1115  2038  2448  2570  2711  2951  3199  3373  3448  3423  3305  3148  3036  3018  3087  3215  3389  3656  4085  4627  5008  4727  3310  958  -1365  -2895  -3642  -3957  -4037  -3920  -3622  -3193  -2725  -2342  -2163  -2340  -3008  -3999  -4844  -5222  -5101  -4455  -3279  -1910  -881  -386  -217  -113  29  187  339  522  775  1086  1409  1721  2066  2497  2978  3377  3590  3587  3347  2891  2397  2083  1999  2074  2314  2765  3307  3698  3846  3853  3832  3784  3646  3405  3125  2830  2495  2167  1959  1913  2001  2170  2206  1593  -70  -2332  -4199  -5086  -4807  -3460  -1696  -312  385  728  1386  2764  4583  6000  6072  4311  1134  -2269  -4701  -5525  -4885  -3761  -3381  -4162  -5411  -6231  -6416  -6264  -6020  -5781  -5629  -5632  -5765  -5931  -6058  -6154  -6214  -6100  -5581  -4548  -3098  -1518  -230  569  1248  2299  3655  4798  5446  5718  5822  5896  6027  6321  6889  7672  8366  8715  8754  8699  8767  9094  9626  10133  10449  10617  10751  10876  10946  10963  11031  11254  11597  11893  12031  12042  12009  11971  11897  11708  11360  10885  10318  9711  9165  8724  8293  7760  7163  6632  6209  5847  5508  5171  4750  4166  3529  3033  2668  2275  1812  1374  1030  791  651  615  729  1039  1464  1841  2079  2115  1759  878  -243  -1087  -1472  -1608  -1732  -1965  -2401  -3206  -4630  -6647  -8603  -9710  -9742  -8963  -7868  -6984  -6499  -6241  -6009  -5695  -5251  -4723  -4195  -3639  -2972  -2226  -1501  -819  -230  139  260  229  123  -67  -362  -743  -1212  -1850  -2727  -3708  -4475  -4852  -4934  -4897  -4845  -4791  -4691  -4507  -4255  -3949  -3571  -3141  -2688  -2196  -1713  -1384  -1300  -1489  -1963  -2631  -3304  -3833  -4167  -4337  -4419  -4449  -4365  -4064  -3557  -3000  -2521  -2172  -1991  -1987  -2130  -2340  -2470  -2403  -2157  -1868  -1671  -1601  -1605  -1651  -1756  -1921  -2093  -2206  -2242  -2215  -2123  -2014  -2136  -2851  -4154  -5490  -6158  -5653  -3931  -1648  195  902  237  -1740  -4633  -7699  -10128  -11311  -11052  -9666  -7932  -6757  -6435  -6488  -6413  -6069  -5546  -5046  -4708  -4496  -4326  -4169  -3995  -3806  -3663  -3597  -3566  -3491  -3297  -2962  -2543  -2126  -1760  -1430  -1093  -742  -409  -117  144  391  595  718  769  785  793  798  802  841  961  1156  1385  1665  2066  2605  3168  3584  3795  3895  3975  4034  4055  4056  4060  4074  4072  3997  3793  3481  3164  2922  2745  2583  2421  2283  2190  2149  2150  2162  2141  2032  1809  1545  1373  1330  1321  1218  984  708  521  532  835  1422  2066  2459  2400  1831  932  103  -410  -673  -812  -882  -911  -923  -894  -761  -509  -214  58  330  621  865  1002  1051  1049  992  866  712  608  578  580  569  528  456  344  194]
