reading_id,reading_time,wire_id,result_classification,heart_rate,heart_rate_alert,firmware_version,device_app_version,hardware_version,waveform_samples
88c2d140-6710-11ed-8080-808080808080,Fri Nov 18 07:13:42 UTC 2022,e100638d1a39,NSR,66,NONE,20001.171.50,2.10.0,Charge 5,[-6031  -6116  -6183  -6227  -6229  -6137  -5908  -5614  -5406  -5344  -5327  -5223  -5017  -4760  -4393  -3669  -2324  -369  1798  3491  3920  2589  -299  -3804  -6687  -8090  -7898  -6572  -4808  -3292  -2363  -1895  -1625  -1435  -1321  -1269  -1228  -1174  -1121  -1084  -1063  -1056  -1049  -1017  -930  -786  -622  -457  -263  -14  262  493  641  744  844  945  1056  1178  1282  1368  1491  1680  1882  2022  2091  2153  2288  2506  2740  2929  3065  3177  3293  3406  3499  3610  3804  4051  4238  4308  4298  4267  4250  4246  4223  4146  4030  3933  3882  3827  3701  3475  3192  2937  2770  2687  2641  2590  2544  2544  2613  2715  2790  2816  2812  2803  2794  2796  2828  2877  2908  2922  2936  2933  2890  2804  2704  2643  2641  2669  2695  2727  2778  2832  2829  2723  2546  2379  2261  2201  2215  2291  2368  2380  2280  2062  1808  1651  1686  1923  2251  2496  2579  2520  2348  2123  1952  1883  1878  1886  1891  1895  1902  1912  1912  1883  1810  1714  1644  1616  1592  1545  1486  1440  1396  1344  1325  1365  1413  1390  1289  1170  1089  1056  1053  1068  1081  1074  1026  912  758  632  583  647  857  1168  1443  1589  1615  1584  1548  1523  1512  1549  1684  1902  2108  2225  2247  2173  1980  1684  1363  1083  869  733  666  636  619  613  617  623  606  531  394  241  120  44  5  -24  -84  -196  -324  -401  -398  -342  -262  -161  -70  -48  -106  -202  -270  -277  -294  -368  -402  -310  -4  744  2121  3964  5752  6772  6362  4281  1017  -2350  -4709  -5458  -4695  -3090  -1497  -466  -87  -151  -365  -559  -715  -826  -880  -888  -868  -823  -751  -668  -597  -561  -558  -575  -580  -538  -432  -289  -154  -65  -39  -78  -180  -302  -358  -285  -103  105  271  374  433  487  544  578  588  625  739  903  1036  1103  1128  1143  1166  1189  1195  1194  1215  1272  1327  1316  1223  1081  941  854  828  805  714  539  327  132  -30  -179  -315  -408  -445  -457  -507  -642  -835  -987  -1045  -1038  -1016  -1005  -1007  -1012  -995  -941  -865  -807  -784  -769  -722  -641  -591  -631  -744  -878  -1004  -1103  -1142  -1096  -965  -765  -527  -326  -250  -328  -502  -666  -751  -766  -752  -735  -738  -789  -907  -1060  -1188  -1234  -1135  -854  -488  -219  -129  -181  -337  -550  -749  -882  -941  -953  -951  -960  -994  -1065  -1162  -1231  -1243  -1227  -1180  -1057  -867  -688  -573  -518  -498  -502  -525  -555  -576  -574  -533  -439  -308  -174  -47  92  241  359  428  478  534  573  555  463  339  251  206  139  -12  -230  -434  -578  -669  -720  -745  -759  -764  -761  -770  -807  -876  -982  -1113  -1226  -1294  -1325  -1334  -1315  -1253  -1162  -1080  -1029  -1009  -1030  -1133  -1352  -1666  -1924  -1937  -1694  -1283  -690  92  1090  2432  4065  5533  6133  5252  2749  -758  -4050  -5974  -6086  -4796  -2993  -1480  -605  -272  -202  -182  -137  -84  -52  -43  -46  -54  -74  -109  -149  -185  -221  -245  -241  -202  -119  -2  121  251  397  530  611  639  641  636  639  664  726  817  903  952  969  977  998  1050  1150  1298  1473  1637  1764  1848  1910  1968  2019  2048  2044  2013  1977  1954  1943  1927  1881  1782  1627  1419  1167  926  768  685  607  487  326  138  -61  -238  -363  -444  -505  -569  -656  -755  -815  -790  -685  -555  -466  -437  -442  -454  -474  -512  -569  -619  -633  -606  -568  -570  -620  -655  -597  -433  -225  -53  42  69  24  -111  -304  -464  -537  -544  -513  -449  -363  -291  -257  -256  -268  -280  -286  -282  -276  -289  -342  -430  -512  -559  -572  -569  -562  -554  -547  -547  -564  -604  -648  -658  -624  -562  -493  -423  -350  -278  -227  -215  -264  -384  -525  -589  -515  -340  -169  -76  -69  -136  -267  -421  -537  -578  -556  -511  -465  -417  -369  -336  -309  -252  -134  46  244  391  464  503  562  662  787  894  945  929  874  801  715  616  513  402  266  94  -87  -231  -320  -380  -423  -441  -444  -486  -620  -815  -968  -1028  -1025  -1007  -997  -1011  -1064  -1142  -1216  -1260  -1237  -1122  -963  -862  -879  -1010  -1207  -1421  -1594  -1568  -1114  -149  1258  3029  4967  6602  7275  6413  3855  108  -3677  -6159  -6556  -5088  -2705  -506  733  885  428  -46  -285  -334  -276  -150  -9  91  137  155  176  202  222  233  240  248  268  301  341  375  402  433  477  525  559  585  640  740  851  931  974  991  999  1021  1081  1187  1312  1410  1458  1461  1453  1482  1575  1712  1839  1898  1882  1833  1799  1787  1759  1672  1521  1350  1219  1143  1062  900  672  466  319  206  101  -1  -105  -209  -319  -438  -565  -684  -762  -780  -730  -619  -489  -399  -370  -384  -426  -482  -531  -552  -543  -517  -487  -460  -444  -440  -437  -423  -402  -377  -348  -311  -275  -252  -263  -326  -415  -484  -517  -520  -496  -447  -394  -367  -367  -376  -387  -404  -420  -424  -407  -372  -336  -320  -326  -340  -353  -362  -371  -375  -379  -399  -435  -462  -474  -494  -540  -597  -647  -675  -649  -569  -488  -443  -426  -417  -404  -389  -381  -381  -384  -387  -388  -386  -374  -348  -328  -347  -416  -503  -569  -602  -614  -612  -580  -496  -387  -311  -290  -299  -296  -243  -119  49  195  287  347  403  471  566  708  875  1001  1043  1003  889  734  600  536  520  477  320  40  -257  -458  -550  -579  -569  -530  -475  -419  -385  -407  -523  -715  -892  -982  -989  -961  -931  -915  -920  -954  -1027  -1130  -1221  -1261  -1227  -1127  -1037  -1025  -969  -625  200  1680  3738  5750  6916  6705  4866  1646  -1977  -4772  -5947  -5433  -3773  -1827  -357  326  421  288  126  -5  -69  -57  -9  28  54  90  140  171  157  109  76  92  129  160  200  280  392  497  569  619  664  693  696  684  682  705  742  785  856  971  1107  1240  1380  1518  1615  1660  1690  1734  1797  1876  1942  1967  1942  1882  1817  1777  1768  1772  1773  1752  1684  1559  1368  1110  844  660  574  521  432  269  62  -108  -207  -271  -336  -402  -459  -518  -603  -707  -786  -809  -779  -712  -648  -634  -685  -774  -845  -873  -883  -886  -852  -758  -627  -516  -453  -429  -429  -440  -460  -489  -520  -531  -508  -461  -433  -447  -478  -497  -514  -553  -604  -634  -618  -565  -511  -489  -500  -536  -589  -630  -632  -613  -599  -597  -600  -602  -605  -611  -624  -642  -643  -608  -538  -450  -366  -316  -308  -329  -351  -351  -358  -419  -511  -582  -627  -657  -658  -619  -576  -579  -624  -655  -629  -553  -461  -381  -331  -313  -313  -322  -351  -413  -486  -540  -563  -561  -535  -489  -436  -396  -374  -368  -386  -433  -476  -457  -357  -202  -26  146  315  505  732  964  1142  1234  1242  1151  940  661  423  269  161  53  -81  -251  -412  -512  -559  -602  -656  -699  -729  -769  -821  -860  -873  -874  -875  -882  -890  -898  -903  -908  -913  -920  -925  -922  -902  -874  -901  -1041  -1196  -1224  -1137  -897  -302  801  2416  4362  6147  7017  6304  3879  387  -3017  -5218  -5604  -4394  -2496  -843  111  418  386  283  202  142  104  88  88  95  104  109  110  113  123  133  132  129  157  251  411  581  697  746  756  758  766  768  750  721  719  776  872  941  962  974  1045  1204  1402  1564  1675  1756  1815  1865  1917  1957  1970  1944  1878  1795  1735  1713  1716  1727  1742  1745  1700  1579  1410  1247  1074  818  486  189  18  -36  -50  -103  -227  -378  -482  -518  -518  -516  -530  -571  -641  -720  -770  -766  -708  -620  -557  -556  -592  -617  -622  -621  -624  -632  -632  -613  -583  -560  -550  -548  -548  -549  -553  -560  -566  -548  -475  -359  -251  -197  -223  -328  -457  -531  -537  -515  -497  -490  -491  -486  -471  -460  -456  -437  -375  -275  -192  -171  -203  -243  -264  -271  -279  -294  -312  -324  -325  -316  -300  -281  -264  -254  -253  -253  -249  -237  -224  -209  -189  -170  -177  -230  -319  -411  -471  -478  -438  -386  -348  -316  -285  -256  -222  -181  -126  -36  91  218  313  418  598  866  1141  1324  1381  1331  1195  1007  815  619  401  200  77  27  -11  -99  -257  -436  -556  -595  -589  -577  -569  -568  -579  -607  -645  -671  -678  -676  -680  -702  -732  -753  -757  -754  -760  -788  -830  -859  -836  -740  -612  -529  -523  -528  -362  286  1678  3642  5486  6412  5854  3630  278  -2969  -5004  -5428  -4441  -2734  -1206  -359  -101  -110  -163  -193  -211  -235  -265  -284  -274  -217  -111  11  89  104  101  98  77  45  26  20  17  26  64  151  296  497  708  859  925  934  932  956  1011  1071  1120  1162  1199  1230  1274  1351  1463  1591  1711  1809  1880  1928  1972  2027  2079  2095  2042  1906  1721  1546  1400  1252  1084  924  815  759  716  632  475  247  -13  -229  -339  -361  -346  -324  -312  -341  -451  -631  -809  -927  -988  -1012  -993  -921  -816  -724  -679  -681  -709  -737  -743  -727  -696  -645  -579  -532  -531  -569  -616  -645  -653  -648  -624  -568  -495  -446  -434  -442  -441  -405  -349  -306  -283  -280  -324  -427  -552  -649  -709  -750  -775  -781  -776  -767  -739  -662  -542  -415  -314  -261  -260  -298  -363  -449  -542  -614  -642  -639  -640  -654  -656  -633  -594  -563  -561  -579  -594  -600  -619  -669  -719  -698  -570  -381  -204  -74  10  52  83  166  340  552  712  811  916  1038  1092  1003  800  588  437  322  171  -22  -188  -278  -304  -309  -329  -379  -460  -562  -653  -706  -720  -713  -693  -661  -644  -681  -772  -874  -946  -976  -953  -868  -750  -654  -615  -648  -767  -942  -1097  -1212  -1314  -1336  -1081  -320  1059  2953  5012  6646  7129  5931  3093  -649  -4085  -6045  -6030  -4474  -2352  -578  355  508  301  88  -32  -81  -84  -57  -8  49  93  113  134  188  273  346  380  385  384  417  531  714  874  934  917  886  870  860  852  862  894  936  983  1041  1111  1177  1229  1290  1389  1511  1616  1688  1734  1771  1822  1888  1932  1931  1908  1894  1900  1918  1932  1925  1896  1839  1727  1526  1248  960  698  475  311  184  8  -270  -591  -832  -941  -966  -971  -977  -964  -916  -866  -846  -847  -857  -867  -873  -874  -873  -871  -870  -871  -872  -873  -876  -885  -902  -922  -926  -896  -846  -788  -717  -658  -643  -655  -666  -667  -663  -661  -677  -719  -771  -809  -823  -824  -821  -805  -766  -711  -664  -629  -588  -540  -505  -491  -486  -471  -441  -405  -380  -369  -364  -360  -359  -371  -416  -512  -632  -712  -716  -653  -546  -430  -346  -311  -306  -309  -308  -305  -310  -342  -389  -399  -350  -306  -336  -419  -489  -516  -510  -473  -387  -257  -122  2  120  210  250  254  273  377  607  910  1157  1273  1294  1284  1262  1196  1054  853  639  432  248  119  56  19  -55  -191  -341  -437  -462  -441  -404  -385  -426  -557  -740  -884  -936  -916  -872  -842  -834  -838  -846  -849  -831  -770  -671  -580  -586  -771  -1091  -1291  -1023  -41  1716  3997  6119  7270  6864  4688  1187  -2541  -5291  -6256  -5330  -3197  -962  487  895  629  253  53  -7  -40  -72  -81  -67  -58  -62  -60  -13  97  245  364  417  421  414  405  399  410  448  512  581  626  637  625  611  618  669  760  862  950  1031  1110  1185  1297  1491  1722  1888  1955  1959  1945  1936  1934  1935  1936  1944  1963  1985  1993  1983  1938  1832  1663  1475  1335  1266  1191  971  562  106  -207  -331  -351  -363  -399  -449  -510  -596  -693  -758  -768  -734  -684  -640  -616  -618  -635  -653  -668  -689  -709  -682  -568  -408  -291  -255  -278  -336  -429  -550  -663  -740  -770  -733  -633  -527  -471  -467  -485  -494  -483  -466  -456  -451  -443  -433  -430  -450  -499  -565  -620  -651  -655  -635  -598  -553  -510  -481  -469  -471  -489  -526  -572  -610  -611  -565  -506  -473  -466  -469  -470  -465  -462  -471  -487  -493  -477  -456  -464  -511  -563  -587  -582  -557  -523  -486  -453  -429  -411  -395  -377  -364  -368  -393  -452  -543  -632  -673  -651  -581  -479  -349  -193  -45  38  44  36  118  363  729  1071  1275  1350  1360  1312  1159  882  545  255  94  58  83  109  86  -25  -213  -410  -560  -654  -695  -700  -711  -766  -858  -936  -970  -971  -960  -943  -918  -892  -878  -901  -976  -1079  -1155  -1186  -1198  -1210  -1240  -1324  -1406  -1281  -777  150  1493  3191  5012  6450  6856  5753  3092  -527  -3909  -5877  -5993  -4632  -2590  -768  214  402  266  138  71  25  -4  0  29  55  72  107  181  295  421  515  556  564  562  558  548  530  506  485  470  458  456  488  588  743  893  994  1049  1078  1094  1104  1136  1243  1434  1630  1755  1818  1849  1865  1892  1960  2081  2209  2257  2179  2042  1944  1904  1879  1845  1809  1775  1710  1558  1280  917  597  402  287  172  37  -89  -190  -271  -342  -407  -462  -501  -523  -535  -544  -552  -569  -603  -644  -669  -674  -667  -656  -638  -616  -597  -577  -531  -450  -357  -292  -268  -267  -277  -318  -418  -554  -657  -696  -694  -681  -674  -680  -696  -708  -702  -665  -589  -495  -423  -390  -381  -379  -383  -400  -429  -461  -494  -519  -528  -528  -535  -549  -559  -562  -559  -552  -528  -474  -406  -356  -339  -339  -344  -357  -385  -416  -427  -413  -394  -388  -397  -417  -449  -500  -558  -599  -617  -627  -638  -638  -622  -606  -590  -556  -520  -506  -505  -496  -465  -421  -385  -360  -334  -299  -266  -243  -224  -196  -144  -52  95  291  516  757  990  1164  1222  1123  878  592  397  325  321  327  293  175  -23  -249  -441  -566  -625  -650  -669  -705  -778  -898  -1042  -1165  -1239  -1269  -1271  -1258  -1238  -1223  -1225  -1253  -1297  -1336  -1361  -1358  -1293  -1151  -980  -844  -783  -778  -638  -45  1206  3035  4987  6381  6558  5102  2208  -1230  -4094  -5515  -5238  -3755  -1972  -645  -29  74  1  -44  -18  45  94  110  101  82  74  101  177  286  385  445  467  468  463  459  463  476  491  502  506  500  488  489  547  699  924  1147  1308  1395  1428  1441  1467  1522  1595  1660  1706  1745  1792  1844  1888  1910  1910  1907  1930  1993  2055  2046  1966  1893  1875  1883  1848  1709  1478  1230  995  722  419  186  83  64  52  -21  -195  -418  -588  -657  -649  -606  -552  -504  -477  -472  -484  -503  -522  -540  -569  -612  -672  -741  -792  -805  -787  -758  -719  -650  -542  -430  -358  -334  -339  -380  -468  -572  -606  -520  -377  -304  -367  -507  -620  -666  -665  -632  -558  -461  -391  -376  -411  -479  -565  -649  -713  -742  -714  -616  -488  -417  -448  -539  -615  -646  -650  -649  -648  -638  -612  -579  -560  -572  -608  -642  -645  -613  -566  -518  -475  -442  -430  -437  -444  -451  -471  -495  -494  -457  -406  -374  -363  -317  -182  17  201  350  526  741  921  1007  1005  931  795  639  516  435  363  262  118  -44  -181  -281  -361  -420  -445  -441  -433  -461  -558  -724  -917  -1075  -1137  -1105  -1037  -968  -892  -819  -782  -778  -788  -797  -801  -801  -802  -822  -887  -999  -1094  -1136  -1161  -1112  -758  98  1531  3470  5459  6692  6440  4436  1113  -2412  -4894  -5675  -4909  -3277  -1560  -305  330  502  447  320  187  80  3  -54  -85  -77  -34  7  15  5  40  165  358  527  605  615  603  578  540  500  487  542  664  792  864  879  870  864  884  953  1080  1248  1405  1500  1533  1544  1571  1632  1727  1828  1894  1916  1915  1906  1884  1836  1758  1667  1596  1565  1556  1541  1499  1419  1302  1154  963  708  419  176  24  -74  -180  -300  -403  -481  -555  -654  -794  -946  -1048  -1083  -1077  -1052  -999  -905  -791  -707  -670  -656  -648  -646  -643  -630  -606  -597  -619  -654  -675  -685  -705  -741  -776  -786  -766  -749  -760  -785  -797  -782  -749  -713  -674  -620  -576  -580  -623  -681  -736  -771  -782  -780  -777  -771  -757  -728  -675  -610  -553  -509  -471  -445  -437  -444  -462  -487  -512  -528  -531  -523  -515  -516  -537  -581  -632  -661  -658  -640  -617  -586  -553  -510  -423  -269  -95  39  137  223  296  363  453  576  705  807  853  806  643  418  239  136  41  -103  -269  -387  -439  -457  -467  -476  -496  -541  -622  -733  -847  -928  -954  -942  -923  -911  -900  -877  -845  -821  -813  -815  -821  -851  -932  -1043  -1117  -1104  -1022  -969  -1020  -1002  -586  405  1943  3820  5555  6481  6016  3926  542  -3148  -5847  -6668  -5576  -3307  -1015  355  635  340  33  -93  -99  -65  -23  10  29  45  76  118  149  159  165  191  252  331  391  409  403  393  384  378  387  436  532  649  752  826  879  936  1002  1057  1096  1139  1199  1282  1392  1512  1608  1664  1705  1751  1797  1838  1884  1914  1900  1851  1801  1770  1757  1760  1775  1773  1710  1558  1331  1045  692  325  73  -17  -27  -50  -122  -243  -407  -604  -796  -927  -976  -962  -894  -757  -564  -373  -242  -185  -172  -169  -159  -141  -115  -81  -44  -13  -10  -73  -179  -225  -170  -91  -49  -43  -59  -104  -179  -248  -267  -224  -151  -96  -77  -79  -89  -107  -130  -148  -148  -133  -121  -128  -154  -184  -207  -225  -255  -294  -320  -314  -286  -255  -232  -213  -194  -193  -227  -282  -324  -339  -336  -326  -323  -347  -412  -499  -563  -582  -573  -569  -574  -568  -530  -453  -361  -282  -201  -90  32  129  189  214  179  75  -34  -53  56  277  581  886  1069  1083  969  783  585  419  281  161  93  83  71  -33  -255  -515  -721  -883  -1050  -1201  -1289  -1311  -1295  -1245  -1165  -1077  -1014  -984  -978  -984  -991  -1008  -1061  -1161  -1285  -1387  -1426  -1415  -1393  -1386  -1355  -1111  -479  559  2020  3842  5607  6656  6364  4399  1066  -2639  -5453  -6488  -5701  -3800  -1709  -158  520  504  244  29  -118  -234  -307  -313  -248  -137  -25  49  80  76  43  -16  -84  -116  -67  83  298  504  634  664  624  568  540  580  683  797  903  1023  1151  1237  1260  1246  1236  1275  1403  1606  1806  1939  1999  2014  2008  1997  1993  2007  2046  2098  2143  2150  2081  1919  1715  1550  1438  1346  1248  1098  837  503  213  18  -129  -259  -353  -397  -409  -418  -454  -530  -623  -711  -783  -808  -742  -588  -424  -349  -404  -532  -641  -694  -707  -704  -694  -675  -647  -616  -588  -577  -581  -571  -535  -493  -458  -431  -413  -417  -451  -513  -600  -694  -728  -657  -539  -461  -435  -436  -445  -462  -490  -524  -549  -560  -566  -573  -570  -552  -526  -511  -512  -518  -516  -510  -502  -488  -469  -456  -457  -468  -485  -501  -511  -512  -510  -517  -534  -554  -566  -570  -571  -572  -573  -567  -543  -496  -439  -394  -394  -482  -617  -685  -650  -579  -509  -408  -263  -120  -29  -2  -6  17  125  319  547  757  922  1019  1052  1049  1030  995  929  820  697  615  594  606  595  488  230  -113  -387  -511  -529  -510  -493  -492  -519  -584  -674  -762  -833  -891  -939  -971  -989  -992  -965  -893  -799  -734  -718  -724  -720  -711  -756  -886  -1008  -939  -522  351  1743  3575  5463  6755  6758  5004  1672  -2176  -5136  -6241  -5376  -3283  -1120  231  591  388  139  27  0  -7  -10  -18  -23  5  99  230  332  373  376  370  365  361  359  365  390  425  452  465  484  524  585  659  740  819  903  1010  1134  1240  1305  1341  1355  1356  1359  1399  1505  1659  1804  1920  2023  2122  2205  2254  2267  2249  2205  2153  2116  2080  1979  1763  1492  1292  1215  1178  1063  832  548  290  90  -46  -132  -198  -255  -289  -305  -335  -407  -502  -574  -602  -612  -626  -648  -666  -662  -641  -629  -655  -729  -819  -873  -865  -802  -709  -619  -555  -520  -504  -490  -469  -441  -416  -398  -388  -383  -393  -428  -491  -565  -626  -653  -651  -644  -646  -660  -700  -778  -873  -919  -862  -719  -563  -456  -415  -421  -456  -512  -572  -611  -623  -602  -541  -459  -393  -365  -377  -417  -461  -498  -524  -538  -543  -549  -563  -585  -610  -630  -638  -624  -580  -514  -458  -448  -498  -589  -682  -742  -762  -736  -657  -539  -431  -372  -359  -363  -371  -384  -407  -419  -396  -354  -331  -337  -343  -313  -232  -125  -33  40  146  330  580  830  996  1055  1045  1003  943  882  824  737  581  386  230  138  70  -25  -163  -314  -432  -517  -600  -695  -777  -816  -812  -800  -802  -808  -808  -801  -802  -834  -909  -996  -1038  -1020  -987  -976  -974  -961  -952  -983  -1061  -1102  -977  -573  274  1756  3796  5831  7028  6702  4627  1260  -2304  -4824  -5580  -4707  -2907  -1009  259  617  405  124  -35  -108  -121  -82  -32  -9  -16  -25  3  97  227  322  361  375  390  405  413  409  399  391  389  391  392  396  426  507  624  738  845  963  1082  1172  1222  1249  1268  1280  1296  1359  1519  1744  1933  2024  2046  2040  2022  1992  1957  1932  1912  1869  1768  1619  1461  1310  1151  988  847  744  690  659  567  329  0  -253  -356  -378  -399  -430  -461  -499  -555  -634  -723  -784  -788  -732  -646  -569  -520  -494  -486  -494  -507  -504  -470  -423  -392  -383  -388  -396  -408  -424  -432  -413  -365  -314  -302  -358  -461  -564  -633  -664  -670  -664  -651  -633  -610  -590  -576  -570  -571  -569  -567  -574  -596  -616  -607  -568  -533  -519  -516  -509  -499  -488  -474  -465  -468  -481  -484  -465  -450  -463  -487  -479  -431  -381  -388  -448  -501  -517  -509  -477  -420  -356  -310  -311  -351  -393  -423  -450  -470  -468  -444  -418  -417  -444  -480  -489  -403  -197  46  218  282  279  255  233  243  355  591  864  1058  1151  1191  1195  1094  811  429  152  63  72  66  -5  -132  -273  -401  -507  -582  -625  -643  -646  -650  -683  -742  -791  -816  -840  -877  -913  -937  -957  -976  -989  -995  -988  -968  -948  -939  -941  -929  -895  -889  -906  -785  -372  421  1736  3543  5354  6407  6023  3901  502  -2959  -5237  -5765  -4767  -2960  -1179  -16  416  384  191  -8  -165  -249  -244  -161  -42  72  152  186  188  183  180  178  173  160  142  126  136  205  334  471  557  585  592  621  693  791  887  966  1021  1051  1066  1091  1149  1247  1362  1461  1533  1601  1684  1775  1851  1892  1902  1893  1876  1858  1848  1851  1859  1843  1766  1624  1464  1337  1250  1164  1001  716  375  95  -72  -167  -242  -313  -373  -411  -425  -425  -437  -489  -582  -691  -774  -786  -707  -580  -486  -455  -461  -478  -495  -512  -526  -535  -541  -547  -552  -555  -554  -543  -519  -514  -552  -601  -612  -569  -496  -433  -396  -372  -355  -370  -446  -557  -645  -683  -682  -639  -539  -409  -314  -280  -275  -271  -287  -351  -444  -514  -536  -528  -514  -499  -483  -473  -486  -534  -601  -651  -653  -606  -531  -467  -435  -427  -430  -437  -450  -471  -489  -485  -452  -396  -347  -354  -429  -517  -558  -555  -542  -538  -540  -539  -526  -497  -454  -402  -325  -183  27  233  361  422  481  582  706  804  851  854  824  749  616  436  259  138  81  60  34  -39  -190  -402  -611  -749  -809  -828  -836  -844  -850  -852  -851  -854  -864  -878  -883  -876  -877  -929  -1039  -1164  -1251  -1286  -1275  -1211  -1109  -1047  -1071  -1094  -975  -587  236  1644  3552  5525  6820  6647  4647  1238  -2508  -5354  -6441  -5687  -3788  -1756  -350  231  273  165  91  50  12  -26  -65  -105  -137  -153  -151  -126  -69  21  140  256  329  349  343  339  340  340  353  412  540  701  821  865  861  843  826  835  908  1061  1249  1404  1502  1570  1631  1692  1757  1823  1878  1916  1945  1971  1994  2011  2017  2001  1951  1876  1806  1756  1710  1635  1507  1323  1085  830  621  481  371  251  121  9  -79  -163  -249  -351  -480  -610  -693  -710  -663  -566  -457  -389  -380  -417  -478  -543  -594  -631  -656  -643  -571  -468  -405  -419  -475  -521  -538  -536  -528  -517  -508  -518  -561  -618  -651  -638  -600  -569  -554  -538  -511  -481  -473  -499  -537  -552  -552  -567  -596  -614  -607  -576  -541  -525  -538  -573  -608  -622  -621  -620  -626  -636  -634  -611  -578  -550  -536  -545  -574  -601  -607  -597  -581  -568  -559  -547  -538  -534  -535  -537  -532  -492  -390  -256  -166  -177  -276  -378  -396  -356  -341  -366  -389  -394  -397  -409  -421  -382  -228  34  302  468  517  512  525  612  804  1048  1224  1261  1169  1001  830  704  614  530  422  256  18  -241  -446  -560  -595  -590  -577  -576  -607  -681  -782  -867  -913  -926  -918  -897  -869  -852  -854  -881  -929  -988  -1039  -1076  -1109  -1136  -1111  -1004  -852  -681  -413  124  1155  2778  4724  6380  7004  5993  3285  -419  -3873  -5872  -5905  -4355  -2212  -512  245  275  80  -40  -62  -39  0  51  102  140  165  183  195  198  188  168  150  153  187  247  301  328  344  392  489  604  695  759  813  867  932  1003  1070  1149  1263  1381  1449  1469  1494  1576  1713  1845  1925  1959  1978  1994  2007  2018  2028  2036  2044  2050  2051  2026  1960  1854  1725  1574  1401  1219  1036  840  632  412  157  -108  -300  -376  -376  -369  -397  -443  -478  -513  -571  -649  -715  -742  -723  -676  -626  -589  -579  -589  -593  -574  -544  -526  -517  -498  -465  -445  -463  -508  -550  -569  -564  -560  -564  -566  -566  -570  -574  -572  -561  -533  -481  -420  -399  -447  -533  -596  -611  -601  -592  -590  -605  -649  -715  -769  -793  -791  -772  -736  -688  -650  -624  -591  -550  -519  -504  -493  -488  -502  -540  -606  -687  -754  -799  -835  -870  -887  -866  -803  -712  -613  -527  -478  -477  -490  -484  -454  -412  -376  -350  -326  -314  -346  -438  -564  -668  -715  -710  -678  -626  -531  -373  -173  14  137  193  216  252  343  504  705  886  997  1033  1013  940  814  678  588  541  491  419  335  207  -17  -318  -590  -744  -780  -758  -724  -691  -660  -639  -647  -698  -778  -846  -884  -919  -985  -1068  -1122  -1134  -1127  -1119  -1112  -1108  -1125  -1181  -1262  -1289  -1194  -968  -531  330  1747  3610  5554  6882  6743  4719  1235  -2570  -5366  -6323  -5486  -3581  -1546  -102  495  470  232  35  -69  -105  -106  -101  -106  -117  -113  -84  -38  16  79  143  215  298  375  438  487  527  564  610  667  729  787  830  857  880  907  945  992  1031  1064  1124  1248  1430  1614  1733  1776  1783  1799  1839  1890  1936  1978  2011  2032  2047  2060  2055  1994  1849  1662  1511  1432  1398  1375  1302  1091  717  305  27  -70  -66  -52  -83  -182  -322  -441  -507  -529  -525  -506  -487  -476  -478  -487  -508  -552  -612  -649  -638  -584  -526  -499  -504  -519  -530  -537  -541  -541  -535  -526  -520  -530  -565  -622  -683  -733  -764  -779  -785  -780  -751  -693  -638  -630  -657  -661  -614  -529  -436  -365  -324  -305  -310  -332  -353  -371  -407  -479  -557  -593  -587  -574  -571  -572  -559  -522  -473  -446  -455  -492  -540  -573  -574  -558  -553  -565  -576  -566  -544  -531  -536  -542  -537  -528  -528  -535  -541  -544  -545  -550  -559  -573  -588  -602  -605  -574  -488  -371  -283  -250  -242  -206  -106  44  188  290  397  575  805  998  1089  1074  977  847  736  650  557  428  247  41  -132  -261  -394  -550  -693  -777  -808  -824  -864  -939  -1023  -1076  -1067  -989  -879  -789  -744  -745  -804  -931  -1060  -1094  -1036  -978  -968  -988  -1021  -1087  -1182  -1202  -987  -439  509  1954  3814  5625  6685  6308  4145  670  -2863  -5206  -5768  -4747  -2946  -1258  -157  327  385  281  182  113  68  39  -1  -43  -45  7  119  280  433  523  543  528  514  520  539  555  560  558  556  560  573  589  606  640  711  802  881  956  1051  1168  1286  1386  1474  1566  1660  1756  1843  1899  1921  1933  1948  1961  1965  1959  1950  1946  1947  1941  1919  1877  1798  1655  1451  1244  1084  976  878  727  493  213  -54  -280  -435  -510  -534  -545  -544  -519  -488  -481  -502  -529  -540  -528  -506  -487  -473  -466  -463  -463  -464  -461  -448  -427  -418  -444  -493  -535  -560  -578  -599  -608  -596  -571  -519  -440  -391  -401  -435  -458  -464  -469  -483  -497  -503  -504  -508  -524  -557  -601  -647  -695  -758  -813  -811  -746  -668  -624  -626  -663  -721  -789  -844  -863  -858  -847  -828  -798  -771  -762  -766  -770  -753  -705  -642  -595  -575  -569  -545  -483  -406  -362  -343  -273  -90  153  332  389  378  395  502  678  833  904  895  827  727  634  552  450  323  218  166  133  56  -89  -264  -409  -513  -601  -677  -728  -746  -751  -767  -804  -852  -895  -919  -919  -904  -875  -837  -792  -728  -649  -590  -585  -645  -749  -859  -925  -898  -816  -748  -608  -176  789  2415  4450  6183  6735  5458  2440  -1308  -4428  -5961  -5722  -4247  -2391  -869  -21  233  206  120  14  -103  -191  -216  -180  -111  -33  44  106  135  138  135  144  170  199  221  245  277  331  419  510  560  570  594  687  840  985  1082  1136  1162  1173  1176  1178  1198  1263  1376  1500  1609  1713  1809  1884  1948  2020  2086  2122  2120  2083  2015  1925  1838  1767  1702  1623  1542  1473  1387  1224  960  644  358  132  -59  -229  -354  -422  -448  -462  -485  -514  -534  -542  -544  -545  -541  -524  -491  -451  -423  -411  -405  -403  -433  -518  -600  -587  -482  -380  -341  -354  -388  -428  -467  -497  -510  -514  -519  -523  -510  -464  -401  -369  -393  -444  -480  -495  -519  -574  -644  -677  -637  -538  -435  -388  -423  -522  -642  -743  -797  -807  -782  -724  -645  -575  -539  -535  -544  -558  -591  -645  -694  -680  -559  -370  -224  -191  -252  -339  -399  -425  -421  -344  -145  141  427  674  874  980  946  788  580  414  323  279  236  162  47  -97  -256  -429  -604  -738  -806  -832  -859  -901  -947  -992  -1032  -1058  -1067  -1067  -1071  -1095  -1153  -1233  -1298  -1330  -1340  -1344  -1331  -1263  -1128  -977  -872  -825  -830  -884  -906  -689  13  1357  3256  5260  6604  6464  4443  960  -2874  -5747  -6740  -5818  -3766  -1617  -135  425  323  49  -99  -131  -143  -171  -192  -185  -155  -117  -69  -8  60  132  220  315  389  434  458  459  432  391  359  347  348  368  420  517  664  836  984  1085  1161  1238  1314  1384  1455  1540  1642  1747  1838  1902  1939  1950  1952  1971  2024  2093  2144  2167  2173  2169  2146  2080  1934  1693  1385  1078  827  636  486  353  205  43  -110  -258  -398  -483  -480  -414  -349  -339  -389  -464  -527  -563  -573  -556  -511  -448  -398  -380  -408  -499  -632  -744  -785  -760  -692  -589  -476  -398  -370  -375  -402  -445  -492  -525  -529  -499  -443  -381  -341  -342  -386  -454  -527  -601  -665  -664  -559  -411  -316  -300  -324  -364  -427  -516  -613  -695  -747  -771  -766  -733  -691  -653  -618  -587  -563  -537  -503  -473  -453  -450  -470  -522  -592  -650  -681  -699  -702  -656  -522  -338  -204  -166  -180  -173  -98  41  206  342  420  463  536  670  820  918  952  949  911  806  632  437  288  201  117  -38  -267  -496  -661  -763  -830  -879  -908  -919  -918  -913  -908  -906  -911  -924  -945  -965  -978  -986  -995  -1003  -1004  -1000  -1004  -1028  -1073  -1118  -1160  -1206  -1165  -852  -97  1208  3038  5049  6565  6855  5494  2586  -1092  -4276  -5916  -5755  -4259  -2271  -618  270  479  362  181  10  -130  -199  -191  -156  -132  -110  -69  -11  52  130  220  289  308  294  278  272  269  270  291  349  427  488  521  559  633  730  821  921  1053  1182  1253  1271  1294  1376  1522  1694  1842  1937  1984  2010  2030  2051  2069  2080  2078  2053  1997  1925  1874  1851  1828  1765  1621  1355  999  663  434  309  231  146  19  -150  -326  -466  -570  -653  -710  -731  -727  -717  -708  -692  -660  -620  -586  -559  -536  -525  -534  -565  -605  -640  -658  -650  -607  -534  -462  -421  -418  -447  -502  -582  -683  -754  -721  -596  -471  -404  -383  -378  -367  -347  -338  -355  -392  -432  -466  -504  -555  -613  -652  -665  -670  -680  -681  -646  -571  -486  -426  -406  -420  -449  -475  -498  -524  -561  -601  -633  -651  -664  -677  -687  -691  -686  -672  -652  -636  -629  -633  -639  -636  -602  -532  -448  -385  -347  -323  -308  -282  -216  -97  64  243  419  599  784  942  1044  1080  1026  850  601  400  304  261  198  76  -96  -282  -449  -598  -736  -847  -912  -947  -982  -1032  -1087  -1124  -1136  -1131  -1119  -1100  -1067  -1012  -948  -907  -901  -916  -930  -929  -915  -900  -915  -979  -1030  -933  -549  240  1530  3289  5189  6573  6714  5176  2109  -1595  -4646  -6089  -5701  -3967  -1846  -249  476  583  482  379  279  162  54  -10  -34  -34  -27  -33  -56  -81  -90  -74  -22  95  294  506  608  579  514  476  465  471  505  589  718  854  967  1050  1104  1144  1201  1279  1369  1475  1602  1715  1776  1786  1781  1806  1886  1993  2075  2106  2102  2081  2057  2042  2041  2047  2044  1997  1841  1532  1125  773  585  526  477  366  208  54  -60  -140  -235  -390  -569  -692  -737  -734  -702  -641  -570  -520  -498  -488  -488  -511  -551  -576  -558  -507  -457  -430  -426  -437  -464  -503  -537  -551  -529  -470  -400  -367  -396  -458  -510  -535  -547  -556  -571  -593  -609  -595  -548  -484  -434  -413  -412  -414  -416  -417  -421  -431  -439  -444  -451  -460  -465  -466  -460  -452  -448  -454  -469  -488  -507  -534  -565  -589  -599  -599  -597  -597  -597  -588  -561  -524  -497  -486  -478  -457  -429  -409  -406  -414  -429  -452  -481  -505  -510  -497  -480  -466  -447  -414  -354  -264  -161  -71  -19  6  80  297  642  965  1142  1188  1163  1079  922  724  548  426  350  281  153  -64  -322  -530  -645  -700  -742  -783  -791  -726  -625  -593  -658  -745  -803  -860  -951  -1063  -1147  -1178  -1165  -1116  -1041  -964  -917  -926  -1013  -1159  -1275  -1270  -1121  -846  -429  240  1360  3002  4865  6288  6512  5067  2147  -1335  -4172  -5502  -5196  -3749  -1926  -406  438  619  426  139  -117  -287  -342  -298  -183  -41  71  124  131  120  107  100  112  169  276  403  503  548  556  565  593  626  655  678  689  686  688  728  822  939  1039  1124  1219  1328  1432  1512  1571  1641  1734  1832  1908  1958  1990  2004  1988  1942  1891  1843  1766  1649  1525  1443  1414  1400  1337  1165  882  567  314  159  65  -18  -116  -212  -283  -335  -402  -497  -598  -666  -691  -697  -699  -694  -671  -624  -573  -551  -554  -563  -565  -562  -557  -558  -580  -626  -656  -612  -492  -361  -274  -247  -284  -379  -505  -619  -675  -673  -646  -615  -577  -521  -450  -386  -350  -348  -378  -439  -517  -563  -526  -427  -344  -316  -322  -332  -333  -332  -353  -415  -501  -571  -611  -633  -643  -644  -648  -665  -694  -720  -732  -731  -719  -699  -671  -617  -523  -417  -364  -392  -453  -489  -483  -439  -374  -291  -204  -140  -116  -121  -137  -136  -83  24  166  330  524  728  884  941  893  765  603  462  362  269  143  -7  -159  -305  -444  -559  -624  -642  -653  -694  -762  -828  -864  -877  -901  -967  -1061  -1132  -1144  -1103  -1037  -994  -994  -1025  -1071  -1124  -1174  -1197  -1158  -1054  -953  -903  -873  -830  -744  -502  162  1510  3436  5380  6512  6030  3678  119  -3344  -5508  -5827  -4596  -2714  -1083  -135  205  237  170  67  -46  -153  -245  -309  -311  -216  -44  127  239  291  307  301  287  273  258  251  284  384  522  623  660  657  639  604  560  544  610  786  1017  1207  1308  1345  1363  1384  1410  1436  1490  1617  1806  1978  2070  2087  2075  2063  2053  2044  2035  2020  1991  1937  1842  1706  1548  1376  1186  988  803  628  436  216  9  -140  -230  -297  -366  -445  -528  -617  -702  -762  -787  -789  -786  -780  -765  -730  -687  -659  -652  -654  -648  -626  -593  -568  -560  -568  -591  -618  -622  -587  -530  -483  -460  -456  -475  -514  -554  -564  -521  -435  -346  -290  -265  -251  -244  -255  -283  -321  -372  -431  -490  -545  -594  -627  -630  -593  -518  -424  -344  -306  -303  -314  -323  -326  -328  -333  -332  -313  -279  -257  -263  -296  -345  -404  -467  -515  -530  -524  -516  -495  -437  -350  -280  -249  -241  -242  -246  -243  -232  -216  -186  -122  -15  119  279  473  670  812  878  896  893  876  828  730  597  464  350  247  133  -6  -169  -329  -457  -546  -613  -690  -778  -844  -879  -908  -948  -992  -1025  -1050  -1070  -1080  -1063  -1015  -974  -986  -1034  -1075  -1093  -1102  -1131  -1191  -1247  -1241  -1205  -1159  -910  -235  933  2567  4450  6096  6882  6252  3989  518  -3102  -5617  -6251  -5138  -3101  -1093  212  619  437  156  27  18  39  61  89  121  147  159  155  139  121  112  110  106  101  110  160  262  404  555  686  777  824  838  841  856  895  959  1037  1098  1120  1122  1154  1249  1381  1498  1589  1667  1733  1771  1785  1800  1856  1971  2105  2194  2212  2174  2093  1986  1875  1773  1694  1644  1597  1502  1295  941  519  179  -11  -110  -198  -294  -360  -379  -384  -425  -514  -625  -733  -828  -902  -944  -943  -890  -791  -684  -607  -568  -547  -529  -503  -473  -454  -456  -483  -523  -558  -580  -598  -618  -632  -631  -610  -581  -561  -556  -561  -564  -562  -564  -579  -608  -623  -575  -465  -363  -319  -313  -314  -325  -371  -457  -541  -581  -576  -554  -529  -509  -503  -512  -531  -546  -550  -553  -553  -534  -489  -431  -386  -371  -395  -466  -561  -634  -666  -670  -654  -609  -532  -446  -377  -336  -339  -409  -533  -650  -698  -671  -614  -568  -514  -406  -262  -152  -100  -65  -7  104  279  492  693  837  911  933  920  861  735  561  398  281  208  157  109  41  -64  -229  -456  -686  -843  -908  -916  -908  -906  -912  -923  -935  -949  -961  -973  -987  -1003  -1022  -1043  -1061  -1068  -1066  -1064  -1075  -1101  -1123  -1130  -1161  -1198  -1025  -350  945  2763  4756  6290  6669  5527  2993  -350  -3522  -5480  -5739  -4605  -2812  -1135  -100  237  197  95  46  27  -13  -99  -195  -242  -227  -183  -122  -31  98  246  371  434  413  321  221  185  241  359  481  567  608  631  672  737  804  866  936  1022  1111  1175  1213  1269  1399  1598  1781  1877  1895  1883  1871  1864  1860  1862  1886  1943  2012  2040  1991  1891  1801  1758  1748  1725  1627  1399  1057  696  406  221  114  12  -120  -243  -314  -349  -388  -442  -500  -556  -609  -649  -670  -681  -687  -683  -668  -652  -640  -635  -634  -643  -660  -679  -699  -726  -747  -739  -690  -604  -514  -457  -441  -462  -519  -594  -653  -678  -669  -627  -570  -526  -508  -514  -537  -562  -580  -593  -594  -588  -580  -563  -537  -501  -433  -337  -253  -215  -230  -294  -381  -444  -446  -377  -257  -146  -100  -136  -229  -338  -439  -538  -634  -703  -731  -719  -676  -622  -577  -532  -458  -352  -244  -162  -127  -134  -163  -214  -304  -413  -483  -483  -437  -392  -351  -255  -64  171  353  448  504  585  704  832  928  974  962  886  771  668  594  519  407  245  32  -222  -469  -627  -685  -702  -730  -775  -819  -844  -850  -847  -850  -864  -889  -921  -949  -972  -994  -998  -966  -918  -881  -862  -852  -843  -857  -929  -1024  -1027  -813  -310  520  1783  3508  5376  6725  6794  5077  1791  -2015  -4975  -6121  -5373  -3460  -1367  116  663  540  270  127  85  68  62  69  81  92  110  147  190  213  214  224  264  341  446  554  625  646  636  624  626  650  688  719  740  770  824  907  1019  1144  1262  1365  1453  1511  1533  1535  1553  1610  1699  1790  1865  1926  1978  2028  2087  2148  2187  2181  2128  2050  1967  1860  1706  1510  1276  1023  799  619  452  294  164  46  -86  -228  -365  -501  -627  -717  -753  -725  -658  -593  -544  -500  -464  -443  -439  -445  -458  -475  -494  -533  -620  -736  -822  -843  -806  -728  -626  -524  -455  -431  -446  -483  -516  -529  -527  -520  -517  -531  -576  -650  -715  -716  -656  -582  -525  -485  -462  -456  -465  -492  -526  -547  -540  -509  -490  -520  -590  -655  -692  -714  -723  -704  -642  -560  -502  -483  -484  -488  -494  -500  -500  -503  -523  -562  -595  -607  -598  -579  -567  -567  -570  -564  -542  -507  -464  -419  -389  -378  -378  -381  -381  -363  -304  -192  -54  71  187  324  515  773  1045  1240  1309  1236  1008  699  448  306  224  147  40  -90  -215  -319  -421  -531  -646  -760  -882  -1004  -1095  -1147  -1180  -1189  -1162  -1124  -1117  -1154  -1217  -1272  -1306  -1321  -1309  -1266  -1207  -1126  -995  -837  -803  -1021  -1380  -1572  -1325  -535  755  2450  4310  5814  6326  5357  2762  -924  -4450  -6562  -6747  -5271  -2962  -878  261  457  221  0  -97  -120  -119  -113  -104  -101  -124  -179  -248  -294  -297  -264  -192  -68  109  302  467  581  646  686  726  767  785  731  579  385  257  263  415  674  961  1199  1348  1432  1511  1618  1743  1858  1927  1954  1977  2026  2088  2118  2095  2052  2026  2017  2011  2002  1981  1944  1893  1810  1655  1407  1110  859  701  578  390  122  -122  -251  -275  -259  -243  -229  -211  -197  -218  -300  -419  -512  -544  -535  -516  -489  -454  -426  -417  -408  -388  -372  -368  -370  -377  -405  -484  -601  -688  -685  -578  -412  -258  -156  -122  -160  -233  -315  -397  -441  -423  -379  -354  -349  -348  -344  -337  -328  -320  -319  -330  -343  -358  -394  -467  -554  -615  -637  -641  -645  -650  -641  -606  -553  -504  -468  -444  -432  -436  -450  -457  -440  -406  -370  -324  -244  -133  -17  72  127  176  280  473  703  865  916  881  780  624  464  362  324  283  156  -72  -325  -503  -588  -632  -665  -675  -666  -652  -633  -610  -596  -617  -686  -786  -873  -919  -929  -918  -907  -922  -966  -999  -1001  -991  -975  -953  -934  -944  -1043  -1196  -1215  -995  -543  204  1332  2863  4646  6107  6388  4916  1876  -1735  -4605  -5799  -5176  -3403  -1490  -150  415  400  191  58  6  -58  -156  -247  -316  -379  -417  -363  -168  101  297  369  399  477  607  728  791  801  794  794  805  812  795  750  685  622  580  557  544  563  676  914  1219  1476  1608  1640  1644  1659  1678  1698  1736  1813  1923  2027  2067  2032  1966  1917  1887  1843  1778  1712  1644  1537  1350  1109  888  712  552  394  270  203  166  103  -24  -201  -384  -531  -616  -641  -636  -624  -614  -614  -632  -654  -644  -588  -525  -494  -489  -491  -495  -506  -520  -524  -511  -489  -471  -464  -463  -471  -496  -537  -575  -589  -570  -531  -497  -483  -481  -483  -486  -484  -485  -501  -551  -632  -678  -612  -470  -368  -354  -391  -439  -492  -564  -653  -722  -725  -667  -596  -533  -449  -343  -257  -209  -184  -171  -170  -176  -179  -163  -111  -28  62  154  251  350  455  557  635  691  725  729  682  562  380  191  32  -81  -159  -250  -402  -582  -718  -791  -838  -877  -900  -904  -900  -901  -922  -968  -1032  -1096  -1135  -1138  -1111  -1072  -1045  -1052  -1098  -1164  -1214  -1222  -1181  -1087  -966  -905  -936  -878  -444  571  2246  4324  6059  6567  5324  2390  -1414  -4740  -6508  -6414  -4860  -2707  -861  157  386  237  76  -8  -56  -80  -76  -45  -4  26  41  44  43  52  83  128  173  220  292  375  423  421  398  367  318  270  262  318  438  623  865  1105  1256  1299  1286  1273  1297  1367  1463  1552  1631  1723  1833  1932  1997  2042  2084  2127  2160  2154  2092  2005  1911  1783  1634  1498  1379  1274  1176  1049  833  508  154  -101  -223  -277  -331  -409  -499  -583  -649  -694  -724  -746  -767  -785  -795  -778  -715  -621  -547  -519  -520  -526  -529  -536  -552  -567  -573  -574  -579  -592  -606  -609  -598  -579  -569  -579  -601  -621  -635  -644  -644  -612  -531  -425  -345  -316  -327  -362  -407  -446  -472  -485  -487  -486  -487  -488  -479  -452  -414  -384  -372  -375  -384  -396  -417  -459  -512  -548  -553  -534  -506  -477  -442  -383  -287  -160  -42  25  40  31  30  63  147  295  511  770  1007  1142  1109  889  571  319  220  220  224  177  88  -4  -89  -199  -357  -535  -686  -799  -868  -880  -859  -847  -858  -890  -940  -991  -1030  -1046  -1046  -1047  -1041  -1005  -940  -868  -817  -829  -954  -1180  -1379  -1434  -1341  -1031  -375  660  2113  3959  5783  6833  6435  4340  952  -2669  -5300  -6220  -5433  -3545  -1451  99  758  688  390  209  127  13  -145  -268  -322  -339  -328  -222  41  382  615  660  591  513  473  468  477  493  514  542  569  585  588  590  599  602  601  623  716  905  1132  1298  1364  1368  1358  1367  1409  1483  1572  1658  1753  1879  2015  2084  2047  1967  1919  1912  1921  1926  1906  1829  1666  1435  1178  893  559  237  23  -68  -108  -162  -248  -346  -452  -581  -727  -850  -915  -928  -920  -912  -909  -909  -914  -928  -946  -956  -952  -941  -936  -945  -974  -1011  -1036  -1046  -1047  -1048  -1054  -1065  -1075  -1073  -1054  -1023  -982  -936  -917  -954  -1026  -1068  -1025  -864  -561  -140]
