reading_id,reading_time,wire_id,result_classification,heart_rate,heart_rate_alert,firmware_version,device_app_version,hardware_version,waveform_samples
acddad60-5cad-11ed-8080-808080808080,Sat Nov 05 02:00:51 UTC 2022,e100638d1a39,NSR,75,NONE,20001.171.50,2.10.0,Charge 5,[55  1317  2193  2813  3508  4314  5038  5630  6240  6911  7458  7732  7743  7506  6998  6283  5542  4974  4680  4624  4691  4777  4810  4736  4520  4133  3596  3034  2586  2282  2076  1927  1801  1675  1556  1456  1379  1339  1342  1371  1440  1658  2177  3024  3976  4705  5073  5190  5215  5224  5214  5139  4932  4595  4233  3920  3619  3325  3137  3101  3143  3147  3044  2857  2666  2518  2393  2232  1988  1690  1432  1269  1173  1159  1428  2205  3379  4555  5458  6044  6352  6455  6414  6224  5899  5539  5198  4777  4177  3536  3141  3181  3710  4534  5175  5300  4961  4373  3860  3795  4204  4685  4919  4946  4934  4968  5052  5168  5299  5426  5531  5613  5707  5850  6045  6254  6420  6508  6505  6364  6023  5539  5087  4797  4677  4669  4705  4745  4768  4745  4652  4496  4312  4124  3945  3800  3706  3657  3629  3589  3527  3449  3366  3305  3280  3232  2976  2259  1048  -315  -1419  -2098  -2424  -2555  -2619  -2627  -2453  -1950  -1217  -565  -283  -759  -2436  -5059  -7529  -8984  -9431  -9282  -8853  -8361  -8002  -7857  -7891  -8059  -8316  -8583  -8781  -8878  -8836  -8562  -8035  -7460  -7105  -7038  -7148  -7313  -7462  -7544  -7428  -6838  -5571  -3892  -2461  -1701  -1525  -1641  -1711  -1489  -1131  -1014  -1214  -1471  -1530  -1316  -1017  -1033  -1597  -2422  -2903  -2693  -1891  -864  -57  289  301  232  205  233  318  453  595  731  929  1259  1640  1899  1929  1713  1274  671  -20  -728  -1377  -1875  -2178  -2345  -2462  -2551  -2599  -2595  -2548  -2483  -2432  -2414  -2443  -2529  -2649  -2745  -2786  -2784  -2769  -2767  -2804  -2920  -3166  -3552  -3969  -4260  -4399  -4493  -4609  -4766  -5023  -5428  -5875  -6219  -6443  -6574  -6580  -6485  -6383  -6322  -6279  -6206  -6076  -5930  -5821  -5710  -5507  -5226  -4983  -4836  -4760  -4728  -4729  -4751  -4776  -4746  -4573  -4243  -3873  -3572  -3297  -2945  -2498  -1991  -1428  -841  -351  -38  222  649  1259  1816  2141  2280  2345  2372  2377  2381  2389  2401  2446  2557  2705  2826  2935  3098  3315  3508  3607  3597  3478  3262  2979  2652  2311  2028  1864  1797  1757  1708  1664  1611  1478  1226  937  720  581  472  381  311  246  153  17  -151  -332  -491  -588  -615  -591  -530  -455  -414  -442  -547  -731  -984  -1214  -1260  -1050  -638  -5  1012  2422  3859  4725  4427  2617  -439  -3762  -6155  -6946  -6282  -4840  -3355  -2313  -1719  -1229  -568  228  920  1319  1456  1474  1489  1595  1868  2236  2501  2543  2397  2189  2039  1978  1961  1959  1988  2083  2271  2541  2816  2999  3072  3113  3205  3371  3570  3733  3803  3753  3572  3284  2985  2785  2725  2789  2958  3174  3338  3401  3396  3379  3390  3452  3544  3610  3593  3468  3279  3126  3059  3026  2960  2858  2745  2557  2198  1746  1423  1315  1324  1346  1358  1369  1378  1366  1321  1235  1092  861  521  131  -167  -298  -324  -364  -490  -677  -838  -916  -922  -893  -851  -808  -781  -807  -936  -1158  -1374  -1472  -1433  -1318  -1208  -1147  -1127  -1145  -1225  -1385  -1593  -1777  -1878  -1868  -1742  -1535  -1334  -1208  -1139  -1075  -976  -840  -693  -561  -455  -397  -413  -518  -677  -817  -899  -936  -953  -989  -1078  -1197  -1280  -1297  -1283  -1303  -1411  -1596  -1770  -1859  -1860  -1807  -1742  -1697  -1682  -1682  -1694  -1725  -1771  -1811  -1822  -1809  -1782  -1693  -1428  -934  -358  89  367  581  805  1061  1355  1642  1840  1919  1857  1591  1131  660  364  228  135  56  12  -17  -42  -41  -27  -26  -35  -37  -29  -22  -22  -25  -28  -45  -100  -200  -309  -383  -412  -399  -307  -66  291  622  877  1227  1960  3204  4692  5840  6047  4948  2623  -305  -2968  -4670  -5036  -4104  -2393  -638  563  1018  981  816  647  455  268  142  78  39  7  -12  -2  57  156  261  373  519  680  792  827  802  734  646  578  549  553  573  588  583  558  530  517  509  486  469  520  696  971  1249  1456  1585  1662  1710  1739  1741  1691  1592  1501  1470  1478  1473  1448  1395  1267  1051  820  657  573  528  448  268  10  -233  -410  -525  -599  -683  -841  -1060  -1245  -1335  -1356  -1348  -1310  -1217  -1090  -993  -953  -941  -929  -933  -974  -1039  -1098  -1132  -1145  -1142  -1104  -1013  -890  -786  -737  -761  -822  -829  -750  -648  -572  -521  -482  -458  -462  -500  -547  -533  -447  -399  -492  -678  -826  -882  -886  -870  -817  -705  -568  -476  -454  -472  -487  -448  -322  -148  -21  17  2  -20  -5  88  266  484  697  862  952  976  964  937  896  848  802  771  763  777  801  828  877  967  1077  1157  1179  1139  1034  899  804  802  892  1020  1116  1153  1132  1044  883  705  593  568  583  595  594  584  571  546  478  348  185  52  -6  21  123  239  299  285  235  192  157  99  0  -120  -229  -306  -359  -404  -439  -458  -465  -426  -287  -60  286  888  1804  2912  3890  4227  3432  1358  -1567  -4447  -6363  -6856  -6041  -4423  -2722  -1583  -1171  -1180  -1253  -1272  -1290  -1336  -1380  -1398  -1391  -1365  -1332  -1305  -1291  -1286  -1284  -1287  -1300  -1327  -1361  -1391  -1403  -1363  -1228  -1004  -771  -627  -597  -616  -559  -308  116  524  742  787  783  829  937  1059  1149  1215  1300  1405  1483  1517  1537  1582  1679  1823  1952  2002  1969  1901  1850  1832  1822  1771  1627  1389  1097  770  444  205  87  28  -44  -154  -301  -504  -762  -995  -1120  -1148  -1156  -1201  -1293  -1403  -1479  -1478  -1370  -1171  -967  -843  -786  -721  -605  -471  -382  -350  -343  -344  -373  -454  -560  -625  -614  -551  -476  -409  -351  -294  -239  -205  -204  -218  -226  -198  -112  6  129  307  604  955  1205  1294  1285  1247  1197  1123  1024  918  831  762  696  627  538  402  224  56  -52  -106  -151  -210  -263  -281  -263  -223  -184  -151  -114  -82  -67  -70  -82  -88  -69  3  142  311  451  524  506  358  70  -282  -598  -830  -981  -1060  -1090  -1104  -1121  -1136  -1140  -1124  -1076  -992  -895  -831  -818  -833  -852  -870  -885  -894  -899  -901  -893  -864  -827  -818  -853  -906  -974  -1084  -1209  -1264  -1181  -993  -882  -971  -1122  -1115  -847  -273  675  1950  3218  3978  3785  2395  16  -2569  -4405  -4900  -4063  -2376  -522  882  1557  1647  1473  1240  1011  826  711  658  640  632  636  682  807  1011  1230  1402  1533  1642  1721  1739  1692  1616  1557  1528  1519  1514  1504  1494  1506  1564  1676  1829  2014  2242  2496  2719  2823  2690  2235  1606  1135  1024  1267  1753  2263  2580  2673  2641  2553  2424  2285  2170  2064  1916  1719  1499  1262  966  551  27  -492  -927  -1287  -1582  -1776  -1855  -1870  -1889  -1944  -2048  -2231  -2495  -2758  -2920  -2963  -2939  -2893  -2844  -2803  -2766  -2732  -2706  -2681  -2650  -2607  -2564  -2532  -2514  -2510  -2523  -2548  -2568  -2549  -2457  -2296  -2121  -1988  -1905  -1839  -1751  -1635  -1512  -1408  -1336  -1299  -1279  -1255  -1223  -1191  -1166  -1149  -1158  -1224  -1361  -1522  -1628  -1618  -1450  -1147  -824  -587  -441  -335  -255  -217  -219  -219  -149  30  282  523  694  783  806  801  809  862  986  1176  1375  1523  1605  1631  1601  1520  1401  1261  1097  877  567  231  22  2  86  165  194  169  91  -14  -87  -63  75  267  408  456  448  425  402  383  373  376  387  376  283  78  -172  -344  -411  -447  -498  -499  -365  -61  505  1444  2610  3559  3819  3041  1144  -1432  -3872  -5435  -5690  -4698  -3032  -1389  -248  259  330  257  194  160  155  239  478  812  1080  1205  1234  1233  1228  1227  1242  1283  1333  1342  1279  1176  1098  1073  1078  1088  1087  1071  1038  998  966  985  1119  1385  1688  1915  2052  2151  2241  2324  2405  2505  2645  2801  2928  3007  3049  3050  2976  2813  2615  2453  2339  2243  2152  2061  1985  1941  1887  1731  1452  1149  930  805  712  608  502  397  222  -79  -425  -654  -698  -601  -442  -304  -253  -303  -423  -548  -624  -644  -623  -573  -510  -463  -446  -460  -500  -552  -599  -638  -675  -708  -731  -757  -812  -888  -948  -971  -960  -919  -860  -807  -772  -741  -693  -634  -589  -585  -633  -717  -802  -858  -880  -883  -886  -901  -957  -1083  -1249  -1369  -1374  -1255  -1059  -844  -641  -447  -252  -75  37  67  34  -44  -141  -207  -184  -57  123  270  365  452  553  659  773  884  919  778  425  -59  -543  -907  -1093  -1135  -1105  -1036  -920  -763  -595  -467  -408  -399  -400  -385  -364  -353  -340  -274  -111  116  296  339  272  195  158  151  165  215  309  421  512  567  642  865  1377  2271  3462  4595  5194  4804  3162  521  -2305  -4354  -5020  -4351  -2940  -1487  -455  -16  -48  -260  -457  -640  -875  -1162  -1415  -1554  -1583  -1556  -1517  -1487  -1469  -1460  -1456  -1450  -1397  -1251  -1052  -907  -860  -869  -878  -859  -814  -766  -729  -698  -661  -615  -541  -432  -316  -223  -120  55  309  572  773  884  930  955  976  994  1015  1040  1060  1047  980  869  766  708  671  594  435  213  -30  -301  -595  -870  -1109  -1324  -1504  -1640  -1767  -1925  -2096  -2213  -2241  -2205  -2149  -2103  -2073  -2046  -1991  -1868  -1683  -1468  -1218  -957  -748  -594  -426  -216  2  204  369  478  563  699  904  1096  1199  1214  1179  1127  1093  1108  1180  1307  1458  1569  1614  1621  1608  1545  1392  1168  956  819  765  763  781  800  809  802  775  741  718  710  696  638  507  329  168  52  -33  -98  -121  -81  5  92  138  130  80  12  -35  -49  -36  -6  33  74  106  117  74  -53  -225  -350  -391  -386  -380  -390  -406  -432  -513  -711  -1015  -1317  -1484  -1437  -1180  -839  -600  -518  -486  -410  -299  -216  -182  -183  -214  -290  -393  -479  -525  -533  -499  -420  -307  -176  33  419  839  1031  1147  1636  2711  4222  5569  5809  4388  1668  -1360  -3617  -4406  -3820  -2545  -1279  -456  -171  -210  -302  -335  -343  -374  -429  -486  -546  -617  -681  -716  -725  -722  -712  -686  -650  -624  -611  -571  -451  -271  -108  -15  21  59  171  394  667  873  968  996  992  957  898  834  782  753  783  943  1255  1664  2112  2550  2903  3154  3353  3520  3645  3734  3804  3849  3849  3787  3657  3459  3171  2792  2404  2113  1945  1840  1720  1576  1452  1365  1261  1068  772  436  147  -43  -154  -237  -319  -388  -427  -434  -392  -276  -101  84  259  409  506  544  552  557  564  540  424  195  -79  -311  -477  -628  -847  -1178  -1569  -1928  -2220  -2459  -2657  -2819  -2952  -3053  -3108  -3131  -3153  -3183  -3180  -3109  -3005  -2937  -2946  -3030  -3148  -3242  -3285  -3293  -3289  -3283  -3275  -3267  -3270  -3288  -3303  -3247  -3046  -2731  -2425  -2171  -1912  -1633  -1375  -1167  -1017  -922  -815  -577  -168  278  604  815  1009  1200  1325  1372  1379  1343  1218  1000  750  527  362  267  244  318  520  791  1008  1128  1192  1226  1238  1250  1287  1342  1383  1392  1382  1364  1338  1307  1277  1249  1219  1190  1191  1280  1557  2176  3241  4589  5705  5983  5063  3007  393  -1833  -2926  -2720  -1516  109  1426  2005  2016  1801  1411  746  -102  -840  -1258  -1387  -1379  -1353  -1335  -1310  -1289  -1303  -1347  -1393  -1421  -1388  -1231  -918  -467  68  606  1026  1238  1273  1234  1187  1135  1041  868  615  325  29  -287  -610  -880  -1069  -1183  -1177  -1000  -716  -478  -371  -358  -365  -354  -328  -295  -260  -251  -296  -378  -474  -634  -917  -1251  -1478  -1548  -1534  -1519  -1539  -1598  -1682  -1773  -1857  -1914  -1917  -1876  -1851  -1879  -1907  -1870  -1784  -1712  -1678  -1664  -1655  -1646  -1630  -1604  -1589  -1601  -1634  -1691  -1796  -1954  -2113  -2203  -2192  -2087  -1926  -1714  -1374  -855  -263  225  540  742  909  1046  1122  1144  1152  1167  1177  1170  1174  1217  1260  1261  1234  1199  1152  1110  1109  1164  1245  1309  1342  1355  1357  1349  1336  1323  1304  1278  1253  1238  1239  1257  1277  1287  1284  1275  1284  1320  1375  1466  1613  1783  1909  1964  1943  1829  1624  1370  1127  941  822  744  679  608  498  319  74  -189  -427  -622  -777  -897  -997  -1095  -1203  -1312  -1400  -1450  -1464  -1445  -1396  -1336  -1293  -1270  -1249  -1222  -1195  -1150  -1058  -932  -838  -871  -1013  -1030  -659  186  1402  2654  3418  3191  1785  -476  -2857  -4548  -5024  -4262  -2695  -926  549  1482  1887  1979  1990  2011  2037  2055  2049  2011  1941  1844  1742  1674  1656  1685  1759  1863  1966  2030  2022  1943  1833  1737  1673  1623  1540  1387  1194  1063  1087  1288  1567  1771  1846  1845  1812  1723  1532  1238  955  854  973  1208  1452  1675  1932  2332  2879  3394  3673  3656  3409  3076  2810  2643  2523  2410  2247  1987  1694  1470  1304  1098  794  402  -30  -493  -999  -1485  -1831  -2001  -2094  -2251  -2543  -2947  -3363  -3695  -3929  -4088  -4178  -4212  -4233  -4284  -4368  -4443  -4444  -4291  -3956  -3539  -3168  -2866  -2611  -2423  -2321  -2284  -2280  -2299  -2354  -2447  -2559  -2663  -2741  -2790  -2822  -2839  -2807  -2667  -2413  -2132  -1907  -1745  -1639  -1598  -1600  -1563  -1407  -1153  -925  -813  -804  -833  -838  -758  -567  -332  -172  -124  -139  -165  -173  -134  -12  195  432  608  682  697  730  817  924  997  1023  1036  1068  1121  1184  1250  1303  1326  1319  1295  1258  1184  1004  673  270  -52  -272  -533  -977  -1545  -2025  -2251  -2140  -1666  -961  -286  216  545  712  753  718  633  503  369  299  321  390  467  614  933  1443  2104  2942  4041  5377  6670  7472  7378  6130  3829  1110  -1156  -2319  -2160  -931  705  1913  2199  1748  1070  499  120  -162  -554  -1117  -1654  -1959  -2027  -1937  -1719  -1429  -1193  -1086  -1076  -1120  -1208  -1319  -1407  -1453  -1462  -1443  -1406  -1355  -1278  -1151  -915  -517  -46  325  566  733  827  852  898  1058  1306  1528  1669  1769  1886  2054  2256  2444  2593  2718  2815  2868  2880  2872  2857  2836  2802  2732  2584  2343  2048  1775  1579  1447  1310  1087  727  292  -70  -294  -430  -567  -726  -856  -912  -913  -911  -928  -951  -970  -987  -993  -950  -821  -645  -515  -467  -461  -457  -446  -427  -395  -364  -370  -453  -627  -888  -1223  -1555  -1766  -1829  -1820  -1803  -1781  -1716  -1569  -1341  -1101  -946  -918  -1004  -1185  -1449  -1771  -2098  -2385  -2668  -3047  -3538  -3999  -4280  -4362  -4281  -4042  -3675  -3287  -2982  -2751  -2554  -2413  -2350  -2355  -2408  -2513  -2696  -2996  -3414  -3853  -4161  -4307  -4381  -4433  -4435  -4377  -4283  -4138  -3904  -3622  -3396  -3267  -3192  -3128  -3073  -3033  -3000  -2970  -2949  -2944  -2954  -2982  -3045  -3154  -3275  -3374  -3450  -3509  -3483  -3179  -2445  -1501  -786  -433  -236  -46  120  234  327  439  553  628  650  642  640  661  668  595  470  436  595  1019  1835  3122  4688  5985  6335  5361  3211  549  -1689  -2784  -2593  -1450  60  1302  1939  2119  2171  2246  2302  2287  2240  2239  2326  2471  2594  2646  2651  2666  2740  2871  2992  3050  3071  3096  3121  3132  3131  3134  3150  3178  3226  3316  3447  3570  3646  3693  3767  3926  4184  4471  4681  4787  4833  4859  4865  4818  4686  4502  4370  4370  4508  4708  4862  4920  4920  4908  4903  4899  4886  4859  4811  4733  4632  4521  4376  4163  3896  3629  3370  3059  2628  2094  1565  1129  786  505  289  176  207  389  652  889  1072  1267  1510  1750  1890  1853  1631  1328  1111  1047  1078  1137  1206  1308  1479  1721  1991  2227  2412  2581  2731  2778  2654  2423  2229  2145  2139  2151  2134  2026  1775  1421  1099  919  872  865  820  724  607  485  357  224  82  -109  -449  -992  -1654  -2271  -2708  -2921  -2972  -2953  -2926  -2939  -3039  -3229  -3432  -3562  -3610  -3613  -3595  -3553  -3487  -3402  -3290  -3123  -2830  -2350  -1770  -1268  -922  -710  -609  -610  -679  -767  -859  -951  -1019  -1046  -1044  -1036  -1052  -1130  -1285  -1464  -1605  -1733  -1937  -2258  -2639  -2972  -3151  -3088  -2760  -2310  -1992  -1969  -2216  -2566  -2828  -2943  -2976  -2990  -2991  -2940  -2836  -2714  -2552  -2292  -1951  -1636  -1475  -1505  -1512  -1121  -122  1368  2904  3808  3516  1898  -656  -3364  -5369  -6095  -5522  -4127  -2501  -1121  -298  -73  -167  -266  -268  -167  47  314  506  558  492  340  111  -157  -397  -587  -762  -918  -1013  -1050  -1075  -1112  -1129  -1101  -1050  -996  -908  -769  -620  -508  -438  -393  -357  -310  -225  -81  137  429  739  986  1163  1353  1626  1932  2151  2240  2257  2269  2299  2314  2256  2116  1949  1796  1646  1491  1341  1198  1066  955  852  739  599  417  220  61  -46  -134  -232  -338  -427  -487  -545  -647  -824  -1062  -1306  -1492  -1592  -1625  -1600  -1471  -1194  -839  -553  -414  -394  -426  -469  -510  -548  -564  -497  -295  -22  180  264  291  309  306  272  223  161  93  46  56  139  278  442  624  796  897  913  894  882  873  858  842  831  821  810  774  654  402  71  -208  -366  -445  -505  -563  -602  -614  -615  -616  -616  -612  -603  -596  -599  -598  -539  -361  -96  140  289  370  379  263  16  -262  -429  -431  -323  -195  -119  -114  -140  -177  -260  -407  -568  -669  -695  -671  -616  -549  -502  -487  -489  -487  -477  -464  -452  -441  -446  -488  -581  -710  -840  -925  -902  -761  -657  -721  -805  -619  55  1304  2907  4282  4810  4107  2120  -707  -3467  -5297  -5768  -4941  -3404  -1927  -942  -477  -360  -377  -398  -385  -350  -306  -231  -76  179  480  706  799  816  859  993  1184  1332  1357  1207  876  466  127  -76  -185  -241  -257  -248  -237  -236  -243  -250  -256  -276  -329  -408  -486  -556  -633  -729  -842  -947  -1022  -1060  -1072  -1070  -1068  -1073  -1086  -1102  -1115  -1128  -1142  -1153  -1149  -1157  -1270  -1564  -1952  -2272  -2517  -2792  -3091  -3296  -3368  -3355  -3275  -3107  -2890  -2714  -2620  -2610  -2759  -3158  -3710  -4155  -4368  -4441  -4491  -4528  -4521  -4482  -4454  -4428  -4288  -3887  -3197  -2347  -1522  -885  -543  -513  -699  -911  -1121  -1538  -2219  -2878  -3207  -3113  -2694  -2244  -2099  -2259  -2445  -2511  -2507  -2497  -2512  -2567  -2636  -2691  -2745  -2826  -2914  -2960  -2948  -2892  -2792  -2658  -2539  -2479  -2476  -2490  -2482  -2437  -2352  -2147  -1690  -1006  -318  239  723  1178  1576  1934  2287  2583  2784  3016  3460  4125  4817  5320  5547  5567  5506  5444  5410  5402  5404  5406  5405  5401  5394  5387  5397  5464  5622  5840  6041  6185  6289  6370  6434  6441  6257  5761  5091  4591  4416  4397  4313  4154  4055  3948  3445  2229  561  -735  -1040  -482  449  1454  2452  3555  4971  6689  8241  8809  7731  5146  2049  -418  -1647  -1697  -1160  -757  -763  -961  -1104  -1111  -986  -760  -507  -312  -208  -160  -112  -29  145  483  916  1227  1268  1058  735  502  566  1057  1856  2594  3005  3164  3282  3438  3562  3575  3504  3456  3487  3548  3569  3610  3896  4605  5554  6294  6561  6421  6069  5682  5388  5241  5191  5149  5068  4945  4763  4490  4174  3901  3580  3000  2192  1432  1045  1382  2466  3707  4481  4528  3811  2636  1516  682  39  -571  -1208  -1829  -2367  -2771  -3003  -3076  -3068  -3019  -2873  -2550  -2089  -1678  -1467  -1452  -1538  -1643  -1755  -1956  -2312  -2732  -3036  -3133  -3061  -2906  -2761  -2685  -2701  -2800  -2939  -3055  -3106  -3063  -2879  -2573  -2262  -2036  -1859  -1641  -1347  -1024  -749  -523  -269  40  319  467  460  329  142  -21  -134  -222  -287  -305  -265  -161  48  419  923  1426  1798  1987  2023  1935  1697  1312  905  650  583  611  642  626  541  408  277  177  96  19  -50  -138  -346  -748  -1268  -1734  -2034  -2191  -2338  -2598  -2928  -3171  -3265  -3290  -3327  -3392  -3459  -3507  -3527  -3501  -3397  -3217  -3040  -2965  -3040  -3233  -3449  -3575  -3528  -3275  -2888  -2519  -2255  -2063  -1859  -1601  -1340  -1141  -1038  -1022  -983  -796  -508  -221  151  777  1693  2710  3395  3213  1866  -412  -2860  -4581  -5071  -4401  -3019  -1555  -571  -249  -396  -754  -1233  -1836  -2466  -2991  -3423  -3836  -4183  -4363  -4369  -4262  -4118  -3995  -3892  -3780  -3672  -3607  -3591  -3592  -3588  -3567  -3486  -3267  -2913  -2572  -2381  -2298  -2168  -1914  -1563  -1187  -865  -663  -609  -681  -810  -915  -964  -964  -912  -807  -689  -606  -569  -566  -624  -786  -1018  -1210  -1287  -1236  -1060  -816  -617  -523  -524  -623  -852  -1192  -1540  -1788  -1923  -2044  -2294  -2761  -3451  -4291  -5104  -5696  -6004  -6122  -6187  -6257  -6327  -6384  -6421  -6432  -6433  -6453  -6506  -6570  -6630  -6735  -6940  -7189  -7357  -7389  -7324  -7231  -7166  -7148  -7164  -7220  -7384  -7750  -8280  -8787  -9187  -9592  -10059  -10440  -10592  -10538  -10409  -10317  -10274  -10180  -9882  -9283  -8459  -7651  -7084  -6787  -6580  -6120  -5095  -3611  -2175  -1175  -625  -289  189  1075  2377  3889  5327  6487  7319  7872  8263  8631  9066  9581  10099  10503  10729  10793  10715  10493  10189  9939  9820  9796  9803  9814  9836  9882  9901  9736  9253  8599  8117  7942  7939  7987  8094  8331  8699  9076  9335  9455  9491  9497  9511  9532  9514  9380  9094  8727  8400  8171  8000  7830  7633  7376  7036  6676  6405  6260  6192  6164  6191  6277  6353  6282  6009  5657  5338  5090  5084  5522  6432  7635  8675  8937  8044  6076  3575  1386  202  183  1012  2242  3439  4220  4488  4405  4084  3572  3016  2593  2349  2218  2136  2077  2012  1896  1713  1489  1268  1089  984  937  901  859  823  776  676  522  351  190  28  -158  -372  -584  -772  -951  -1152  -1375  -1566  -1669  -1682  -1633  -1539  -1396  -1171  -841  -498  -279  -133  240  1136  2506  3989  5189  5883  6109  6066  5855  5458  4916  4370  3940  3648  3425  3175  2869  2546  2233  1903  1455  702  -425  -1720  -2875  -3727  -4278  -4588  -4720  -4745  -4705  -4590  -4392  -4184  -4050  -4007  -4017  -4058  -4121  -4188  -4231  -4234  -4212  -4188  -4171  -4162  -4162  -4161  -4148  -4136  -4124  -4041  -3770  -3298  -2807  -2508  -2433  -2487  -2607  -2774  -2951  -3084  -3127  -3082  -2998  -2919  -2846  -2769  -2691  -2623  -2574  -2554  -2576  -2645  -2741  -2822  -2846  -2795  -2705  -2625  -2578  -2544  -2482  -2368  -2233  -2130  -2071  -2029  -1996  -1986  -1997  -2014  -2022  -2023  -2054  -2155  -2298  -2419  -2491  -2532  -2575  -2647  -2750  -2877  -3015  -3136  -3212  -3227  -3182  -3110  -3046  -2987  -2902  -2801  -2753  -2820  -2988  -3199  -3393  -3549  -3710  -3927  -4145  -4235  -4126  -3877  -3600  -3364  -3189  -3069  -2988  -2974  -3124  -3485  -3922  -4218  -4181  -3597  -2346  -645  953  1800  1425  -235  -2719  -5194  -6827  -7172  -6392  -5063  -3847  -3187  -3047  -3075  -3038  -2952  -2880  -2795  -2638  -2421  -2212  -2046  -1901  -1749  -1590  -1460  -1391  -1373  -1377  -1379  -1359  -1295  -1201  -1114  -1057  -1030  -1021  -1015  -1007  -984  -935  -873  -827  -804  -792  -768  -685  -488  -193  116  408  730  1076  1352  1520  1674  1912  2196  2405  2504  2544  2573  2604  2627  2624  2571  2438  2234  2041  1935  1913  1925  1953  2030  2215  2521  2862  3131  3320  3476  3597  3654  3629  3520  3363  3224  3141  3106  3100  3128  3215  3407  3712  4043  4267  4372  4477  4717  5125  5577  5899  6059  6154  6261  6392  6553  6746  6979  7228  7414  7486  7479  7449  7425  7426  7510  7747  8116  8480  8731  8887  9022  9181  9359  9518  9638  9754  9910  10084  10254  10481  10859  11392  11976  12478  12832  13061  13230  13452  13853  14422  14981  15370  15569  15660  15766  15965  16216  16404  16461  16354  16063  15652  15256  14948  14713  14530  14388  14200  13854  13407  13084  13016  13153  13374  13569  13704  13791  13826  13768  13491  12728  11121  8512  5267  2150  -242  -1801  -2737  -3359  -3970  -4751  -5736  -6909  -8188  -9364  -10236  -10781  -11131  -11482  -11952  -12459  -12829  -13029  -13158  -13246  -13182  -12726  -11664  -10121  -8683  -8147  -9083  -11422  -14423  -17135  -18746  -18820  -17597  -15785  -14062  -12914  -12471  -12449  -12512  -12530  -12497  -12401  -12225  -12013  -11831  -11674  -11498  -11307  -11139  -10995  -10827  -10627  -10446  -10303  -10159  -9985  -9788  -9575  -9338  -9081  -8830  -8615  -8446  -8290  -8116  -7953  -7839  -7722  -7492  -7114  -6700  -6391  -6217  -6120  -6042  -5907  -5653  -5321  -5019  -4805  -4653  -4509  -4351  -4180  -3988  -3773  -3563  -3379  -3234  -3157  -3193  -3344  -3528  -3657  -3714  -3736  -3767  -3830  -3916  -3987  -4019  -4022  -4017  -4012  -4008  -4007  -4010  -4009  -3982  -3906  -3775  -3626  -3518  -3455  -3391  -3295  -3190  -3107  -3028  -2908  -2734  -2558  -2444  -2392  -2364  -2336  -2293  -2205  -2067  -1920  -1824  -1796  -1812  -1831  -1784  -1609  -1337  -1093  -956  -899  -863  -825  -794  -780  -779  -768  -721  -631  -536  -474  -442  -410  -363  -297  -213  -111  2  111  196  245  265  291  365  487  598  645  648  647  673  759  913  1098  1258  1367  1455  1571  1704  1803  1842  1837  1800  1737  1672  1626  1574  1456  1236  971  765  666  640  636  638  659  725  825  917  964  961  929  900  892  893  885  851  801  771  788  824  821  763  692  650  650  677  761  1017  1517  2271  3326  4649  5928  6652  6332  4713  2017  -962  -3262  -4245  -3775  -2247  -423  1039  1844  2027  1889  1734  1658  1631  1627  1656  1742  1860  1944  1950  1882  1787  1719  1696  1701  1718  1749  1799  1867  1945  2032  2114  2164  2168  2135  2081  2035  2030  2108  2289  2508  2667  2734  2737  2710  2684  2696  2773  2910  3065  3195  3268  3277  3253  3237  3247  3266  3273  3262  3236  3183  3101  3003  2894  2750  2564  2363  2183  2040  1882  1644  1352  1095  908  772  674  603  529  430  313  215  172  183  211  227  234  242  246  240  227  212  197  186  195  235  272  261  227  212  196  146  59  -49  -143  -185  -140  9  218  386  463  470  441  398  356  324  307  311  325  324  301  272  249  223  169  76  -33  -103  -89  12  138  209  207  169  121  81  64  63  68  65  27  -62  -179  -263  -293  -290  -273  -243  -206  -175  -155  -138  -120  -103  -89  -80  -78  -79  -79  -70  -56  -51  -61  -87  -129  -186  -269  -384  -512  -631  -722  -772  -795  -820  -859  -901  -931  -947  -952  -944  -919  -884  -853  -838  -846  -894  -1005  -1183  -1333  -1293  -1071  -856  -763  -752  -757  -758  -770  -799  -816  -777  -662  -427  57  952  2270  3703  4643  4455  2836  98  -2861  -5011  -5746  -5092  -3549  -1846  -588  24  138  38  -54  -86  -82  -47  29  129  204  231  231  233  248  261  254  230  210  208  224  261  334  433  523  580  622  691  808  955  1090  1176  1213  1227  1234  1238  1245  1252  1252  1259  1334  1529  1818  2109  2325  2437  2467  2471  2494  2538  2580  2596  2568  2479  2352  2236  2142  2042  1925  1799  1669  1526  1347  1128  896  677  476  305  173  70  5  -14  -10  -20  -61  -118  -156  -165  -168  -203  -267  -287  -213  -116  -105  -204  -360  -495  -561  -571  -562  -555  -548  -534  -516  -506  -528  -596  -699  -793  -846  -866  -889  -928  -968  -978  -946  -895  -850  -812  -771  -737  -733  -758  -788  -805  -807  -800  -789  -774  -761  -769  -814  -888  -965  -1025  -1066  -1087  -1094  -1110  -1155  -1214  -1192  -986  -654  -385  -273  -265  -283  -291  -288  -286  -292  -299  -283  -221  -114  5  116  223  316  365  360  312  230  127  32  -28  -57  -77  -115  -183  -264  -334  -388  -423  -433  -423  -409  -420  -460  -499  -516  -531  -578  -668  -779  -878  -938  -954  -935  -887  -827  -789  -788  -811  -837  -847  -811  -725  -663  -690  -665  -240  818  2340  3828  4682  4364  2675  6  -2804  -4896  -5753  -5336  -3999  -2337  -945  -127  168  181  125  86  42  -27  -75  -54  -8  0  -32  -77  -109  -120  -118  -103  -67  -16  38  108  217  352  460  513  522  509  498  522  618  767  902  979  1010  1030  1060  1096  1123  1157  1240  1378  1512  1579  1591  1628  1759  1952  2109  2180  2195  2198  2201  2190  2139  2035  1871  1643  1389  1179  1015  825  585  361  216  137  61  -55  -200  -340  -465  -569  -631  -647  -638  -630  -646  -700  -763  -783  -752  -712  -697  -707  -729  -744  -743  -739  -743  -760  -783  -784  -748  -696  -652  -613  -571  -537  -525  -542  -593  -660  -698  -682  -626  -565  -535  -547  -590  -656  -735  -804  -839  -814  -708  -540  -391  -328  -350  -422  -521  -629  -719  -769  -785  -793  -803  -792  -726  -604  -477  -400  -369  -341  -284  -189  -79  3  63  149  286  488  780  1100  1321  1397  1372  1279  1125  954  827  741  627  441  217  27  -85  -132  -141  -132  -122  -143  -225  -356  -479  -548  -570  -570  -566  -574  -606  -657  -703  -727  -727  -709  -676  -637  -612  -637  -717  -777  -729  -547  -283  -40  205  677  1566  2780  3877  4211  3270  1075  -1678  -4027  -5269  -5188  -4046  -2451  -1062  -257  17  94  226  414  547  589  591  599  613  606  576  551  554  591  648  695  714  717  725  747  770  780  804  900  1063  1210  1294  1337  1367  1385  1388  1380  1366  1354  1350  1366  1423  1530  1659  1757  1815  1855  1899  1964  2064  2190  2318  2414  2455  2450  2427  2394  2314  2137  1862  1551  1279  1078  935  811  672  488  268  57  -126  -309  -498  -664  -781  -849  -853  -767  -615  -464  -407  -511  -722  -907  -1009  -1051  -1066  -1075  -1081  -1084  -1110  -1189  -1299  -1379  -1392  -1351  -1290  -1243  -1217  -1202  -1193  -1192  -1195  -1193  -1176  -1139  -1076  -980  -872  -794  -764  -750  -732  -719  -723  -741  -777  -817  -823  -810  -838  -944  -1119  -1313  -1446  -1482  -1432  -1317  -1183  -1093  -1065  -1075  -1101  -1131  -1148  -1122  -1030  -905  -812  -775  -771  -774  -775  -777  -779  -778  -768  -744  -719  -705  -710  -736  -782  -848  -940  -1055  -1174  -1273  -1347  -1401  -1437  -1449  -1432  -1392  -1329  -1234  -1117  -1027  -994  -1012  -1061  -1119  -1167  -1192  -1192  -1173  -1140  -1091  -1013  -901  -766  -640  -561  -549  -591  -636  -617  -521  -386  -209  42  480  1259  2386  3692  4822  5219  4408  2355  -430  -3055  -4651  -4826  -3791  -2172  -730  52  253  257  312  423  514  564  607  659  698  692  636  560  511  516  564  604  593  553  542  572  619  657  677  690  711  754  834  937  1018  1050  1056  1083  1164  1279  1372  1429  1507  1664  1887  2092  2201  2220  2203  2175  2140  2135  2217  2381  2528  2556  2469  2341  2209  2070  1934  1820  1717  1590  1423  1228  1056  945  877  798  674  491  249  -11  -229  -364  -418  -423  -414  -407  -401  -395  -392  -399  -419  -438  -438  -421  -399  -384  -390  -427  -496  -578  -626  -607  -535  -454  -400  -375  -358  -337  -315  -297  -291  -299  -316  -330  -333  -327  -318  -300  -265  -221  -191  -181  -182  -188  -215  -275  -340  -378  -388  -385  -385  -415  -483  -559  -614  -640  -641  -622  -581  -526  -476  -443  -397  -311  -204  -113  -50  -1  54  119  173  199  195  173  152  152  205  340  525  674  745  753  720  651  550  432  318  231  186  175  183  185  135  3  -178  -328  -407  -435  -437  -421  -391  -349  -297  -249  -224  -227  -255  -316  -427  -574  -708  -795  -839  -850  -820  -744  -663  -635  -658  -701  -759  -790  -616  -6  1096  2529  3965  4899  4773  3318  815  -1971  -4161  -5127  -4741  -3461  -2005  -871  -222  14  43  20  -16  -54  -81  -93  -97  -94  -82  -55  -16  26  60  79  86  93  106  124  140  148  151  156  172  214  293  395  496  588  675  761  835  883  911  942  983  1016  1041  1105  1260  1487  1697  1823  1880  1922  1971  2015  2048  2074  2091  2078  2010  1898  1793  1729  1665  1525  1293  1039  846  715  578  395  189  11  -109  -195  -270  -321  -337  -330  -318  -325  -382  -509  -673  -796  -839  -811  -732  -631  -548  -503  -495  -516  -539  -535  -491  -428  -382  -370  -379  -392  -405  -414  -395  -325  -209  -91  -10  26  26  3  -38  -102  -193  -291  -356  -375  -373  -376  -387  -390  -371  -333  -283  -228  -191  -192  -232  -293  -347  -377  -386  -383  -375  -373  -402  -482  -595  -706  -808  -894  -906  -791  -583  -387  -271  -221  -201  -187  -163  -135  -117  -107  -98  -78  -32  42  124  171  164  119  57  -13  -93  -188  -292  -388  -469  -542  -606  -648  -668  -679  -696  -724  -747  -752  -752  -780  -839  -899  -932  -952  -1002  -1096  -1199  -1263  -1248  -1142  -992  -878  -835  -834  -837  -833  -845  -907  -992  -972  -710  -153  764  2107  3643  4790  4951  3789  1409  -1541  -4073  -5349  -5133  -3851  -2200  -766  76  287  174  55  16  16  15  0  -31  -76  -118  -139  -137  -112  -44  98  288  441  510  523  521  524  534  542  541  534  526  520  518  527  559  613  673  732  791  865  995  1198  1429  1638  1812  1944  2018  2035  2018  1995  1990  2004  2025  2041  2048  2048  2039  2001  1906  1761  1609  1490  1397  1302  1197  1070  871  551  168  -123  -243  -254  -246  -254  -268  -292  -341  -405  -453  -470  -470  -478  -508  -550  -581  -599  -603  -570  -480  -356  -253  -201  -179  -159  -162  -245  -428  -638  -771  -784  -689  -536  -399  -323  -285  -235  -165  -108  -89  -111  -170  -241  -288  -304  -320  -364  -426  -474  -491  -482  -449  -399  -340  -277  -221  -205  -247  -329  -417  -482  -515  -523  -523  -527  -537  -532  -481  -393  -321  -277  -213  -93  71  235  344  379  357  318  311  325  303  254  224  226  238  224  149  13  -143  -290  -410  -485  -515  -517  -509  -500  -495  -503  -557  -683  -832  -918  -913  -863  -810  -772  -741  -696  -629  -549  -495  -512  -584  -654  -683  -646  -586  -586  -657  -715  -613  -208  573  1703  2960  3936  4195  3382  1409  -1271  -3827  -5469  -5743  -4726  -2999  -1344  -325  10  -16  -110  -170  -202  -210  -166  -46  112  233  275  248  182  110  57  26  6  -7  3  65  191  357  511  594  594  547  505  485  481  500  571  699  842  942  984  1000  1026  1072  1134  1217  1330  1459  1580  1677  1734  1739  1707  1676  1670  1693  1738  1795  1850  1885  1866  1760  1578  1366  1155  953  784  658  556  444  278  41  -203  -367  -436  -467  -498  -523  -529  -524  -515  -507  -505  -516  -540  -565  -591  -626  -661  -668  -630  -552  -460  -382  -324  -284  -258  -242  -227  -221  -250  -344  -478  -581  -621  -629  -629  -613  -569  -509  -464  -444  -429  -411  -396  -385  -371  -357  -371  -441  -545  -632  -672  -671  -636  -563  -476  -420  -412  -436  -466  -486  -479  -427  -322  -196  -104  -62  -44  -19  34  115  201  273  315  322  293  227  138  45  -60  -202  -363  -484  -538  -552  -560  -566  -556  -531  -501  -480  -471  -482  -524  -600  -693  -778  -826  -810  -724  -605  -514  -478  -474  -483  -509  -557  -607  -642  -687  -746  -741  -627  -414  -4  774  1931  3186  4052  4009  2744  485  -2004  -3908  -4715  -4355  -3203  -1839  -731  -106  93  107  124  179  232  258  266  275  288  297  293  286  298  346  412  447  425  367  320  313  347  416  502  585  669  755  816  841  857  901  1004  1157  1315  1426  1476  1480  1463  1447  1457  1537  1699  1876  1991  2047  2110  2195  2263  2290  2282  2246  2161  1999  1791  1624  1541  1491  1402  1268  1123  963  763  532  318  150  16  -103  -183  -192  -160  -152  -194  -265  -340  -426  -550  -693  -792  -820  -812  -802  -799  -798  -795  -786  -771  -757  -745  -706  -608  -475  -378  -359  -400  -467  -526  -554  -559  -567  -588  -604  -606  -608  -618  -625  -620  -606  -587  -547  -469  -386  -358  -394  -462  -543  -613  -658  -684  -697  -695  -691  -696  -707  -718  -720  -692  -613  -500  -400  -339  -310  -297  -293  -296  -308  -319  -289  -163  71  328  502  563  533  427  276  125  -33  -247  -491  -665  -722  -710  -698  -714  -737  -748  -748  -747  -751  -763  -780  -790  -789  -801  -843  -917  -1005  -1061  -1066  -1045  -1021  -1004  -997  -1012  -1071  -1150  -1147  -1008  -813  -617  -362  51  783  1912  3198  4134  4222  3156  990  -1694  -4017  -5289  -5259  -4129  -2454  -954  -160  -53  -220  -345  -380  -378  -378  -378  -349  -268  -161  -83  -43  -2  57  113  143  150  144  138  148  187  248  308  353  387  409  417  422  445  487  527  579  693  858  1003  1104  1189  1270  1331  1371  1419  1506  1623  1734  1810  1854  1908  2011  2141  2236  2270  2242  2151  2001  1806  1540  1190  845  634  568  548  471  320  168  80  34  -38  -159  -284  -364  -408  -464  -564  -685  -771  -800  -796  -777  -738  -675  -603  -554  -535  -525  -505  -460  -378  -282  -244  -306  -423  -515  -548  -543  -518  -478  -431  -397  -392  -410  -434  -453  -465  -471  -465  -434  -372  -306  -265  -250  -240  -219  -191  -174  -182  -217  -272  -322  -337  -317  -284  -250  -236  -254  -298  -349  -389  -394  -321  -147  64  206  247  246  280  378  507  607  643  618  559  504  467  429  353  227  67  -107  -264  -359  -386  -376  -363  -368  -395  -428  -453  -471  -490  -511  -538  -563  -565  -531  -489  -482  -522  -592  -678  -758  -793  -760  -679  -582  -478  -374  -319  -354  -447  -470  -276  216  1092  2382  3793  4753  4709  3345  849  -2013  -4289  -5283  -4831  -3351  -1594  -278  256  185  -41  -123  -51  67  152  184  179  155  128  109  108  134  198  299  392  456  514  576  621  634  615  585  565  560  564  575  607  669  753  833  887  918  939  948  944  943  985  1126  1381  1680  1913  2024  2042  2031  2031  2041  2053  2062  2064  2054  2007  1876  1649  1389  1176  1036  929  819  703  586  465  334  198  66  -39  -108  -157  -222  -337  -483  -617  -731  -829  -885  -881  -840  -798  -770  -752  -729  -694  -649  -615  -609  -631  -668  -719  -778  -822  -834  -804  -725  -614  -512  -456  -452  -495  -567  -638  -683  -707  -721  -717  -677  -619  -579  -574  -606  -669  -753  -833  -883  -883  -841  -780  -726  -686  -663  -664  -698  -757  -811  -835  -816  -738  -609  -478  -378  -293  -203  -116  -22  87  194  275  336  382  398  376  351  356  366  339  261  138  -18  -187  -330  -429  -498  -548  -577  -583  -574  -559  -551  -558  -575  -597  -636  -702  -765  -769  -714  -657  -638  -651  -677  -706  -751  -826  -928  -1018  -1013  -870  -658  -454  -250  26  536  1467  2818  4238  5036  4499  2397  -737  -3815  -5749  -6036  -4941  -3225  -1710  -855  -585  -541  -470  -360  -284  -243  -200  -154  -137  -171  -237  -281  -303  -324  -305  -227  -128  -22  105  229  294  282  224  188  228  339  487  635  745  797  803  786  770  790  872  985  1063  1087  1096  1134  1212  1313  1423  1523  1592  1639  1695  1792  1913  1993  2000  1968  1936  1923  1925  1919  1858  1684  1363  942  552  308  211  183  162  131  84  6  -114  -255  -363  -412  -423  -438  -503  -621  -722  -736  -658  -544  -463  -440  -447  -452  -449  -450  -457  -458  -450  -436  -425  -422  -421  -422  -427  -425  -405  -372  -339  -301  -266  -247  -237  -220  -196  -177  -168  -160  -145  -128  -120  -131  -162  -199  -226  -238  -239  -227  -192  -140  -99  -90  -107  -127  -146  -173  -210  -232  -198  -83  75  205  268  282  273  262  255  241  189  76  -78  -220  -307  -351  -396  -456  -510  -558  -627  -738  -863  -955  -998  -1003  -988  -969  -959  -978  -1049  -1180  -1321  -1382  -1302  -1107  -899  -773  -736  -745  -768  -805  -871  -976  -1048  -983  -788  -479  77  1046  2463  4104  5368  5493  4012  1132  -2215  -4830  -5933  -5473  -3945  -2078  -508  398  629  491  312  212  174  166  165  167  178  205  245  288  329  367  403  428  433  419  390  348  302  283  332  466  632  745  774  758  747  783  886  1029  1148  1208  1228  1237  1249  1275  1329  1421  1550  1688  1785  1819  1814  1801  1812  1886  2031  2193  2303  2332  2263  2077  1828  1621  1478  1316  1076  806  600  485  413  315  144  -90  -315  -463  -537  -577  -604  -631  -675  -739  -813  -871  -883  -851  -811  -793  -796  -803  -804  -784  -733  -649  -525  -389  -319  -350  -440  -558  -676  -748  -759  -732  -698  -674  -660  -650  -648  -648  -634  -593  -522  -434  -356  -309  -288  -274  -260  -255  -263  -269  -257  -231  -216  -221  -241  -261  -280  -294  -262  -124  117  371  555  669  745  765  696  553  371  163  -35  -165  -220  -263  -332  -414  -478  -515  -548  -606  -681  -740  -777  -799  -809  -810  -797  -768  -737  -738  -805  -924  -1030  -1074  -1069  -1048  -1027  -1010  -1005  -1038  -1132  -1253  -1313  -1210  -859  -261  480  1354  2460  3692  4625  4674  3345  703  -2430  -4941  -6022  -5512  -3930  -2141  -806  -127  54  32  4  6  15  27  53  97  149  201  253  310  366  412  454  494  520  524  519  517  523  544  591  681  794  882  914  904  894  935  1069  1265  1435  1511  1503  1461  1445  1480  1554  1687  1916  2191  2386  2452  2436  2380  2288  2168  2045  1953  1909  1900  1895  1873  1843  1815  1755  1616  1408  1196  1011  819  596  375  198  69  -31  -110  -158  -177  -178  -173  -170  -181  -214  -264  -316  -364  -408  -453  -494  -516  -516  -506  -496  -477  -431  -366  -310  -274  -257  -273  -329  -402  -461  -504  -546  -588  -624  -651  -659  -631  -566  -492  -434  -407  -440  -561  -734  -860  -861  -728  -527  -366  -295  -289  -300  -274  -178  -45  54  90  90  78  49  -11  -100  -197  -282  -360  -442  -524  -605  -691  -790  -879  -919  -899  -847  -803  -785  -800  -860  -962  -1086  -1218  -1343  -1422  -1421  -1324  -1161  -1001  -903  -878  -933  -1075  -1261  -1406  -1463  -1399  -1194  -948  -770  -542  -2  1012  2436  3781  4263  3307  932  -2170  -4895  -6310  -6165  -4901  -3198  -1637  -614  -212  -194  -272  -331  -386  -458  -519  -510  -396  -214  -41  79  145  169  175  179  181  176  165  152  150  183  267  378  457  478  463  450  476  563  680  762  785  778  792  872  1016  1172  1295  1384  1450  1510  1587  1690  1805  1907  1973  2002  2010  2003  1960  1842  1623  1358  1154  1050  995  925  808  641  429  168  -121  -366  -502  -548  -574  -624  -683  -721  -738  -763  -819  -916  -1034  -1132  -1175  -1169  -1143  -1130  -1148  -1175  -1165  -1081  -932  -768  -640  -578  -600  -721  -905  -1067  -1144  -1127  -1026  -871  -712  -593  -534  -528  -547  -561  -548  -515  -479  -433  -335  -164  27  165  236  276  299  287  242  195  172  167  177  228  341  484  594  636  614  543  436  319  216  124  37  -39  -96  -138  -176  -215  -249  -279  -311  -340  -354  -339  -292  -240  -209  -202  -232  -295  -351  -363  -336  -294  -260  -238  -228  -261  -394  -625  -796  -726  -445  -127  152  476  1016  1915  3027  3858  3879  2813  792  -1610  -3640  -4727  -4686  -3725  -2364  -1183  -472  -129  70  239  365  415  407  385  373  376  382  386  386  386  394  428  505  611  710  783  836  872  894  916  946  977  1000  1018  1054  1124  1210  1276  1316  1352  1403  1461  1518  1582  1658  1743  1842  1932  1968  1937  1899  1928  2049  2232  2413  2539  2604  2630  2621  2552  2399  2175  1938  1743  1579  1398  1205  1034  867  665  453  287  191  133  54  -69  -188  -237  -210  -158  -130  -131  -140  -140  -133  -129  -142  -181  -246  -324  -376  -366  -278  -136  -4  71  90  85  79  84  107  155  214  246  235  206  171  130  107  125  158  173  175  197  261  346  415  456  476  488  509  537  559  579  613  655  689  725  792  883  958  996  1013  1032  1062  1100  1130  1135  1080  943  766  640  601  614  630  615  552  455  371  324  305  294  289  303  350  417  448  408  340  305  326  390  457  489  498  520  572  633  676  711  720  621  396  176  157  513  1358  2702  4276  5492  5733  4622  2211  -793  -3340  -4724  -4813  -3856  -2359  -959  -118  138  84  -52  -192  -305  -372  -399  -406  -398  -381  -369  -380  -420  -484  -553  -603  -626  -623  -598  -550  -469  -374  -338  -416  -556  -648  -638  -559  -474  -417  -391  -375  -352  -322  -302  -296  -291  -273  -241  -203  -160  -127  -118  -119  -104  -78  -69  -102  -187  -316  -450  -546  -588  -598  -637  -765  -975  -1192  -1374  -1548  -1771  -2073  -2437  -2821  -3184  -3473  -3654  -3771  -3889  -4030  -4171  -4281  -4346  -4380  -4404  -4431  -4460  -4486  -4542  -4681  -4888  -5082  -5209  -5269  -5290  -5302  -5338  -5431  -5595  -5787  -5945  -6038  -6081  -6103  -6128  -6168  -6215  -6237  -6232  -6251  -6319  -6399  -6479  -6591  -6750  -6932  -7112  -7277  -7410  -7504  -7590  -7717  -7876  -8002  -8047  -8019  -7959  -7904  -7865  -7830  -7795  -7775  -7781  -7814  -7852  -7877  -7904  -7970  -8067  -8120  -8087  -7928  -7196  -4863  -374  5111  9483  11729  12426  12508  12391  12040  11445  11413  14007  21199  32149  32767  32767  32767  32767  32767  32767  32767  32767  32767  32767  32767  29855  27544  25640  24233  23577  23503  23640  23737  23644  23258  22663  22131  21807  21518  20847  19276  16727  13957  11910  11058  11264  11862  12163  11647  9814  6518  2246  -1996  -5060  -6318  -6077  -5281  -4841  -5105  -5818  -6599  -7324  -8049  -8811  -9569  -10236  -10732  -11077  -11411  -11846  -12345  -12792  -13112  -13352  -13638  -14051  -14591  -15201  -15796  -16289  -16608  -16752  -16831  -16954  -17153  -17395  -17629  -17821  -18011  -18255  -18530  -18789  -19056  -19363  -19685  -20013  -20379  -20751  -21028  -21178  -21282  -21446  -21713  -22034  -22309  -22468  -22537  -22648  -22935  -23376  -23796  -24068  -24237  -24438  -24759  -25179  -25643  -26141  -26640  -27026  -27245  -27377  -27538  -27779  -28066  -28284  -28311  -28066  -27520  -26664  -25370  -23403  -20860  -18478  -17029  -16573  -16619  -16736  -16792  -16831  -16918  -17015  -16881  -16150  -14662  -12526  -9642  -5466  169  6389  12187  17120  21312  26331  32767  32767  32767  32767  32767  32767  32767  32767  32767  32767  32767  32767  32767  32767  26055  19319  14818  12385  11111  10395  9756  8787  7641  6833  6529  6498  6515  6467  6289  6005  5710  5472  5288  4986  4234  2778  571  -2084  -4418  -5768  -6223  -6296  -6309  -6234  -5846  -4859  -3098  -891  972  2028  2459  2606  2614  2492  2201  1720  1143  649  325  134  35  0]
