reading_id,reading_time,wire_id,result_classification,heart_rate,heart_rate_alert,firmware_version,device_app_version,hardware_version,waveform_samples
42e583a0-58c6-11ed-8080-808080808080,Mon Oct 31 02:46:46 UTC 2022,2101e3d81839,NSR,61,NONE,20001.171.50,2.10.0,Charge 5,[-658  -1603  -2104  -2136  -1971  -1840  -1796  -1773  -1718  -1642  -1588  -1562  -1527  -1465  -1398  -1357  -1343  -1323  -1265  -1168  -1076  -1026  -1013  -1015  -1017  -1017  -1019  -1025  -1029  -1009  -944  -853  -789  -753  -662  -449  -180  6  62  59  84  169  304  453  546  546  521  538  606  850  1405  2148  2798  3123  3044  2563  1733  719  -315  -1216  -1717  -1737  -1546  -1409  -1249  -893  -467  -187  -39  80  190  251  267  317  475  702  885  972  994  971  904  823  802  863  916  884  796  738  757  844  998  1239  1523  1737  1814  1790  1739  1696  1655  1620  1611  1642  1708  1771  1790  1757  1696  1687  1837  2222  2757  3172  3273  3145  2978  2852  2736  2610  2495  2399  2313  2248  2213  2207  2219  2226  2200  2116  1932  1650  1375  1214  1151  1084  964  811  658  535  466  433  397  360  350  354  326  262  188  123  68  7  -72  -130  -95  45  223  369  451  473  446  358  220  85  -2  -42  -38  15  97  172  220  246  287  381  515  612  563  344  62  -175  -297  -182  125  357  366  239  116  48  -6  -62  -92  -92  -78  -65  -52  -37  -23  -18  -19  -21  -28  -47  -74  -97  -107  -103  -85  -62  -88  -234  -468  -654  -702  -616  -460  -329  -252  -177  -96  -59  -102  -221  -351  -395  -323  -204  -132  -144  -201  -244  -254  -248  -263  -311  -329  -263  -162  -103  -113  -188  -296  -360  -322  -216  -177  -299  -498  -617  -592  -464  -328  -227  -125  -31  11  7  -7  1  75  239  450  609  648  538  272  -83  -406  -616  -712  -733  -705  -647  -615  -671  -791  -895  -940  -929  -883  -799  -665  -500  -392  -441  -584  -635  -472  -24  658  1336  1907  2452  2765  2453  1475  150  -1174  -2247  -2924  -3156  -3003  -2589  -2015  -1432  -1029  -858  -817  -772  -638  -450  -314  -265  -254  -213  -99  77  231  261  123  -103  -262  -276  -212  -145  -77  17  128  214  251  255  252  255  273  320  401  494  560  584  598  655  765  875  949  1001  1045  1108  1236  1418  1584  1702  1795  1873  1922  1928  1901  1864  1839  1839  1858  1870  1813  1630  1371  1159  1034  927  771  584  414  246  20  -225  -333  -235  -81  -64  -205  -385  -507  -584  -703  -914  -1147  -1251  -1143  -907  -696  -590  -565  -564  -561  -576  -663  -833  -1003  -1065  -1019  -951  -900  -844  -768  -700  -665  -678  -719  -726  -656  -521  -429  -516  -752  -958  -1043  -1051  -1041  -1027  -983  -881  -740  -618  -558  -548  -554  -579  -638  -706  -762  -827  -909  -982  -1018  -1012  -975  -890  -727  -508  -323  -244  -262  -334  -427  -517  -577  -594  -588  -604  -665  -739  -780  -780  -764  -745  -706  -633  -541  -460  -409  -354  -253  -137  -117  -263  -501  -681  -748  -754  -749  -732  -696  -637  -567  -501  -431  -347  -268  -213  -180  -171  -204  -275  -353  -400  -416  -430  -466  -515  -553  -572  -574  -545  -464  -348  -225  -80  101  282  416  470  437  334  167  -29  -145  -75  156  359  317  16  -356  -639  -771  -733  -529  -239  1  108  58  -125  -356  -522  -579  -547  -455  -328  -190  -32  162  355  531  784  1227  1856  2578  3219  3413  2852  1661  197  -1206  -2199  -2661  -2790  -2700  -2354  -1818  -1241  -754  -453  -326  -276  -242  -197  -119  -17  66  91  54  -21  -113  -185  -171  -50  118  255  313  320  342  392  435  455  468  506  574  634  649  635  639  704  856  1066  1264  1427  1586  1738  1833  1861  1856  1846  1845  1859  1917  2054  2242  2390  2444  2434  2412  2404  2403  2392  2360  2312  2248  2137  1906  1516  1077  776  685  712  725  668  553  395  211  35  -121  -270  -419  -578  -731  -842  -882  -825  -648  -406  -212  -126  -123  -174  -281  -439  -593  -669  -638  -541  -482  -536  -667  -792  -866  -882  -866  -842  -816  -786  -750  -711  -683  -675  -676  -671  -655  -641  -641  -635  -596  -541  -502  -484  -482  -505  -569  -658  -730  -760  -760  -743  -712  -674  -658  -697  -770  -816  -804  -782  -780  -735  -624  -531  -517  -530  -475  -360  -305  -364  -466  -547  -597  -634  -676  -701  -676  -618  -573  -557  -547  -518  -500  -545  -612  -597  -507  -432  -407  -415  -420  -386  -323  -263  -222  -198  -194  -243  -380  -581  -780  -949  -1085  -1129  -973  -587  -141  121  144  69  21  17  20  4  -6  14  43  45  23  -4  -38  -100  -216  -364  -484  -533  -473  -288  -53  126  211  221  185  135  100  88  90  93  95  94  70  -7  -138  -264  -329  -347  -378  -458  -553  -636  -717  -792  -837  -796  -620  -368  -137  73  354  850  1683  2769  3731  4046  3404  2016  346  -1279  -2542  -3160  -3223  -3042  -2776  -2400  -1845  -1137  -485  -113  -13  -31  -62  -74  -63  -45  -41  -58  -89  -111  -110  -92  -53  24  132  231  304  366  432  516  610  673  681  645  596  550  515  519  622  852  1136  1345  1437  1463  1446  1366  1241  1173  1277  1570  1945  2250  2408  2457  2481  2518  2537  2535  2596  2760  2912  2842  2420  1806  1340  1165  1169  1213  1237  1232  1198  1114  942  670  355  104  -36  -128  -255  -455  -680  -834  -885  -867  -812  -735  -648  -568  -514  -498  -529  -604  -683  -719  -684  -559  -374  -205  -103  -74  -107  -181  -270  -347  -397  -422  -424  -405  -386  -395  -446  -514  -565  -602  -630  -614  -546  -472  -427  -408  -396  -383  -373  -369  -366  -360  -362  -376  -371  -322  -280  -305  -371  -382  -263  -65  52  -28  -246  -440  -542  -591  -623  -650  -653  -584  -434  -262  -135  -75  -63  -69  -70  -70  -87  -144  -226  -294  -320  -318  -313  -309  -297  -280  -269  -276  -306  -346  -379  -397  -397  -376  -361  -373  -391  -399  -418  -458  -511  -569  -614  -633  -634  -634  -638  -631  -586  -496  -377  -245  -124  -49  -25  -25  -35  -66  -127  -196  -266  -352  -438  -502  -562  -617  -615  -470  -134  288  597  706  663  502  242  -51  -303  -474  -569  -608  -605  -562  -472  -342  -205  -95  -29  -38  -189  -500  -855  -1102  -1233  -1327  -1326  -1076  -563  62  656  1176  1750  2560  3450  3909  3572  2493  993  -502  -1613  -2317  -2906  -3436  -3676  -3533  -3086  -2417  -1654  -1002  -569  -299  -125  -76  -182  -373  -516  -548  -500  -398  -242  -71  60  135  168  179  175  167  179  240  354  495  616  696  755  824  922  1048  1195  1327  1382  1355  1322  1342  1391  1417  1428  1484  1642  1907  2206  2428  2505  2443  2306  2163  2052  1970  1907  1885  1935  2017  2066  2057  1999  1932  1886  1831  1728  1591  1447  1271  1019  720  482  363  324  297  245  157  30  -106  -223  -337  -485  -669  -843  -951  -966  -890  -747  -602  -515  -495  -508  -528  -541  -539  -519  -484  -454  -443  -440  -427  -429  -482  -569  -622  -598  -526  -483  -505  -554  -579  -562  -510  -453  -406  -336  -208  -51  51  47  -46  -161  -235  -256  -262  -281  -316  -373  -457  -515  -486  -377  -248  -158  -124  -122  -118  -109  -122  -187  -288  -367  -394  -394  -394  -398  -397  -382  -360  -371  -450  -571  -661  -668  -597  -498  -409  -325  -242  -178  -159  -194  -244  -270  -277  -292  -318  -326  -304  -278  -251  -201  -147  -137  -185  -258  -312  -337  -350  -358  -335  -269  -194  -163  -205  -321  -455  -546  -587  -592  -549  -449  -325  -236  -205  -208  -216  -216  -211  -215  -237  -273  -311  -333  -309  -219  -92  3  18  -60  -189  -320  -460  -628  -794  -921  -1003  -1058  -1090  -1070  -943  -701  -420  -187  -20  35  -145  -523  -843  -946  -746  -136  803  1801  2609  3035  2883  2055  724  -694  -1871  -2722  -3212  -3316  -3153  -2808  -2257  -1574  -978  -622  -453  -345  -290  -325  -403  -458  -481  -490  -486  -434  -308  -144  -5  109  244  395  506  543  515  451  392  379  434  519  576  597  648  795  999  1133  1108  956  811  810  952  1165  1420  1690  1918  2069  2142  2157  2144  2119  2100  2104  2154  2261  2388  2462  2461  2416  2349  2259  2149  2030  1934  1873  1776  1556  1239  952  775  690  642  549  350  102  -74  -141  -149  -149  -157  -180  -226  -311  -459  -682  -959  -1201  -1243  -952  -420  63  303  336  294  246  173  31  -155  -295  -347  -357  -388  -470  -591  -704  -770  -767  -685  -557  -453  -409  -406  -413  -411  -406  -420  -481  -597  -725  -771  -654  -391  -113  45  29  -142  -391  -601  -704  -704  -651  -603  -580  -557  -498  -394  -257  -87  122  264  159  -183  -530  -708  -733  -672  -551  -407  -300  -257  -255  -264  -264  -257  -257  -252  -200  -87  18  20  -74  -164  -190  -202  -257  -320  -321  -282  -277  -318  -364  -384  -374  -342  -281  -204  -155  -185  -320  -516  -675  -735  -677  -494  -240  -30  71  81  51  25  16  12  2  -16  -43  -85  -142  -208  -282  -362  -426  -448  -428  -382  -342  -319  -296  -264  -230  -207  -205  -219  -263  -398  -605  -691  -507  -93  481  1180  1863  2313  2465  2356  1826  737  -651  -1950  -2853  -3101  -2779  -2343  -2101  -1968  -1731  -1341  -938  -672  -542  -442  -334  -254  -217  -190  -157  -134  -135  -154  -175  -189  -181  -121  -2  126  200  217  249  357  521  673  800  912  992  1023  1017  987  949  918  903  900  917  971  1069  1172  1235  1248  1234  1215  1231  1330  1534  1797  2045  2222  2313  2341  2344  2338  2313  2226  2037  1779  1540  1345  1159  983  872  838  822  765  662  529  348  102  -174  -450  -714  -908  -950  -843  -668  -478  -251  11  207  244  137  -19  -128  -172  -217  -324  -462  -528  -463  -327  -231  -219  -251  -292  -341  -389  -420  -433  -443  -482  -578  -695  -739  -652  -481  -329  -237  -180  -164  -224  -335  -429  -471  -481  -495  -527  -562  -547  -440  -269  -115  -26  5  12  17  18  -35  -187  -395  -542  -550  -440  -312  -264  -301  -358  -416  -512  -640  -735  -747  -674  -550  -420  -327  -299  -333  -383  -404  -391  -372  -362  -361  -359  -351  -332  -309  -293  -299  -335  -388  -428  -443  -441  -433  -419  -387  -319  -213  -97  -24  -13  -22  -12  34  116  186  187  100  -79  -302  -458  -476  -370  -215  -94  -35  -18  -21  -58  -148  -267  -353  -350  -231  -54  -24  -320  -752  -827  -317  558  1482  2182  2444  2271  1814  1143  305  -601  -1496  -2198  -2579  -2823  -2985  -2740  -1953  -1006  -365  -119  -37  88  271  413  441  321  29  -348  -617  -641  -425  -86  226  437  549  576  542  485  437  401  362  316  269  231  220  270  438  739  1058  1235  1284  1327  1377  1366  1304  1290  1374  1475  1527  1582  1724  1928  2081  2125  2089  2027  1988  2024  2170  2385  2564  2631  2537  2256  1868  1502  1186  927  799  809  880  931  895  722  426  94  -144  -241  -244  -201  -117  1  113  165  92  -154  -497  -763  -871  -879  -870  -866  -824  -696  -501  -319  -198  -132  -125  -205  -365  -552  -707  -816  -901  -961  -935  -784  -547  -320  -186  -151  -170  -209  -275  -409  -613  -802  -899  -890  -796  -665  -550  -457  -377  -326  -315  -322  -310  -249  -150  -60  -14  -21  -101  -270  -480  -638  -706  -719  -718  -715  -707  -685  -643  -595  -561  -542  -522  -502  -496  -506  -507  -481  -436  -402  -392  -401  -419  -431  -428  -411  -395  -404  -446  -501  -546  -568  -564  -548  -528  -494  -440  -378  -331  -298  -254  -195  -142  -101  -68  -48  -44  -48  -43  -10  56  121  104  -42  -247  -388  -428  -418  -406  -403  -396  -366  -319  -282  -291  -364  -494  -633  -706  -646  -449  -242  -225  -445  -659  -531  76  1067  2141  2891  3127  2869  2100  955  -258  -1412  -2350  -2781  -2715  -2401  -1991  -1564  -1211  -978  -831  -704  -585  -506  -487  -506  -528  -519  -443  -277  -37  198  328  338  300  273  265  265  279  320  389  471  541  580  589  588  595  610  627  637  652  709  840  1001  1111  1160  1208  1288  1374  1457  1570  1737  1933  2093  2175  2186  2166  2164  2210  2289  2349  2347  2258  2072  1841  1658  1555  1487  1389  1216  981  743  539  356  200  103  71  71  65  30  -24  -75  -111  -166  -300  -518  -737  -861  -874  -823  -761  -719  -702  -692  -665  -599  -519  -492  -554  -653  -706  -691  -649  -611  -572  -510  -400  -260  -161  -167  -293  -490  -664  -750  -754  -712  -650  -585  -525  -475  -443  -431  -432  -450  -507  -595  -665  -702  -731  -758  -746  -660  -527  -436  -431  -474  -508  -519  -514  -499  -473  -442  -416  -400  -389  -379  -368  -369  -388  -411  -424  -431  -445  -457  -438  -371  -298  -288  -346  -410  -441  -443  -433  -402  -341  -266  -207  -166  -128  -114  -150  -208  -248  -258  -251  -230  -185  -113  -36  18  20  -49  -164  -263  -306  -292  -231  -137  -61  -53  -81  -96  -123  -173  -211  -222  -222  -231  -252  -261  -221  -109  73  287  474  580  588  513  380  238  149  123  112  49  -88  -266  -415  -473  -434  -363  -304  -238  -156  -97  -101  -175  -285  -386  -463  -491  -436  -354  -311  -215  19  377  919  1680  2484  3093  3230  2629  1390  -76  -1435  -2420  -2850  -2826  -2598  -2310  -1944  -1410  -817  -432  -347  -439  -562  -639  -658  -651  -642  -639  -643  -654  -660  -617  -488  -302  -126  28  169  271  327  368  414  461  499  516  518  527  572  652  745  821  851  830  826  926  1116  1305  1435  1533  1664  1834  1986  2081  2122  2127  2084  1939  1705  1540  1592  1841  2124  2289  2321  2294  2256  2202  2085  1867  1597  1375  1239  1150  1050  909  729  530  358  267  258  264  192  -9  -297  -549  -684  -723  -723  -716  -690  -623  -533  -465  -438  -438  -449  -453  -420  -364  -363  -443  -507  -500  -476  -495  -562  -628  -653  -658  -677  -692  -664  -592  -512  -466  -459  -470  -482  -489  -484  -470  -441  -377  -296  -256  -295  -392  -498  -585  -650  -703  -747  -764  -734  -666  -596  -543  -486  -378  -211  -55  -21  -130  -285  -387  -420  -432  -464  -497  -496  -474  -472  -502  -524  -486  -386  -274  -197  -164  -163  -212  -343  -523  -651  -662  -564  -421  -313  -271  -272  -281  -276  -255  -245  -301  -422  -524  -517  -387  -211  -85  -40  -44  -76  -159  -294  -431  -511  -510  -462  -439  -485  -579  -665  -711  -708  -635  -451  -141  206  437  448  252  -36  -261  -349  -355  -355  -384  -439  -498  -537  -537  -487  -392  -292  -229  -206  -209  -226  -241  -232  -166  -38  105  175  125  -12  -172  -297  -359  -367  -353  -340  -331  -329  -341  -367  -400  -432  -453  -457  -445  -424  -413  -444  -513  -521  -376  -101  262  723  1247  1768  2292  2789  3074  2911  2124  747  -865  -2206  -2967  -3144  -2926  -2560  -2159  -1711  -1302  -1069  -983  -894  -694  -385  -66  143  217  212  175  107  11  -74  -111  -91  -33  42  112  153  161  148  135  158  262  450  648  769  794  759  711  696  739  822  946  1121  1298  1401  1419  1409  1448  1578  1754  1890  1976  2083  2249  2427  2545  2578  2552  2494  2411  2321  2257  2231  2219  2207  2180  2099  1925  1674  1407  1187  1038  906  701  431  178  -19  -165  -243  -256  -236  -225  -273  -418  -625  -800  -887  -906  -902  -903  -914  -928  -936  -914  -823  -648  -443  -285  -199  -173  -192  -245  -303  -333  -339  -343  -341  -341  -367  -405  -425  -422  -411  -414  -469  -609  -803  -960  -1044  -1083  -1078  -982  -764  -482  -275  -207  -219  -231  -200  -128  -45  17  41  -13  -195  -468  -700  -796  -776  -713  -630  -519  -419  -384  -397  -403  -384  -362  -369  -408  -445  -448  -411  -357  -317  -303  -304  -313  -333  -366  -410  -454  -473  -460  -451  -472  -503  -522  -524  -507  -466  -414  -377  -352  -306  -240  -217  -286  -401  -487  -526  -533  -474  -294  -23  206  296  253  137  1  -122  -204  -218  -175  -124  -127  -241  -435  -595  -663  -677  -672  -620  -477  -278  -119  -42  -14  -8  -22  -45  -81  -153  -248  -320  -348  -342  -299  -191  -29  123  223  282  302  259  144  -19  -193  -336  -428  -468  -468  -440  -400  -364  -345  -352  -393  -464  -546  -610  -616  -531  -367  -230  -236  -357  -399  -71  808  2080  3364  4289  4425  3488  1748  -204  -1872  -2864  -3041  -2717  -2373  -2202  -2029  -1666  -1219  -901  -735  -617  -487  -342  -198  -83  -20  2  13  27  29  4  -37  -42  32  159  295  439  572  636  627  603  613  656  708  761  822  883  925  956  1006  1070  1118  1152  1203  1286  1389  1511  1649  1774  1860  1928  2019  2141  2253  2322  2338  2307  2243  2176  2131  2118  2147  2231  2344  2425  2423  2323  2115  1797  1416  1050  730  446  219  71  -4  -46  -89  -150  -234  -350  -488  -607  -667  -660  -623  -614  -654  -725  -804  -870  -895  -847  -717  -556  -437  -383  -369  -386  -453  -576  -710  -793  -815  -803  -773  -711  -607  -493  -420  -400  -407  -414  -411  -396  -376  -354  -331  -329  -368  -453  -560  -636  -660  -670  -696  -723  -727  -702  -655  -597  -538  -491  -468  -462  -464  -468  -481  -507  -539  -568  -585  -599  -617  -630  -609  -540  -452  -393  -377  -365  -317  -238  -181  -207  -350  -561  -743  -840  -846  -714  -396  -11  165  -30  -473  -878  -1079  -1101  -1002  -796  -531  -295  -123  -28  -42  -149  -271  -353  -391  -399  -402  -416  -425  -393  -318  -255  -253  -313  -395  -454  -477  -485  -486  -444  -323  -155  -37  -32  -127  -237  -283  -277  -282  -313  -350  -380  -397  -393  -347  -245  -111  9  103  185  241  220  114  -22  -150  -268  -376  -452  -487  -491  -477  -459  -449  -447  -456  -496  -591  -717  -797  -753  -573  -355  -208  -108  41  287  636  1152  1897  2756  3405  3453  2659  1179  -473  -1795  -2513  -2674  -2644  -2736  -2858  -2713  -2178  -1424  -732  -271  -27  70  35  -120  -311  -453  -519  -529  -483  -364  -195  -23  144  298  375  362  343  394  483  524  489  434  460  630  890  1110  1211  1218  1193  1174  1178  1199  1222  1257  1344  1509  1715  1893  2029  2135  2199  2218  2213  2204  2201  2210  2246  2314  2404  2494  2564  2599  2596  2563  2473  2277  1983  1679  1447  1298  1188  1052  836  560  316  166  94  43  -36  -158  -301  -442  -592  -743  -847  -883  -879  -861  -829  -770  -684  -587  -500  -407  -289  -182  -159  -252  -396  -482  -498  -506  -515  -489  -422  -359  -364  -435  -491  -474  -418  -400  -450  -540  -631  -702  -746  -769  -772  -719  -553  -275  1  119  20  -199  -397  -510  -555  -568  -584  -616  -629  -569  -450  -350  -338  -423  -553  -649  -685  -684  -661  -608  -530  -459  -426  -436  -477  -545  -628  -692  -716  -709  -685  -651  -598  -529  -470  -449  -472  -536  -611  -659  -674  -671  -662  -653  -648  -651  -652  -619  -520  -387  -281  -220  -189  -190  -225  -291  -397  -518  -584  -548  -437  -324  -259  -246  -269  -329  -443  -596  -718  -732  -603  -365  -135  -15  -12  -73  -146  -219  -313  -414  -479  -478  -395  -226  -28  100  116  52  -44  -159  -280  -388  -453  -468  -450  -420  -403  -406  -410  -411  -416  -415  -402  -395  -430  -569  -844  -1138  -1234  -983  -366  498  1398  2172  2769  3185  3301  2867  1864  549  -859  -2123  -2986  -3423  -3488  -3128  -2367  -1495  -884  -615  -505  -430  -392  -401  -421  -425  -425  -448  -489  -496  -416  -265  -113  -5  55  105  186  291  369  389  371  361  414  560  737  849  899  948  1028  1137  1264  1384  1462  1462  1375  1227  1072  989  1088  1448  1960  2365  2552  2629  2699  2761  2791  2793  2787  2787  2793  2776  2710  2610  2513  2429  2322  2147  1903  1632  1349  1050  796  658  617  582  468  251  -13  -230  -340  -372  -400  -454  -511  -552  -583  -598  -582  -543  -506  -489  -489  -497  -523  -591  -690  -762  -763  -716  -672  -643  -604  -543  -476  -426  -413  -448  -519  -589  -623  -621  -618  -625  -600  -502  -358  -248  -209  -222  -269  -346  -439  -524  -572  -570  -535  -500  -477  -443  -392  -354  -366  -427  -494  -529  -532  -510  -461  -370  -253  -172  -191  -331  -538  -710  -787  -770  -687  -578  -489  -433  -399  -387  -405  -451  -507  -558  -597  -616  -593  -528  -464  -429  -423  -437  -453  -446  -399  -318  -256  -249  -266  -276  -285  -320  -410  -543  -676  -786  -870  -923  -919  -825  -642  -462  -390  -386  -344  -265  -210  -189  -181  -187  -216  -261  -304  -353  -425  -492  -476  -354  -197  -72  25  124  205  225  203  187  169  127  71  -8  -159  -393  -629  -776  -812  -743  -568  -364  -288  -415  -617  -702  -637  -519  -416  -338  -272  -216  -117  233  981  1963  2869  3444  3480  2796  1416  -281  -1784  -2752  -3075  -2936  -2745  -2723  -2669  -2291  -1638  -1013  -601  -382  -289  -270  -285  -308  -322  -321  -305  -276  -220  -107  52  207  305  334  305  259  230  233  264  305  349  412  502  619  783  976  1127  1195  1207  1208  1209  1191  1143  1101  1152  1344  1596  1792  1935  2106  2298  2428  2474  2470  2440  2404  2384  2387  2408  2424  2399  2318  2177  2012  1898  1871  1893  1878  1731  1435  1104  878  767  678  532  303  47  -134  -225  -302  -403  -498  -567  -620  -657  -667  -641  -572  -478  -391  -346  -380  -488  -606  -682  -708  -672  -563  -426  -358  -393  -453  -443  -349  -252  -249  -318  -353  -319  -259  -226  -245  -289  -312  -312  -324  -381  -481  -585  -654  -692  -733  -776  -795  -770  -705  -629  -566  -509  -457  -422  -407  -403  -405  -408  -408  -387  -327  -245  -193  -205  -268  -341  -383  -385  -363  -343  -340  -359  -410  -484  -551  -593  -615  -622  -617  -605  -590  -582  -583  -588  -589  -581  -561  -528  -494  -473  -460  -449  -442  -446  -457  -468  -476  -502  -576  -644  -626  -533  -402  -238  -79  11  6  -78  -192  -272  -298  -291  -274  -264  -283  -359  -461  -483  -349  -117  71  147  145  114  52  -39  -115  -149  -179  -248  -346  -433  -507  -602  -740  -894  -1010  -1057  -1007  -818  -492  -124  126  104  -161  -421  -408  32  910  2006  2968  3436  3113  1961  329  -1223  -2273  -2745  -2831  -2784  -2692  -2456  -2057  -1645  -1304  -972  -595  -235  1  110  153  150  81  -39  -166  -251  -246  -120  87  274  386  446  473  462  430  406  392  385  391  406  441  537  712  916  1086  1213  1304  1341  1326  1306  1319  1345  1344  1329  1357  1457  1566  1608  1591  1568  1573  1612  1667  1728  1836  2043  2302  2490  2565  2578  2549  2412  2104  1687  1292  983  767  641  567  476  324  150  34  0  -6  -57  -183  -333  -408  -388  -339  -314  -312  -315  -317  -332  -378  -452  -509  -508  -493  -534  -625  -719  -791  -835  -850  -830  -768  -681  -603  -560  -530  -476  -397  -322  -276  -288  -400  -609  -814  -900  -850  -723  -582  -471  -410  -386  -383  -408  -463  -514  -494  -379  -228  -123  -98  -148  -257  -385  -477  -516  -516  -482  -410  -339  -334  -401  -485  -540  -558  -556  -558  -577  -601  -604  -590  -589  -626  -694  -746  -710  -530  -234  53  210  203  55  -172  -397  -566  -672  -723  -735  -726  -698  -643  -586  -560  -572  -607  -640  -635  -559  -406  -232  -105  -51  -49  -70  -112  -178  -240  -279  -303  -320  -333  -334  -298  -212  -124  -117  -195  -280  -311  -297  -281  -335  -506  -740  -908  -961  -954  -942  -910  -831  -728  -634  -580  -580  -571  -460  -244  13  318  866  1804  2877  3564  3426  2331  631  -1041  -2238  -2787  -2744  -2441  -2212  -2063  -1859  -1539  -1073  -543  -165  -29  -34  -65  -81  -85  -85  -85  -84  -82  -81  -69  -23  56  154  272  419  576  708  780  775  701  600  523  486  476  476  491  549  669  823  955  1029  1079  1180  1352  1544  1694  1779  1829  1887  1954  2005  2060  2164  2311  2429  2475  2465  2423  2362  2296  2247  2221  2211  2209  2187  2076  1805  1387  961  682  568  523  439  266  57  -86  -156  -235  -359  -477  -536  -540  -523  -520  -565  -663  -744  -745  -695  -659  -648  -635  -611  -593  -632  -771  -970  -1111  -1084  -866  -561  -334  -245  -234  -221  -167  -92  -35  -7  4  -2  -50  -183  -416  -681  -854  -855  -697  -477  -323  -288  -341  -422  -485  -523  -562  -609  -644  -657  -658  -656  -646  -620  -579  -523  -440  -338  -265  -267  -356  -498  -632  -723  -772  -784  -771  -752  -734  -729  -728  -683  -549  -361  -223  -189  -225  -292  -371  -447  -511  -562  -604  -655  -744  -860  -949  -959  -862  -669  -454  -302  -255  -306  -421  -541  -617  -640  -633  -613  -578  -530  -476  -431  -405  -397  -396  -385  -346  -268  -172  -110  -108  -134  -147  -133  -101  -74  -56  -32  11  56  49  -53  -231  -405  -498  -495  -453  -429  -425  -415  -389  -368  -371  -385  -376  -321  -265  -356  -614  -744  -476  103  820  1630  2396  2918  3120  2857  1981  783  -271  -1121  -1830  -2325  -2694  -2991  -2973  -2511  -1786  -1046  -496  -212  -109  -75  -62  -70  -110  -169  -214  -231  -230  -217  -182  -116  -40  12  37  68  142  256  370  447  484  528  631  774  889  956  997  1012  1002  1019  1087  1181  1287  1409  1536  1672  1830  1988  2100  2155  2175  2178  2183  2219  2308  2431  2535  2580  2573  2550  2526  2468  2333  2128  1908  1730  1624  1557  1445  1239  997  827  743  647  448  148  -155  -359  -445  -463  -458  -458  -498  -585  -665  -680  -663  -685  -755  -811  -806  -744  -665  -603  -539  -429  -318  -294  -388  -544  -679  -753  -785  -780  -691  -479  -211  -9  76  80  40  -37  -151  -266  -351  -426  -539  -713  -888  -965  -923  -838  -802  -845  -908  -883  -727  -511  -349  -291  -304  -346  -410  -491  -566  -614  -634  -640  -662  -722  -805  -864  -885  -892  -907  -910  -849  -721  -597  -532  -515  -519  -535  -564  -597  -614  -621  -657  -753  -873  -950  -974  -967  -902  -735  -510  -345  -291  -302  -319  -317  -289  -249  -219  -206  -206  -222  -263  -313  -341  -335  -336  -401  -530  -641  -672  -618  -526  -470  -487  -540  -570  -557  -498  -410  -322  -246  -177  -122  -94  -93  -96  -84  -80  -146  -279  -385  -372  -215  10  185  261  275  273  260  204  91  -35  -111  -123  -122  -197  -409  -684  -835  -761  -555  -364  -236  -166  -163  -218  -310  -483  -775  -1034  -954  -330  679  1586  2120  2481  2850  3103  3063  2545  1358  -311  -1879  -2905  -3314  -3236  -2834  -2231  -1608  -1170  -941  -806  -686  -581  -502  -431  -337  -216  -94  -15  -12  -70  -111  -83  -14  40  69  106  177  274  376  476  580  688  788  856  885  896  907  899  840  785  859  1065  1276  1433  1574  1720  1849  1943  2024  2131  2267  2385  2425  2384  2337  2378  2527  2711  2835  2883  2891  2861  2734  2483  2182  1933  1769  1662  1575  1464  1305  1142  1038  952  758  424  59  -211  -340  -360  -346  -362  -424  -490  -526  -543  -566  -601  -639  -675  -712  -742  -746  -724  -696  -665  -633  -611  -605  -601  -577  -529  -490  -501  -528  -520  -481  -440  -415  -412  -416  -412  -406  -411  -423  -430  -428  -428  -451  -517  -607  -678  -708  -707  -695  -686  -690  -723  -791  -877  -957  -994  -903  -605  -196  104  197  138  -5  -205  -411  -548  -593  -586  -557  -505  -434  -362  -305  -286  -342  -481  -658  -800  -855  -815  -699  -543  -404  -324  -288  -244  -156  -40  35  -5  -189  -432  -603  -662  -635  -546  -454  -411  -408  -419  -433  -443  -449  -454  -460  -461  -434  -369  -314  -329  -381  -387  -346  -307  -286  -277  -275  -282  -308  -355  -416  -477  -523  -544  -546  -538  -528  -514  -497  -487  -490  -491  -481  -457  -416  -358  -283  -193  -109  -51  -28  -30  -27  -8  6  0  -26  -59  -99  -141  -172  -198  -236  -303  -388  -441  -461  -487  -499  -473  -423  -339  -247  -227  -335  -518  -612  -589  -597  -657  -630  -418  46  854  1959  3055  3738  3652  2692  1164  -397  -1551  -2213  -2558  -2672  -2581  -2382  -2104  -1733  -1342  -1014  -743  -500  -316  -223  -209  -235  -261  -258  -217  -134  -26  58  95  114  162  249  349  439  502  532  538  539  553  586  630  651  642  661  745  869  989  1085  1162  1245  1346  1461  1591  1715  1791  1811  1812  1830  1873  1930  1999  2084  2180  2266  2331  2365  2354  2277  2145  2009  1913  1857  1831  1820  1778  1649  1420  1163  970  829  659  467  339  291  235  88  -143  -377  -553  -674  -759  -808  -788  -657  -440  -245  -154  -167  -224  -258  -258  -284  -360  -433  -454  -430  -398  -386  -389  -389  -378  -344  -268  -175  -139  -205  -335  -448  -511  -538  -551  -555  -540  -489  -408  -334  -290  -268  -269  -317  -414  -521  -596  -629  -643  -640  -601  -510  -394  -309  -278  -284  -309  -347  -396  -456  -518  -573  -619  -637  -597  -507  -411  -350  -329  -327  -336  -372  -438  -497  -516  -509  -478  -417  -351  -317  -325  -343  -344  -342  -368  -421  -470  -506  -542  -577  -598  -607  -614  -618  -600  -542  -457  -387  -350  -347  -371  -410  -433  -415  -364  -317  -295  -292  -305  -336  -379  -410  -399  -337  -248  -185  -192  -275  -391  -479  -511  -495  -432  -330  -211  -107  -40  -1  26  50  64  55  -1  -111  -236  -315  -335  -335  -382  -517  -699  -837  -894  -898  -859  -768  -645  -527  -359  -44  309  459  359  195  185  526  1259  2095  2552  2295  1327  10  -1205  -2095  -2626  -2826  -2822  -2698  -2394  -1918  -1433  -1056  -765  -509  -313  -195  -114  -4  160  314  368  330  239  99  -37  -89  -56  10  84  150  211  273  339  397  438  453  444  432  461  578  777  989  1150  1231  1246  1239  1253  1310  1391  1458  1499  1531  1555  1566  1585  1635  1734  1908  2121  2282  2363  2405  2410  2341  2214  2114  2086  2084  2045  1965  1893  1855  1781  1534  1058  503  91  -101  -119  -41  11  -49  -192  -323  -414  -479  -521  -523  -477  -401  -359  -390  -447  -489  -544  -623  -679  -682  -658  -638  -629  -613  -582  -557  -549  -541  -524  -512  -512  -520  -546  -598  -659  -700  -713  -720  -751  -818  -889  -912  -859  -762  -673  -604  -550  -530  -563  -629  -685  -707  -701  -687  -686  -700  -703  -680  -651  -633  -620  -600  -571  -543  -529  -534  -544  -551  -559  -573  -579  -526  -373  -169  -48  -83  -231  -403  -535  -608  -652  -718  -799  -828  -750  -605  -491  -449  -446  -454  -481  -548  -639  -705  -724  -709  -680  -645  -601  -561  -545  -563  -615  -676  -705  -672  -577  -460  -366  -295  -212  -107  -27  -38  -120  -172  -124  -6  99  166  224  281  287  193  32  -109  -183  -195  -191  -236  -384  -625  -866  -1008  -997  -808  -481  -168  -61  -265  -676  -958  -851  -440  25  417  718  988  1369  1878  2294  2322  1764  681  -613  -1810  -2727  -3259  -3374  -3081  -2416  -1537  -750  -301  -156  -125  -97  -89  -134  -192  -196  -134  -47  19  50  58  69  99  141  175  192  194  171  105  6  -59  11  279  646  913  999  982  953  959  1009  1084  1157  1228  1309  1420  1609  1884  2137  2204  2020  1710  1473  1385  1402  1489  1653  1877  2094  2235  2294  2309  2306  2281  2220  2146  2101  2091  2059  1933  1713  1477  1297  1156  960  628  177  -262  -535  -613  -591  -549  -503  -459  -429  -409  -381  -346  -331  -355  -401  -437  -453  -453  -439  -405  -359  -329  -345  -409  -479  -502  -476  -431  -390  -387  -443  -537  -612  -616  -540  -424  -317  -253  -243  -284  -368  -471  -556  -596  -584  -524  -438  -366  -329  -326  -368  -476  -629  -775  -872  -897  -856  -773  -659  -527  -406  -297  -192  -94  -20  2  -52  -183  -361  -536  -671  -778  -880  -943  -898  -713  -463  -281  -217  -215  -227  -274  -394  -556  -677  -717  -707  -681  -656  -641  -639  -643  -645  -634  -598  -532  -456  -406  -394  -399  -390  -351  -290  -248  -276  -400  -574  -698  -711  -626  -505  -411  -358  -323  -301  -299  -313  -325  -321  -296  -249  -181  -122  -105  -105  -80  -46  -56  -128  -213  -254  -270  -316  -383  -437  -487  -540  -590  -633  -661  -662  -628  -559  -475  -400  -352  -340  -382  -468  -493  -327  65  657  1378  2042  2438  2505  2272  1709  810  -314  -1496  -2517  -3137  -3240  -2950  -2508  -2029  -1516  -1024  -660  -468  -381  -317  -306  -424  -615  -690  -547  -322  -207  -201  -165  -13  236  485  629  647  596  537  499  479  452  398  323  267  284  415  664  965  1217  1367  1433  1456  1463  1456  1433  1404  1402  1485  1695  1972  2181  2257  2245  2209  2187  2199  2250  2332  2416  2475  2504  2503  2431  2243  1994  1806  1713  1633  1493  1306  1121  943  768  610  471  350  239  80  -178  -471  -685  -791  -819  -800  -761  -729  -716  -714  -694  -629  -543  -485  -478  -496  -508  -506  -507  -519  -524  -486  -399  -302  -236  -216  -239  -285  -328  -352  -358  -355  -350  -341  -331  -330  -365  -455  -568  -621  -571  -463  -380  -356  -363  -374  -380  -388  -401  -416  -408  -373  -347  -360  -396  -424  -442  -488  -569  -615  -567  -460  -356  -276  -227  -214  -229  -268  -321  -363  -380  -380  -387  -429  -515  -612  -677  -703  -712  -722  -735  -738  -699  -577  -378  -180  -102  -203  -369  -428  -359  -255  -192  -180  -186  -209  -281  -386  -468  -515  -552  -583  -591  -570  -545  -541  -535  -490  -422  -359  -303  -263  -243  -239  -270  -341  -405  -431  -432  -426  -415  -392  -351  -305  -276  -278  -302  -321  -316  -282  -237  -229  -262  -233  -74  159  382  541  574  408  46  -366  -653  -745  -699  -620  -574  -567  -578  -588  -593  -597  -609  -625  -636  -653  -692  -704  -523  -49  566  1116  1554  1967  2477  3028  3254  2762  1545  -63  -1607  -2655  -3078  -3141  -3109  -2967  -2558  -1876  -1175  -700  -433  -245  -93  9  59  70  72  86  110  122  109  87  89  127  202  329  484  595  615  561  477  418  436  561  762  950  1065  1114  1116  1083  1043  1037  1095  1208  1344  1474  1578  1649  1698  1739  1776  1824  1911  2049  2207  2329  2400  2465  2530  2545  2479  2387  2351  2349  2303  2188  2007  1759  1486  1252  1103  1041  1009  912  699  400  85  -175  -322  -359  -344  -326  -319  -327  -354  -402  -485  -600  -715  -805  -868  -892  -850  -742  -615  -528  -496  -488  -480  -478  -485  -470  -405  -307  -226  -200  -216  -252  -312  -398  -480  -530  -547  -548  -544  -538  -540  -563  -599  -610  -564  -464  -340  -247  -245  -318  -391  -421  -428  -438  -453  -468  -487  -513  -545  -581  -610  -629  -638  -636  -610  -539  -429  -330  -287  -296  -313  -311  -311  -344  -393  -420  -422  -437  -501  -611  -710  -745  -714  -659  -617  -574  -490  -377  -307  -338  -465  -623  -740  -770  -701  -577  -469  -397  -342  -295  -277  -312  -389  -454  -472  -463  -451  -447  -457  -485  -515  -509  -440  -337  -260  -231  -226  -230  -261  -344  -456  -538  -565  -566  -571  -573  -531  -407  -243  -127  -89  -108  -160  -209  -222  -203  -176  -155  -138  -118  -101  -106  -139  -180  -198  -182  -145  -100  -58  -20  23  59  56  -1  -111  -239  -335  -374  -379  -375  -370  -355  -339  -357  -436  -523  -545  -500  -451  -454  -470  -375  -93  386  1053  1854  2658  3288  3511  3087  2003  454  -1290  -2756  -3476  -3490  -3159  -2729  -2305  -1914  -1492  -988  -485  -132  27  70  77  72  50  6  -44  -88  -135  -180  -205  -187  -91  87  281  389  388  365  413  532  648  702  711  741  832  951  1032  1035  973  916  924  996  1124  1295  1454  1565  1671  1836  2052  2241  2344  2374  2388  2428  2504  2578  2593  2543  2483  2446  2402  2316  2200  2091  2005  1916  1772  1559  1347  1215  1156  1092  951  721  471  281  149  28  -85  -156  -198  -274  -415  -629  -880  -1065  -1105  -1016  -879  -779  -739  -728  -718  -693  -641  -578  -529  -488  -437  -373  -313  -277  -270  -280  -288  -264  -188  -88  -47  -139  -349  -576  -728  -784  -752  -636  -476  -337  -241  -187  -186  -236  -322  -438  -560  -646  -688  -704  -689  -622  -520  -422  -346  -299  -285  -294  -300  -295  -309  -362  -398  -347  -232  -122  -64  -55  -70  -91  -116  -148  -196  -245  -284  -352  -516  -744  -910  -914  -750  -509  -316  -228  -219  -248  -279  -296  -305  -332  -401  -501  -592  -648  -672  -677  -659  -609  -539  -482  -461  -470  -487  -498  -500  -497  -491  -482  -478  -480  -482  -477  -455  -419  -389  -384  -399  -420  -440  -473  -532  -618  -711  -773  -761  -670  -549  -443  -352  -232  -35  213  415  488  426  286  149  72  51  57  71  81  64  -12  -158  -334  -482  -561  -573  -536  -462  -373  -303  -275  -290  -324  -353  -385  -438  -546  -733  -879  -759  -357  149  693  1318  2004  2688  3177  3105  2324  1120  -180  -1400  -2352  -2934  -3278  -3481  -3364  -2802  -2007  -1260  -668  -256  -47  -3  -40  -85  -117  -146  -172  -180  -166  -145  -135  -130  -106  -72  -45  -18  36  150  316  491  646  769  851  883  884  882  885  864  780  638  496  423  484  722  1080  1415  1633  1739  1782  1808  1850  1949  2116  2292  2408  2444  2431  2402  2371  2339  2311  2295  2294  2302  2296  2219  2020  1746  1513  1345  1166  953  761  606  474  393  382  405  416  405  370  252  -16  -371  -629  -715  -704  -678  -665  -657  -650  -644  -624  -568  -488  -421  -391  -396  -425  -461  -467  -419  -341  -264  -215  -236  -326  -416  -460  -465  -461  -486  -568  -681  -759  -778  -762  -738  -706  -638  -536  -441  -392  -384  -383  -367  -340  -323  -325  -334  -342  -368  -439  -551  -662  -725  -687  -511  -251  -30  88  132  138  94  -30  -192  -255  -135  76  186  86  -144  -352  -478  -543  -554  -490  -368  -274  -286  -378  -455  -469  -457  -453  -442  -403  -340  -271  -239  -269  -332  -390  -432  -454  -457  -458  -475  -507  -512  -451  -358  -309  -316  -339  -357  -363  -332  -235  -92  25  78  86  74  40  -34  -144  -270  -396  -502  -564  -549  -427  -197  81  273  238  -8  -268  -345  -194  71  289  366  251  -90  -546  -884  -988  -893  -670  -412  -238  -210  -301  -439  -576  -665  -596  -275  278  933  1539  1968  2173  2248  2212  1837  994  -195  -1516  -2594  -3025  -2867  -2519  -2171  -1841  -1590  -1399  -1153  -833  -544  -362  -269  -190  -75  47  132  178  199  202  195  188  194  234  311  401  474  523  548  541  479  361  230  152  173  306  506  681  778  812  838  916  1065  1240  1357  1392  1398  1467  1654  1898  2057  2085  2095  2209  2393  2503  2458  2318  2195  2137  2123  2119  2107  2068  1973  1823  1662  1510  1357  1193  1006  777  541  378  303  237  108  -64  -214  -306  -358  -418  -524  -661  -777  -839  -857  -851  -819  -746  -652  -589  -581  -592  -550  -398  -182  -22  -1  -119  -312  -490  -592  -609  -541  -382  -171  -49  -175  -489  -768  -886  -864  -779  -698  -616  -486  -334  -251  -279  -341  -344  -297  -257  -237  -236  -282  -403  -556  -654  -669  -641  -606  -586  -581  -562  -476  -331  -247  -318  -458  -549  -583  -585  -565  -533  -500  -471  -457  -461  -478  -484  -455  -398  -360  -354  -308  -211  -205  -361  -567  -694  -700  -619  -512  -406  -300  -201  -138  -130  -170  -225  -261  -267  -258  -262  -306  -405  -539  -660  -730  -755  -762  -751  -715  -671  -636  -571  -416  -191  7  125  173  180  143  44  -92  -195  -231  -216  -176  -131  -101  -96  -107  -121  -133  -145  -147  -131  -98  -52  16  100  146  107  6  -91  -166  -269  -428  -593  -698  -735  -738  -748  -767  -757  -704  -641  -594  -579  -630  -715  -651  -184  770  1991  3036  3524  3357  2681  1724  658  -468  -1612  -2559  -3067  -3128  -2904  -2529  -2079  -1583  -1084  -689  -491  -470  -504  -479  -399  -316  -243  -165  -74  18  105  202  343  516  653  716  721  684  590  430  254  128  87  138  290  507  708  843  916  981  1099  1261  1406  1486  1491  1456  1447  1501  1597  1685  1753  1846  1986  2135  2262  2364  2433  2477  2522  2573  2605  2590  2507  2368  2226  2115  2018  1910  1777  1594  1335  1046  821  701  654  621  538  383  170  -56  -235  -349  -436  -530  -647  -773  -848  -832  -756  -659  -558  -465  -390  -332  -301  -304  -337  -395  -481  -587  -692  -779  -838  -867  -892  -916  -884  -786  -681  -605  -545  -470  -381  -345  -413  -519  -545  -468  -383  -377  -426  -461  -464  -453  -461  -519  -628  -741  -812  -838  -836  -793  -682  -532  -421  -382  -388  -405  -414  -399  -347  -275  -219  -189  -164  -131  -106  -127  -233  -424  -614  -688  -645  -579  -552  -545  -505  -395  -242  -120  -69  -67  -81  -92  -96  -97  -97  -98  -97  -95  -99  -128  -189  -267  -331  -362  -359  -336  -316  -306  -301  -291  -289  -332  -445  -570  -617  -582  -494  -375  -294  -293  -350  -428  -455  -386  -265  -162  -105  -90  -96  -122  -186  -304  -458  -594  -659  -619  -455  -200  65  294  460  539  539  489  423  343  199  -37  -297  -486  -585  -623  -631  -652  -738  -896  -1030  -1004  -826  -631  -497  -407  -340  -277  -177  62  583  1411  2366  3199  3706  3663  2912  1566  -105  -1812  -3153  -3785  -3741  -3272  -2553  -1780  -1210  -916  -736  -540  -362  -268  -242  -230  -206  -174  -149  -140  -146  -162  -174  -174  -161  -119  -25  119  283  424  506  533  539  558  606  671  725  764  792  789  746  708  720  790  881  957  1053  1265  1611  1994  2294  2451  2493  2489  2474  2451  2422  2396  2379  2360  2324  2273  2229  2208  2214  2233  2225  2147  1989  1810  1681  1586  1421  1113  721  398  208  79  -47  -136  -167  -185  -242  -332  -410  -452  -472  -514  -614  -747  -845  -885  -886  -835  -705  -533  -416  -404  -456  -509  -538  -559  -582  -591  -555  -462  -339  -222  -162  -231  -386  -479  -479  -475  -520  -593  -628  -584  -487  -367  -255  -226  -297  -385  -424  -426  -420  -427  -451  -482  -518  -548  -529  -416  -247  -120  -80  -98  -149  -237  -383  -607  -864  -1025  -995  -803  -577  -439  -412  -440  -470  -481  -444  -328  -166  -51  -63  -213  -422  -574  -623  -607  -567  -528  -510  -526  -573  -635  -692  -727  -746  -766  -787  -781  -701  -518  -285  -126  -120  -264  -472  -639  -712  -673  -513  -294  -132  -77  -81  -65  -13  35  54  58  71  89  72  -26  -213  -435  -605  -679  -681  -659  -640  -629  -624  -621  -634  -678  -746  -798  -797  -726  -617  -579  -641  -604  -256  433  1361  2310  3060  3496  3470  2829  1652  124  -1581  -3053  -3828  -3843  -3302  -2470  -1685  -1194  -1002  -947  -876  -742  -570  -390  -225  -92  -9  11  -13  -53  -71  -54  -21  2  18  58  144  265  382  433  412  404  455  526  577  609  632  656  710  839  1042  1233  1325  1321  1295  1311  1372  1478  1682  2005  2334  2533  2603  2617  2617  2600  2575  2574  2605  2626  2594  2526  2471  2442  2417  2373  2286  2104  1790  1420  1128  944  805  673  548  424  293  158  37  -67  -197  -426  -747  -1026  -1159  -1177  -1168  -1170  -1154  -1065  -902  -733  -614  -543  -499  -471  -456  -451  -443  -429  -417  -411  -410  -411  -423  -459  -511  -548  -559  -556  -555  -558  -557  -551  -531  -486  -424  -375  -347  -334  -349  -400  -481  -593  -721  -804  -797  -720  -628  -570  -553  -554  -560  -575  -605  -639  -656  -649  -625  -599  -588  -599  -632  -670  -698  -743  -848  -996  -1097  -1060  -854  -554  -308  -201  -191  -210  -225  -241  -276  -340  -420  -497  -568  -620  -623  -590  -552  -522  -504  -498  -501  -506  -500  -477  -446  -418  -388  -343  -284  -227  -178  -129  -76  -31  -21  -73  -181  -291  -350  -357  -347  -364  -434  -532  -605  -629  -625  -619  -616  -616  -611  -552  -390  -280  -459  -791  -880  -497  418  1775  3119  3862  3750  2844  1364  -296  -1705  -2579  -2867  -2788  -2689  -2717  -2724  -2505  -1986  -1262  -597  -228  -149  -189  -226  -223  -180  -118  -64  -34  -24  -24  -26  -30  -37  -43  -20  64  203  332  400  415  417  421  400  318  199  134  229  534  973  1368  1592  1672  1701  1713  1700  1664  1648  1706  1829  1964  2082  2183  2264  2314  2327  2309  2285  2276  2269  2241  2196  2161  2155  2176  2200  2160  1968  1627  1287  1077  947  747  431  98  -140  -263  -326  -398  -510  -642  -750  -808  -824  -823  -817  -800  -763  -714  -675  -662  -689  -768  -863  -888  -787  -611  -469  -410  -405  -422  -471  -563  -668  -740  -775  -796  -813  -821  -808  -752  -629  -456  -307  -239  -233  -265  -323  -352  -318  -254  -195  -158  -148  -160  -177  -186  -224  -335  -479  -562  -547  -484  -436  -420  -410  -372  -312  -270  -298  -416  -571  -658  -629  -506  -339  -199  -138  -148  -178  -188  -194  -253  -386  -559  -712  -795  -801  -749  -667  -588  -534  -505  -499  -510  -504  -432  -268  -56  122  212  185  67  -60  -129  -137  -121  -110  -106  -96  -51  42  163  273  360  427  472  495  489  442  354  259  176  85  -18  -90  -92  -25  69  144  192  243  305  349  342  278  187  112  64  29  0]
