reading_id,reading_time,wire_id,result_classification,heart_rate,heart_rate_alert,firmware_version,device_app_version,hardware_version,waveform_samples
d17e3ea0-5708-11ed-8080-808080808080,Fri Oct 28 21:38:10 UTC 2022,2101e3d81839,NSR,69,NONE,20001.171.50,2.10.0,Charge 5,[-1183  -1227  -1290  -1388  -1480  -1492  -1418  -1322  -1256  -1237  -1266  -1328  -1398  -1469  -1524  -1521  -1420  -1242  -1042  -864  -736  -679  -677  -685  -660  -577  -455  -334  -244  -193  -185  -205  -220  -227  -266  -378  -528  -639  -705  -785  -891  -958  -926  -795  -599  -390  -217  -89  39  191  221  -9  -267  -177  350  1286  2647  4300  5752  6354  5811  4274  2118  -53  -1636  -2473  -2711  -2432  -1753  -975  -391  -82  51  137  246  378  493  582  661  745  830  909  994  1097  1191  1228  1158  974  776  689  726  852  1074  1346  1548  1639  1692  1771  1890  2050  2225  2354  2404  2383  2306  2215  2193  2316  2566  2843  3057  3171  3176  3110  3039  2989  2931  2824  2661  2495  2378  2291  2168  1994  1835  1738  1670  1558  1367  1128  878  602  306  55  -102  -167  -161  -133  -117  -113  -109  -99  -88  -80  -99  -176  -310  -453  -555  -596  -599  -591  -571  -519  -438  -352  -285  -255  -277  -343  -417  -464  -486  -516  -588  -710  -845  -921  -921  -902  -905  -910  -887  -855  -874  -990  -1166  -1299  -1320  -1227  -1072  -917  -797  -719  -670  -631  -642  -753  -927  -1073  -1149  -1172  -1171  -1167  -1165  -1166  -1169  -1166  -1154  -1120  -1058  -989  -946  -933  -934  -936  -938  -942  -947  -939  -899  -816  -714  -655  -718  -910  -1140  -1297  -1344  -1319  -1250  -1109  -890  -638  -423  -300  -271  -289  -315  -329  -307  -221  -88  30  90  106  100  60  -32  -152  -228  -237  -243  -311  -425  -509  -515  -466  -417  -393  -384  -382  -413  -511  -657  -775  -771  -599  -319  -7  405  1117  2262  3740  5183  6044  5909  4708  2663  324  -1637  -2845  -3231  -2963  -2365  -1709  -1113  -625  -316  -211  -227  -252  -198  -21  212  378  432  429  430  447  476  502  513  507  500  531  646  824  989  1096  1136  1116  1077  1062  1111  1265  1498  1705  1817  1851  1851  1845  1854  1905  2015  2154  2277  2384  2502  2631  2749  2831  2861  2838  2756  2594  2367  2133  1945  1816  1704  1551  1354  1136  899  675  531  457  352  135  -141  -339  -401  -386  -362  -368  -423  -520  -632  -732  -800  -826  -801  -712  -575  -448  -412  -506  -695  -900  -1061  -1154  -1189  -1175  -1097  -959  -815  -722  -691  -695  -699  -670  -609  -568  -592  -669  -769  -870  -944  -977  -989  -1002  -1017  -1013  -970  -903  -862  -890  -970  -1046  -1098  -1142  -1169  -1162  -1132  -1069  -962  -846  -773  -783  -881  -996  -1057  -1076  -1090  -1097  -1074  -1013  -942  -892  -851  -790  -733  -739  -811  -887  -924  -928  -920  -910  -897  -888  -906  -977  -1088  -1182  -1207  -1146  -1019  -862  -720  -637  -632  -691  -781  -858  -901  -920  -943  -981  -1004  -963  -847  -695  -560  -481  -458  -455  -443  -419  -393  -365  -329  -289  -262  -277  -352  -468  -580  -653  -687  -693  -681  -653  -615  -584  -569  -551  -502  -450  -488  -664  -882  -935  -797  -736  -813  -624  157  1494  3174  4729  5493  5164  3959  2224  285  -1462  -2682  -3307  -3422  -3079  -2442  -1827  -1421  -1197  -1075  -970  -834  -697  -584  -489  -456  -504  -523  -420  -259  -117  6  109  164  184  232  352  486  521  425  267  196  378  772  1118  1267  1283  1275  1290  1326  1383  1478  1595  1698  1790  1900  2036  2195  2373  2544  2658  2664  2601  2571  2606  2641  2586  2378  2048  1702  1428  1262  1183  1126  1031  878  677  461  248  52  -87  -151  -162  -154  -145  -137  -136  -162  -228  -298  -322  -303  -278  -268  -272  -276  -264  -239  -237  -332  -571  -837  -939  -876  -786  -709  -608  -496  -412  -369  -356  -355  -371  -435  -552  -657  -681  -622  -540  -535  -640  -773  -852  -871  -853  -801  -712  -602  -488  -388  -329  -315  -324  -330  -320  -296  -278  -287  -331  -401  -468  -519  -571  -610  -604  -566  -522  -479  -461  -497  -565  -612  -616  -596  -579  -571  -555  -523  -504  -542  -634  -715  -728  -657  -543  -438  -373  -342  -332  -330  -327  -318  -300  -278  -264  -264  -273  -281  -288  -296  -298  -263  -152  25  201  316  364  376  373  347  249  31  -263  -492  -550  -438  -249  -98  -27  -17  -58  -152  -284  -419  -545  -680  -787  -749  -564  -329  -55  218  421  772  1596  2815  3996  4652  4418  3307  1740  162  -1247  -2420  -3172  -3378  -3110  -2495  -1746  -1132  -754  -540  -411  -338  -305  -285  -266  -234  -169  -80  -10  19  26  31  29  4  -29  -3  151  382  568  665  704  719  735  775  839  914  1023  1220  1458  1630  1719  1775  1822  1864  1923  2004  2081  2129  2157  2176  2192  2207  2223  2227  2206  2168  2107  1988  1802  1583  1367  1176  1010  842  677  569  535  546  571  596  583  449  127  -299  -636  -778  -768  -688  -590  -505  -445  -411  -408  -442  -490  -487  -395  -261  -171  -148  -157  -172  -193  -230  -284  -340  -375  -388  -411  -463  -512  -496  -401  -290  -217  -187  -182  -205  -268  -356  -436  -500  -561  -611  -640  -662  -679  -676  -634  -561  -500  -473  -462  -442  -435  -499  -633  -732  -713  -612  -508  -419  -333  -302  -386  -545  -678  -737  -749  -742  -727  -725  -753  -790  -782  -698  -578  -481  -417  -382  -371  -358  -319  -261  -210  -178  -169  -223  -392  -635  -802  -788  -627  -433  -307  -269  -287  -335  -405  -472  -503  -477  -395  -270  -131  -33  -36  -123  -210  -260  -301  -356  -418  -489  -571  -635  -667  -681  -691  -687  -642  -531  -384  -276  -259  -344  -470  -474  -307  -88  268  1044  2263  3566  4364  4183  3053  1305  -651  -2250  -3090  -3237  -2912  -2282  -1615  -1189  -1024  -966  -906  -808  -695  -596  -495  -386  -300  -254  -231  -216  -207  -207  -208  -163  -8  243  476  594  609  585  578  620  729  896  1072  1191  1233  1236  1254  1315  1413  1512  1597  1718  1933  2195  2375  2428  2423  2441  2504  2590  2673  2744  2799  2789  2648  2382  2105  1921  1827  1760  1699  1632  1497  1222  832  459  215  92  15  -54  -108  -138  -166  -226  -326  -443  -546  -616  -656  -667  -638  -558  -441  -332  -287  -317  -367  -390  -392  -395  -407  -424  -449  -486  -534  -577  -596  -574  -509  -431  -384  -375  -382  -390  -406  -442  -497  -552  -587  -595  -583  -560  -540  -529  -523  -528  -567  -646  -752  -856  -921  -940  -935  -918  -887  -845  -808  -782  -747  -677  -585  -513  -487  -507  -570  -660  -736  -776  -785  -784  -785  -792  -803  -798  -752  -672  -610  -616  -685  -751  -742  -659  -574  -535  -528  -517  -490  -477  -521  -614  -694  -707  -659  -587  -509  -422  -317  -201  -99  -32  -6  -24  -98  -238  -421  -587  -693  -739  -742  -727  -714  -713  -738  -797  -885  -987  -1093  -1194  -1261  -1280  -1289  -1258  -1040  -543  241  1271  2437  3625  4625  4981  4306  2777  906  -911  -2328  -3136  -3456  -3435  -3057  -2336  -1510  -916  -621  -425  -213  -54  -9  -31  -29  60  264  523  689  653  442  180  -6  -71  -2  224  563  860  1009  1031  977  865  726  627  601  637  709  791  883  1019  1203  1395  1572  1729  1846  1909  1935  1986  2135  2371  2609  2789  2906  2939  2780  2323  1699  1211  973  889  871  865  779  528  170  -132  -291  -335  -333  -343  -389  -450  -497  -528  -563  -610  -658  -691  -709  -726  -749  -780  -830  -910  -990  -1028  -1036  -1057  -1090  -1111  -1115  -1118  -1141  -1216  -1351  -1497  -1632  -1785  -1918  -1951  -1879  -1768  -1692  -1656  -1600  -1468  -1243  -898  -399  158  561  715  715  682  679  710  740  730  669  559  424  321  280  278  286  292  303  326  354  393  464  552  620  650  661  672  689  709  726  726  703  657  578  460  318  179  78  36  36  50  56  29  -46  -144  -215  -244  -247  -226  -160  -60  17  6  -89  -178  -183  -139  -117  -127  -147  -170  -208  -261  -297  -324  -434  -720  -1130  -1485  -1663  -1661  -1516  -1299  -1101  -964  -868  -784  -719  -757  -953  -1160  -1211  -1097  -793  -250  452  1263  2342  3731  4946  5302  4552  2922  854  -1084  -2427  -3120  -3371  -3298  -2940  -2358  -1664  -1090  -818  -777  -800  -809  -802  -792  -774  -705  -545  -341  -210  -202  -265  -312  -303  -259  -184  -36  179  394  557  670  743  781  797  800  793  781  790  853  974  1106  1206  1294  1417  1604  1847  2082  2244  2342  2415  2472  2516  2552  2562  2505  2358  2168  2035  1963  1834  1560  1210  934  803  762  695  512  211  -130  -430  -665  -876  -1091  -1268  -1354  -1353  -1288  -1184  -1053  -886  -700  -578  -577  -668  -800  -935  -1030  -1072  -1073  -1018  -884  -704  -555  -472  -452  -486  -543  -585  -612  -671  -812  -1004  -1153  -1210  -1188  -1111  -1019  -975  -1018  -1127  -1258  -1394  -1538  -1678  -1815  -1947  -2003  -1932  -1819  -1767  -1775  -1764  -1636  -1343  -957  -624  -417  -274  -109  93  290  415  453  456  489  589  746  917  1072  1222  1394  1574  1699  1739  1715  1662  1616  1630  1721  1831  1894  1916  1933  1951  1962  1964  1974  2013  2070  2111  2125  2121  2108  2079  2023  1952  1901  1884  1888  1899  1920  1972  2054  2109  2085  2007  1901  1761  1606  1493  1455  1479  1526  1567  1595  1608  1583  1513  1455  1466  1532  1637  1784  2012  2403  2954  3563  4102  4388  4193  3356  1921  103  -1870  -3709  -5053  -5738  -5824  -5408  -4710  -4134  -3889  -3818  -3702  -3511  -3345  -3248  -3171  -3094  -3035  -2988  -2924  -2795  -2544  -2208  -1912  -1738  -1674  -1656  -1627  -1564  -1458  -1275  -993  -676  -422  -257  -132  -8  103  195  297  421  534  623  727  879  1053  1219  1438  1798  2262  2667  2888  2937  2896  2821  2732  2634  2544  2476  2417  2348  2282  2240  2226  2229  2242  2260  2260  2191  1990  1633  1211  869  652  496  347  184  31  -64  -92  -83  -71  -75  -98  -127  -134  -109  -77  -69  -84  -102  -124  -172  -274  -441  -625  -734  -755  -738  -703  -652  -621  -654  -763  -918  -1059  -1141  -1174  -1209  -1285  -1408  -1553  -1687  -1794  -1916  -2112  -2358  -2562  -2670  -2693  -2653  -2567  -2475  -2421  -2412  -2421  -2423  -2412  -2395  -2383  -2369  -2326  -2198  -1961  -1684  -1493  -1445  -1482  -1517  -1517  -1497  -1470  -1403  -1281  -1164  -1103  -1094  -1119  -1169  -1242  -1341  -1448  -1522  -1552  -1551  -1508  -1404  -1283  -1267  -1419  -1635  -1726  -1651  -1532  -1471  -1462  -1434  -1322  -1132  -946  -830  -774  -719  -636  -598  -734  -1039  -1341  -1495  -1477  -1311  -1008  -611  -257  -68  -21  -16  4  50  140  286  443  495  354  83  -181  -334  -361  -301  -13  802  2223  3942  5361  5843  5084  3274  972  -1152  -2649  -3398  -3552  -3376  -2966  -2331  -1640  -1121  -862  -791  -782  -761  -707  -622  -520  -415  -291  -149  -30  94  328  679  1011  1217  1305  1329  1318  1291  1293  1379  1558  1776  1965  2080  2123  2140  2195  2330  2523  2692  2788  2840  2909  2993  3024  2964  2859  2786  2774  2793  2813  2826  2841  2845  2785  2603  2305  1977  1694  1448  1169  813  403  -2  -336  -543  -627  -651  -679  -738  -833  -985  -1226  -1514  -1740  -1859  -1903  -1894  -1834  -1746  -1668  -1561  -1323  -987  -724  -618  -601  -581  -497  -332  -133  31  137  195  229  240  196  63  -127  -277  -335  -326  -291  -272  -342  -567  -894  -1165  -1283  -1256  -1139  -1005  -907  -819  -683  -511  -386  -344  -350  -357  -346  -317  -284  -257  -230  -187  -122  -43  28  72  96  133  209  315  412  466  478  474  465  433  351  244  184  213  282  321  313  291  292  339  436  557  662  743  800  839  874  905  907  838  634  291  -71  -309  -394  -398  -377  -340  -281  -212  -160  -146  -161  -161  -118  -22  140  344  507  602  692  836  999  1110  1152  1162  1163  1135  1038  863  672  542  489  475  466  450  437  437  443  446  459  500  568  649  701  637  452  303  324  578  1132  2011  3157  4326  5026  4870  3810  2044  29  -1687  -2828  -3333  -3246  -2827  -2348  -1882  -1498  -1265  -1112  -958  -804  -670  -592  -614  -711  -796  -829  -829  -819  -807  -790  -753  -695  -609  -467  -274  -93  17  63  81  106  184  334  511  643  724  792  863  920  938  921  902  913  959  1042  1180  1393  1643  1849  1970  2023  2035  2044  2124  2334  2619  2829  2862  2707  2404  2004  1550  1104  731  454  237  19  -205  -402  -573  -736  -857  -905  -886  -818  -733  -674  -658  -666  -677  -672  -638  -575  -485  -372  -264  -201  -186  -189  -179  -155  -141  -145  -134  -66  52  153  189  174  130  49  -77  -232  -363  -437  -456  -438  -411  -398  -407  -426  -427  -379  -274  -163  -126  -170  -230  -253  -237  -200  -157  -139  -215  -453  -792  -1074  -1228  -1324  -1449  -1599  -1705  -1740  -1742  -1752  -1780  -1791  -1733  -1581  -1384  -1229  -1165  -1209  -1370  -1626  -1880  -2024  -2033  -1949  -1839  -1764  -1743  -1755  -1764  -1736  -1652  -1544  -1471  -1453  -1449  -1401  -1272  -1099  -979  -962  -1011  -1079  -1150  -1234  -1345  -1467  -1551  -1566  -1518  -1435  -1359  -1312  -1284  -1263  -1258  -1285  -1331  -1373  -1381  -1326  -1213  -1101  -1035  -1013  -1005  -997  -1007  -1060  -1145  -1220  -1258  -1274  -1290  -1309  -1315  -1298  -1265  -1249  -1270  -1303  -1324  -1348  -1423  -1550  -1635  -1570  -1318  -809  1  1026  2168  3364  4472  5185  5142  4217  2616  671  -1231  -2678  -3450  -3601  -3261  -2533  -1629  -859  -407  -215  -114  -10  89  167  205  191  155  142  164  203  237  263  291  343  440  569  681  741  751  754  833  1053  1356  1599  1717  1764  1801  1851  1943  2105  2339  2598  2792  2877  2897  2933  3036  3190  3328  3402  3415  3390  3321  3199  3051  2927  2882  2922  2978  2991  2972  2942  2827  2519  2028  1483  995  640  451  378  348  315  254  181  115  50  -13  -61  -89  -102  -103  -77  -8  89  158  138  18  -133  -227  -253  -286  -400  -570  -708  -767  -773  -769  -776  -790  -778  -709  -590  -467  -395  -384  -393  -382  -330  -239  -143  -76  -44  -41  -93  -234  -430  -586  -649  -647  -627  -621  -626  -598  -458  -170  141  269  178  28  -52  -72  -98  -175  -282  -362  -392  -390  -380  -373  -391  -455  -556  -644  -660  -573  -422  -290  -214  -188  -204  -273  -405  -560  -668  -710  -729  -753  -757  -716  -655  -604  -566  -552  -573  -609  -636  -652  -659  -659  -649  -633  -628  -660  -746  -871  -949  -885  -698  -483  -314  -242  -226  -172  -90  -37  -20  -16  -7  7  4  -44  -146  -296  -487  -677  -796  -832  -832  -831  -807  -715  -551  -388  -295  -252  -185  -107  -139  -306  -453  -386  51  880  1963  3147  4240  4906  4761  3701  1969  -82  -1921  -3028  -3392  -3308  -2940  -2402  -1869  -1391  -936  -569  -362  -288  -279  -289  -295  -293  -291  -295  -305  -316  -325  -333  -329  -280  -141  94  358  561  674  729  758  786  840  921  981  975  971  1065  1224  1386  1566  1756  1898  1967  2012  2090  2192  2270  2313  2369  2490  2666  2827  2914  2919  2840  2671  2426  2130  1807  1481  1178  938  786  694  603  476  314  156  34  -73  -200  -330  -451  -589  -746  -884  -975  -1014  -1003  -946  -846  -719  -601  -532  -515  -524  -536  -543  -550  -562  -569  -533  -418  -240  -70  45  100  90  7  -140  -314  -487  -661  -811  -897  -920  -915  -899  -863  -800  -729  -691  -709  -734  -702  -616  -498  -347  -175  -19  74  94  74  57  67  101  142  179  215  233  146  -148  -596  -981  -1159  -1172  -1112  -1019  -903  -802  -765  -793  -883  -1050  -1245  -1373  -1414  -1408  -1378  -1297  -1141  -948  -780  -648  -515  -356  -198  -94  -52  -34  -18  -9  -25  -88  -212  -395  -603  -786  -909  -964  -968  -941  -900  -875  -890  -925  -928  -851  -672  -410  -134  56  94  -14  -222  -447  -598  -650  -635  -579  -502  -444  -450  -507  -554  -553  -518  -479  -425  -317  -207  -283  -600  -906  -919  -512  309  1372  2473  3429  3938  3761  2923  1581  9  -1395  -2298  -2601  -2423  -1936  -1335  -838  -539  -331  -76  206  392  424  341  193  22  -122  -230  -319  -400  -478  -540  -570  -583  -608  -642  -659  -657  -649  -628  -566  -454  -316  -190  -101  -53  -10  85  281  576  890  1143  1355  1611  1934  2261  2520  2703  2851  2993  3135  3253  3301  3266  3212  3196  3216  3234  3199  3063  2814  2499  2195  1934  1724  1592  1476  1233  805  299  -114  -347  -416  -397  -354  -333  -368  -470  -602  -705  -744  -715  -614  -463  -320  -211  -89  80  257  382  430  360  111  -285  -663  -870  -913  -889  -862  -840  -821  -812  -818  -830  -827  -789  -731  -677  -633  -596  -573  -569  -574  -574  -561  -540  -522  -512  -513  -540  -614  -737  -873  -956  -956  -902  -844  -816  -817  -806  -766  -721  -688  -669  -664  -656  -633  -598  -572  -566  -573  -579  -564  -507  -417  -325  -260  -245  -273  -295  -305  -376  -537  -695  -747  -664  -486  -305  -213  -220  -260  -250  -169  -66  1  38  91  177  274  351  347  224  46  -78  -119  -114  -102  -98  -119  -174  -252  -309  -300  -208  -61  63  110  84  30  -15  -56  -101  -113  -59  20  54  15  -72  -198  -415  -764  -1097  -1144  -872  -501  -88  558  1574  2899  4273  5226  5312  4434  2899  1121  -585  -1978  -2889  -3290  -3218  -2717  -1937  -1195  -775  -713  -859  -1052  -1201  -1310  -1423  -1550  -1655  -1701  -1673  -1568  -1402  -1234  -1133  -1108  -1127  -1161  -1186  -1161  -1053  -904  -787  -697  -553  -331  -87  149  423  759  1081  1296  1401  1472  1580  1742  1912  2032  2097  2132  2149  2151  2150  2154  2170  2211  2267  2305  2303  2272  2239  2221  2203  2154  2029  1816  1563  1332  1138  959  767  575  431  320  169  -55  -305  -508  -652  -752  -794  -760  -647  -459  -246  -69  53  138  195  231  254  265  264  275  334  448  569  642  660  647  633  629  620  553  373  101  -170  -364  -462  -488  -474  -435  -372  -294  -223  -186  -177  -148  -49  105  238  285  226  50  -240  -572  -840  -993  -1052  -1062  -1056  -1033  -989  -948  -942  -955  -936  -819  -569  -269  -67  -54  -234  -531  -802  -941  -965  -940  -910  -888  -882  -889  -878  -794  -598  -342  -145  -61  -63  -112  -198  -294  -357  -372  -377  -425  -536  -683  -835  -980  -1078  -1065  -960  -846  -764  -710  -665  -597  -478  -300  -89  109  277  455  674  875  951  846  613  382  254  238  292  371  413  390  338  302  280  268  289  370  493  595  634  597  491  320  112  -6  222  1000  2207  3437  4169  3932  2734  1057  -752  -2508  -3924  -4797  -5039  -4669  -3943  -3202  -2644  -2319  -2168  -2090  -2032  -1959  -1834  -1638  -1409  -1210  -1053  -865  -596  -303  -81  48  136  233  340  426  497  617  830  1086  1277  1352  1351  1332  1324  1324  1333  1360  1394  1414  1420  1459  1612  1912  2308  2677  2891  2867  2602  2207  1880  1736  1729  1768  1796  1766  1627  1377  1110  924  829  800  829  858  774  538  220  -72  -267  -372  -446  -515  -554  -536  -475  -400  -339  -310  -311  -314  -277  -170  -17  118  201  209  95  -162  -488  -775  -996  -1163  -1270  -1319  -1336  -1344  -1361  -1396  -1441  -1479  -1518  -1567  -1595  -1570  -1506  -1418  -1275  -1069  -861  -711  -627  -586  -553  -494  -416  -344  -269  -168  -66  -6  8  8  22  39  19  -59  -166  -255  -310  -332  -329  -296  -231  -159  -104  -43  75  241  383  442  425  369  284  144  -82  -371  -635  -801  -846  -762  -567  -340  -176  -102  -77  -64  -55  -52  -51  -51  -62  -103  -183  -292  -406  -496  -542  -539  -495  -429  -368  -331  -313  -299  -278  -263  -273  -311  -372  -439  -488  -516  -540  -578  -623  -637  -572  -417  -229  -94  -40  -25  2  53  151  420  969  1718  2487  3188  3790  4115  3853  2904  1485  -117  -1596  -2627  -3155  -3363  -3298  -2884  -2150  -1279  -547  -115  69  129  135  125  114  108  120  172  261  343  381  381  371  366  376  400  422  457  549  713  896  1030  1074  1038  984  960  958  962  996  1097  1272  1477  1679  1887  2081  2202  2241  2251  2267  2279  2263  2218  2157  2089  2017  1923  1769  1545  1288  1043  845  718  637  532  362  157  -10  -92  -90  -29  50  109  132  123  85  24  -35  -68  -71  -53  -25  2  13  -25  -167  -432  -761  -1060  -1279  -1425  -1513  -1543  -1513  -1437  -1335  -1230  -1152  -1113  -1082  -1023  -943  -891  -892  -919  -945  -978  -1045  -1138  -1213  -1250  -1254  -1207  -1082  -917  -796  -746  -725  -684  -601  -490  -404  -372  -364  -344  -306  -257  -184  -73  59  171  230  245  247  250  257  265  274  276  260  251  284  349  420  481  515  494  403  273  163  100  72  67  71  76  83  94  102  101  94  101  114  55  -189  -617  -1066  -1360  -1465  -1455  -1404  -1348  -1296  -1236  -1143  -1013  -858  -687  -518  -391  -337  -361  -439  -542  -670  -815  -951  -1081  -1232  -1393  -1514  -1574  -1577  -1526  -1439  -1341  -1233  -1108  -968  -807  -616  -367  38  744  1757  2845  3656  3872  3324  2153  802  -313  -1021  -1352  -1473  -1511  -1430  -1213  -966  -789  -697  -650  -600  -555  -529  -500  -463  -442  -431  -367  -186  64  252  308  265  173  66  -36  -134  -216  -268  -290  -298  -280  -186  30  341  662  968  1313  1725  2137  2445  2596  2624  2604  2573  2530  2474  2406  2283  2027  1658  1322  1147  1138  1234  1378  1518  1596  1545  1352  1109  936  853  794  684  485  246  49  -95  -215  -299  -315  -254  -127  21  156  282  407  503  563  607  633  630  615  592  546  487  420  279  1  -340  -599  -733  -801  -844  -877  -901  -906  -890  -860  -816  -741  -615  -464  -341  -235  -81  120  274  318  258  107  -102  -317  -511  -692  -859  -989  -1058  -1073  -1065  -1056  -1052  -1056  -1073  -1094  -1077  -988  -844  -697  -571  -458  -352  -237  -73  131  245  181  41  -38  -52  -75  -212  -513  -881  -1141  -1218  -1176  -1116  -1092  -1101  -1106  -1077  -1032  -1023  -1062  -1095  -1072  -1011  -937  -853  -781  -700  -566  -420  -359  -439  -651  -877  -987  -988  -971  -971  -962  -900  -774  -645  -574  -551  -548  -547  -527  -468  -384  -318  -318  -404  -532  -627  -661  -664  -659  -631  -554  -431  -285  -124  37  214  443  680  946  1456  2300  3289  4217  4847  4834  4048  2730  1174  -400  -1743  -2637  -2995  -2865  -2388  -1771  -1249  -978  -917  -920  -871  -732  -522  -277  -49  117  219  300  406  550  698  792  799  717  565  360  115  -117  -259  -301  -291  -256  -171  -13  180  348  488  628  776  963  1261  1700  2212  2648  2897  2975  2971  2956  2942  2892  2740  2456  2124  1868  1696  1527  1347  1215  1140  1060  951  835  701  502  216  -103  -348  -475  -555  -686  -893  -1101  -1227  -1268  -1260  -1206  -1088  -941  -836  -794  -760  -681  -567  -440  -282  -85  112  275  398  497  588  682  786  898  984  998  925  797  666  567  495  398  217  -11  -183  -267  -325  -403  -492  -590  -707  -834  -951  -1073  -1202  -1298  -1342  -1366  -1396  -1411  -1355  -1193  -980  -804  -638  -364  13  352  564  676  730  725  674  626  610  592  533  402  173  -95  -286  -360  -387  -446  -539  -608  -623  -606  -581  -544  -484  -413  -344  -269  -178  -80  3  43  -22  -238  -528  -750  -888  -1053  -1281  -1495  -1617  -1626  -1539  -1374  -1167  -989  -899  -891  -925  -965  -989  -985  -949  -896  -858  -866  -934  -1040  -1133  -1181  -1194  -1192  -1186  -1167  -1116  -1008  -832  -614  -407  -244  -136  -90  -85  -81  -40  38  137  276  493  753  1050  1536  2355  3415  4438  5064  4916  3847  2120  157  -1707  -3177  -4022  -4189  -3732  -2862  -2023  -1590  -1538  -1621  -1681  -1664  -1538  -1306  -1061  -884  -733  -508  -216  49  248  443  693  965  1177  1294  1348  1389  1443  1523  1618  1688  1717  1720  1694  1620  1507  1409  1384  1449  1585  1782  2041  2304  2485  2589  2697  2848  3025  3193  3317  3369  3294  3031  2633  2281  2092  2026  1991  1933  1812  1618  1396  1207  1086  1013  928  784  595  419  268  79  -200  -544  -869  -1095  -1198  -1214  -1202  -1191  -1184  -1174  -1164  -1159  -1162  -1151  -1081  -917  -697  -515  -413  -356  -309  -270  -234  -193  -143  -74  2  52  67  77  118  186  243  259  235  185  121  50  -28  -113  -201  -279  -323  -324  -303  -296  -311  -320  -305  -282  -267  -251  -206  -108  13  102  141  158  166  105  -110  -470  -850  -1146  -1344  -1472  -1556  -1616  -1662  -1680  -1655  -1598  -1538  -1505  -1513  -1538  -1523  -1428  -1268  -1108  -981  -880  -792  -718  -657  -614  -591  -587  -586  -556  -470  -348  -233  -131  -40  -9  -108  -341  -620  -861  -1073  -1278  -1435  -1510  -1520  -1495  -1438  -1356  -1285  -1249  -1219  -1148  -1038  -943  -901  -878  -808  -655  -436  -205  -3  172  323  417  444  423  372  311  272  263  265  242  156  -6  -220  -424  -558  -608  -602  -567  -541  -587  -707  -768  -605  -102  836  2168  3633  4895  5579  5325  4130  2423  686  -764  -1781  -2400  -2719  -2726  -2413  -1910  -1403  -1001  -747  -635  -608  -593  -542  -443  -320  -204  -94  41  205  361  503  631  719  785  894  1053  1198  1283  1311  1304  1291  1296  1349  1471  1631  1761  1819  1795  1693  1547  1412  1334  1315  1336  1413  1580  1806  1994  2101  2155  2192  2226  2261  2287  2290  2260  2174  1994  1699  1353  1086  937  789  493  65  -346  -655  -871  -998  -1034  -996  -917  -838  -792  -775  -761  -717  -629  -513  -388  -269  -177  -116  -67  -35  -30  -43  -62  -78  -78  -68  -60  -58  -59  -58  -53  -60  -105  -206  -340  -475  -608  -745  -874  -975  -1030  -1035  -1019  -1041  -1143  -1297  -1416  -1463  -1456  -1404  -1291  -1142  -1022  -963  -947  -940  -917  -879  -854  -903  -1068  -1294  -1462  -1521  -1519  -1509  -1511  -1529  -1538  -1478  -1300  -1057  -879  -808  -782  -752  -718  -689  -664  -643  -624  -609  -620  -689  -825  -977  -1083  -1116  -1111  -1127  -1175  -1187  -1099  -928  -750  -613  -510  -430  -381  -362  -356  -346  -323  -289  -256  -228  -211  -197  -146  -14  172  324  398  414  395  356  316  266  166  10  -168  -315  -370  -306  -168  -30  66  113  124  114  88  46  -9  -96  -251  -462  -646  -724  -681  -541  -342  -148  -33  -38  -160  -347  -504  -575  -594  -630  -704  -768  -812  -876  -905  -726  -243  536  1660  3099  4466  5143  4755  3417  1560  -276  -1630  -2364  -2654  -2678  -2481  -2047  -1385  -676  -179  46  139  209  264  283  282  287  302  316  314  281  206  98  -7  -77  -99  -91  -64  -14  54  125  216  387  666  987  1227  1346  1427  1557  1735  1900  2010  2072  2134  2253  2447  2671  2849  2950  2997  3038  3095  3137  3117  3024  2846  2569  2256  2033  1950  1946  1944  1888  1739  1483  1162  867  659  490  294  97  -35  -101  -133  -149  -154  -147  -127  -97  -67  -52  -70  -134  -218  -274  -294  -324  -404  -502  -570  -606  -628  -619  -573  -525  -514  -564  -637  -669  -668  -674  -663  -614  -548  -494  -489  -549  -640  -723  -778  -804  -812  -816  -812  -772  -678  -567  -521  -600  -797  -1049  -1285  -1438  -1489  -1477  -1455  -1445  -1444  -1437  -1414  -1358  -1241  -1049  -832  -680  -620  -611  -614  -613  -595  -553  -494  -443  -421  -428  -449  -490  -558  -637  -695  -734  -782  -843  -897  -951  -1016  -1069  -1082  -1046  -971  -884  -813  -760  -700  -606  -490  -381  -259  -95  67  151  140  73  -1  -56  -73  -44  18  84  132  165  192  203  170  77  -49  -155  -193  -149  -58  20  57  58  32  -20  -93  -164  -215  -226  -183  -95  -2  55  68  57  42  28  11  6  47  170  323  361  209  2  -64  159  811  1868  3008  3781  3836  3044  1612  -26  -1495  -2550  -3123  -3331  -3269  -2967  -2518  -2041  -1618  -1267  -914  -491  -58  244  360  366  379  456  559  615  623  648  731  873  1033  1143  1170  1128  1044  945  848  749  657  585  538  522  548  602  661  704  732  776  853  938  1021  1116  1222  1320  1393  1432  1461  1513  1584  1643  1709  1838  2030  2187  2213  2125  2025  1955  1844  1618  1266  859  520  303  135  -63  -257  -375  -415  -426  -446  -483  -536  -595  -641  -666  -670  -661  -651  -659  -706  -785  -864  -924  -970  -998  -954  -762  -438  -125  50  94  79  64  82  144  209  206  135  79  65  43  6  -16  -22  -40  -115  -267  -439  -551  -576  -534  -444  -322  -191  -87  -33  -26  -63  -156  -311  -483  -584  -559  -431  -266  -132  -62  -41  -28  -6  23  50  69  88  119  153  122  -33  -264  -460  -575  -626  -626  -586  -539  -511  -480  -421  -362  -337  -351  -391  -428  -430  -385  -315  -282  -333  -443  -541  -584  -581  -568  -566  -563  -538  -488  -431  -372  -306  -206  -20  250  506  651  659  574  480  439  453  500  554  589  603  608  603  576  521  487  533  635  700  684  597  420  107  -291  -574  -612  -523  -447  -313  51  741  1768  2992  3923  3980  3020  1366  -519  -2213  -3389  -3879  -3765  -3242  -2483  -1756  -1326  -1178  -1109  -990  -817  -629  -476  -387  -352  -339  -334  -334  -334  -319  -269  -186  -95  -23  13  22  21  25  31  23  -34  -161  -293  -317  -212  -44  158  420  733  1040  1278  1418  1479  1495  1496  1498  1508  1526  1546  1562  1567  1553  1514  1454  1383  1344  1365  1424  1470  1449  1326  1129  925  739  543  324  113  -48  -191  -391  -673  -960  -1150  -1221  -1223  -1214  -1218  -1242  -1308  -1421  -1520  -1545  -1498  -1405  -1319  -1283  -1257  -1213  -1189  -1220  -1293  -1350  -1352  -1326  -1309  -1310  -1315  -1306  -1261  -1163  -1029  -910  -837  -795  -768  -756  -746  -715  -646  -557  -483  -410  -307  -231  -243  -300  -344  -368  -372  -372  -391  -414  -398  -330  -255  -246  -304  -370  -406  -421  -430  -436  -440  -445  -453  -462  -471  -479  -495  -524  -562  -607  -655  -699  -737  -779  -824  -851  -828  -767  -736  -754  -768  -740  -679  -626  -659  -811  -1000  -1135  -1209  -1250  -1261  -1216  -1105  -973  -885  -858  -868  -896  -934  -967  -958  -852  -636  -392  -227  -161  -128  -49  94  245  338  369  366  329  231  91  -26  -82  -102  -141  -230  -354  -449  -444  -351  -263  -245  -264  -211  -37  169  351  645  1267  2240  3383  4424  4945  4516  3148  1320  -507  -1981  -2814  -3056  -2984  -2712  -2247  -1677  -1182  -894  -791  -772  -780  -804  -828  -830  -808  -775  -740  -703  -676  -654  -562  -279  203  723  1102  1299  1374  1390  1389  1387  1396  1458  1632  1884  2090  2176  2179  2163  2162  2181  2238  2360  2557  2800  3058  3298  3483  3578  3567  3485  3404  3361  3353  3359  3349  3306  3237  3131  2926  2569  2144  1818  1636  1496  1332  1169  1016  818  560  324  177  107  50  -44  -184  -332  -426  -417  -336  -289  -334  -410  -422  -372  -336  -346  -382  -437  -501  -563  -613  -656  -699  -726  -685  -548  -338  -98  124  273  320  278  188  99  34  -46  -203  -410  -566  -622  -619  -603  -592  -589  -606  -657  -731  -794  -827  -842  -862  -909  -970  -1010  -1017  -1002  -955  -816  -572  -328  -221  -275  -418  -573  -693  -755  -761  -743  -735  -747  -774  -810  -844  -851  -801  -684  -533  -395  -297  -248  -241  -252  -264  -270  -276  -289  -313  -338  -358  -375  -399  -475  -645  -858  -1022  -1090  -1051  -924  -775  -650  -556  -490  -446  -421  -410  -405  -403  -416  -462  -539  -650  -817  -1014  -1130  -1072  -859  -614  -470  -475  -594  -745  -850  -888  -884  -822  -660  -476  -479  -732  -992  -890  -197  1024  2445  3653  4285  4109  3169  1758  191  -1273  -2425  -3150  -3403  -3153  -2492  -1742  -1179  -817  -565  -404  -353  -401  -491  -563  -590  -561  -457  -297  -153  -83  -99  -188  -312  -403  -392  -236  39  332  543  641  655  628  603  624  721  866  983  1037  1059  1096  1148  1191  1240  1339  1493  1665  1836  2014  2192  2336  2430  2482  2498  2482  2445  2401  2351  2282  2185  2064  1896  1635  1269  864  518  273  126  55  -2  -123  -307  -495  -630  -689  -697  -727  -841  -1012  -1154  -1204  -1132  -919  -639  -439  -374  -383  -396  -394  -388  -389  -385  -371  -362  -387  -467  -575  -651  -651  -572  -438  -290  -169  -103  -85  -83  -80  -98  -183  -361  -576  -729  -769  -686  -485  -240  -76  -52  -138  -260  -341  -335  -251  -155  -119  -151  -197  -237  -306  -413  -520  -587  -612  -612  -610  -624  -647  -656  -624  -527  -365  -194  -88  -57  -61  -63  -62  -91  -178  -298  -387  -413  -395  -354  -287  -185  -103  -134  -275  -435  -559  -645  -688  -692  -691  -719  -779  -834  -862  -871  -877  -883  -884  -874  -852  -799  -672  -471  -278  -153  -76  -8  38  29  -51  -182  -322  -453  -561  -615  -610  -584  -571  -569  -558  -542  -544  -590  -680  -763  -800  -818  -797  -694  -562  -352  147  979  2067  3365  4595  5257  4981  3774  2039  277  -1138  -2004  -2425  -2634  -2609  -2247  -1674  -1096  -645  -385  -283  -249  -223  -185  -133  -90  -77  -92  -105  -83  -37  -10  4  57  156  277  396  478  508  513  539  613  713  783  798  779  764  809  961  1178  1352  1427  1440  1465  1549  1670  1767  1842  1942  2073  2196  2287  2345  2368  2336  2234  2087  1924  1721  1458  1194  1007  927  924  923  828  596  298  71  -22  -33  -43  -97  -194  -344  -546  -728  -823  -841  -825  -803  -785  -766  -734  -687  -634  -579  -528  -480  -417  -335  -273  -269  -331  -434  -542  -621  -646  -602  -513  -429  -385  -369  -343  -284  -197  -110  -55  -38  -41  -52  -81  -170  -364  -624  -837  -927  -916  -855  -774  -699  -649  -623  -605  -599  -604  -594  -553  -500  -458  -444  -446  -445  -454  -479  -507  -531  -557  -613  -732  -885  -992  -1011  -956  -871  -809  -783  -778  -774  -770  -778  -808  -841  -853  -849  -847  -849  -825  -745  -621  -506  -426  -358  -291  -243  -236  -283  -391  -552  -713  -811  -835  -830  -824  -810  -767  -698  -633  -597  -588  -587  -579  -577  -632  -811  -1118  -1434  -1614  -1594  -1400  -1141  -961  -913  -945  -989  -1028  -1070  -1093  -1035  -881  -791  -987  -1438  -1842  -1880  -1342  -181  1343  2758  3624  3644  2811  1412  -221  -1731  -2816  -3505  -3944  -4130  -4047  -3701  -3112  -2459  -2001  -1813  -1777  -1762  -1692  -1534  -1329  -1167  -1100  -1123  -1232  -1405  -1575  -1663  -1619  -1402  -999  -492  -53  221  429  721  1104  1471  1728  1837  1843  1874  2054  2377  2703  2924  3071  3217  3391  3597  3821  4034  4199  4284  4292  4256  4192  4093  3955  3815  3727  3695  3662  3570  3436  3324  3257  3158  2943  2632  2328  2091  1905  1737  1555  1348  1137  946  771  627  546  525  506  434  316  219  203  266  350  422  491  541  513  385  233  158  147  127  98  112  186  266  296  297  320  350  341  281  201  155  168  205  231  252  286  306  223  -42  -411  -694  -810  -811  -761  -695  -641  -612  -598  -577  -536  -490  -462  -460  -482  -538  -628  -721  -775  -783  -767  -750  -747  -753  -753  -727  -664  -580  -513  -482  -486  -542  -658  -781  -821  -762  -667  -595  -555  -529  -500  -482  -502  -564  -635  -687  -723  -752  -770  -773  -769  -764  -761  -763  -783  -820  -845  -830  -780  -706  -624  -570  -571  -630  -717  -787  -816  -817  -800  -764  -715  -688  -713  -746  -698  -573  -469  -445  -469  -491  -498  -511  -551  -613  -670  -702  -711  -704  -694  -684  -671  -649  -626  -601  -548  -477  -454  -519  -626  -606  -219  590  1691  2950  4115  4748  4510  3400  1704  -124  -1643  -2636  -3112  -3159  -2904  -2454  -1910  -1425  -1077  -810  -573  -394  -302  -276  -274  -279  -301  -340  -367  -350  -287  -190  -86  -12  31  80  142  204  272  368  480  579  646  683  707  751  837  973  1146  1333  1513  1659  1741  1766  1773  1805  1905  2100  2333  2495  2549  2542  2525  2521  2535  2566  2608  2639  2592  2376  1996  1605  1358  1261  1226  1190  1112  930  595  179  -160  -349  -441  -504  -555  -591  -629  -687  -757  -808  -828  -822  -791  -740  -684  -638  -613  -609  -622  -645  -653  -632  -599  -580  -576  -565  -536  -505  -509  -587  -730  -873  -960  -995  -998  -953  -842  -688  -554  -474  -439  -434  -462  -531  -623  -691  -715  -716  -721  -740  -763  -774  -767  -751  -737  -721  -681  -602  -504  -433  -414  -426  -442  -449  -454  -471  -510  -556  -578  -562  -529  -506  -498  -496  -492  -485  -480  -477  -475  -473  -481  -509  -540  -516  -405  -269  -184  -167  -198  -270  -384  -509  -591  -608  -576  -530  -495  -476  -473  -479  -469  -411  -322  -272  -303  -387  -458  -471  -420  -298  -128  23  110  143  150  151  152  151  128  41  -133  -337  -465  -488  -462  -439  -431  -432  -439  -455  -477  -483  -456  -403  -353  -317  -294  -301  -374  -519  -609  -369  390  1584  2963  4183  4754  4326  3037  1276  -585  -2148  -3106  -3437  -3273  -2716  -1930  -1209  -760  -532  -394  -295  -232  -201  -193  -194  -194  -187  -177  -170  -158  -113  -11  133  278  402  511  617  725  819  889  941  960  954  982  1064  1151  1220  1295  1389  1488  1571  1617  1630  1648  1725  1875  2060  2231  2375  2493  2576  2614  2620  2599  2546  2460  2340  2167  1930  1650  1376  1157  980  809  663  573  512  424  287  133  -1  -107  -189  -270  -386  -544  -702  -828  -904  -924  -899  -859  -839  -846  -857  -852  -829  -802  -781  -773  -777  -776  -746  -693  -637  -581  -529  -492  -473  -454  -426  -398  -387  -391  -400  -414  -455  -528  -598  -630  -635  -633  -632  -617  -564  -464  -354  -300  -320  -384  -455  -503  -529  -574  -638  -673  -667  -639  -583  -488  -360  -220  -100  -30  -13  -18  -17  -5  0  -16  -88  -241  -425  -551  -614  -659  -691  -676  -616  -549  -510  -501  -506  -511  -511  -495  -455  -401  -361  -346  -344  -338  -334  -358  -428  -525  -610  -653  -650  -619  -571  -497  -408  -338  -305  -325  -432  -625  -793  -799  -642  -455  -345  -315  -326  -346  -360  -347  -286  -184  -76  -5  22  32  39  33  6  -37  -88  -132  -158  -176  -211  -273  -349  -422  -478  -504  -507  -497  -487  -498  -555  -665  -783  -804  -630  -251  293  1028  1975  3062  4052  4515  4096  2822  1104  -518  -1708  -2395  -2625  -2583  -2466  -2187  -1628  -1017  -655  -537  -467  -328  -143  9  90  103  70  16  -37  -47  39  231  451  593  632  621  611  612  612  605  596  606  680  832  985  1072  1124  1188  1277  1400  1545  1690  1831  1987  2170  2365  2518  2591  2601  2591  2584  2562  2501  2413  2366  2448  2677  2909  2929  2683  2303  1944  1683  1504  1360  1228  1086  867  536  182  -74  -228  -369  -536  -681  -746  -697  -523  -287  -115  -77  -153  -290  -440  -562  -629  -648  -646  -645  -655  -683  -726  -762  -763  -733  -703  -690  -690  -696  -703  -705  -681  -616  -527  -461  -436  -436  -457  -527  -668  -839  -957  -993  -986  -979  -986  -998  -994  -980  -964  -939  -911  -897  -896  -895  -880  -840  -787  -748  -736  -744  -755  -764  -769  -772  -773  -762  -728  -681  -645  -633  -635  -643  -654  -669  -685  -694  -695  -707  -729  -730  -686  -588  -443  -293  -204  -206  -289  -408  -504  -556  -575  -574  -571  -584  -605  -603  -546  -432  -302  -205  -149  -132  -154  -210  -297  -393  -453  -450  -408  -368  -336  -301  -266  -248  -247  -247  -231  -191  -130  -58  12  76  126  121  18  -171  -385  -559  -658  -693  -704  -720  -747  -792  -874  -1020  -1201  -1322  -1265  -972  -550  -221  -134  -292  -546  -609  -224  682  1976  3357  4416  4746  4137  2747  983  -722  -2011  -2710  -2886  -2753  -2493  -2166  -1769  -1289  -799  -453  -292  -205  -109  -17  39  70  103  166  250  318  345  332  279  200  126  83  92  168  287  412  531  637  724  804  879  924  935  954  1037  1212  1451  1683  1840  1925  2008  2148  2321  2451  2512  2539  2572  2623  2695  2793  2926  3078  3192  3218  3109  2843  2483  2155  1916  1697  1428  1141  916  763  631  486  331  189  45  -149  -383  -562  -640  -664  -682  -700  -714  -728  -733  -687  -548  -356  -210  -165  -210  -327  -494  -660  -764  -791  -770  -744  -732  -731  -722  -692  -638  -554  -445  -359  -337  -378  -447  -506  -538  -556  -564  -573  -633  -794  -1012  -1165  -1144  -931  -629  -415  -402  -581  -842  -1050  -1152  -1173  -1144  -1066  -935  -792  -695  -643  -587  -512  -460  -460  -492  -517  -514  -497  -487  -498  -535  -595  -660  -703  -714  -686  -603  -461  -312  -278  -443  -742  -1004  -1130  -1149  -1110  -995  -784  -542  -377  -313  -300  -291  -283  -300  -366  -461  -545  -578  -553  -504  -467  -446  -436  -433  -438  -446  -435  -369  -231  -52  101  182  194  179  171  177  185  185  181  168  120  20  -98  -182  -221  -256  -330  -438  -532  -584  -598  -586  -562  -538  -518  -533  -627  -755  -794  -673  -358  232  1177  2473  3922  5039  5248  4291  2397  159  -1783  -3049  -3581  -3537  -3128  -2541  -1947  -1465  -1158  -1023  -985  -957  -884  -743  -559  -396  -284  -185  -43  138  326  484  577  600  585  551  509  466  431  404  384  373  377  384  370  339  357  511  830  1257  1689  2023  2195  2235  2244  2273  2299  2327  2387  2482  2583  2647  2651  2612  2563  2532  2537  2579  2665  2786  2886  2865  2603  2086  1522  1156  1011  924  773  580  403  202  -89  -411  -645  -758  -790  -787  -776  -768  -767  -774  -781  -770  -733  -681  -630  -590  -559  -540  -555  -621  -722  -820  -886  -904  -863  -748  -598  -489  -452  -453  -465  -489  -531  -562  -540  -486  -464  -496  -538  -555  -553  -560  -603  -682  -766  -808  -778  -697  -621  -571  -528  -481  -438  -400  -378  -394  -449  -507  -524  -506  -506  -565  -654  -717  -736  -735  -735  -732  -705  -637  -537  -432  -353  -311  -279  -227  -178  -208  -346  -522  -649  -714  -749  -751  -701  -628  -578  -557  -539  -516  -498  -489  -476  -438  -373  -303  -247  -216  -211  -228  -264  -308  -341  -367  -398  -411  -344  -156  75  175  45  -212  -416  -486  -475  -456  -449  -443  -436  -434  -442  -464  -491  -499  -459  -362  -284  -326  -447  -496  -347  52  694  1570  2639  3727  4510  4620  3888  2476  735  -976  -2375  -3296  -3730  -3707  -3214  -2390  -1540  -896  -531  -413  -436  -508  -577  -617  -623  -606  -579  -542  -477  -363  -185  13  137  156  134  119  117  116  119  153  247  373  470  531  602  707  842  995  1150  1284  1401  1541  1733  1950  2126  2223  2252  2243  2232  2255  2339  2456  2543  2566  2544  2509  2482  2464  2432  2362  2271  2188  2084  1877  1529  1126  825  666  549  412  299  237  165  30  -129  -247  -304  -316  -310  -302  -296  -288  -274  -250  -238  -274  -377  -512  -613  -651  -652  -650  -656  -655  -618  -538  -447  -415  -482  -613  -734  -800  -813  -793  -763  -742  -735  -735  -739  -750  -774  -811  -863  -926  -986  -1028  -1042  -1012  -923  -791  -666  -577  -526  -505  -515  -546  -575  -577  -560  -550  -556  -539  -481  -449  -513  -648  -777  -858  -888  -884  -869  -858  -851  -835  -804  -757  -708  -664  -610  -532  -449  -394  -373  -358  -318  -251  -178  -116  -70  -52  -83  -171  -291  -401  -473  -504  -508  -489  -403  -203  45  172  81  -141  -327  -405  -437  -499  -589  -662  -702  -702  -647  -574  -534  -546  -610  -696  -771  -839  -923  -1029  -1108  -1084  -919  -558  67  976  2159  3501  4660  5119  4517  2957  877  -1166  -2646  -3283  -3198  -2750  -2210  -1639  -1092  -680  -410  -208  -68  -51  -175  -363  -497  -541  -528  -490  -433  -362  -289  -205  -74  91  236  340  430  515  565  565  544  543  578  639  706  779  864  957  1058  1184  1332  1464  1561  1649  1737  1807  1876  1987  2154  2339  2495  2582  2574  2505  2452  2432  2396  2300  2168  2042  1895  1688  1451  1216  991  794  636  491  334  151  -64  -284  -439  -505  -537  -610  -742  -889  -989  -1024  -996  -884  -695  -508  -417  -438  -510  -568  -590  -590  -586  -583  -582  -582  -579  -575  -591  -649  -734  -799  -825  -829  -831  -822  -781  -699  -606  -546  -528  -532  -537  -537  -530  -519  -526  -595  -738  -892  -974  -975  -940  -898  -861  -834  -818  -805  -788  -769  -752  -733  -716  -707  -699  -690  -697  -752  -843  -913  -929  -910  -883  -847  -778  -664  -540  -486  -547  -677  -799  -879  -931  -965  -976  -951  -874  -763  -666  -610  -581  -554  -523  -499  -491  -498  -511  -525  -540  -547  -522  -443  -333  -246  -212  -217  -235  -271  -350  -457  -543  -577  -582  -602  -657  -721  -773  -821  -857  -866  -873  -930  -1048  -1150  -1154  -1032  -793  -463  49  953  2278  3742  4877  5184  4411  2805  839  -1085  -2566  -3314  -3371  -2981  -2383  -1831  -1516  -1421  -1395  -1305  -1090  -805  -574  -461  -434  -442  -453  -458  -461  -469  -483  -488  -466  -410  -338  -239  -84  86  197  237  256  293  355  416  449  487  620  891  1213  1445  1540  1550  1541  1550  1621  1790  2016  2217  2373  2524  2679  2791  2800  2719  2629  2579  2538  2451  2290  2072  1848  1671  1547  1420  1225  959  680  422  179  -25  -146  -186  -188  -178  -151  -119  -121  -178  -267  -340  -364  -347  -323  -308  -298  -291  -317  -415  -575  -725  -797  -789  -739  -649  -481  -272  -121  -59  -31  2  26  15  -23  -44  -20  16  17  -18  -43  -25  5  13  0]
