reading_id,reading_time,wire_id,result_classification,heart_rate,heart_rate_alert,firmware_version,device_app_version,hardware_version,waveform_samples
a0b1a040-5fdd-11ed-8080-808080808080,Wed Nov 09 03:21:40 UTC 2022,2101e3d81839,NSR,73,NONE,20001.171.50,2.10.0,Charge 5,[718  870  997  1072  1097  1100  1092  1073  1038  977  892  791  663  490  297  131  21  -41  -87  -127  -151  -150  -126  -100  -91  -115  -184  -284  -395  -503  -518  -246  506  1747  3232  4592  5345  5010  3557  1475  -641  -2294  -3168  -3329  -3116  -2759  -2336  -1942  -1648  -1397  -1085  -731  -476  -373  -355  -355  -359  -363  -356  -323  -264  -190  -113  -32  55  143  226  297  357  418  494  579  645  678  702  763  892  1073  1251  1398  1529  1682  1907  2206  2508  2732  2865  2946  3000  3014  2971  2887  2801  2725  2638  2538  2438  2301  2049  1682  1295  911  469  -31  -492  -808  -957  -1009  -1047  -1100  -1176  -1295  -1448  -1581  -1651  -1665  -1651  -1634  -1621  -1609  -1596  -1591  -1607  -1644  -1691  -1741  -1798  -1820  -1753  -1622  -1510  -1462  -1465  -1488  -1491  -1449  -1387  -1353  -1348  -1337  -1306  -1286  -1307  -1357  -1396  -1413  -1419  -1427  -1439  -1450  -1454  -1441  -1417  -1389  -1361  -1327  -1287  -1259  -1258  -1301  -1397  -1520  -1603  -1589  -1468  -1298  -1177  -1155  -1214  -1306  -1387  -1437  -1454  -1429  -1361  -1291  -1264  -1271  -1279  -1290  -1291  -1252  -1195  -1164  -1160  -1157  -1133  -1083  -987  -821  -633  -532  -544  -594  -620  -627  -641  -676  -719  -754  -778  -809  -855  -911  -967  -1005  -1015  -1005  -999  -1027  -1114  -1239  -1345  -1411  -1470  -1536  -1557  -1485  -1269  -801  28  1218  2620  3953  4816  4788  3760  2107  366  -1124  -2235  -2974  -3457  -3658  -3315  -2438  -1491  -855  -549  -410  -304  -230  -234  -258  -217  -130  -56  10  94  194  294  386  450  463  449  456  511  631  827  1068  1291  1452  1567  1691  1843  1991  2130  2301  2521  2736  2900  3019  3125  3234  3351  3478  3618  3751  3833  3837  3773  3683  3604  3520  3400  3247  3078  2855  2486  1946  1357  873  540  314  122  -98  -345  -549  -670  -736  -789  -848  -906  -944  -958  -951  -920  -866  -809  -774  -767  -783  -823  -878  -924  -934  -915  -888  -849  -784  -707  -672  -708  -767  -783  -737  -662  -603  -572  -556  -553  -585  -674  -791  -876  -897  -868  -810  -739  -673  -630  -613  -609  -608  -623  -671  -754  -844  -892  -872  -823  -786  -747  -700  -678  -701  -755  -793  -780  -740  -720  -732  -746  -737  -716  -702  -695  -686  -670  -649  -632  -624  -633  -663  -705  -739  -755  -761  -770  -788  -802  -791  -755  -728  -720  -716  -710  -692  -623  -478  -299  -164  -98  -59  -19  5  -52  -248  -530  -765  -883  -923  -941  -945  -895  -792  -711  -704  -735  -754  -760  -782  -837  -902  -943  -952  -968  -1038  -1054  -799  -182  812  2129  3510  4575  4936  4352  2957  1144  -679  -2163  -3085  -3376  -3119  -2516  -1759  -1068  -653  -514  -501  -516  -517  -469  -338  -151  22  158  304  497  704  851  899  880  857  864  877  874  895  1006  1216  1470  1741  2027  2285  2452  2527  2556  2581  2616  2652  2692  2749  2849  3040  3323  3599  3761  3800  3777  3748  3727  3708  3676  3616  3516  3375  3216  3045  2764  2261  1626  1060  629  301  84  -21  -73  -159  -350  -620  -850  -958  -968  -957  -966  -978  -963  -919  -875  -871  -921  -975  -992  -993  -1006  -1028  -1054  -1075  -1085  -1092  -1096  -1088  -1067  -1031  -984  -939  -912  -913  -931  -944  -938  -924  -915  -914  -915  -915  -916  -917  -917  -907  -883  -849  -820  -824  -875  -940  -984  -1003  -994  -962  -924  -889  -852  -819  -803  -813  -845  -891  -935  -962  -967  -962  -958  -960  -966  -976  -997  -1031  -1061  -1070  -1062  -1056  -1061  -1077  -1094  -1105  -1110  -1102  -1064  -991  -910  -834  -748  -664  -619  -618  -645  -684  -732  -800  -882  -939  -945  -908  -859  -825  -804  -770  -707  -616  -505  -388  -277  -169  -65  23  88  133  158  148  74  -59  -206  -328  -431  -531  -630  -720  -788  -811  -776  -708  -653  -639  -638  -603  -538  -491  -515  -656  -894  -1108  -1191  -1110  -787  -98  1012  2421  3847  4982  5442  4882  3380  1351  -747  -2401  -3248  -3362  -3023  -2391  -1619  -991  -678  -578  -517  -413  -263  -115  4  100  169  212  256  312  375  449  534  597  625  651  687  719  768  879  1076  1315  1507  1633  1741  1849  1949  2071  2252  2465  2643  2759  2851  2973  3120  3248  3358  3484  3587  3591  3504  3419  3407  3462  3530  3558  3555  3563  3522  3245  2602  1734  976  550  423  398  289  44  -232  -418  -497  -542  -607  -682  -734  -761  -791  -830  -858  -870  -889  -936  -1005  -1066  -1092  -1076  -1032  -973  -916  -880  -868  -867  -855  -827  -802  -791  -772  -729  -663  -574  -481  -421  -400  -401  -419  -484  -626  -811  -953  -1004  -978  -910  -831  -770  -745  -756  -794  -850  -903  -917  -885  -833  -789  -763  -755  -755  -758  -763  -773  -785  -787  -769  -750  -750  -760  -764  -763  -759  -761  -776  -800  -824  -839  -846  -850  -856  -860  -853  -832  -805  -793  -807  -830  -831  -802  -756  -715  -678  -628  -574  -550  -567  -597  -614  -617  -622  -636  -654  -673  -695  -716  -728  -733  -736  -727  -689  -617  -530  -447  -353  -214  -48  72  117  115  82  3  -137  -313  -473  -576  -611  -604  -591  -568  -513  -462  -485  -610  -784  -909  -951  -945  -929  -908  -882  -877  -926  -1017  -1078  -959  -489  399  1622  3008  4314  5156  5140  4147  2389  274  -1677  -2964  -3422  -3282  -2844  -2264  -1641  -1088  -675  -412  -281  -237  -209  -160  -95  -34  20  80  142  190  220  269  389  563  716  814  876  927  978  1029  1084  1165  1280  1412  1566  1774  2025  2260  2446  2596  2727  2847  2978  3135  3288  3418  3540  3674  3813  3937  4025  4067  4067  4035  3974  3865  3654  3293  2843  2433  2097  1772  1434  1096  758  425  134  -95  -279  -416  -489  -527  -599  -734  -889  -1009  -1082  -1119  -1131  -1121  -1082  -1011  -911  -816  -778  -783  -784  -796  -830  -868  -912  -953  -974  -976  -973  -969  -963  -951  -932  -921  -940  -1003  -1082  -1122  -1104  -1050  -985  -921  -864  -810  -756  -705  -669  -663  -694  -747  -791  -816  -832  -848  -879  -929  -982  -1011  -996  -929  -837  -766  -740  -762  -837  -950  -1055  -1120  -1139  -1091  -959  -795  -707  -738  -820  -869  -874  -862  -831  -767  -686  -643  -670  -743  -815  -865  -895  -911  -916  -917  -917  -906  -876  -836  -809  -801  -792  -765  -725  -695  -683  -681  -686  -703  -732  -744  -705  -627  -540  -457  -398  -379  -377  -347  -264  -158  -103  -139  -226  -306  -361  -401  -433  -479  -573  -700  -797  -870  -974  -1087  -1132  -1078  -946  -792  -689  -689  -819  -1054  -1292  -1438  -1427  -1161  -581  263  1297  2488  3755  4793  5130  4481  2920  832  -1170  -2623  -3434  -3697  -3564  -3173  -2551  -1758  -1031  -565  -332  -197  -100  -30  35  113  191  257  307  346  381  410  424  423  431  484  601  746  854  934  1047  1188  1291  1343  1417  1578  1817  2076  2309  2499  2659  2811  2944  3035  3122  3286  3529  3763  3919  3992  3984  3904  3774  3624  3503  3447  3400  3239  2904  2466  2049  1728  1460  1146  800  527  344  157  -70  -292  -472  -618  -749  -878  -996  -1078  -1121  -1133  -1126  -1115  -1108  -1100  -1074  -1026  -974  -949  -949  -943  -918  -878  -827  -779  -753  -740  -732  -730  -741  -774  -832  -904  -977  -1037  -1081  -1091  -1029  -907  -806  -770  -771  -765  -732  -672  -623  -641  -729  -856  -996  -1087  -1075  -987  -872  -765  -699  -691  -729  -784  -825  -839  -823  -774  -706  -648  -628  -674  -806  -970  -1037  -934  -737  -590  -553  -586  -635  -679  -710  -724  -723  -718  -714  -709  -699  -689  -700  -733  -756  -740  -698  -663  -652  -657  -672  -691  -705  -693  -626  -510  -394  -328  -321  -344  -370  -391  -423  -468  -480  -416  -299  -195  -140  -135  -163  -216  -320  -480  -643  -762  -854  -933  -976  -985  -990  -996  -994  -959  -868  -751  -693  -784  -1033  -1271  -1265  -964  -449  313  1343  2478  3547  4357  4568  3962  2635  821  -1131  -2735  -3627  -3766  -3353  -2711  -2111  -1631  -1231  -907  -666  -466  -269  -99  -2  17  -1  -24  -19  29  111  197  285  393  515  625  711  770  805  822  820  838  924  1059  1205  1370  1589  1893  2270  2637  2904  3047  3121  3181  3226  3240  3241  3272  3384  3586  3814  3977  4048  4063  4036  3921  3681  3363  3055  2815  2636  2431  2097  1607  1036  543  263  177  135  2  -247  -519  -702  -774  -788  -788  -781  -751  -703  -668  -659  -663  -667  -670  -670  -669  -667  -662  -653  -649  -677  -762  -880  -967  -977  -918  -828  -744  -688  -670  -687  -700  -687  -669  -666  -668  -649  -596  -524  -466  -443  -474  -579  -736  -871  -924  -899  -839  -779  -735  -707  -699  -727  -806  -909  -985  -1012  -1008  -987  -940  -864  -778  -719  -706  -722  -748  -771  -785  -789  -787  -792  -810  -826  -834  -835  -835  -836  -830  -811  -779  -749  -740  -762  -802  -832  -839  -835  -842  -877  -933  -981  -999  -983  -933  -865  -808  -766  -733  -710  -703  -719  -748  -757  -688  -505  -267  -94  -34  -52  -122  -236  -371  -500  -609  -684  -726  -764  -828  -906  -963  -980  -967  -938  -914  -911  -929  -948  -967  -1018  -1060  -963  -690  -265  386  1349  2560  3813  4707  4752  3726  1900  -150  -1872  -2921  -3260  -3145  -2844  -2431  -1919  -1394  -970  -668  -452  -316  -257  -224  -148  -13  123  207  236  248  275  321  376  450  572  738  890  970  990  1009  1067  1153  1243  1358  1545  1797  2053  2252  2362  2422  2527  2739  3023  3284  3477  3630  3766  3876  3939  3957  3934  3873  3796  3741  3716  3695  3654  3582  3430  3086  2485  1756  1133  726  467  262  90  -38  -143  -257  -375  -478  -572  -673  -775  -854  -902  -925  -928  -920  -915  -909  -890  -854  -807  -757  -719  -722  -764  -824  -892  -962  -1009  -1018  -996  -965  -944  -939  -943  -945  -946  -948  -951  -953  -945  -915  -867  -822  -798  -794  -793  -784  -769  -757  -753  -755  -756  -753  -739  -714  -681  -641  -603  -578  -570  -574  -584  -596  -615  -655  -714  -762  -767  -730  -685  -654  -641  -637  -634  -624  -610  -625  -698  -800  -866  -882  -884  -900  -920  -899  -807  -673  -563  -521  -537  -572  -604  -636  -684  -737  -783  -819  -845  -846  -813  -749  -664  -566  -475  -421  -413  -437  -456  -408  -244  -1  204  295  264  119  -102  -334  -549  -749  -906  -997  -1032  -1012  -941  -856  -800  -783  -791  -802  -809  -828  -881  -956  -975  -878  -664  -259  469  1483  2600  3643  4364  4459  3779  2443  686  -1178  -2692  -3501  -3614  -3246  -2568  -1755  -1077  -686  -498  -369  -230  -85  31  110  171  224  257  252  212  173  178  254  373  482  560  629  715  839  1001  1161  1262  1311  1378  1520  1718  1890  1994  2074  2194  2374  2589  2818  3051  3254  3376  3415  3428  3468  3548  3642  3711  3746  3754  3722  3601  3362  3072  2811  2543  2175  1716  1224  713  240  -79  -235  -332  -464  -655  -882  -1105  -1278  -1367  -1386  -1390  -1427  -1509  -1607  -1671  -1671  -1607  -1505  -1407  -1337  -1299  -1303  -1355  -1443  -1536  -1594  -1594  -1541  -1468  -1419  -1405  -1397  -1363  -1296  -1224  -1170  -1133  -1109  -1092  -1067  -1018  -938  -842  -777  -783  -864  -976  -1061  -1116  -1177  -1250  -1306  -1323  -1303  -1262  -1207  -1133  -1022  -843  -613  -414  -313  -297  -310  -319  -328  -365  -457  -581  -682  -725  -718  -673  -603  -534  -490  -469  -453  -439  -437  -442  -441  -435  -448  -498  -571  -628  -656  -665  -663  -645  -609  -555  -481  -388  -296  -239  -221  -223  -234  -247  -248  -202  -80  103  273  346  321  276  263  258  233  216  230  256  263  235  175  95  24  -14  -20  -22  -50  -95  -110  -74  -32  -43  -123  -238  -343  -399  -392  -329  -204  10  410  1139  2267  3687  5028  5666  5173  3708  1714  -369  -1989  -2805  -2998  -2821  -2338  -1656  -996  -540  -315  -209  -109  7  96  138  164  206  278  370  459  529  590  669  762  831  856  850  825  788  783  861  1015  1187  1356  1524  1682  1840  1993  2104  2166  2238  2373  2564  2772  2975  3158  3300  3379  3400  3400  3416  3470  3543  3605  3645  3660  3607  3401  3002  2463  1865  1259  694  216  -211  -644  -1030  -1301  -1459  -1531  -1554  -1575  -1626  -1699  -1762  -1791  -1795  -1792  -1798  -1812  -1807  -1746  -1637  -1536  -1459  -1368  -1251  -1142  -1077  -1065  -1081  -1085  -1054  -1011  -1004  -1053  -1141  -1233  -1296  -1309  -1257  -1115  -902  -700  -579  -551  -601  -707  -823  -898  -922  -909  -862  -775  -657  -549  -532  -664  -883  -1042  -1063  -998  -932  -896  -880  -868  -849  -811  -750  -709  -746  -851  -953  -1018  -1064  -1104  -1137  -1159  -1169  -1182  -1206  -1226  -1176  -1033  -898  -840  -782  -682  -609  -596  -609  -613  -597  -563  -514  -468  -468  -528  -625  -726  -796  -806  -783  -765  -757  -735  -681  -603  -527  -455  -364  -269  -210  -198  -202  -180  -133  -108  -147  -250  -392  -531  -619  -645  -633  -606  -573  -546  -541  -588  -705  -853  -960  -997  -993  -994  -1030  -1115  -1225  -1284  -1188  -880  -366  386  1404  2592  3737  4541  4620  3749  2133  141  -1845  -3279  -3811  -3595  -2957  -2179  -1521  -1131  -936  -766  -564  -405  -346  -354  -377  -380  -348  -289  -215  -138  -60  29  126  208  274  335  388  434  470  491  510  580  758  1028  1299  1512  1704  1960  2273  2542  2706  2795  2884  3054  3333  3643  3871  3982  4008  3984  3947  3922  3915  3907  3849  3712  3543  3429  3370  3259  2992  2530  1937  1377  965  647  345  77  -126  -277  -366  -363  -289  -216  -182  -164  -138  -128  -181  -299  -443  -561  -608  -570  -480  -377  -283  -209  -153  -114  -103  -120  -171  -262  -357  -404  -396  -364  -324  -286  -256  -243  -245  -254  -258  -260  -267  -274  -278  -289  -327  -397  -489  -579  -615  -566  -492  -478  -549  -660  -744  -779  -784  -783  -787  -795  -804  -801  -778  -746  -729  -739  -784  -852  -921  -974  -992  -961  -900  -843  -806  -788  -785  -792  -801  -804  -803  -817  -868  -945  -1013  -1039  -1025  -997  -975  -966  -962  -959  -965  -996  -1047  -1090  -1101  -1069  -989  -868  -733  -620  -527  -428  -326  -251  -223  -237  -285  -365  -471  -584  -674  -731  -773  -806  -833  -856  -870  -868  -862  -862  -865  -863  -852  -841  -870  -1021  -1343  -1705  -1835  -1568  -878  162  1296  2287  3167  3998  4535  4369  3346  1639  -389  -2204  -3347  -3783  -3698  -3169  -2305  -1382  -681  -272  -60  34  54  40  25  18  26  50  86  118  145  185  255  355  465  574  687  805  913  1009  1109  1220  1325  1398  1447  1519  1661  1876  2126  2372  2583  2734  2824  2891  2987  3138  3338  3546  3706  3795  3836  3859  3869  3855  3801  3716  3621  3477  3191  2766  2350  2059  1830  1524  1080  582  181  -54  -211  -414  -676  -902  -1015  -1033  -1021  -1034  -1095  -1167  -1152  -1042  -974  -1014  -1113  -1229  -1317  -1342  -1329  -1315  -1307  -1285  -1222  -1130  -1053  -1021  -1027  -1057  -1091  -1105  -1073  -979  -855  -763  -725  -724  -758  -847  -976  -1081  -1095  -1004  -864  -749  -688  -677  -698  -712  -706  -721  -787  -876  -944  -974  -976  -972  -981  -1008  -1037  -1046  -1022  -972  -922  -899  -899  -901  -886  -851  -824  -826  -830  -793  -734  -696  -707  -768  -842  -889  -905  -903  -882  -835  -770  -716  -687  -681  -692  -712  -735  -754  -760  -755  -747  -740  -719  -668  -595  -528  -489  -478  -479  -458  -377  -261  -193  -232  -356  -483  -540  -534  -529  -565  -639  -727  -823  -922  -1007  -1065  -1093  -1103  -1114  -1151  -1208  -1231  -1202  -1149  -1039  -769  -214  744  2031  3355  4432  4944  4504  3043  995  -1066  -2688  -3588  -3794  -3594  -3216  -2696  -2044  -1369  -812  -440  -225  -110  -63  -60  -57  -28  15  52  78  111  177  268  338  356  335  318  382  603  951  1273  1446  1499  1540  1620  1710  1774  1813  1848  1904  2012  2200  2460  2750  3030  3265  3419  3491  3511  3509  3502  3502  3504  3492  3448  3377  3273  3098  2802  2370  1851  1385  1095  939  743  380  -128  -656  -1083  -1333  -1416  -1409  -1385  -1371  -1365  -1366  -1382  -1424  -1479  -1519  -1535  -1541  -1551  -1562  -1558  -1524  -1444  -1312  -1155  -1012  -911  -864  -857  -866  -870  -862  -848  -837  -833  -829  -805  -733  -615  -499  -416  -346  -274  -224  -230  -301  -405  -487  -523  -530  -534  -542  -549  -531  -471  -383  -306  -261  -250  -281  -343  -405  -435  -423  -391  -365  -350  -334  -309  -277  -240  -200  -166  -151  -180  -285  -450  -601  -670  -620  -439  -192  -8  58  57  47  42  13  -65  -167  -222  -201  -143  -94  -37  76  238  382  475  529  553  539  484  407  342  292  224  101  -53  -187  -291  -366  -400  -397  -385  -378  -377  -384  -399  -409  -370  -299  -336  -551  -727  -538  157  1307  2730  4061  4834  4707  3646  1948  56  -1612  -2750  -3288  -3383  -3189  -2785  -2224  -1547  -904  -492  -308  -206  -104  -6  64  100  115  131  158  186  208  237  284  345  407  462  502  527  558  615  701  812  970  1154  1289  1355  1418  1550  1767  2016  2228  2409  2606  2804  2939  3000  3033  3088  3200  3355  3494  3577  3595  3539  3405  3236  3080  2894  2564  2057  1495  1073  862  771  681  552  380  104  -322  -783  -1093  -1232  -1322  -1450  -1595  -1690  -1711  -1689  -1658  -1614  -1525  -1406  -1315  -1276  -1273  -1300  -1367  -1448  -1481  -1440  -1378  -1367  -1399  -1414  -1394  -1358  -1316  -1277  -1254  -1240  -1216  -1168  -1104  -1054  -1035  -1044  -1064  -1085  -1104  -1136  -1194  -1243  -1218  -1098  -941  -829  -799  -831  -914  -1071  -1288  -1463  -1514  -1468  -1387  -1275  -1115  -951  -848  -825  -850  -888  -924  -958  -991  -1015  -1019  -1000  -967  -935  -918  -913  -916  -923  -934  -933  -884  -759  -601  -489  -453  -461  -482  -513  -550  -551  -480  -362  -248  -157  -79  -12  17  -9  -67  -133  -221  -332  -429  -466  -434  -383  -369  -403  -458  -494  -499  -490  -507  -584  -690  -743  -745  -717  -534  -82  628  1553  2612  3694  4587  4886  4280  2834  871  -1106  -2541  -3170  -3150  -2720  -1985  -1163  -612  -431  -400  -322  -170  -16  88  155  198  210  194  182  203  262  352  472  594  687  746  782  797  794  802  858  988  1175  1369  1519  1608  1664  1731  1868  2131  2487  2796  2966  3026  3043  3052  3072  3113  3187  3298  3439  3548  3563  3506  3444  3385  3255  3000  2619  2126  1571  1052  649  351  87  -150  -319  -423  -520  -650  -812  -965  -1065  -1111  -1126  -1128  -1128  -1134  -1148  -1160  -1168  -1181  -1195  -1203  -1212  -1226  -1237  -1240  -1236  -1238  -1259  -1288  -1303  -1292  -1266  -1242  -1224  -1210  -1204  -1212  -1231  -1262  -1310  -1362  -1382  -1359  -1334  -1342  -1348  -1301  -1227  -1181  -1166  -1148  -1104  -1049  -1008  -992  -996  -1028  -1098  -1183  -1238  -1223  -1125  -978  -845  -762  -730  -735  -768  -821  -876  -911  -922  -929  -946  -960  -944  -903  -869  -860  -866  -866  -827  -726  -589  -480  -435  -435  -448  -453  -432  -354  -193  3  146  220  290  372  395  286  63  -182  -366  -458  -481  -483  -497  -523  -551  -577  -600  -616  -611  -567  -505  -475  -499  -573  -675  -735  -687  -465  47  906  2024  3261  4408  5085  4915  3845  2145  217  -1491  -2619  -3064  -2976  -2582  -2001  -1298  -625  -177  5  45  57  76  88  87  80  91  147  251  366  471  583  714  829  902  947  986  1022  1055  1104  1189  1290  1373  1473  1677  1979  2250  2383  2418  2490  2708  3044  3344  3504  3564  3609  3669  3731  3771  3783  3777  3755  3706  3603  3450  3294  3156  2984  2718  2349  1892  1408  1009  742  540  308  60  -109  -188  -268  -422  -629  -802  -891  -917  -933  -958  -960  -915  -862  -849  -880  -928  -958  -956  -938  -926  -923  -921  -916  -916  -938  -990  -1047  -1054  -969  -828  -717  -671  -665  -679  -715  -752  -750  -708  -676  -683  -712  -744  -814  -968  -1145  -1212  -1148  -1059  -1034  -1081  -1156  -1212  -1235  -1241  -1245  -1253  -1261  -1254  -1215  -1171  -1166  -1199  -1242  -1274  -1284  -1272  -1259  -1258  -1271  -1290  -1304  -1313  -1330  -1355  -1384  -1403  -1374  -1287  -1188  -1124  -1102  -1100  -1099  -1089  -1069  -1031  -962  -856  -741  -670  -661  -686  -709  -730  -761  -791  -796  -774  -755  -775  -857  -968  -1044  -1066  -1061  -1059  -1073  -1098  -1141  -1208  -1277  -1314  -1311  -1291  -1268  -1224  -1148  -1030  -781  -256  649  1930  3399  4600  4945  4172  2582  702  -1036  -2318  -3015  -3219  -3023  -2459  -1673  -925  -406  -116  33  106  124  118  128  180  253  300  313  322  347  385  431  521  697  914  1070  1133  1155  1192  1259  1359  1503  1680  1845  1972  2092  2269  2494  2691  2830  2954  3084  3197  3287  3376  3492  3654  3835  3960  3999  3981  3944  3914  3911  3902  3799  3527  3116  2653  2166  1655  1200  902  734  554  270  -74  -392  -656  -867  -990  -986  -865  -699  -583  -561  -627  -755  -872  -912  -897  -872  -843  -810  -794  -810  -844  -870  -880  -886  -894  -907  -923  -935  -931  -899  -831  -745  -682  -658  -661  -671  -676  -661  -624  -571  -518  -480  -465  -477  -522  -591  -666  -745  -822  -868  -870  -850  -832  -826  -823  -815  -809  -827  -890  -977  -1042  -1064  -1065  -1067  -1062  -1021  -924  -801  -709  -675  -678  -694  -708  -720  -748  -821  -939  -1061  -1152  -1207  -1233  -1236  -1220  -1191  -1147  -1087  -1022  -971  -951  -958  -974  -981  -951  -840  -675  -538  -471  -450  -447  -458  -495  -567  -659  -739  -780  -782  -774  -794  -869  -973  -1058  -1099  -1105  -1086  -1053  -1016  -984  -967  -973  -1016  -1115  -1272  -1451  -1579  -1580  -1415  -1128  -777  -299  458  1600  3031  4303  4769  4127  2601  623  -1303  -2711  -3419  -3491  -3081  -2412  -1712  -1150  -818  -684  -636  -584  -499  -395  -298  -236  -215  -205  -166  -76  65  242  431  607  748  839  892  932  970  1008  1063  1161  1308  1491  1711  1957  2177  2343  2468  2564  2651  2756  2886  3063  3321  3636  3915  4097  4209  4305  4401  4471  4451  4285  4014  3750  3539  3332  3092  2849  2641  2462  2246  1921  1462  904  367  -16  -235  -379  -507  -606  -652  -646  -611  -575  -556  -551  -555  -574  -624  -711  -806  -868  -888  -876  -836  -773  -721  -716  -749  -765  -726  -642  -563  -524  -525  -551  -584  -610  -626  -636  -639  -631  -615  -601  -591  -580  -568  -558  -539  -497  -450  -438  -472  -517  -539  -547  -586  -672  -776  -878  -958  -994  -988  -947  -894  -867  -886  -939  -996  -1034  -1050  -1059  -1067  -1075  -1086  -1099  -1110  -1120  -1125  -1123  -1128  -1144  -1158  -1168  -1181  -1201  -1216  -1204  -1149  -1066  -988  -938  -913  -903  -903  -931  -1007  -1108  -1184  -1206  -1179  -1114  -1032  -961  -911  -871  -827  -767  -697  -648  -625  -612  -595  -570  -523  -434  -322  -227  -160  -92  3  116  210  255  227  104  -110  -338  -479  -516  -504  -491  -488  -482  -463  -435  -414  -407  -415  -435  -453  -466  -493  -547  -579  -548  -550  -600  -450  98  1029  2250  3580  4684  5152  4721  3462  1697  -157  -1690  -2652  -3034  -2933  -2439  -1754  -1174  -818  -632  -553  -527  -509  -491  -477  -459  -426  -352  -213  -45  72  109  102  90  88  99  118  151  222  353  508  610  634  626  656  767  938  1129  1349  1597  1793  1884  1926  2003  2139  2318  2531  2744  2901  2991  3053  3109  3158  3191  3185  3101  2912  2644  2350  2064  1816  1629  1465  1225  845  387  -15  -291  -452  -540  -595  -640  -683  -748  -871  -1028  -1153  -1214  -1210  -1145  -1029  -899  -804  -751  -709  -662  -632  -631  -636  -617  -586  -552  -501  -436  -387  -368  -364  -367  -392  -454  -527  -557  -527  -467  -408  -367  -346  -316  -249  -161  -91  -62  -77  -120  -160  -180  -189  -192  -191  -184  -176  -173  -183  -213  -256  -300  -343  -385  -412  -418  -416  -424  -454  -491  -495  -439  -353  -297  -289  -291  -265  -215  -170  -148  -150  -184  -261  -364  -442  -468  -463  -461  -479  -516  -564  -609  -636  -644  -636  -616  -584  -541  -480  -410  -380  -399  -395  -352  -361  -449  -537  -569  -563  -557  -572  -610  -652  -683  -678  -607  -494  -386  -292  -227  -206  -203  -170  -79  57  197  305  352  306  139  -101  -315  -458  -563  -672  -786  -869  -889  -853  -796  -746  -720  -722  -743  -772  -804  -863  -976  -1115  -1191  -1145  -991  -714  -200  667  1859  3192  4407  5122  4920  3751  1949  -116  -1990  -3207  -3676  -3574  -3033  -2218  -1428  -910  -660  -501  -309  -98  50  116  140  154  165  174  180  209  316  512  716  836  870  887  939  1025  1111  1171  1209  1260  1363  1507  1672  1864  2067  2230  2365  2529  2709  2840  2924  3062  3331  3652  3867  3926  3918  3958  4103  4288  4374  4280  4055  3800  3561  3340  3149  2981  2768  2407  1866  1273  796  461  193  -54  -268  -425  -538  -624  -678  -698  -705  -713  -733  -783  -868  -970  -1065  -1144  -1199  -1229  -1238  -1234  -1226  -1224  -1220  -1192  -1146  -1118  -1117  -1118  -1101  -1066  -1010  -939  -875  -845  -852  -882  -914  -937  -953  -978  -1007  -1011  -967  -899  -856  -866  -910  -956  -992  -1024  -1068  -1145  -1253  -1351  -1408  -1435  -1446  -1442  -1410  -1323  -1185  -1053  -997  -1027  -1098  -1160  -1192  -1205  -1209  -1207  -1198  -1197  -1234  -1333  -1449  -1512  -1514  -1502  -1512  -1541  -1551  -1519  -1472  -1448  -1454  -1475  -1496  -1504  -1502  -1492  -1480  -1472  -1469  -1471  -1473  -1471  -1462  -1442  -1413  -1381  -1361  -1360  -1373  -1378  -1334  -1203  -1002  -803  -652  -530  -420  -338  -302  -308  -381  -563  -816  -1022  -1101  -1068  -976  -867  -779  -741  -746  -764  -773  -774  -774  -776  -780  -783  -770  -721  -642  -581  -541  -444  -172  433  1458  2697  3741  4260  4019  2934  1269  -528  -2089  -3115  -3451  -3225  -2721  -2148  -1578  -1079  -739  -552  -418  -274  -152  -96  -87  -60  32  161  262  328  419  565  728  853  932  977  997  996  1002  1066  1228  1441  1610  1730  1869  2040  2228  2461  2729  2949  3082  3172  3259  3345  3436  3561  3731  3909  4045  4159  4314  4507  4651  4677  4583  4391  4105  3718  3289  2917  2641  2424  2188  1852  1441  1095  901  785  628  416  197  -16  -220  -374  -453  -486  -514  -535  -532  -492  -428  -367  -326  -305  -293  -287  -289  -284  -253  -217  -203  -211  -229  -247  -260  -265  -260  -257  -270  -299  -329  -362  -410  -470  -522  -550  -553  -529  -464  -361  -260  -208  -216  -255  -287  -295  -286  -302  -400  -593  -807  -941  -954  -859  -698  -535  -437  -430  -487  -553  -597  -621  -640  -645  -618  -540  -418  -311  -305  -432  -622  -765  -821  -827  -823  -821  -820  -821  -821  -818  -808  -788  -767  -750  -746  -763  -794  -834  -886  -927  -914  -831  -715  -621  -564  -528  -512  -531  -573  -597  -584  -569  -583  -610  -636  -700  -849  -1047  -1192  -1240  -1232  -1215  -1205  -1193  -1168  -1135  -1109  -1099  -1107  -1155  -1275  -1464  -1645  -1755  -1748  -1499  -908  22  1200  2369  3237  3526  2968  1655  23  -1567  -2881  -3739  -4108  -4109  -3849  -3324  -2585  -1865  -1403  -1222  -1181  -1150  -1073  -963  -851  -751  -667  -599  -549  -523  -513  -483  -398  -275  -171  -110  -60  24  158  322  505  711  937  1167  1355  1457  1499  1584  1794  2080  2300  2396  2454  2606  2910  3274  3538  3654  3705  3790  3942  4112  4229  4267  4227  4093  3870  3604  3304  2926  2491  2108  1830  1592  1296  944  641  454  339  192  -46  -319  -513  -590  -577  -502  -403  -325  -291  -295  -320  -368  -459  -576  -660  -678  -647  -595  -541  -486  -429  -386  -371  -395  -468  -568  -643  -670  -648  -582  -492  -414  -370  -353  -352  -362  -385  -417  -448  -479  -511  -539  -564  -587  -595  -573  -532  -498  -480  -476  -478  -484  -496  -505  -482  -420  -373  -391  -444  -483  -496  -497  -494  -476  -430  -370  -339  -350  -388  -438  -491  -550  -613  -663  -705  -754  -770  -708  -617  -569  -571  -597  -622  -641  -658  -675  -688  -689  -668  -626  -587  -565  -546  -519  -486  -460  -461  -519  -660  -853  -1031  -1181  -1311  -1398  -1429  -1427  -1417  -1416  -1429  -1449  -1471  -1490  -1509  -1530  -1539  -1512  -1458  -1460  -1599  -1792  -1799  -1410  -574  590  1889  3125  3969  4014  3146  1567  -407  -2280  -3550  -4121  -4142  -3704  -2971  -2219  -1664  -1388  -1327  -1345  -1333  -1250  -1113  -967  -816  -628  -431  -302  -251  -202  -88  85  262  397  481  532  578  661  826  1081  1359  1574  1690  1748  1807  1897  2021  2205  2468  2743  2942  3095  3322  3645  3973  4244  4443  4549  4562  4522  4478  4448  4397  4261  4039  3820  3682  3591  3426  3105  2665  2207  1764  1323  908  574  359  247  170  84  -1  -87  -196  -346  -505  -617  -673  -697  -690  -652  -588  -500  -418  -379  -378  -395  -423  -456  -491  -526  -557  -584  -605  -624  -649  -676  -688  -662  -586  -474  -373  -316  -304  -327  -375  -427  -457  -468  -492  -559  -660  -757  -830  -881  -911  -923  -920  -891  -817  -691  -548  -443  -403  -430  -541  -729  -919  -1035  -1071  -1063  -1027  -965  -888  -813  -768  -780  -849  -940  -1016  -1074  -1120  -1140  -1128  -1100  -1057  -978  -883  -838  -890  -999  -1084  -1102  -1074  -1019  -938  -836  -738  -693  -718  -751  -730  -657  -558  -441  -312  -206  -165  -210  -326  -472  -605  -696  -738  -747  -770  -841  -944  -1033  -1081  -1093  -1083  -1054  -1010  -978  -1027  -1189  -1344  -1355  -1196  -836  -242  547  1491  2573  3735  4697  4912  4047  2341  287  -1593  -2837  -3355  -3393  -3150  -2707  -2108  -1453  -951  -717  -633  -533  -390  -276  -225  -208  -195  -185  -178  -151  -79  44  192  316  387  411  414  432  481  559  638  689  732  849  1115  1477  1776  1935  2021  2127  2279  2448  2609  2747  2864  2989  3144  3317  3495  3674  3825  3902  3893  3823  3717  3585  3438  3275  3062  2764  2402  2062  1791  1519  1163  752  378  100  -74  -174  -235  -293  -363  -435  -487  -533  -605  -694  -767  -809  -802  -751  -700  -676  -672  -672  -669  -664  -663  -675  -696  -702  -665  -594  -533  -505  -500  -499  -507  -550  -642  -764  -885  -995  -1080  -1108  -1081  -1042  -1022  -1017  -1012  -1005  -999  -998  -999  -995  -981  -968  -982  -1037  -1104  -1153  -1177  -1181  -1163  -1113  -1044  -987  -956  -950  -960  -982  -1005  -1018  -1022  -1025  -1030  -1031  -1022  -1006  -1008  -1055  -1135  -1199  -1215  -1181  -1109  -1029  -977  -958  -956  -962  -989  -1050  -1127  -1192  -1232  -1241  -1206  -1135  -1040  -924  -792  -676  -613  -599  -604  -605  -604  -612  -634  -666  -724  -838  -998  -1116  -1096  -978  -895  -869  -831  -769  -733  -748  -787  -821  -870  -989  -1127  -1079  -747  -212  524  1543  2765  3924  4635  4528  3526  1934  142  -1518  -2696  -3204  -3133  -2619  -1880  -1269  -936  -746  -595  -487  -429  -388  -321  -213  -90  13  73  88  80  79  114  209  372  595  830  1025  1166  1263  1316  1336  1355  1402  1488  1617  1783  1963  2128  2262  2371  2488  2623  2758  2907  3089  3279  3455  3629  3801  3946  4046  4111  4135  4100  4016  3903  3756  3526  3155  2689  2248  1851  1466  1126  848  600  368  161  -31  -209  -334  -404  -465  -540  -607  -653  -688  -723  -772  -838  -908  -976  -1047  -1115  -1156  -1144  -1064  -935  -802  -707  -675  -706  -768  -817  -828  -795  -731  -684  -688  -722  -750  -769  -779  -789  -804  -823  -833  -830  -826  -828  -831  -816  -757  -659  -562  -503  -485  -487  -494  -508  -537  -588  -668  -760  -828  -852  -824  -736  -611  -506  -455  -456  -503  -591  -700  -791  -834  -840  -841  -859  -893  -926  -946  -952  -953  -951  -942  -916  -874  -847  -856  -879  -884  -861  -824  -804  -808  -794  -743  -676  -595  -489  -385  -321  -299  -299  -318  -371  -458  -560  -662  -756  -824  -856  -860  -854  -850  -855  -877  -910  -945  -983  -1023  -1052  -1063  -1055  -1027  -1007  -1063  -1173  -1178  -933  -330  718  2061  3323  4225  4566  4094  2812  1087  -748  -2447  -3640  -4078  -3842  -3133  -2192  -1376  -939  -804  -760  -706  -639  -569  -493  -394  -268  -134  -23  41  67  92  130  163  175  167  161  196  323  553  836  1101  1300  1435  1530  1605  1675  1762  1897  2090  2321  2561  2788  2990  3154  3265  3317  3337  3372  3437  3503  3543  3556  3555  3535  3481  3398  3305  3175  2929  2475  1817  1150  720  563  495  333  31  -318  -584  -729  -810  -870  -914  -954  -1012  -1082  -1131  -1128  -1081  -1039  -1062  -1143  -1219  -1252  -1260  -1257  -1225  -1138  -1015  -919  -880  -882  -900  -909  -869  -755  -603  -479  -409  -390  -403  -416  -414  -400  -391  -402  -430  -462  -479  -481  -481  -472  -430  -370  -332  -330  -352  -377  -398  -420  -432  -424  -403  -387  -386  -390  -378  -328  -251  -187  -163  -174  -197  -215  -223  -226  -226  -214  -183  -140  -102  -62  -13  19  15  -2  0  43  100  131  133  116  86  40  -18  -74  -107  -119  -124  -131  -146  -178  -220  -237  -172  -1  209  352  400  401  390  347  236  82  -38  -80  -76  -94  -190  -372  -585  -743  -810  -818  -814  -805  -762  -668  -583  -604  -736  -878  -941  -867  -621  -226  309  1038  1989  3135  4284  4956  4667  3331  1269  -1001  -2885  -3947  -4170  -3808  -3120  -2338  -1646  -1158  -894  -761  -661  -576  -533  -537  -549  -549  -562  -579  -544  -443  -335  -274  -251  -228  -181  -98  14  129  226  301  348  365  381  453  619  859  1135  1421  1677  1858  1949  1981  2012  2100  2264  2465  2634  2737  2802  2883  3007  3146  3247  3250  3104  2803  2421  2048  1702  1356  1011  696  394  37  -395  -810  -1111  -1325  -1512  -1671  -1785  -1864  -1918  -1948  -1949  -1904  -1823  -1757  -1731  -1731  -1740  -1760  -1791  -1822  -1836  -1829  -1811  -1789  -1756  -1705  -1657  -1630  -1617  -1584  -1500  -1367  -1233  -1160  -1169  -1230  -1291  -1319  -1321  -1311  -1293  -1265  -1226  -1178  -1149  -1155  -1176  -1184  -1180  -1175  -1175  -1177  -1178  -1180  -1197  -1241  -1302  -1352  -1387  -1415  -1431  -1419  -1370  -1306  -1266  -1260  -1275  -1299  -1322  -1312  -1225  -1053  -844  -653  -510  -429  -404  -406  -412  -408  -396  -379  -350  -286  -172  -35  60  95  93  71  23  -45  -112  -140  -99  9  140  240  300  345  410  510  622  718  802  884  939  942  893  792  643  479  331  196  78  3  -17  -10  -3  -4  -6  11  66  143  202  232  248  241  185  108  112  371  1033  2097  3448  4846  5837  5936  4984  3176  895  -1275  -2735  -3325  -3251  -2704  -1909  -1170  -604  -162  148  300  326  282  223  176  148  169  268  441  646  822  925  961  963  952  947  966  1020  1092  1164  1254  1378  1523  1650  1725  1763  1840  2029  2324  2647  2919  3091  3159  3178  3241  3423  3708  3982  4149  4214  4211  4160  4094  4037  3978  3901  3796  3636  3391  3044  2586  2056  1564  1202  946  723  510  281  -23  -384  -677  -813  -823  -790  -782  -852  -1026  -1269  -1492  -1598  -1575  -1501  -1427  -1328  -1189  -1061  -1003  -1030  -1113  -1215  -1277  -1230  -1081  -913  -791  -746  -776  -828  -858  -868  -884  -912  -938  -947  -944  -941  -932  -905  -870  -844  -838  -854  -889  -926  -946  -954  -961  -982  -1034  -1104  -1152  -1143  -1064  -935  -805  -709  -661  -651  -655  -657  -664  -700  -772  -857  -916  -935  -927  -913  -907  -906  -907  -910  -913  -915  -905  -872  -825  -789  -773  -762  -740  -702  -659  -639  -667  -740  -831  -905  -942  -938  -878  -729  -492  -246  -79  -5  13  -2  -65  -187  -343  -511  -705  -908  -1049  -1082  -1040  -986  -945  -919  -908  -908  -909  -904  -887  -857  -843  -896  -1005  -1113  -1161  -962  -252  956  2357  3666  4595  4733  3903  2373  515  -1349  -2839  -3704  -4010  -3921  -3480  -2744  -1908  -1207  -761  -527  -385  -267  -162  -75  -19  0  -1  -20  -61  -109  -120  -47  106  268  373  422  457  514  598  682  764  883  1024  1155  1297  1497  1745  1957  2070  2119  2191  2346  2613  2959  3269  3435  3462  3430  3396  3379  3376  3377  3376  3376  3384  3381  3294  3023  2578  2128  1805  1532  1158  684  247  -50  -221  -326  -422  -544  -701  -866  -1014  -1153  -1259  -1285  -1263  -1266  -1300  -1334  -1347  -1333  -1319  -1323  -1338  -1349  -1347  -1343  -1347  -1338  -1306  -1272  -1251  -1230  -1191  -1135  -1082  -1036  -983  -914  -832  -755  -709  -694  -689  -686  -685  -696  -727  -777  -829  -864  -875  -852  -797  -736  -701  -707  -737  -769  -798  -815  -798  -731  -638  -564  -535  -538  -546  -535  -488  -419  -364  -344  -371  -452  -564  -662  -720  -731  -700  -653  -618  -595  -583  -582  -590  -593  -573  -531  -486  -448  -393  -276  -102  55  144  172  157  89  -33  -179  -315  -427  -505  -551  -581  -610  -646  -688  -732  -761  -757  -717  -674  -663  -689  -724  -766  -817  -843  -763  -459  147  1029  2073  3108  3942  4353  4050  2905  1168  -750  -2456  -3529  -3793  -3499  -2985  -2410  -1850  -1372  -960  -582  -284  -111  -50  -57  -93  -137  -156  -91  91  333  513  579  575  564  569  581  592  617  695  866  1107  1334  1492  1601  1695  1788  1916  2096  2284  2429  2519  2583  2665  2807  3033  3289  3479  3575  3635  3721  3841  3954  4009  3976  3841  3597  3243  2806  2375  2052  1843  1665  1421  1077  700  376  91  -207  -517  -817  -1067  -1209  -1244  -1232  -1217  -1212  -1210  -1211  -1224  -1260  -1315  -1362  -1376  -1376  -1417  -1523  -1636  -1648  -1563  -1493  -1472  -1446  -1387  -1311  -1249  -1223  -1223  -1230  -1257  -1337  -1460  -1558  -1577  -1532  -1470  -1417  -1359  -1282  -1201  -1170  -1233  -1377  -1539  -1668  -1754  -1793  -1785  -1749  -1710  -1686  -1677  -1675  -1675  -1677  -1679  -1679  -1675  -1665  -1650  -1640  -1650  -1695  -1764  -1823  -1854  -1863  -1864  -1860  -1857  -1866  -1895  -1936  -1959  -1933  -1853  -1757  -1696  -1683  -1682  -1648  -1568  -1468  -1379  -1310  -1257  -1205  -1161  -1161  -1223  -1322  -1435  -1520  -1510  -1392  -1219  -1053  -924  -838  -789  -760  -728  -689  -658  -643  -632  -616  -607  -612  -560  -337  88  700  1560  2675  3879  4941  5589  5479  4493  2883  1023  -680  -1818  -2254  -2147  -1671  -974  -269  268  612  809  909  953  979  1012  1042  1065  1123  1254  1437  1608  1718  1763  1771  1772  1784  1810  1846  1895  1960  2041  2141  2259  2378  2470  2535  2604  2708  2851  3020  3192  3360  3526  3696  3883  4073  4231  4352  4445  4501  4513  4488  4443  4392  4343  4287  4222  4142  3986  3660  3156  2587  2049  1531  1034  637  380  191  7  -159  -298  -446  -634  -818  -926  -949  -926  -897  -880  -882  -908  -953  -996  -1015  -1008  -988  -973  -968  -970  -976  -987  -997  -996  -960  -877  -770  -691  -682  -739  -823  -899  -947  -956  -917  -838  -742  -658  -600  -571  -562  -560  -552  -539  -538  -593  -729  -890  -969  -925  -822  -729  -656  -602  -581  -595  -629  -647  -632  -605  -590  -588  -584  -571  -554  -548  -574  -641  -720  -773  -795  -818  -860  -907  -951  -1002  -1049  -1061  -1026  -956  -884  -842  -831  -833  -837  -839  -836  -817  -784  -763  -771  -801  -845  -907  -970  -1014  -1048  -1081  -1106  -1117  -1118  -1115  -1112  -1106  -1091  -1077  -1112  -1262  -1505  -1675  -1602  -1261  -638  353  1628  2921  4062  4775  4584  3378  1554  -451  -2235  -3404  -3878  -3848  -3428  -2746  -2049  -1502  -1130  -920  -840  -816  -774  -694  -608  -546  -507  -455  -354  -207  -56  70  154  191  192  185  197  241  303  371  457  569  706  884  1103  1304  1444  1545  1661  1827  2033  2254  2482  2703  2887  3025  3134  3224  3287  3316  3321  3303  3237  3089  2870  2655  2499  2360  2153  1863  1531  1177  815  468  141  -160  -422  -625  -779  -957  -1206  -1500  -1767  -1937  -1992  -1978  -1946  -1897  -1806  -1692  -1614  -1588  -1590  -1601  -1626  -1662  -1673  -1638  -1581  -1530  -1469  -1372  -1253  -1153  -1097  -1077  -1062  -1020  -937  -850  -827  -881  -922  -864  -743  -643  -598  -595  -611  -632  -652  -664  -663  -656  -652  -651  -643  -633  -628  -611  -575  -540  -523  -518  -515  -513  -522  -559  -618  -675  -712  -731  -736  -730  -717  -703  -693  -686  -671  -645  -619  -593  -554  -503  -457  -431  -423  -425  -431  -442  -453  -441  -377  -259  -110  30  130  165  133  50  -58  -165  -249  -304  -334  -340  -340  -377  -469  -586  -692  -759  -781  -793  -826  -869  -873  -796  -723  -754  -827  -780  -383  576  2030  3650  4983  5526  5004  3570  1656  -295  -1933  -3014  -3431  -3254  -2699  -1958  -1179  -570  -262  -192  -220  -249  -240  -180  -76  47  154  216  228  215  226  340  597  906  1114  1176  1154  1107  1059  1020  994  1003  1108  1345  1649  1899  2063  2216  2426  2689  2952  3153  3275  3362  3465  3605  3787  3981  4119  4172  4164  4108  3998  3864  3763  3675  3510  3225  2843  2400  1926  1479  1111  804  515  253  29  -157  -309  -441  -562  -650  -685  -687  -684  -689  -694  -699  -723  -802  -929  -1054  -1137  -1178  -1192  -1196  -1197  -1184  -1123  -990  -815  -674  -615  -619  -655  -711  -769  -807  -814  -797  -771  -746  -725  -717  -763  -901  -1094  -1230  -1250  -1198  -1141  -1099  -1053  -979  -903  -865  -883  -937  -989  -1013  -1031  -1068  -1121  -1164  -1189  -1203  -1210  -1218  -1239  -1273  -1312  -1351  -1390  -1414  -1412  -1384  -1339  -1293  -1257  -1239  -1257  -1298  -1325  -1323  -1313  -1309  -1313  -1322  -1323  -1285  -1187  -1069  -1005  -1021  -1087  -1189  -1304  -1384  -1383  -1291  -1142  -996  -910  -922  -1027  -1186  -1356  -1504  -1604  -1657  -1682  -1698  -1713  -1727  -1734  -1726  -1699  -1662  -1632  -1623  -1645  -1732  -1866  -1946  -1909  -1772  -1463  -825  196  1503  2900  4042  4468  3899  2472  602  -1240  -2634  -3375  -3541  -3297  -2724  -1912  -1106  -565  -297  -131  20  130  170  166  154  169  251  416  615  776  863  895  899  893  892  920  1026  1241  1508  1715  1835  1926  2024  2131  2272  2476  2698  2853  2928  2989  3113  3297  3469  3594  3699  3807  3932  4080  4224  4318  4365  4403  4432  4410  4310  4132  3858  3464  3008  2600  2266  1949  1610  1270  967  713  509  338  151  -78  -299  -433  -476  -474  -462  -453  -451  -453  -452  -448  -454  -488  -546  -600  -629  -627  -600  -561  -523  -500  -495  -503  -520  -540  -553  -544  -507  -461  -430  -423  -428  -432  -425  -399  -362  -342  -363  -434  -549  -674  -761  -796  -805  -804  -792  -768  -738  -705  -678  -661  -659  -675  -693  -702  -719  -766  -858  -973  -1040  -982  -826  -689  -622  -589  -562  -562  -612  -712  -826  -904  -930  -925  -908  -891  -878  -863  -837  -807  -795  -815  -870  -948  -1019  -1055  -1039  -970  -884  -826  -795  -741  -625  -470  -331  -241  -203  -207  -249  -336  -479  -677  -908  -1103  -1201  -1212  -1196  -1210  -1283  -1389  -1467  -1475  -1419  -1335  -1263  -1218  -1200  -1238  -1392  -1657  -1878  -1844  -1442  -705  299  1525  2813  3865  4299  3777  2316  286  -1819  -3454  -4329  -4605  -4487  -4037  -3349  -2588  -1932  -1485  -1243  -1156  -1169  -1218  -1241  -1218  -1175  -1138  -1113  -1087  -1025  -893  -719  -590  -540  -517  -461  -356  -221  -84  40  158  294  466  654  837  1030  1241  1450  1675  1968  2339  2744  3114  3378  3527  3617  3684  3733  3791  3885  4018  4183  4358  4483  4492  4361  4104  3758  3368  3005  2715  2447  2110  1695  1260  866  546  336  242  210  167  71  -73  -218  -315  -362  -385  -391  -382  -375  -372  -354  -297  -216  -148  -115  -123  -170  -241  -301  -328  -328  -319  -311  -305  -299  -291  -283  -281  -282  -281  -275  -264  -244  -223  -221  -264  -340  -392  -390  -365  -364  -390  -410  -404  -397  -416  -444  -465  -486  -514  -552  -598  -653  -708  -737  -725  -697  -682  -684  -688  -669  -616  -560  -572  -671  -803  -915  -993  -1043  -1065  -1047  -977  -871  -779  -735  -730  -740  -752  -758  -748  -709  -655  -615  -600  -600  -605  -614  -613  -571  -480  -383  -334  -341  -370  -391  -389  -343  -246  -134  -81  -120  -209  -283  -324  -354  -395  -455  -526  -599  -699  -856  -1034  -1156  -1201  -1203  -1195  -1190  -1181  -1150  -1095  -1041  -969  -818  -602  -342  104  930  2145  3527  4689  5115  4450  2787  545  -1661  -3178  -3751  -3554  -2864  -2018  -1341  -951  -733  -530  -277  8  278  482  600  641  624  564  488  433  426  469  550  650  764  897  1036  1151  1229  1285  1336  1375  1384  1363  1347  1371  1438  1543  1705  1947  2256  2558  2758  2833  2874  2996  3224  3471  3633  3687  3684  3673  3668  3636  3528  3325  3072  2831  2625  2395  2044  1562  1093  783  630  497  260  -70  -386  -637  -837  -985  -1094  -1198  -1301  -1372  -1399  -1402  -1399  -1381  -1332  -1272  -1244  -1263  -1302  -1341  -1380  -1412  -1431  -1442  -1446  -1421  -1353  -1260  -1184  -1146  -1133  -1126  -1121  -1128  -1172  -1265  -1344  -1315  -1183  -1059  -1022  -1064  -1139  -1205  -1247  -1269  -1291  -1345  -1444  -1563  -1640  -1620  -1481  -1283  -1127  -1056  -1042  -1072  -1169  -1342  -1535  -1657  -1676  -1621  -1540  -1470  -1430  -1439  -1511  -1610  -1665  -1643  -1565  -1482  -1432  -1418  -1422  -1429  -1422  -1396  -1363  -1353  -1390  -1470  -1549  -1571  -1555  -1548  -1548  -1547  -1560  -1567  -1557  -1548  -1555  -1563  -1523  -1394  -1207  -1033  -912  -839  -795  -777  -792  -844  -951  -1134  -1353  -1528  -1614  -1631  -1611  -1569  -1519  -1499  -1553  -1694  -1860  -1970  -2002  -1993  -1980  -2006  -2135  -2367  -2511  -2325  -1789  -984  80  1285  2405  3276  3625  3094  1650  -365  -2459  -4071  -4858  -4902  -4471  -3814  -3161  -2601  -2071  -1588  -1268  -1114  -1013  -899  -786  -701  -651  -604  -524  -439  -396  -394  -380  -301  -140  70  286  484  680  878  1036  1114  1147  1205  1332  1517  1727  1926  2109  2327  2610  2890  3090  3231  3378  3549  3711  3843  3955  4068  4176  4248  4277  4287  4293  4283  4224  4082  3836  3484  3067  2676  2382  2173  1944  1598  1148  722  437  305  253  203  111  0  -69  -52  37  146  225  267  302  343  394  449  479  470  447  429  412  399  439  597  864  1134  1312  1392  1418  1411  1346  1159  850]
