reading_id,reading_time,wire_id,result_classification,heart_rate,heart_rate_alert,firmware_version,device_app_version,hardware_version,waveform_samples
5629fc00-54d6-11ed-8080-808080808080,Wed Oct 26 02:31:46 UTC 2022,2101e3d81839,NSR,66,NONE,20001.171.50,2.10.0,Charge 5,[0  44  122  237  357  430  428  351  225  110  100  350  1103  2468  4087  5350  5995  6261  6534  6985  7510  7974  8386  8780  9131  9385  9513  9550  9593  9723  9956  10226  10429  10561  10747  11087  11503  11837  12041  12132  12091  11955  11833  11781  11768  11771  11829  11997  12240  12438  12506  12469  12415  12434  12567  12759  12903  12957  12963  12950  12885  12710  12429  12098  11724  11308  10935  10690  10504  10203  9711  9117  8578  8196  7999  7927  7857  7660  7260  6680  6006  5358  4882  4659  4628  4670  4710  4709  4615  4383  4026  3665  3447  3387  3367  3267  3024  2643  2222  1895  1683  1484  1223  946  763  709  729  758  754  676  497  230  -55  -282  -471  -726  -1076  -1446  -1735  -1888  -1922  -1900  -1868  -1851  -1884  -1993  -2140  -2241  -2268  -2290  -2392  -2583  -2794  -2968  -3099  -3201  -3293  -3386  -3470  -3538  -3595  -3637  -3660  -3674  -3696  -3726  -3740  -3723  -3688  -3659  -3647  -3651  -3676  -3735  -3842  -3998  -4160  -4276  -4336  -4384  -4454  -4528  -4592  -4641  -4676  -4757  -4869  -4867  -4741  -4630  -4597  -4630  -4686  -4715  -4687  -4592  -4450  -4301  -4175  -4087  -4044  -4039  -4062  -4080  -4060  -4003  -3934  -3876  -3846  -3856  -3908  -3950  -3874  -3590  -3115  -2631  -2309  -2101  -1876  -1558  -1137  -764  -767  -1389  -2548  -3922  -5150  -5902  -6035  -5645  -4939  -4195  -3634  -3257  -2978  -2750  -2533  -2333  -2174  -2066  -2020  -2022  -2031  -2029  -2025  -1989  -1872  -1688  -1516  -1397  -1330  -1304  -1279  -1211  -1093  -949  -807  -659  -490  -322  -193  -100  -11  97  230  381  538  692  863  1120  1476  1820  2045  2154  2210  2264  2330  2400  2467  2509  2491  2426  2374  2352  2301  2149  1902  1625  1350  1079  840  638  407  105  -182  -356  -420  -436  -443  -453  -479  -531  -616  -727  -826  -873  -867  -828  -787  -768  -786  -851  -944  -1022  -1067  -1086  -1088  -1086  -1097  -1125  -1139  -1111  -1043  -967  -919  -909  -925  -947  -977  -1026  -1106  -1208  -1293  -1311  -1262  -1220  -1243  -1306  -1385  -1488  -1586  -1631  -1600  -1496  -1350  -1225  -1169  -1184  -1228  -1262  -1284  -1316  -1358  -1390  -1400  -1397  -1396  -1406  -1431  -1466  -1496  -1511  -1496  -1442  -1378  -1320  -1243  -1157  -1107  -1098  -1096  -1068  -1015  -966  -939  -927  -919  -922  -954  -1004  -1050  -1074  -1070  -1044  -1005  -945  -860  -782  -750  -769  -809  -838  -848  -852  -856  -858  -856  -862  -892  -958  -1046  -1122  -1121  -949  -620  -376  -398  -581  -793  -933  -816  -339  405  1198  1740  1702  885  -548  -2131  -3382  -3963  -3825  -3287  -2705  -2164  -1639  -1195  -867  -599  -388  -272  -246  -267  -303  -347  -392  -420  -395  -290  -132  29  188  372  560  700  765  771  760  788  904  1098  1302  1451  1519  1527  1509  1488  1488  1562  1762  2079  2443  2774  2995  3094  3126  3153  3210  3341  3566  3816  3965  3918  3654  3290  3008  2852  2728  2615  2557  2534  2472  2311  2008  1636  1357  1244  1205  1081  770  328  -28  -139  -82  -36  -52  -76  -79  -78  -113  -198  -284  -307  -286  -254  -192  -133  -138  -189  -227  -241  -259  -309  -370  -377  -285  -140  -36  -13  -62  -171  -299  -388  -418  -414  -400  -377  -346  -314  -292  -292  -319  -362  -398  -417  -422  -421  -420  -420  -421  -423  -422  -410  -367  -290  -216  -187  -201  -227  -230  -211  -195  -189  -186  -180  -183  -210  -249  -273  -274  -264  -262  -264  -259  -243  -216  -185  -159  -148  -176  -243  -314  -356  -365  -355  -326  -273  -213  -181  -174  -137  -9  185  331  365  322  224  45  -186  -380  -480  -499  -468  -421  -382  -343  -268  -142  -46  -70  -176  -282  -374  -396  -168  421  1270  2117  2590  2365  1413  3  -1440  -2539  -3189  -3471  -3454  -3218  -2868  -2416  -1791  -1055  -463  -186  -152  -200  -247  -286  -323  -350  -335  -228  -9  246  420  473  462  443  432  423  412  407  437  537  702  864  964  1007  1044  1108  1220  1393  1584  1714  1778  1859  2028  2275  2521  2687  2763  2793  2811  2821  2814  2800  2823  2904  2999  3040  2991  2852  2636  2349  2009  1671  1420  1294  1236  1126  890  590  358  219  86  -76  -225  -334  -418  -500  -590  -655  -676  -680  -679  -634  -499  -305  -152  -95  -106  -140  -188  -256  -317  -334  -326  -342  -380  -426  -498  -590  -660  -683  -668  -635  -607  -591  -581  -567  -525  -426  -293  -191  -149  -142  -145  -166  -232  -352  -492  -600  -645  -637  -617  -610  -612  -616  -617  -605  -567  -502  -435  -394  -396  -440  -508  -561  -581  -584  -587  -593  -594  -586  -567  -537  -504  -479  -462  -458  -464  -467  -464  -458  -453  -454  -461  -463  -455  -447  -432  -349  -135  155  365  396  265  64  -106  -210  -260  -275  -278  -292  -324  -357  -371  -368  -368  -376  -416  -535  -702  -740  -534  -196  104  362  707  1253  1915  2400  2428  1853  712  -728  -2142  -3266  -3855  -3824  -3356  -2728  -2139  -1675  -1312  -979  -639  -308  -35  127  175  159  124  86  49  22  12  15  28  53  94  138  157  149  149  186  252  344  468  609  729  827  906  944  944  988  1174  1492  1798  1974  2047  2104  2173  2249  2373  2600  2873  3051  3051  2891  2666  2480  2349  2230  2117  2039  1992  1946  1864  1714  1461  1095  673  305  70  -50  -128  -221  -353  -489  -570  -595  -614  -653  -691  -698  -700  -739  -783  -781  -725  -649  -587  -544  -499  -465  -487  -588  -718  -776  -713  -560  -405  -340  -386  -495  -609  -687  -720  -725  -719  -706  -677  -625  -583  -618  -754  -923  -1032  -1055  -1026  -974  -906  -828  -753  -692  -648  -618  -595  -568  -548  -563  -629  -717  -781  -819  -862  -909  -937  -921  -850  -744  -643  -567  -514  -483  -470  -467  -468  -483  -529  -598  -658  -672  -640  -593  -558  -526  -457  -332  -182  -75  -37  -38  -44  -49  -65  -113  -190  -277  -355  -438  -531  -606  -629  -587  -505  -412  -326  -260  -246  -301  -387  -416  -308  -6  546  1341  2172  2634  2349  1211  -457  -2098  -3300  -3874  -3847  -3485  -3021  -2458  -1799  -1185  -729  -430  -273  -231  -235  -228  -191  -127  -55  7  60  115  174  249  347  445  509  525  502  479  479  485  493  538  648  819  1020  1199  1316  1371  1423  1546  1784  2098  2368  2503  2525  2509  2511  2560  2649  2748  2840  2927  3001  3042  3024  2929  2774  2608  2477  2387  2279  2033  1601  1127  814  698  658  583  445  273  94  -81  -236  -362  -467  -552  -613  -660  -699  -722  -701  -610  -496  -443  -459  -482  -475  -447  -434  -465  -521  -566  -588  -600  -606  -604  -593  -581  -593  -643  -716  -785  -832  -853  -852  -825  -766  -694  -646  -642  -676  -725  -765  -779  -751  -668  -556  -470  -441  -463  -531  -624  -707  -750  -749  -728  -712  -708  -701  -685  -655  -611  -560  -524  -519  -524  -500  -437  -368  -335  -363  -468  -630  -784  -862  -829  -679  -463  -255  -74  61  95  20  -99  -217  -322  -406  -474  -535  -596  -665  -732  -762  -724  -626  -513  -459  -529  -693  -830  -766  -334  440  1322  2087  2565  2568  1962  799  -656  -2076  -3173  -3750  -3764  -3341  -2721  -2155  -1755  -1485  -1283  -1120  -983  -850  -674  -433  -192  -30  39  55  52  43  26  4  -13  -21  -25  -33  -31  16  137  308  469  587  676  757  850  987  1176  1380  1543  1631  1657  1687  1802  2027  2284  2475  2592  2706  2860  3018  3109  3100  3005  2873  2745  2593  2373  2128  1959  1887  1834  1690  1397  1006  647  417  302  236  169  74  -62  -240  -416  -535  -597  -632  -632  -580  -520  -521  -612  -746  -847  -869  -815  -713  -613  -556  -541  -543  -541  -533  -528  -538  -564  -590  -598  -595  -599  -605  -600  -586  -566  -542  -526  -535  -576  -641  -709  -751  -765  -767  -765  -742  -681  -597  -533  -512  -533  -596  -678  -740  -766  -767  -758  -740  -715  -699  -702  -701  -642  -492  -298  -155  -106  -122  -157  -214  -325  -471  -584  -636  -656  -691  -752  -782  -721  -567  -350  -105  105  229  273  263  185  -9  -298  -555  -683  -703  -675  -630  -579  -556  -607  -744  -871  -852  -664  -377  -99  42  43  70  363  1040  1931  2645  2785  2124  751  -962  -2568  -3638  -3944  -3637  -3058  -2460  -1945  -1477  -1012  -610  -349  -233  -219  -262  -311  -336  -353  -360  -312  -155  98  323  395  349  297  268  242  218  227  326  539  785  941  983  987  1025  1108  1200  1266  1298  1316  1389  1595  1935  2297  2576  2745  2824  2847  2851  2853  2856  2861  2866  2857  2810  2710  2578  2454  2345  2231  2093  1921  1720  1515  1281  925  449  17  -218  -274  -255  -234  -237  -257  -278  -286  -284  -281  -281  -278  -266  -243  -220  -213  -251  -373  -577  -790  -913  -891  -730  -512  -356  -306  -321  -353  -386  -408  -405  -388  -384  -403  -435  -483  -550  -627  -690  -721  -727  -728  -736  -738  -693  -572  -425  -341  -333  -350  -361  -369  -389  -430  -509  -622  -718  -751  -724  -671  -642  -651  -663  -655  -640  -633  -628  -617  -601  -603  -652  -749  -854  -916  -915  -852  -747  -630  -526  -455  -420  -399  -368  -316  -253  -192  -143  -128  -164  -236  -312  -373  -412  -440  -479  -523  -549  -555  -556  -565  -596  -679  -813  -930  -932  -735  -335  116  458  739  1165  1795  2380  2521  1934  655  -892  -2218  -3108  -3556  -3617  -3358  -2815  -2066  -1319  -802  -569  -489  -426  -355  -307  -295  -293  -270  -217  -160  -133  -128  -90  34  213  360  432  455  459  473  515  575  619  632  623  618  646  722  848  1021  1239  1476  1676  1802  1865  1905  1963  2064  2183  2279  2347  2414  2478  2517  2520  2475  2383  2268  2165  2088  2030  1980  1918  1811  1627  1368  1081  816  582  355  152  26  -33  -110  -243  -379  -456  -474  -468  -461  -452  -423  -364  -290  -238  -242  -311  -420  -519  -586  -633  -666  -673  -630  -536  -424  -335  -287  -298  -387  -519  -612  -606  -516  -417  -351  -307  -330  -496  -747  -920  -951  -909  -868  -825  -768  -722  -713  -733  -751  -747  -742  -756  -770  -758  -725  -687  -654  -633  -628  -629  -627  -621  -618  -629  -644  -629  -577  -521  -477  -422  -349  -292  -283  -335  -441  -564  -661  -719  -753  -782  -812  -837  -841  -799  -703  -595  -510  -445  -404  -390  -389  -392  -389  -360  -280  -155  -35  32  46  28  -11  -60  -106  -155  -226  -320  -420  -505  -573  -632  -656  -611  -519  -421  -312  -157  -1  34  -73  -237  -337  -177  376  1199  1983  2430  2287  1411  3  -1474  -2671  -3420  -3656  -3417  -2795  -1978  -1259  -864  -770  -755  -637  -402  -152  29  124  161  173  172  157  133  124  146  178  199  211  231  277  361  486  625  727  774  809  869  949  1025  1073  1100  1156  1295  1491  1670  1807  1935  2071  2207  2343  2471  2555  2583  2588  2596  2601  2580  2528  2475  2447  2443  2444  2437  2400  2280  2015  1626  1224  901  657  463  288  100  -107  -285  -381  -407  -407  -414  -441  -477  -500  -500  -482  -459  -438  -427  -446  -502  -570  -615  -630  -629  -622  -610  -581  -530  -474  -440  -431  -427  -406  -369  -340  -340  -359  -373  -377  -376  -370  -359  -355  -387  -458  -530  -569  -592  -615  -634  -645  -649  -650  -650  -650  -650  -652  -657  -662  -656  -622  -561  -489  -427  -381  -347  -326  -336  -374  -412  -443  -475  -500  -510  -515  -502  -429  -303  -241  -340  -536  -663  -645  -544  -462  -434  -429  -401  -348  -324  -356  -375  -313  -231  -247  -366  -483  -532  -532  -516  -493  -463  -441  -428  -412  -378  -321  -241  -144  -59  -38  -89  -171  -240  -277  -284  -280  -275  -274  -279  -289  -292  -266  -203  -130  -73  -26  34  110  171  199  202  187  151  76  -42  -187  -331  -442  -485  -464  -416  -361  -306  -287  -364  -525  -581  -350  13  160  26  -109  36  587  1448  2229  2496  2075  1020  -389  -1724  -2717  -3296  -3384  -3023  -2448  -1854  -1313  -885  -623  -490  -397  -308  -252  -240  -247  -229  -160  -63  8  39  61  110  196  296  368  402  424  455  500  552  591  614  649  715  790  840  863  922  1093  1352  1580  1706  1751  1765  1785  1847  1983  2202  2457  2665  2784  2840  2858  2831  2751  2626  2497  2410  2380  2392  2406  2344  2121  1741  1319  963  717  571  503  472  422  314  152  -27  -185  -302  -374  -405  -414  -424  -451  -500  -556  -580  -550  -481  -408  -348  -305  -276  -266  -284  -333  -415  -515  -596  -626  -604  -560  -525  -510  -509  -512  -520  -536  -546  -516  -430  -354  -383  -516  -652  -725  -746  -747  -751  -761  -767  -764  -763  -772  -782  -771  -731  -679  -638  -616  -609  -609  -601  -587  -587  -608  -633  -647  -651  -641  -611  -573  -556  -565  -567  -537  -495  -477  -493  -521  -540  -549  -557  -566  -570  -565  -539  -478  -394  -351  -382  -435  -463  -489  -529  -555  -534  -477  -422  -402  -419  -447  -468  -481  -492  -508  -536  -585  -642  -662  -612  -526  -477  -491  -512  -488  -429  -382  -366  -364  -358  -349  -357  -398  -456  -487  -470  -419  -356  -297  -259  -253  -265  -279  -280  -254  -182  -70  43  120  146  133  100  59  6  -81  -224  -381  -461  -418  -307  -213  -170  -183  -278  -485  -768  -959  -869  -545  -254  -127  -29  233  782  1600  2473  2973  2649  1412  -348  -2064  -3285  -3776  -3596  -3047  -2420  -1828  -1320  -965  -785  -716  -680  -640  -574  -448  -258  -48  120  212  255  313  407  501  553  555  528  499  488  505  550  606  664  733  814  887  954  1050  1204  1385  1525  1596  1623  1649  1716  1847  2014  2159  2283  2433  2616  2778  2877  2922  2942  2952  2941  2888  2788  2657  2505  2321  2107  1878  1631  1372  1137  963  863  810  747  638  490  323  136  -58  -222  -319  -347  -339  -323  -304  -297  -325  -377  -421  -440  -445  -448  -449  -429  -370  -289  -236  -244  -292  -324  -306  -266  -237  -218  -202  -203  -247  -342  -483  -642  -769  -832  -837  -805  -744  -648  -519  -398  -336  -344  -398  -461  -501  -523  -553  -594  -628  -651  -681  -717  -741  -731  -676  -598  -536  -505  -490  -481  -478  -488  -513  -538  -533  -486  -431  -410  -441  -502  -539  -536  -529  -528  -500  -441  -374  -318  -282  -273  -314  -427  -584  -706  -740  -667  -494  -288  -143  -84  -74  -89  -143  -243  -347  -420  -470  -510  -518  -468  -373  -283  -233  -226  -261  -340  -423  -434  -358  -295  -328  -410  -461  -473  -470  -460  -429  -370  -299  -239  -185  -135  -113  -135  -178  -194  -152  -47  117  308  461  531  491  316  29  -273  -499  -614  -634  -583  -466  -322  -217  -191  -234  -303  -302  -187  -101  -184  -384  -550  -422  241  1240  2119  2607  2475  1564  166  -1232  -2372  -3047  -3104  -2742  -2282  -1820  -1376  -1037  -804  -570  -322  -145  -80  -83  -105  -123  -130  -115  -63  13  106  217  333  408  426  426  446  463  447  403  355  322  317  345  422  570  762  904  961  1029  1231  1563  1897  2119  2210  2214  2174  2115  2070  2068  2091  2113  2135  2170  2219  2274  2313  2297  2182  1977  1761  1621  1563  1512  1389  1194  989  812  639  415  116  -185  -376  -438  -442  -448  -481  -536  -571  -536  -429  -301  -212  -194  -252  -345  -414  -439  -438  -429  -412  -387  -367  -361  -367  -366  -329  -237  -119  -55  -96  -240  -443  -639  -765  -809  -799  -747  -662  -565  -487  -444  -427  -404  -364  -351  -400  -471  -510  -515  -508  -501  -498  -504  -524  -544  -550  -543  -532  -524  -503  -459  -397  -315  -219  -143  -109  -100  -94  -85  -100  -191  -375  -575  -674  -630  -517  -428  -387  -362  -330  -300  -281  -266  -241  -190  -111  -53  -77  -164  -228  -230  -199  -180  -226  -336  -433  -461  -449  -448  -469  -485  -475  -452  -423  -382  -350  -362  -382  -350  -270  -199  -170  -173  -185  -206  -251  -318  -384  -431  -454  -460  -457  -449  -439  -430  -415  -381  -319  -235  -156  -98  -48  -14  -23  -72  -121  -148  -156  -152  -143  -145  -174  -217  -246  -276  -372  -529  -570  -375  -110  -4  -78  -180  -80  374  1092  1751  1967  1504  469  -725  -1730  -2456  -2902  -3046  -2941  -2652  -2148  -1478  -887  -555  -435  -409  -413  -427  -434  -408  -320  -187  -59  43  120  149  100  6  -42  22  183  376  546  663  720  731  731  764  852  965  1048  1076  1062  1019  960  916  936  1069  1316  1614  1875  2056  2187  2307  2400  2452  2506  2585  2667  2731  2772  2752  2638  2447  2214  1968  1735  1521  1324  1158  1034  938  840  710  550  393  251  129  46  9  -5  -25  -90  -237  -423  -549  -596  -613  -614  -589  -558  -560  -594  -614  -585  -533  -493  -463  -437  -423  -423  -425  -421  -417  -430  -466  -502  -516  -515  -520  -542  -554  -525  -464  -404  -360  -330  -330  -363  -388  -360  -295  -239  -224  -262  -347  -482  -652  -794  -848  -806  -691  -551  -432  -346  -303  -331  -418  -495  -496  -408  -277  -175  -128  -131  -196  -339  -527  -686  -781  -821  -796  -670  -465  -276  -175  -147  -150  -181  -253  -353  -431  -463  -463  -450  -427  -388  -329  -273  -264  -334  -486  -671  -792  -770  -593  -349  -173  -126  -164  -227  -283  -332  -383  -435  -471  -478  -450  -400  -355  -311  -238  -144  -55  22  86  120  112  72  35  20  20  18  1  -29  -61  -104  -188  -297  -387  -439  -464  -476  -481  -455  -363  -198  21  264  439  539  707  1015  1400  1717  1645  889  -399  -1797  -2944  -3526  -3415  -2862  -2209  -1614  -1116  -713  -385  -139  -8  7  -45  -123  -204  -249  -223  -132  -19  62  109  174  299  457  557  524  396  297  298  367  461  583  729  853  922  954  979  1024  1105  1204  1305  1434  1623  1843  2039  2193  2314  2411  2486  2539  2567  2572  2549  2495  2436  2406  2403  2403  2385  2345  2289  2200  2027  1757  1460  1173  845  473  171  17  -27  -38  -64  -123  -206  -279  -314  -320  -329  -367  -432  -498  -548  -580  -596  -603  -610  -619  -625  -623  -612  -587  -545  -500  -474  -475  -492  -515  -538  -558  -584  -598  -544  -378  -165  -62  -163  -402  -614  -710  -716  -647  -540  -485  -488  -497  -498  -500  -505  -511  -524  -560  -614  -667  -719  -764  -787  -770  -689  -551  -416  -340  -326  -340  -364  -397  -432  -456  -463  -459  -453  -457  -477  -507  -533  -544  -542  -534  -522  -497  -465  -442  -438  -441  -435  -407  -358  -308  -273  -266  -288  -342  -413  -476  -522  -555  -576  -584  -586  -591  -598  -592  -535  -395  -180  43  191  216  153  59  -52  -178  -273  -304  -301  -331  -430  -570  -711  -824  -877  -827  -662  -448  -240  5  306  594  862  1203  1585  1777  1561  825  -407  -1787  -2858  -3494  -3688  -3422  -2896  -2286  -1615  -1011  -595  -343  -207  -161  -167  -189  -203  -192  -166  -159  -163  -136  -59  56  184  294  358  376  373  365  343  304  277  306  431  667  953  1174  1280  1320  1351  1396  1470  1588  1734  1859  1927  1949  1967  2033  2163  2312  2423  2507  2608  2720  2777  2741  2648  2561  2506  2468  2421  2355  2251  2068  1803  1503  1166  722  208  -215  -463  -582  -629  -614  -535  -397  -252  -187  -225  -294  -319  -305  -294  -308  -328  -326  -313  -318  -366  -459  -558  -599  -575  -529  -483  -432  -372  -312  -270  -250  -241  -242  -263  -307  -363  -419  -471  -524  -573  -615  -663  -708  -728  -727  -716  -696  -653  -575  -482  -413  -386  -392  -411  -434  -461  -488  -507  -519  -559  -643  -740  -804  -806  -752  -672  -588  -500  -423  -376  -361  -372  -399  -443  -503  -551  -551  -512  -486  -499  -520  -504  -461  -440  -459  -478  -454  -388  -312  -273  -320  -454  -591  -653  -633  -551  -424  -261  -52  170  336  400  339  154  -81  -245  -293  -276  -257  -278  -361  -480  -574  -615  -621  -628  -652  -631  -478  -201  120  415  721  1138  1618  2006  2141  1709  519  -1088  -2582  -3645  -4071  -3819  -3181  -2481  -1846  -1330  -958  -691  -477  -276  -86  43  84  66  40  36  50  70  84  101  138  198  265  314  351  394  438  474  507  538  575  644  760  906  1042  1123  1142  1142  1205  1395  1675  1930  2089  2172  2232  2291  2330  2350  2414  2589  2835  3030  3110  3102  3032  2898  2699  2455  2222  2047  1905  1729  1468  1120  771  529  395  290  184  114  89  55  -45  -203  -350  -449  -499  -514  -525  -552  -590  -633  -680  -720  -745  -755  -747  -717  -681  -687  -736  -775  -781  -771  -753  -714  -650  -565  -481  -440  -458  -514  -581  -638  -683  -743  -820  -890  -939  -969  -985  -982  -942  -832  -650  -456  -326  -287  -339  -481  -668  -818  -884  -897  -906  -944  -1007  -1059  -1078  -1065  -1033  -998  -973  -947  -908  -853  -792  -745  -718  -704  -680  -625  -547  -481  -447  -440  -448  -475  -528  -591  -629  -631  -616  -604  -591  -565  -529  -498  -472  -429  -344  -221  -94  -9  23  35  55  71  51  -9  -70  -92  -91  -115  -194  -316  -454  -570  -622  -633  -637  -603  -538  -499  -472  -410  -321  -215  -107  0  281  930  1848  2694  3068  2632  1360  -369  -2035  -3219  -3729  -3648  -3201  -2606  -2031  -1546  -1158  -899  -772  -703  -589  -390  -166  -6  56  59  44  32  28  48  119  225  312  358  394  453  557  698  817  862  839  784  758  801  901  1034  1183  1312  1401  1474  1570  1721  1937  2162  2308  2356  2380  2455  2587  2724  2823  2876  2897  2898  2869  2787  2663  2521  2328  2032  1661  1321  1092  976  936  933  912  795  536  210  -32  -131  -142  -136  -149  -177  -194  -209  -251  -306  -335  -339  -338  -343  -354  -376  -418  -473  -510  -498  -430  -348  -304  -285  -240  -178  -143  -163  -249  -380  -508  -597  -627  -594  -508  -391  -287  -256  -325  -447  -540  -582  -602  -616  -618  -597  -565  -546  -553  -578  -612  -648  -673  -684  -689  -698  -702  -684  -634  -574  -540  -544  -569  -612  -681  -734  -722  -653  -580  -537  -514  -474  -408  -343  -328  -383  -475  -543  -563  -557  -555  -578  -616  -624  -579  -516  -467  -416  -333  -226  -129  -65  -34  -46  -83  -112  -125  -139  -182  -256  -328  -370  -396  -443  -509  -531  -475  -423  -462  -571  -702  -824  -831  -600  -200  191  563  1045  1693  2346  2669  2316  1189  -415  -1995  -3113  -3581  -3492  -3067  -2519  -1944  -1374  -937  -731  -687  -681  -637  -555  -484  -456  -450  -406  -264  -30  208  362  393  328  241  184  143  104  88  140  295  499  641  682  684  718  823  989  1166  1310  1432  1572  1723  1834  1906  1992  2101  2183  2222  2268  2355  2468  2573  2662  2730  2745  2674  2535  2380  2245  2149  2085  1965  1670  1230  827  570  407  257  112  2  -73  -142  -223  -312  -383  -406  -378  -333  -306  -303  -307  -307  -293  -260  -208  -158  -152  -193  -239  -261  -262  -268  -310  -388  -454  -475  -483  -496  -497  -482  -465  -458  -463  -480  -503  -523  -533  -535  -541  -564  -606  -655  -700  -731  -738  -725  -707  -698  -701  -702  -688  -659  -628  -609  -608  -615  -624  -628  -609  -546  -456  -392  -415  -548  -736  -880  -940  -944  -901  -788  -616  -446  -335  -296  -317  -366  -417  -463  -500  -524  -534  -534  -517  -474  -421  -403  -448  -530  -594  -617  -608  -574  -517  -430  -305  -155  -18  81  146  182  179  105  -54  -242  -372  -420  -427  -430  -429  -416  -400  -390  -380  -365  -346  -335  -323  -270  -148  12  184  452  925  1569  2156  2332  1844  735  -727  -2160  -3152  -3504  -3324  -2790  -2080  -1457  -1076  -864  -694  -517  -358  -245  -166  -103  -61  -44  -42  -36  -11  49  156  301  440  523  540  519  487  457  433  431  466  523  571  605  651  725  796  846  911  1042  1264  1552  1812  1994  2148  2325  2492  2570  2541  2462  2396  2362  2347  2343  2352  2373  2380  2332  2201  2029  1893  1800  1664  1420  1096  783  573  477  419  320  168  0  -149  -259  -320  -336  -322  -307  -321  -377  -459  -534  -573  -571  -541  -501  -468  -448  -441  -437  -420  -375  -312  -260  -229  -218  -238  -266  -261  -233  -224  -239  -257  -262  -260  -256  -259  -278  -322  -399  -503  -599  -651  -663  -664  -672  -672  -639  -599  -605  -646  -667  -634  -547  -431  -336  -294  -304  -352  -436  -542  -640  -713  -742  -711  -633  -526  -415  -337  -308  -309  -318  -327  -343  -368  -402  -446  -494  -536  -571  -600  -616  -614  -594  -559  -520  -486  -465  -464  -473  -466  -417  -326  -224  -136  -78  -105  -237  -400  -524  -586  -580  -492  -326  -145  -23  25  30  24  19  19  25  35  37  0  -105  -256  -391  -484  -559  -621  -662  -698  -696  -557  -306  -99  41  258  705  1447  2235  2542  1990  603  -1168  -2625  -3346  -3420  -3147  -2759  -2359  -1910  -1357  -827  -513  -421  -407  -347  -224  -93  4  79  155  229  290  343  392  436  457  455  448  444  425  378  331  330  382  446  501  590  762  1000  1242  1443  1581  1659  1714  1784  1868  1941  1986  2008  2022  2058  2162  2362  2601  2773  2841  2847  2835  2812  2766  2676  2512  2277  2031  1816  1613  1400  1188  1005  879  805  713  512  213  -70  -250  -335  -368  -373  -358  -349  -361  -382  -398  -409  -419  -439  -466  -489  -501  -508  -511  -519  -538  -568  -602  -619  -611  -580  -531  -472  -413  -351  -290  -249  -232  -220  -204  -187  -180  -214  -336  -535  -691  -713  -655  -607  -589  -591  -608  -620  -614  -598  -583  -570  -558  -551  -549  -547  -532  -491  -424  -359  -327  -334  -352  -360  -357  -354  -351  -349  -345  -338  -338  -366  -427  -480  -480  -438  -408  -412  -432  -449  -464  -487  -516  -543  -559  -561  -549  -523  -481  -432  -397  -398  -442  -517  -581  -588  -519  -411  -326  -289  -291  -331  -413  -514  -595  -642  -664  -659  -604  -508  -444  -416  -341  -221  -136  -109  -110  -111  -104  -90  -76  -64  -56  -62  -97  -166  -261  -352  -407  -416  -394  -364  -342  -332  -332  -339  -347  -368  -444  -550  -540  -349  -102  110  397  907  1576  2102  2192  1682  558  -902  -2247  -3188  -3612  -3513  -3101  -2632  -2107  -1431  -747  -316  -175  -174  -194  -203  -208  -206  -182  -128  -64  -6  37  39  -10  -76  -123  -137  -87  74  331  568  686  707  741  860  1035  1174  1235  1247  1249  1261  1270  1263  1249  1279  1434  1739  2092  2353  2478  2509  2503  2507  2565  2691  2836  2908  2870  2776  2709  2674  2587  2368  2055  1782  1635  1572  1491  1310  1011  647  317  100  -23  -141  -312  -501  -618  -624  -570  -532  -525  -505  -458  -433  -455  -492  -513  -519  -529  -562  -615  -674  -726  -743  -697  -605  -538  -555  -634  -697  -695  -647  -600  -581  -577  -581  -601  -625  -622  -582  -523  -479  -456  -442  -435  -448  -476  -488  -468  -454  -482  -537  -580  -595  -601  -609  -612  -604  -598  -608  -621  -611  -557  -444  -272  -95  -18  -104  -301  -493  -608  -647  -646  -627  -597  -558  -512  -472  -460  -458  -434  -402  -405  -460  -527  -545  -495  -412  -339  -302  -296  -302  -307  -308  -311  -314  -311  -288  -249  -225  -243  -288  -337  -370  -377  -372  -386  -432  -466  -439  -372  -308  -261  -232  -216  -195  -165  -148  -172  -230  -293  -334  -345  -329  -289  -218  -132  -69  -50  -60  -80  -92  -81  -49  -1  49  89  105  96  54  -23  -127  -223  -281  -301  -299  -281  -246  -209  -204  -258  -357  -448  -516  -573  -517  -258  151  668  1316  2019  2542  2623  2067  882  -578  -1838  -2637  -2948  -2904  -2676  -2339  -1885  -1330  -791  -423  -271  -240  -240  -242  -243  -229  -189  -133  -80  -31  18  52  60  61  66  62  50  64  149  286  409  505  611  745  883  981  1022  1036  1065  1159  1337  1548  1720  1851  1979  2099  2179  2217  2254  2333  2458  2600  2723  2809  2864  2911  2951  2925  2752  2418  2040  1774  1678  1678  1647  1508  1302  1136  1023  864  578  195  -169  -406  -501  -528  -570  -642  -703  -719  -695  -644  -588  -553  -552  -576  -604  -633  -673  -721  -761  -769  -724  -613  -447  -272  -156  -142  -234  -404  -578  -688  -727  -722  -692  -632  -556  -516  -520  -488  -380  -262  -194  -173  -174  -173  -157  -132  -134  -206  -351  -525  -680  -789  -839  -828  -771  -704  -653  -621  -597  -561  -486  -374  -273  -227  -223  -246  -296  -360  -414  -438  -418  -365  -326  -326  -343  -353  -351  -347  -362  -424  -550  -692  -750  -685  -545  -404  -303  -236  -180  -147  -158  -217  -295  -330  -290  -225  -215  -293  -431  -570  -670  -723  -730  -687  -584  -442  -319  -256  -246  -253  -252  -241  -234  -241  -254  -264  -278  -312  -367  -423  -458  -472  -462  -423  -375  -343  -319  -291  -261  -241  -235  -234  -232  -222  -179  -69  89  231  312  343  343  272  80  -182  -396  -512  -547  -524  -469  -419  -400  -406  -406  -383  -357  -362  -433  -538  -544  -361  -62  301  835  1553  2220  2536  2254  1259  -241  -1779  -2952  -3553  -3556  -3139  -2541  -1819  -1038  -480  -304  -356  -442  -504  -562  -596  -509  -224  159  425  488  430  336  251  200  185  188  194  207  235  283  353  448  577  720  823  859  844  807  781  857  1136  1573  1961  2151  2181  2157  2136  2130  2146  2185  2237  2288  2371  2538  2755  2888  2863  2743  2640  2601  2601  2579  2474  2248  1905  1503  1161  966  870  767  634  514  404  252  44  -163  -306  -378  -416  -441  -451  -453  -454  -454  -446  -422  -388  -363  -358  -369  -387  -405  -422  -436  -434  -390  -285  -150  -51  -14  -15  -51  -138  -259  -358  -406  -422  -433  -433  -419  -406  -410  -431  -454  -468  -477  -496  -524  -543  -536  -513  -499  -510  -542  -582  -612  -624  -613  -574  -525  -490  -474  -460  -428  -369  -289  -218  -178  -182  -237  -342  -455  -532  -568  -589  -608  -605  -572  -544  -549  -564  -566  -566  -587  -625  -637  -576  -454  -330  -276  -314  -387  -445  -492  -540  -580  -593  -551  -420  -207  -14  39  -50  -196  -346  -488  -596  -634  -600  -526  -454  -405  -379  -369  -367  -369  -373  -375  -360  -318  -268  -246  -269  -318  -366  -394  -402  -403  -407  -407  -395  -366  -326  -287  -256  -236  -217  -188  -153  -131  -128  -139  -144  -104  11  170  290  322  258  112  -62  -199  -267  -277  -256  -242  -257  -285  -289  -260  -235  -253  -310  -386  -454  -446  -307  -64  198  390  537  782  1225  1780  2078  1648  429  -1118  -2457  -3266  -3445  -3149  -2675  -2162  -1568  -982  -616  -505  -494  -455  -376  -314  -289  -255  -159  -23  78  113  111  102  92  71  45  54  156  363  612  811  920  960  969  970  969  966  966  981  1024  1085  1145  1203  1263  1334  1466  1722  2094  2461  2688  2759  2756  2741  2732  2742  2773  2814  2847  2867  2879  2870  2803  2622  2291  1866  1493  1261  1136  1037  895  708  532  399  286  164  36  -95  -244  -388  -488  -518  -494  -451  -425  -424  -429  -429  -435  -461  -501  -540  -574  -602  -600  -547  -473  -409  -348  -293  -251  -220  -207  -237  -310  -402  -487  -539  -548  -524  -476  -411  -379  -423  -511  -581  -601  -579  -545  -513  -479  -453  -460  -506  -572  -628  -660  -672  -675  -681  -694  -701  -684  -648  -622  -624  -645  -657  -646  -618  -593  -573  -539  -462  -334  -203  -122  -103  -134  -208  -302  -395  -494  -602  -677  -676  -582  -427  -283  -201  -168  -165  -204  -298  -420  -522  -576  -580  -540  -478  -427  -403  -398  -399  -406  -430  -471  -518  -554  -582  -615  -655  -690  -698  -657  -563  -471  -431  -438  -468  -482  -456  -423  -423  -440  -455  -470  -486  -496  -507  -522  -513  -433  -286  -143  -55  -12  2  -22  -119  -274  -420  -497  -490  -395  -214  22  232  298  159  -86  -276  -349  -363  -369  -357  -315  -264  -241  -256  -278  -292  -328  -410  -461  -398  -262  -70  309  928  1613  2157  2375  2055  1171  -8  -1184  -2186  -2843  -3044  -2900  -2549  -1987  -1330  -879  -737  -740  -721  -640  -536  -448  -362  -256  -138  -50  -11  -9  -23  -24  23  144  307  440  500  504  513  563  647  731  781  798  798  791  771  740  740  852  1117  1473  1810  2048  2165  2198  2229  2322  2479  2637  2735  2771  2787  2803  2802  2767  2706  2631  2547  2461  2367  2249  2110  1950  1742  1464  1160  908  728  553  349  157  -4  -155  -287  -377  -426  -446  -450  -450  -466  -509  -571  -631  -674  -695  -684  -615  -480  -325  -214  -174  -223  -368  -552  -682  -727  -727  -717  -682  -605  -519  -462  -433  -434  -460  -481  -471  -421  -349  -288  -253  -240  -240  -255  -295  -372  -485  -600  -672  -690  -680  -671  -671  -670  -654  -624  -588  -564  -557  -561  -573  -585  -593  -592  -590  -601  -635  -675  -694  -671  -597  -494  -402  -344  -326  -336  -349  -357  -360  -358  -342  -301  -221  -117  -60  -134  -345  -615  -815  -847  -730  -556  -401  -301  -269  -283  -311  -335  -360  -379  -371  -324  -256  -202  -176  -175  -206  -266  -353  -454  -513  -495  -438  -384  -354  -349  -355  -341  -284  -204  -158  -174  -214  -227  -197  -140  -81  -33  5  53  129  231  324  344  243  63  -90  -174  -227  -291  -353  -367  -312  -217  -131  -86  -103  -208  -405  -612  -745  -801  -742  -520  -144  426  1204  2004  2542  2612  2082  953  -447  -1681  -2521  -2898  -2885  -2724  -2548  -2261  -1814  -1295  -796  -402  -181  -110  -103  -105  -102  -88  -62  -30  -3  28  77  147  233  311  348  351  373  441  510  541  548  573  629  692  750  821  897  971  1067  1183  1287  1380  1501  1649  1773  1859  1955  2128  2387  2653  2814  2826  2721  2564  2438  2382  2379  2391  2387  2324  2178  1974  1754  1521  1279  1059  895  815  808  809  727  498  162  -175  -445  -625  -708  -722  -712  -707  -704  -686  -641  -580  -524  -483  -468  -487  -517  -538  -550  -559  -567  -572  -567  -547  -510  -459  -409  -384  -388  -410  -450  -499  -543  -580  -613  -639  -647  -631  -588  -531  -491  -478  -477  -476  -475  -496  -550  -598  -572  -477  -387  -351  -349  -356  -369  -394  -428  -454  -472  -486  -490  -475  -450  -439  -460  -506  -553  -585  -594  -590  -585  -581  -570  -545  -517  -509  -537  -570  -540  -425  -298  -247  -286  -372  -463  -540  -589  -607  -595  -550  -478  -401  -356  -358  -398  -441  -449  -419  -370  -309  -245  -202  -184  -177  -173  -200  -299  -457  -600  -664  -651  -599  -519  -389  -216  -59  25  8  -100  -240  -339  -355  -308  -234  -141  -21  101  182  211  215  211  197  162  98  -7  -158  -325  -458  -527  -542  -529  -498  -448  -394  -392  -488  -591  -547  -366  -73  414  1086  1808  2421  2690  2360  1345  -167  -1756  -2976  -3605  -3656  -3280  -2710  -2121  -1536  -973  -532  -268  -128  -49  -13  -10  -17  0  65  159  228  239  194  122  58  25  33  95  211  351  468  535  565  602  668  740  798  853  893  916  985  1166  1406  1572  1612  1591  1620  1780  2053  2345  2577  2732  2836  2918  2983  3042  3114  3177  3180  3103  2975  2819  2621  2387  2183  2031  1858  1605  1304  1015  766  555  396  306  266  209  58  -185  -416  -543  -581  -590  -591  -568  -505  -430  -390  -396  -416  -424  -424  -433  -460  -492  -491  -434  -347  -281  -255  -255  -276  -331  -406  -471  -509  -527  -527  -502  -451  -394  -357  -347  -358  -387  -424  -453  -472  -495  -535  -587  -613  -585  -538  -511  -508  -508  -499  -482  -464  -437  -389  -323  -270  -267  -321  -400  -476  -539  -582  -605  -610  -610  -611  -610  -594  -552  -491  -429  -371  -320  -286  -281  -313  -368  -423  -464  -487  -491  -490  -500  -513  -506  -475  -446  -447  -463  -466  -442  -394  -348  -341  -376  -428  -450  -414  -341  -273  -226  -191  -159  -153  -205  -329  -494  -622  -667  -650  -608  -559  -511  -471  -444  -421  -381  -319  -261  -232  -200  -100  60  207  264  206  63  -116  -299  -441  -513  -533  -529  -508  -471  -414  -339  -273  -236  -205  -159  -118  -165  -379  -645  -688  -364  248  942  1550  2052  2372  2231  1389  -26  -1552  -2779  -3477  -3551  -3215  -2754  -2172  -1505  -1015  -785  -601  -320  -23  169  226  200  170  160  142  115  88  59  36  26  23  17  3  -12  3  121  368  652  834  881  862  838  826  832  866  937  1044  1175  1329  1500  1681  1872  2063  2226  2356  2468  2569  2651  2711  2733  2719  2719  2757  2805  2832  2827  2804  2775  2701  2492  2111  1645  1244  975  795  630  466  339  255  179  79  -60  -233  -390  -487  -525  -531  -515  -470  -410  -394  -433  -454  -413  -361  -353  -387  -415  -403  -375  -376  -418  -480  -526  -544  -541  -535  -553  -614  -701  -771  -797  -771  -686  -562  -457  -409  -410  -433  -465  -506  -555  -605  -645  -667  -668  -656  -650  -663  -682  -689  -679  -654  -624  -604  -599  -602  -606  -611  -614  -596  -546  -484  -448  -451  -485  -541  -593  -616  -621  -637  -661  -646  -559  -452  -407  -430  -480  -517  -533  -549  -582  -620  -641  -647  -649  -650  -627  -547  -422  -353  -413  -537  -634  -693  -717  -696  -625  -529  -443  -383  -335  -295  -291  -330  -356  -327  -287  -289  -318  -337  -345  -363  -402  -450  -484  -498  -500  -489  -448  -367  -241  -71  113  268  357  375  356  328  281  200  95  -13  -138  -294  -448  -544  -571  -565  -550  -527  -505  -523  -595  -633  -537  -299  48  402  654  935  1444  2067  2480  2353  1452  -54  -1629  -2823  -3450  -3515  -3171  -2603  -1907  -1197  -677  -421  -310  -243  -200  -176  -159  -136  -108  -89  -90  -110  -136  -147  -106  14  187  327  387  399  399  366  290  255  345  522  672  760  823  887  963  1078  1223  1378  1560  1762  1925  2036  2142  2269  2415  2574  2718  2802  2824  2815  2801  2793  2797  2817  2852  2875  2845  2719  2486  2174  1841  1551  1316  1095  845  556  294  134  65  18  -43  -107  -163  -233  -331  -436  -521  -571  -589  -590  -588  -589  -596  -601  -578  -504  -397  -312  -282  -287  -301  -318  -341  -372  -404  -430  -436  -418  -386  -356  -340  -336  -350  -392  -435  -414  -314  -216  -191  -251  -364  -478  -547  -565  -558  -552  -557  -575  -599  -618  -625  -615  -586  -548  -520  -508  -508  -516  -540  -568  -558  -491  -412  -383  -438  -548  -643  -676  -650  -586  -525  -497  -502  -521  -537  -544  -548  -560  -571  -542  -449  -331  -257  -251  -285  -323  -352  -378  -402  -429  -487  -585  -649  -566  -359  -180  -110  -110  -125  -146  -191  -265  -336  -365  -339  -260  -163  -90  -62  -79  -129  -199  -268  -318  -341  -346  -344  -346  -361  -415  -512  -592  -575  -438  -242  -83  -11  -30  -130  -270  -380  -421  -406  -365  -311  -244  -180  -141  -119  -73  16  120  189  203  178  141  105  73  50  28  -24  -115  -175  -181  -228  -355  -483  -551  -586  -640  -711  -678  -430  -67  172  189  161  377  983  1911  2791  3009  2239  691  -1096  -2526  -3290  -3450  -3202  -2746  -2242  -1760  -1341  -1001  -725  -522  -401  -326  -252  -156  -43  57  114  126  136  184  272  369  441  456  400  312  236  181  161  198  290  402  489  546  635  797  987  1141  1234  1283  1344  1473  1667  1862  2006  2104  2201  2337  2502  2666  2837  3016  3142  3169  3088  2915  2720  2578  2490  2422  2356  2293  2230  2118  1896  1568  1208  903  712  614  533  407  238  75  -56  -190  -346  -486  -561  -573  -556  -539  -530  -522  -506  -482  -469  -484  -526  -557  -562  -625  -791  -929  -912  -770  -597  -468  -412  -407  -423  -443  -463  -474  -476  -473  -468  -446  -389  -329  -337  -436  -554  -591  -526  -439  -370  -281  -181  -118  -123  -225  -395  -537  -594  -591  -570  -549  -520  -462  -371  -282  -251  -317  -451  -579  -670  -731  -757  -745  -705  -629  -508  -382  -293  -249  -231  -224  -220  -219  -234  -278  -340  -388  -404  -388  -342  -284  -243  -223  -208  -190  -179  -185  -201  -216  -234  -260  -288  -314  -351  -403  -459  -511  -555  -589  -617  -642  -643  -576  -431  -292  -244  -268  -301  -333  -377  -423  -451  -462  -467  -465  -453  -431  -416  -412  -413  -408  -390  -351  -311  -298  -314  -335  -351  -364  -379  -407  -444  -473  -462  -398  -307  -240  -212  -205  -204  -202  -191  -167  -136  -110  -98  -85  -61  -34  -10  27  78  116  109  52  -22  -81  -118  -139  -144  -137  -123  -109  -98  -104  -158  -254  -343  -405  -439  -387  -180  111  300  345  416  663  1126  1743  2183  1998  1068  -273  -1603  -2665  -3274  -3375  -3121  -2619  -1926  -1240  -753  -475  -317  -201  -87  12  70  81  71  60  51  46  47  59  88  146  248  372  469  515  528  526  518  516  567  716  898  988  974  939  931  953  1003  1099  1264  1467  1640  1762  1870  2005  2188  2412  2637  2823  2949  3011  3025  3024  3027  3029  3002  2917  2779  2602  2371  2110  1893  1734  1574  1383  1180  977  767  553  359  207  98  19  -63  -198  -376  -519  -587  -605  -612  -620  -631  -637  -629  -604  -566  -520  -466  -409  -359  -327  -327  -369  -432  -481  -508  -527  -532  -479  -344  -190  -152  -285  -487  -637  -705  -694  -624  -548  -483  -404  -319  -260  -246  -290  -381  -461  -492  -481  -446  -406  -380  -369  -366  -366  -373  -383  -374  -336  -324  -405  -550  -672  -708  -656  -569  -503  -468  -443  -407  -363  -328  -312  -310  -317  -329  -341  -347  -356  -379  -404  -415  -415  -424  -475  -579  -678  -683  -597  -506  -447  -391  -338  -329  -390  -493  -538  -403  -126  112  210  207  149  47  -79  -180  -222  -221  -205  -195  -223  -313  -436  -515  -494  -386  -258  -175  -153  -164  -184  -204  -218  -231  -242  -244  -231  -202  -161  -131  -130  -145  -151  -146  -146  -175  -243  -339  -430  -479  -476  -431  -355  -253  -149  -73  -33  -13  6  14  -16  -89  -182  -266  -315  -321  -297  -258  -215  -161  -71  50  165  244  285  297  288  250  177  82  -6  -71  -107  -133  -181  -277  -410  -531  -604  -618  -565  -460  -342  -240  -185  -145  97  747  1725  2703  3271  3066  1999  432  -1098  -2304  -3116  -3472  -3392  -2992  -2369  -1660  -1070  -725  -573  -488  -402  -316  -251  -225  -232  -245  -242  -229  -206  -139  -3  159  269  302  296  284  275  264  263  311  436  603  727  779  796  809  835  901  1031  1218  1420  1584  1703  1818  1945  2065  2165  2251  2355  2516  2713  2869  2958  3002  3014  2985  2924  2857  2800  2758  2741  2720  2598  2295  1873  1482  1183  914  652  454  352  295  206  62  -100  -247  -366  -446  -481  -483  -468  -442  -422  -430  -475  -542  -592  -580  -484  -355  -259  -216  -212  -243  -311  -396  -457  -465  -425  -359  -293  -245  -219  -209  -204  -203  -216  -248  -287  -334  -404  -485  -541  -557  -547  -535  -529  -508  -450  -364  -299  -312  -426  -591  -710  -733  -688  -598  -457  -293  -181  -167  -246  -376  -513  -629  -699  -688  -592  -474  -403  -395  -413  -421  -419  -420  -431  -452  -479  -490  -465  -420  -373  -318  -271  -272  -325  -397  -449  -470  -475  -470  -451  -411  -358  -308  -270  -248  -248  -292  -390  -513  -592  -580  -470  -312  -192  -153  -176  -226  -283  -332  -362  -370  -360  -334  -301  -266  -219  -143  -67  -45  -109  -225  -326  -378  -387  -372  -350  -334  -325  -324  -338  -381  -447  -504  -522  -482  -404  -355  -378  -434  -471  -481  -482  -483  -472  -424  -333  -232  -170  -163  -193  -229  -259  -286  -305  -295  -247  -170  -89  -32  -8  -7  -15  -35  -90  -194  -308  -372  -374  -348  -328  -326  -335  -339  -326  -290  -242  -233  -299  -361  -373  -419  -433  -157  506  1386  2201  2607  2314  1301  -130  -1557  -2678  -3356  -3532  -3269  -2748  -2141  -1572  -1154  -934  -854  -804  -693  -534  -411  -363  -356  -359  -365  -363  -320  -201  -13  161  224  188  158  172  189  181  163  162  168  177  227  328  425  491  546  606  674  774  950  1197  1437  1612  1755  1932  2137  2298  2385  2426  2452  2479  2507  2517  2487  2430  2381  2367  2373  2342  2224  2024  1795  1563  1340  1168  1071  987  784  409  -16  -309  -418  -424  -428  -496  -636  -813  -979  -1084  -1103  -1071  -1033  -1003  -971  -936  -914  -909  -916  -918  -892  -818  -727  -683  -703  -730  -721  -710  -731  -776  -821  -851  -874  -907  -932  -920  -879  -842  -831  -851  -889  -925  -955  -970  -945  -863  -747  -657  -618  -617  -639  -683  -734  -771  -788  -792  -793  -796  -804  -824  -857  -887  -898  -901  -899  -878  -821  -744  -680  -654  -667  -697  -722  -736  -744  -746  -739  -716  -673  -618  -565  -551  -594  -658  -695  -700  -690  -680  -674  -675  -682  -685  -665  -606  -528  -475  -456  -435  -380  -312  -276  -278  -290  -287  -260  -218  -182  -174  -212  -297  -382  -427  -446  -434  -360  -254  -178  -142  -128  -113  -86  -51  -25  -3  35  103  176  240  310  380  430  457  452  410  341  273  271  373  532  670  753  787  787  759  701  646  637  679  761  872  971  1023  1048  1088  1149  1183  1168  1144  1154  1216  1339  1496  1625  1696  1747  1841  1975  2079  2116  2099  2051  1991  1928  1840  1702  1533  1368]
