reading_id,reading_time,wire_id,result_classification,heart_rate,heart_rate_alert,firmware_version,device_app_version,hardware_version,waveform_samples
34f68fc0-5a54-11ed-8080-808080808080,Wed Nov 02 02:15:23 UTC 2022,2101e3d81839,NSR,79,NONE,20001.171.50,2.10.0,Charge 5,[-148  -418  -586  -639  -578  -308  311  1277  2414  3534  4477  5133  5521  5735  5848  5897  5861  5690  5377  4991  4620  4301  4030  3835  3756  3771  3820  3874  3917  3940  3947  3944  3928  3899  3885  3908  3969  4094  4326  4651  4963  5155  5233  5282  5336  5396  5481  5580  5632  5621  5574  5513  5466  5475  5557  5679  5778  5821  5789  5646  5385  5093  4918  4941  5071  5158  5203  5334  5640  6168  6844  7410  7512  6877  5524  3792  2168  1085  667  736  1003  1250  1505  1902  2373  2731  2907  2955  2941  2892  2833  2786  2752  2717  2678  2650  2646  2662  2676  2638  2507  2310  2133  2035  2015  2052  2119  2201  2298  2395  2456  2476  2481  2476  2425  2298  2168  2161  2286  2433  2523  2549  2512  2407  2245  2063  1912  1817  1766  1720  1626  1446  1180  880  623  449  333  209  26  -207  -438  -627  -785  -925  -1028  -1082  -1116  -1178  -1306  -1470  -1590  -1630  -1610  -1555  -1491  -1448  -1441  -1461  -1489  -1505  -1494  -1457  -1404  -1377  -1435  -1584  -1742  -1833  -1855  -1847  -1832  -1808  -1777  -1758  -1754  -1747  -1726  -1704  -1693  -1693  -1699  -1711  -1717  -1681  -1569  -1413  -1293  -1247  -1246  -1257  -1283  -1333  -1393  -1433  -1445  -1448  -1460  -1470  -1443  -1371  -1289  -1220  -1162  -1120  -1098  -1089  -1083  -1075  -1072  -1101  -1188  -1307  -1395  -1421  -1408  -1383  -1360  -1341  -1341  -1383  -1472  -1599  -1729  -1823  -1863  -1851  -1783  -1681  -1595  -1491  -1291  -1083  -984  -871  -551  -31  535  947  933  306  -794  -2038  -3150  -3897  -4149  -4016  -3660  -3149  -2594  -2148  -1874  -1754  -1732  -1736  -1724  -1678  -1566  -1350  -1086  -903  -852  -869  -856  -758  -589  -409  -258  -138  -40  32  71  76  73  96  164  295  493  736  980  1175  1286  1332  1361  1388  1378  1314  1270  1313  1403  1437  1356  1181  969  775  646  589  542  445  308  195  115  34  -59  -153  -260  -440  -761  -1210  -1640  -1887  -1908  -1768  -1561  -1379  -1271  -1249  -1297  -1366  -1393  -1364  -1312  -1271  -1251  -1241  -1234  -1243  -1306  -1444  -1624  -1766  -1825  -1826  -1812  -1798  -1759  -1659  -1505  -1377  -1354  -1427  -1530  -1608  -1651  -1680  -1715  -1732  -1702  -1634  -1554  -1485  -1466  -1509  -1566  -1588  -1573  -1541  -1502  -1449  -1373  -1276  -1188  -1132  -1109  -1106  -1115  -1139  -1166  -1153  -1062  -925  -818  -776  -779  -800  -833  -871  -892  -860  -749  -593  -474  -428  -435  -480  -566  -679  -789  -887  -984  -1077  -1145  -1161  -1115  -1028  -930  -837  -754  -703  -707  -736  -689  -522  -292  -49  241  705  1377  2030  2366  2183  1399  239  -869  -1710  -2261  -2470  -2366  -2091  -1698  -1182  -617  -114  272  536  691  764  799  833  862  873  905  1021  1208  1347  1381  1398  1481  1618  1778  1923  2016  2059  2076  2098  2175  2342  2544  2683  2746  2799  2874  2957  3043  3129  3199  3264  3336  3363  3295  3180  3103  3081  3081  3059  2980  2857  2734  2635  2557  2471  2338  2148  1915  1644  1357  1118  936  731  476  252  124  66  21  -30  -81  -120  -147  -170  -191  -209  -216  -202  -154  -80  -10  28  38  31  22  15  5  -7  -16  -17  -11  -9  -18  -41  -74  -106  -133  -153  -171  -196  -240  -305  -389  -474  -533  -558  -559  -546  -523  -501  -491  -508  -570  -679  -778  -801  -771  -749  -753  -764  -765  -745  -703  -644  -589  -554  -545  -565  -612  -670  -709  -707  -658  -569  -463  -371  -310  -258  -184  -83  14  77  101  114  154  217  251  218  155  115  104  103  100  100  108  110  65  -51  -188  -259  -277  -311  -373  -431  -415  -271  -55  181  495  916  1398  1877  2243  2347  2045  1235  53  -1150  -2125  -2740  -2878  -2639  -2292  -1967  -1637  -1267  -875  -554  -383  -332  -320  -304  -292  -280  -235  -127  13  110  133  124  132  179  238  293  360  443  530  624  739  869  980  1044  1077  1135  1254  1426  1598  1712  1769  1812  1875  1956  2035  2092  2120  2121  2102  2079  2070  2074  2067  2013  1898  1756  1628  1509  1382  1248  1097  922  749  610  506  404  265  103  -27  -100  -132  -145  -134  -74  23  101  122  95  45  -5  -46  -73  -93  -111  -127  -140  -142  -114  -33  72  144  157  127  52  -66  -188  -263  -290  -297  -312  -342  -364  -356  -327  -291  -246  -194  -148  -129  -152  -213  -287  -354  -424  -512  -604  -702  -832  -967  -1052  -1103  -1163  -1237  -1301  -1356  -1420  -1490  -1524  -1473  -1355  -1245  -1184  -1159  -1151  -1155  -1161  -1137  -1041  -892  -767  -716  -713  -715  -706  -692  -702  -767  -868  -937  -934  -864  -756  -645  -530  -369  -165  12  112  141  128  85  10  -93  -209  -293  -310  -278  -243  -228  -225  -230  -266  -362  -523  -695  -803  -822  -808  -822  -832  -753  -528  -128  412  993  1560  2024  2125  1616  547  -799  -2066  -2876  -3084  -2905  -2586  -2186  -1707  -1182  -658  -218  48  131  113  72  39  20  12  6  -9  -51  -111  -146  -133  -91  -60  -50  -38  7  106  237  355  439  497  530  544  559  592  690  922  1270  1612  1853  1990  2053  2074  2091  2153  2264  2325  2250  2080  1906  1780  1734  1767  1802  1770  1681  1575  1435  1224  984  796  671  528  297  22  -180  -254  -245  -221  -233  -323  -488  -660  -752  -736  -649  -553  -493  -476  -489  -519  -556  -590  -618  -649  -675  -666  -598  -496  -417  -387  -377  -359  -339  -348  -392  -442  -471  -480  -477  -441  -333  -151  34  135  105  -56  -281  -458  -544  -578  -609  -646  -672  -680  -678  -677  -678  -685  -697  -703  -668  -563  -421  -316  -281  -291  -316  -341  -358  -364  -361  -356  -356  -361  -364  -361  -353  -346  -338  -324  -308  -302  -314  -345  -387  -419  -432  -436  -440  -434  -392  -289  -118  81  238  311  335  366  427  518  637  759  827  810  726  628  561  534  519  490  425  316  177  35  -106  -271  -450  -591  -685  -757  -779  -707  -567  -388  -115  293  765  1218  1624  1817  1494  621  -504  -1595  -2454  -2905  -2958  -2812  -2567  -2187  -1706  -1201  -713  -302  -36  77  93  77  100  202  354  479  546  580  598  602  597  590  596  630  699  774  826  836  805  757  741  789  926  1177  1479  1691  1763  1764  1771  1810  1866  1928  2023  2188  2386  2509  2522  2473  2410  2363  2345  2334  2295  2224  2142  2051  1928  1780  1634  1465  1244  1027  894  827  726  510  209  -50  -173  -192  -208  -297  -438  -545  -568  -525  -467  -423  -390  -359  -360  -435  -572  -708  -803  -860  -880  -851  -774  -663  -555  -494  -495  -526  -538  -509  -463  -432  -421  -413  -397  -378  -369  -375  -398  -423  -419  -387  -367  -386  -428  -453  -448  -438  -453  -484  -497  -503  -532  -580  -615  -616  -592  -564  -547  -538  -537  -548  -575  -611  -639  -653  -655  -650  -640  -633  -650  -704  -778  -829  -849  -865  -911  -1008  -1129  -1202  -1179  -1101  -1050  -1089  -1184  -1218  -1156  -1081  -1063  -1098  -1146  -1173  -1181  -1190  -1210  -1223  -1207  -1160  -1118  -1145  -1286  -1491  -1643  -1688  -1672  -1664  -1727  -1861  -1927  -1801  -1543  -1222  -817  -372  46  449  788  831  317  -727  -1969  -3059  -3750  -3910  -3691  -3354  -2902  -2325  -1842  -1557  -1352  -1153  -988  -891  -855  -841  -805  -736  -645  -548  -465  -412  -387  -368  -341  -313  -294  -271  -230  -157  -65  24  112  202  279  350  458  627  838  1051  1241  1406  1545  1674  1836  2019  2164  2249  2296  2325  2336  2305  2199  2025  1847  1715  1624  1536  1429  1313  1195  1059  910  798  749  736  723  704  681  646  583  503  429  363  294  222  159  122  115  149  241  375  492  549  558  551  546  549  563  581  580  544  490  448  425  415  412  424  452  492  527  548  556  557  542  497  425  357  317  303  306  324  358  400  436  470  514  551  541  479  414  396  423  461  486  493  496  495  479  431  366  321  309  317  316  288  226  139  54  0  -12  0  20  40  56  65  65  49  25  7  17  75  169  260  315  334  337  337  343  360  376  354  245  54  -144  -276  -327  -338  -353  -382  -405  -411  -404  -379  -307  -190  -108  -120  -173  -174  -39  297  790  1328  1840  2220  2257  1764  782  -395  -1427  -2093  -2355  -2388  -2380  -2292  -2002  -1536  -1069  -742  -533  -353  -198  -110  -81  -68  -45  2  84  183  253  281  297  336  406  485  535  542  535  567  672  819  936  1006  1082  1203  1352  1507  1682  1866  2010  2107  2199  2298  2374  2421  2474  2560  2643  2653  2572  2436  2285  2146  2022  1887  1728  1568  1428  1282  1088  870  700  599  512  384  228  98  13  -55  -152  -271  -364  -413  -448  -499  -555  -593  -610  -626  -646  -655  -635  -588  -557  -576  -639  -728  -823  -884  -880  -808  -708  -637  -624  -658  -714  -771  -831  -887  -926  -947  -963  -975  -972  -953  -926  -907  -893  -867  -836  -815  -807  -802  -793  -773  -753  -758  -792  -828  -860  -911  -981  -1045  -1081  -1081  -1053  -992  -903  -816  -742  -683  -645  -632  -634  -652  -693  -751  -797  -786  -697  -565  -462  -424  -427  -439  -449  -449  -416  -326  -203  -111  -80  -85  -89  -78  -63  -70  -117  -191  -268  -350  -443  -526  -579  -606  -612  -596  -572  -542  -501  -449  -400  -383  -417  -469  -499  -487  -352  -42  335  682  1038  1434  1777  1880  1500  572  -657  -1863  -2759  -3136  -3027  -2657  -2252  -1899  -1537  -1133  -780  -555  -413  -287  -181  -122  -120  -168  -234  -270  -255  -208  -151  -75  35  157  237  238  202  215  292  377  445  535  661  777  863  948  1046  1162  1315  1478  1598  1671  1742  1837  1942  2035  2121  2216  2307  2366  2381  2345  2240  2097  1974  1883  1779  1604  1366  1149  1008  923  844  744  601  403  197  60  -2  -46  -91  -119  -121  -102  -63  -23  0  17  41  68  88  88  70  43  18  0  -5  16  80  160  184  96  -76  -241  -321  -291  -162  7  134  186  189  151  80  15  -10  2  36  71  94  106  106  74  -15  -157  -312  -437  -504  -517  -501  -485  -492  -519  -543  -550  -551  -577  -645  -735  -805  -842  -871  -916  -978  -1039  -1057  -1037  -1068  -1175  -1279  -1318  -1316  -1320  -1362  -1469  -1644  -1827  -1923  -1924  -1883  -1836  -1783  -1727  -1675  -1637  -1612  -1601  -1607  -1630  -1660  -1688  -1714  -1741  -1764  -1783  -1805  -1823  -1827  -1815  -1795  -1782  -1789  -1813  -1845  -1884  -1939  -1976  -1841  -1431  -905  -514  -301  -121  180  610  961  860  62  -1220  -2519  -3474  -3870  -3728  -3339  -2945  -2557  -2133  -1700  -1331  -1075  -916  -804  -717  -657  -611  -553  -469  -343  -180  -14  128  249  351  428  468  483  507  569  659  739  805  893  1035  1201  1331  1402  1459  1555  1717  1940  2194  2439  2643  2781  2852  2876  2876  2871  2879  2908  2950  2980  2974  2934  2883  2840  2765  2592  2312  1990  1710  1521  1409  1336  1288  1257  1210  1110  957  797  667  584  570  611  669  723  755  769  786  794  800  850  964  1118  1247  1282  1236  1169  1130  1156  1242  1350  1464  1561  1627  1677  1714  1727  1727  1730  1736  1730  1704  1673  1659  1654  1638  1615  1592  1557  1506  1449  1390  1345  1332  1330  1309  1267  1220  1175  1147  1156  1208  1283  1345  1378  1371  1283  1075  775  469  229  47  -129  -317  -466  -533  -539  -529  -526  -539  -583  -659  -749  -823  -851  -814  -714  -587  -482  -424  -400  -373  -313  -209  -68  78  175  167  56  -101  -244  -329  -362  -376  -409  -482  -575  -653  -714  -767  -803  -807  -768  -700  -640  -660  -804  -968  -973  -745  -329  157  620  1056  1512  1978  2282  2145  1384  147  -1162  -2219  -2825  -2913  -2695  -2432  -2173  -1885  -1584  -1336  -1209  -1181  -1192  -1215  -1241  -1244  -1191  -1091  -984  -902  -864  -875  -930  -1013  -1094  -1156  -1218  -1309  -1407  -1433  -1335  -1164  -1012  -909  -833  -784  -766  -762  -742  -672  -530  -341  -145  30  161  229  247  252  289  383  502  585  620  641  656  649  587  440  218  -29  -257  -458  -652  -846  -1010  -1114  -1167  -1221  -1334  -1513  -1708  -1860  -1940  -1958  -1942  -1914  -1889  -1872  -1841  -1760  -1636  -1516  -1435  -1397  -1387  -1378  -1345  -1284  -1208  -1115  -994  -882  -814  -787  -784  -800  -828  -859  -882  -892  -890  -876  -856  -834  -806  -740  -623  -501  -438  -434  -437  -408  -349  -288  -242  -214  -204  -206  -215  -235  -280  -339  -375  -365  -319  -261  -204  -149  -105  -82  -79  -84  -87  -81  -57  -22  8  19  -5  -80  -182  -257  -277  -255  -217  -201  -227  -277  -330  -370  -382  -361  -308  -222  -117  -11  81  154  198  210  206  193  171  145  129  128  130  129  137  167  214  257  286  296  257  135  -41  -182  -225  -187  -133  -68  126  559  1152  1722  2138  2265  1923  1060  -122  -1322  -2266  -2728  -2671  -2304  -1873  -1457  -1031  -627  -322  -132  -26  33  78  119  153  182  214  253  304  401  575  779  916  956  958  985  1057  1142  1199  1221  1228  1219  1183  1130  1087  1082  1133  1251  1424  1605  1747  1861  1987  2131  2289  2434  2520  2542  2539  2536  2534  2537  2561  2607  2625  2526  2285  1991  1751  1583  1460  1344  1199  1025  859  718  588  463  349  257  200  179  178  180  179  183  191  204  222  244  256  256  252  262  284  300  320  368  435  485  506  508  498  474  439  408  392  385  383  394  436  513  608  693  744  761  760  754  737  697  644  601  580  570  558  531  487  446  439  480  544  591  607  611  608  569  464  330  269  321  412  442  399  328  241  132  27  -39  -67  -65  -45  -12  31  76  105  110  95  65  16  -46  -84  -81  -64  -35  18  66  81  82  77  31  -107  -326  -528  -631  -641  -604  -556  -509  -466  -428  -406  -397  -388  -374  -365  -391  -499  -662  -728  -568  -208  280  903  1581  2112  2315  1935  846  -621  -1997  -3000  -3480  -3471  -3172  -2739  -2199  -1574  -960  -482  -209  -115  -116  -135  -143  -143  -145  -157  -178  -190  -172  -121  -45  53  185  326  425  457  427  341  238  199  273  422  573  731  958  1233  1461  1601  1680  1741  1820  1922  2017  2079  2112  2124  2123  2127  2129  2116  2102  2106  2102  1997  1705  1286  913  676  525  388  257  162  96  15  -99  -231  -359  -465  -551  -644  -763  -868  -909  -881  -828  -801  -812  -825  -811  -786  -788  -823  -850  -857  -906  -1018  -1124  -1180  -1197  -1202  -1214  -1232  -1245  -1254  -1259  -1245  -1220  -1217  -1225  -1212  -1189  -1186  -1214  -1260  -1299  -1317  -1325  -1332  -1336  -1339  -1356  -1388  -1416  -1433  -1459  -1501  -1525  -1508  -1481  -1478  -1500  -1536  -1570  -1584  -1584  -1600  -1657  -1743  -1815  -1844  -1829  -1783  -1731  -1690  -1656  -1623  -1586  -1550  -1533  -1552  -1600  -1628  -1590  -1498  -1403  -1342  -1322  -1338  -1392  -1477  -1567  -1637  -1685  -1738  -1825  -1926  -1969  -1911  -1795  -1704  -1673  -1688  -1732  -1783  -1816  -1828  -1858  -1932  -1970  -1843  -1528  -1077  -519  112  746  1299  1591  1328  423  -802  -1958  -2829  -3235  -3148  -2851  -2583  -2314  -1990  -1638  -1220  -718  -258  16  106  109  118  181  297  437  561  634  653  646  640  653  695  761  825  874  923  980  1045  1138  1287  1477  1655  1789  1899  2007  2131  2298  2501  2686  2812  2903  3009  3141  3265  3352  3387  3354  3262  3148  3062  3008  2922  2742  2515  2347  2242  2076  1766  1380  1062  876  784  729  674  587  467  351  268  217  197  224  300  395  478  537  571  583  581  577  582  602  634  666  689  696  685  672  672  684  695  697  697  715  764  824  842  784  683  605  578  591  628  671  701  713  719  722  697  616  502  438  462  495  454  374  326  319  326  337  362  415  480  528  536  497  411  297  199  160  189  245  288  310  314  320  345  384  415  432  443  454  433  328  135  -79  -249  -363  -427  -453  -457  -455  -452  -450  -451  -464  -496  -538  -570  -580  -563  -514  -439  -378  -375  -383  -270  55  599  1245  1748  1850  1367  318  -970  -2111  -2898  -3248  -3207  -2990  -2744  -2449  -2078  -1672  -1308  -1044  -899  -843  -832  -828  -816  -792  -760  -718  -653  -552  -433  -342  -319  -349  -394  -422  -390  -273  -101  79  248  389  482  533  591  734  1002  1319  1565  1732  1882  2043  2220  2400  2544  2617  2637  2647  2666  2669  2625  2554  2501  2475  2434  2313  2084  1823  1637  1523  1381  1174  978  846  739  621  515  445  393  345  312  301  307  326  355  384  403  391  330  225  107  0  -80  -133  -194  -315  -502  -714  -902  -1043  -1133  -1180  -1222  -1296  -1390  -1463  -1496  -1492  -1482  -1505  -1551  -1578  -1560  -1496  -1429  -1406  -1421  -1443  -1456  -1474  -1520  -1602  -1685  -1710  -1637  -1481  -1285  -1104  -999  -1000  -1092  -1218  -1310  -1343  -1339  -1330  -1332  -1351  -1379  -1399  -1402  -1386  -1351  -1304  -1267  -1252  -1252  -1247  -1218  -1158  -1056  -881  -647  -455  -411  -527  -711  -848  -905  -916  -901  -847  -762  -679  -630  -626  -642  -644  -623  -592  -556  -503  -418  -336  -319  -347  -300  -60  374  923  1528  2090  2428  2380  1832  826  -373  -1487  -2333  -2777  -2795  -2522  -2148  -1756  -1366  -1054  -890  -844  -835  -810  -771  -738  -705  -638  -532  -419  -310  -190  -87  -61  -111  -202  -316  -405  -386  -221  15  200  293  370  500  681  865  1021  1149  1261  1365  1482  1643  1861  2093  2267  2357  2383  2372  2339  2276  2179  2061  1951  1862  1781  1669  1498  1294  1119  999  896  775  646  532  422  286  125  -20  -109  -141  -146  -151  -159  -147  -108  -71  -68  -96  -122  -105  -61  -45  -49  -25  19  48  67  100  146  184  202  201  187  158  122  93  81  85  110  156  216  269  295  283  235  159  71  -6  -50  -48  0  76  157  214  242  248  244  226  183  108  19  -44  -64  -56  -36  -21  -40  -118  -228  -311  -339  -323  -279  -225  -188  -178  -185  -198  -208  -213  -204  -167  -99  -11  87  180  240  229  125  -22  -132  -183  -221  -286  -381  -478  -542  -564  -560  -540  -504  -477  -521  -672  -868  -1002  -1042  -1035  -1026  -1009  -935  -795  -610  -330  69  538  1063  1619  2002  1883  1116  -71  -1320  -2342  -2918  -3032  -2903  -2683  -2312  -1762  -1169  -673  -340  -179  -145  -175  -222  -259  -280  -279  -234  -121  24  126  159  174  225  305  373  413  444  477  508  524  523  519  548  651  824  1032  1242  1421  1540  1614  1679  1740  1778  1799  1832  1886  1961  2062  2166  2212  2166  2063  1953  1830  1666  1488  1353  1249  1107  912  719  551  364  139  -90  -280  -399  -454  -491  -544  -603  -652  -685  -704  -714  -722  -730  -726  -685  -607  -548  -568  -657  -751  -801  -806  -797  -792  -779  -745  -697  -657  -628  -599  -562  -522  -493  -482  -493  -520  -553  -583  -608  -625  -631  -630  -637  -655  -677  -699  -741  -827  -937  -1017  -1047  -1047  -1040  -1031  -1014  -984  -945  -914  -908  -929  -959  -987  -998  -961  -861  -733  -637  -595  -576  -543  -493  -443  -390  -328  -274  -248  -244  -230  -183  -116  -68  -52  -53  -59  -70  -86  -104  -126  -149  -146  -85  21  118  170  185  187  189  197  208  195  118  -21  -173  -280  -320  -312  -287  -258  -229  -202  -185  -178  -179  -173  -147  -148  -203  -206  -35  334  908  1607  2201  2513  2474  1979  1028  -138  -1253  -2167  -2737  -2899  -2759  -2407  -1858  -1197  -581  -133  97  164  167  152  118  87  90  134  200  263  313  352  377  393  417  461  522  594  675  759  831  878  899  921  985  1126  1309  1455  1527  1563  1633  1816  2137  2488  2712  2773  2749  2706  2661  2621  2594  2583  2576  2562  2543  2508  2414  2245  2035  1828  1640  1475  1341  1223  1103  975  835  682  530  408  333  291  258  239  252  288  337  401  464  502  513  510  505  498  490  499  559  677  805  886  912  906  875  803  689  590  583  657  729  747  728  710  707  706  689  647  580  489  385  292  232  191  149  104  63  17  -51  -148  -249  -315  -332  -321  -305  -295  -289  -282  -279  -311  -403  -524  -602  -609  -578  -539  -494  -460  -495  -638  -807  -853  -754  -634  -578  -573  -582  -600  -636  -685  -717  -706  -651  -580  -529  -507  -492  -475  -471  -486  -504  -489  -430  -356  -301  -276  -273  -282  -293  -299  -289  -246  -131  62  265  388  414  395  358  266  81  -149  -333  -429  -458  -458  -452  -448  -443  -430  -424  -474  -639  -890  -1093  -1105  -886  -560  -308  -165  12  363  891  1477  1897  1881  1310  344  -780  -1944  -2990  -3673  -3872  -3578  -2890  -2090  -1452  -1075  -926  -891  -860  -793  -713  -659  -639  -639  -642  -635  -610  -570  -534  -515  -492  -410  -247  -64  48  72  53  29  9  -8  -19  -6  44  129  219  304  429  645  910  1130  1244  1266  1250  1259  1306  1341  1310  1214  1102  1021  966  900  799  686  599  523  365  40  -405  -814  -1081  -1230  -1333  -1423  -1495  -1559  -1648  -1758  -1843  -1902  -1980  -2102  -2248  -2385  -2486  -2546  -2577  -2584  -2571  -2545  -2519  -2505  -2507  -2517  -2515  -2465  -2345  -2190  -2045  -1911  -1784  -1681  -1598  -1519  -1437  -1352  -1279  -1231  -1194  -1139  -1068  -1005  -959  -921  -895  -882  -877  -870  -852  -814  -768  -732  -711  -693  -672  -657  -669  -699  -711  -701  -679  -612  -488  -362  -286  -255  -246  -252  -270  -287  -296  -294  -277  -238  -189  -156  -147  -135  -106  -74  -37  19  89  162  222  245  235  210  174  129  84  41  7  -18  -44  -64  -66  -52  -33  -23  -25  -30  -31  -30  -37  -62  -95  -99  -46  34  98  135  171  241  350  466  554  597  611  632  683  741  753  710  650  600  564  535  514  502  485  440  349  238  162  141  156  183  212  239  239  174  101  142  293  490  774  1199  1748  2373  2947  3192  2835  1884  625  -680  -1782  -2378  -2444  -2215  -1790  -1246  -743  -327  29  272  394  496  634  766  846  885  910  936  953  957  960  980  1024  1080  1123  1154  1210  1330  1521  1720  1840  1872  1887  1952  2072  2210  2326  2413  2493  2588  2710  2864  3045  3223  3365  3457  3502  3518  3511  3462  3349  3201  3078  2993  2908  2797  2663  2508  2338  2192  2109  2061  1970  1789  1539  1287  1080  902  716  510  300  118  -4  -63  -80  -78  -66  -52  -40  -32  -5  70  178  253  261  231  201  179  169  196  298  451  579  635  642  635  629  605  539  438  344  282  241  188  93  -45  -191  -304  -371  -407  -432  -447  -449  -444  -449  -478  -519  -548  -555  -551  -562  -607  -675  -731  -758  -768  -773  -778  -781  -789  -811  -841  -859  -893  -984  -1088  -1137  -1134  -1111  -1092  -1085  -1084  -1078  -1067  -1062  -1085  -1152  -1234  -1278  -1268  -1232  -1204  -1194  -1189  -1177  -1160  -1147  -1157  -1200  -1261  -1303  -1301  -1254  -1193  -1157  -1155  -1166  -1172  -1156  -1104  -1015  -914  -827  -773  -765  -805  -874  -940  -973  -965  -924  -879  -851  -839  -838  -860  -911  -974  -1025  -1045  -1036  -1011  -972  -918  -851  -763  -686  -692  -747  -696  -426  100  782  1404  1788  1845  1588  1016  95  -1020  -2076  -2912  -3376  -3371  -3007  -2498  -1944  -1400  -964  -646  -381  -177  -72  -42  -22  23  81  137  191  228  231  205  164  135  141  182  238  312  441  629  810  915  946  952  998  1130  1318  1474  1552  1573  1583  1620  1709  1825  1913  1953  1978  2012  2055  2112  2191  2241  2177  1984  1737  1523  1385  1309  1256  1195  1092  928  724  523  360  256  194  121  -3  -177  -368  -542  -681  -784  -857  -891  -846  -693  -481  -318  -255  -263  -313  -399  -499  -581  -627  -638  -620  -589  -567  -553  -540  -525  -508  -489  -481  -504  -554  -610  -652  -676  -686  -692  -701  -697  -660  -603  -555  -527  -519  -543  -614  -709  -780  -804  -797  -775  -744  -715  -704  -714  -733  -740  -718  -666  -619  -613  -644  -682  -710  -730  -755  -786  -806  -796  -737  -634  -525  -447  -403  -379  -363  -350  -339  -335  -322  -272  -192  -129  -111  -120  -128  -100  -20  69  99  61  10  -22  -37  -51  -74  -98  -107  -102  -97  -95  -92  -85  -80  -90  -111  -130  -168  -246  -324  -358  -349  -315  -278  -266  -286  -321  -355  -402  -457  -436  -259  17  241  324  375  604  1047  1510  1754  1572  862  -188  -1232  -2051  -2540  -2640  -2442  -2131  -1850  -1639  -1419  -1087  -638  -175  160  303  299  222  133  75  68  99  138  160  164  186  259  369  459  497  496  487  496  542  629  736  829  887  917  947  992  1048  1120  1227  1368  1504  1598  1658  1728  1854  2015  2134  2179  2178  2163  2126  2022  1825  1585  1383  1249  1168  1124  1093  1043  944  800  654  546  479  438  401  336  216  60  -65  -124  -135  -127  -111  -89  -68  -66  -91  -134  -175  -208  -229  -239  -241  -241  -232  -208  -169  -131  -106  -99  -105  -117  -123  -108  -46  69  197  258  216  110  4  -71  -119  -134  -115  -87  -71  -73  -84  -94  -95  -99  -117  -151  -201  -276  -375  -470  -531  -558  -558  -514  -406  -262  -157  -133  -176  -259  -346  -407  -442  -469  -488  -486  -463  -435  -416  -407  -403  -395  -377  -355  -340  -340  -358  -388  -424  -459  -472  -448  -406  -364  -315  -239  -134  -33  32  60  63  51  23  -16  -58  -87  -105  -146  -240  -355  -457  -544  -600  -603  -577  -561  -559  -549  -515  -465  -424  -432  -482  -474  -313  -7  411  934  1488  1926  2105  1870  1156  131  -908  -1752  -2308  -2570  -2618  -2528  -2272  -1816  -1265  -777  -420  -191  -76  -44  -51  -54  -31  0  28  60  108  174  249  311  350  380  411  446  482  527  595  688  792  894  999  1107  1196  1248  1281  1336  1432  1549  1656  1760  1896  2060  2194  2256  2269  2284  2316  2323  2269  2187  2128  2091  2042  1976  1909  1821  1647  1374  1084  860  701  563  419  264  95  -78  -239  -373  -467  -515  -535  -541  -509  -413  -297  -255  -304  -372  -395  -364  -292  -197  -102  -32  1  -10  -79  -194  -302  -357  -345  -277  -187  -122  -100  -100  -101  -98  -96  -99  -108  -129  -167  -204  -219  -204  -169  -134  -120  -126  -142  -162  -190  -234  -279  -317  -359  -408  -455  -490  -497  -472  -431  -383  -333  -293  -254  -210  -178  -180  -201  -215  -214  -211  -236  -308  -405  -474  -497  -494  -491  -495  -492  -456  -364  -250  -178  -168  -185  -197  -199  -202  -213  -221  -205  -160  -120  -102  -97  -94  -92  -111  -183  -313  -472  -612  -688  -693  -665  -639  -625  -619  -632  -693  -815  -970  -1071  -1037  -900  -749  -602  -403  -71  400  935  1447  1756  1650  1055  43  -1183  -2331  -3122  -3416  -3265  -2851  -2412  -2102  -1890  -1694  -1515  -1374  -1246  -1107  -983  -931  -952  -995  -1025  -1033  -994  -876  -707  -569  -513  -520  -542  -549  -536  -515  -494  -473  -445  -413  -384  -342  -272  -178  -72  52  191  317  412  479  528  567  602  634  650  649  661  687  699  701  708  713  707  683  629  542  424  284  152  63  11  -51  -167  -319  -453  -540  -583  -593  -579  -558  -542  -535  -532  -529  -528  -529  -527  -507  -450  -345  -217  -119  -76  -60  -21  61  157  218  238  238  231  221  208  198  195  196  195  198  216  253  298  340  376  388  340  224  74  -49  -99  -77  -31  -2  11  27  44  42  -8  -107  -216  -292  -314  -296  -267  -253  -254  -263  -274  -282  -290  -295  -283  -228  -126  -11  69  110  129  130  98  34  -29  -78  -117  -155  -197  -245  -279  -268  -203  -110  -21  37  57  55  53  61  78  116  191  287  356  357  290  188  102  52  16  -37  -109  -176  -235  -293  -339  -363  -366  -369  -399  -468  -531  -503  -309  26  385  719  1115  1616  2118  2433  2328  1627  431  -854  -1846  -2412  -2585  -2461  -2193  -1895  -1526  -1052  -632  -415  -327  -226  -88  18  52  37  14  9  52  161  297  387  402  372  337  321  345  436  581  715  791  813  810  797  788  813  915  1105  1329  1507  1621  1710  1826  1981  2137  2259  2357  2438  2495  2513  2482  2407  2313  2211  2111  2031  1968  1906  1821  1665  1418  1142  913  751  647  587  521  389  202  30  -95  -208  -326  -420  -461  -467  -463  -453  -423  -357  -262  -150  -34  66  126  135  92  -5  -127  -223  -258  -232  -153  -42  73  163  212  225  223  217  208  197  191  189  172  134  98  80  75  71  66  71  102  139  137  91  26  -50  -114  -138  -130  -120  -122  -102  -28  53  74  39  9  19  54  85  98  102  108  126  153  176  180  167  153  141  120  87  48  5  -42  -84  -93  -52  14  65  90  104  117  118  93  37  -31  -79  -85  -47  20  95  160  202  219  200  129  11  -117  -223  -297  -361  -436  -516  -582  -635  -681  -708  -695  -646  -611  -631  -618  -494  -318  -106  189  544  920  1294  1561  1543  1051  38  -1256  -2473  -3337  -3674  -3505  -3118  -2785  -2521  -2228  -1864  -1464  -1119  -898  -791  -750  -742  -754  -769  -770  -748  -702  -634  -553  -472  -409  -368  -321  -232  -113  -14  27  25  21  61  179  373  596  779  895  973  1039  1098  1164  1249  1359  1496  1636  1731  1755  1723  1658  1584  1525  1493  1487  1491  1456  1340  1158  990  893  838  727  489  187  -40  -143  -170  -181  -211  -301  -496  -763  -983  -1084  -1094  -1063  -1010  -945  -884  -837  -814  -810  -810  -791  -742  -674  -600  -520  -436  -360  -314  -301  -306  -316  -326  -338  -357  -368  -358  -329  -284  -226  -170  -129  -108  -103  -96  -80  -73  -97  -147  -190  -212  -224  -233  -229  -206  -170  -136  -124  -140  -155  -139  -97  -56  -39  -43  -49  -49  -49  -54  -61  -66  -66  -75  -108  -157  -191  -193  -162  -114  -68  -35  -24  -51  -111  -172  -196  -169  -116  -77  -64  -61  -50  -33  -22  -19  -10  23  79  140  200  271  356  438  486  495  466  393  284  162  40  -82  -186  -244  -259  -253  -243  -228  -205  -192  -219  -302  -428  -523  -454  -160  289  780  1231  1621  1938  2124  2065  1577  612  -555  -1601  -2369  -2732  -2657  -2328  -1939  -1549  -1148  -750  -431  -253  -188  -164  -137  -83  33  212  381  465  458  405  376  404  459  500  519  521  506  488  492  550  680  851  988  1055  1081  1110  1168  1267  1413  1597  1766  1868  1917  1979  2099  2251  2382  2454  2458  2405  2306  2173  2038  1934  1855  1780  1702  1624  1544  1439  1238  882  458  153  36  20  14  -4  -34  -128  -355  -664  -897  -978  -948  -868  -779  -710  -670  -654  -652  -653  -654  -657  -678  -716  -739  -711  -638  -546  -465  -423  -428  -464  -504  -531  -543  -556  -576  -595  -600  -582  -556  -546  -557  -577  -597  -619  -648  -684  -712  -718  -697  -653  -605  -575  -567  -569  -571  -567  -559  -553  -552  -556  -562  -567  -559  -532  -491  -462  -477  -547  -644  -715  -729  -698  -649  -602  -554  -506  -468  -446  -433  -432  -465  -550  -660  -742  -775  -772  -747  -704  -650  -603  -579  -575  -555  -485  -370  -244  -128  -46  -39  -102  -181  -244  -291  -324  -346  -359  -371  -404  -484  -598  -707  -796  -864  -893  -878  -818  -673  -448  -268  -242  -320  -327  -76  459  1132  1760  2178  2225  1787  939  -81  -1174  -2261  -3031  -3304  -3230  -2917  -2416  -1882  -1439  -1079  -762  -505  -343  -261  -219  -199  -194  -184  -139  -53  45  117  156  179  198  217  245  278  306  328  355  388  441  556  754  997  1212  1350  1409  1426  1430  1426  1431  1498  1684  1937  2121  2173  2136  2077  2031  1998  1968  1945  1936  1928  1876  1742  1535  1319  1136  956  729  476  257  87  -52  -155  -222  -283  -365  -459  -535  -576  -593  -604  -613  -619  -625  -627  -612  -565  -499  -447  -430  -436  -446  -443  -426  -397  -363  -332  -308  -302  -338  -438  -574  -680  -731  -751  -750  -696  -564  -401  -290  -258  -265  -274  -274  -265  -245  -231  -244  -275  -310  -352  -402  -454  -500  -527  -529  -511  -478  -445  -419  -397  -381  -373  -356  -306  -236  -189  -187  -210  -222  -223  -253  -315  -367  -381  -372  -369  -386  -404  -393  -336  -223  -78  29  37  -24  -71  -75  -64  -58  -55  -50  -48  -67  -126  -208  -271  -296  -302  -307  -315  -317  -302  -270  -241  -217  -180  -139  -139  -183  -224  -226  -133  149  648  1270  1889  2342  2407  1922  939  -232  -1281  -2076  -2541  -2679  -2609  -2363  -1935  -1463  -1116  -919  -791  -659  -508  -356  -227  -109  29  181  292  342  351  347  339  333  340  378  449  531  593  623  641  675  728  778  816  849  891  973  1103  1269  1466  1695  1922  2087  2162  2179  2178  2169  2160  2168  2199  2232  2242  2203  2095  1920  1735  1602  1505  1372  1193  1018  868  713  518  303  114  -37  -151  -214  -232  -238  -261  -308  -367  -417  -445  -458  -483  -532  -577  -591  -579  -573  -596  -627  -633  -607  -556  -495  -438  -391  -353  -317  -287  -295  -366  -465  -530  -545  -536  -523  -506  -472  -428  -394  -382  -384  -386  -381  -367  -363  -392  -448  -495  -510  -501  -489  -502  -549  -607  -649  -671  -681  -664  -596  -487  -380  -312  -286  -298  -342  -404  -461  -508  -546  -569  -576  -577  -580  -582  -566  -511  -424  -336  -274  -243  -233  -230  -240  -275  -326  -363  -371  -371  -397  -473  -572  -644  -670  -669  -672  -689  -705  -700  -679  -671  -701  -748  -742  -671  -587  -444  -148  244  638  1054  1502  1893  2077  1838  1022  -214  -1429  -2267  -2653  -2667  -2483  -2292  -2082  -1695  -1126  -562  -185  -34  -23  -50  -69  -80  -87  -67  7  115  190  193  138  68  17  -12  -20  35  217  492  732  864  928  990  1067  1135  1170  1181  1197  1255  1378  1555  1740  1883  1964  2003  2032  2078  2146  2219  2260  2241  2189  2164  2182  2198  2148  1989  1727  1436  1179  974  823  731  686  631  490  265  39  -114  -192  -219  -224  -244  -324  -486  -661  -735  -700  -624  -544  -483  -459  -461  -467  -464  -463  -501  -595  -687  -695  -611  -500  -414  -367  -349  -346  -351  -361  -376  -391  -407  -417  -413  -397  -383  -384  -400  -427  -462  -505  -547  -591  -636  -671  -690  -695  -681  -634  -549  -434  -316  -242  -247  -323  -412  -460  -466  -471  -498  -551  -616  -664  -662  -595  -470  -336  -252  -248  -304  -366  -388  -357  -294  -221  -144  -74  -26  -2  7  14  -1  -86  -271  -499  -661  -714  -687  -620  -545  -493  -473  -472  -476  -482  -497  -517  -511  -478  -432  -269  142  737  1351  1874  2210  2205  1726  838  -226  -1291  -2220  -2805  -2976  -2827  -2419  -1852  -1292  -838  -525  -351  -260  -202  -161  -148  -155  -139  -70  41  165  271  342  385  414  433  454  490  540  592  639  686  729  756  783  854  1000  1202  1406  1564  1660  1712  1768  1873  2027  2186  2303  2362  2375  2362  2324  2258  2175  2084  1992  1907  1845  1797  1721  1571  1340  1074  836  656  528  426  332  240  144  43  -49  -152  -305  -493  -637  -702  -724  -738  -754  -771  -780  -769  -734  -679  -613  -543  -477  -427  -393  -357  -310  -266  -242  -244  -259  -280  -309  -342  -370  -389  -400  -402  -388  -357  -329  -329  -354  -386  -415  -440  -460  -468  -468  -469  -483  -508  -535  -569  -609  -630  -589  -461  -307  -241  -304  -441  -589  -706  -761  -745  -681  -607  -545  -506  -490  -488  -482  -471  -469  -484  -500  -499  -498  -509  -510  -468  -394  -335  -312  -325  -374  -454  -549  -631  -676  -666  -608  -541  -512  -519  -522  -513  -521  -549  -562  -521  -454  -442  -463  -377  -183  -9  151  427  920  1595  2190  2343  1798  605  -793  -1923  -2571  -2720  -2553  -2290  -1931  -1429  -919  -561  -387  -327  -280  -187  -60  54  134  179  191  177  155  139  130  125  149  225  335  427  472  485  482  468  451  451  499  637  870  1121  1290  1377  1454  1560  1684  1805  1912  2002  2081  2156  2227  2285  2318  2332  2340  2341  2298  2169  1984  1818  1674  1501  1305  1139  1008  881  745  613  493  380  261  118  -73  -309  -523  -647  -698  -747  -825  -902  -950  -972  -983  -987  -977  -940  -875  -795  -720  -663  -615  -562  -516  -481  -444  -404  -374  -354  -351  -393  -502  -653  -773  -827  -831  -799  -721  -607  -507  -478  -523  -575  -571  -514  -461  -458  -487  -503  -513  -563  -652  -748  -825  -869  -870  -828  -756  -686  -632  -594  -573  -564  -557  -551  -552  -557  -568  -595  -634  -667  -671  -633  -559  -457  -346  -280  -286  -293  -214  -71  37  67  53  37  24  -8  -74  -155  -219  -249  -267  -325  -444  -578  -667  -693  -673  -643  -632  -626  -605  -576  -541  -502  -436  -304  -41  391  933  1478  1908  1974  1431  359  -901  -2034  -2792  -3047  -2887  -2500  -2039  -1620  -1299  -1055  -845  -636  -431  -250  -104  4  63  81  89  120  190  281  352  385  394  409  451  505  539  545  562  644  793  943  1032  1066  1101  1188  1347  1546  1729  1872  1998  2120  2221  2283  2308  2323  2355  2413  2486  2555  2600  2606  2559  2451  2304  2150  1983  1759  1470  1175  925  753  671  637  568  414  186  -55  -226  -292  -294  -299  -338  -390  -421  -435  -448  -446  -412  -374  -394  -485  -578  -626  -635  -622  -585  -516  -410  -292  -203  -164  -163  -181  -207  -243  -282  -300  -281  -255  -248  -245  -228  -217  -238  -295  -380  -472  -539  -568  -573  -570  -556  -523  -481  -471  -524  -617  -695  -728  -725  -715  -708  -688  -637  -558  -482  -438  -432  -456  -506  -572  -634  -670  -678  -669  -644  -605  -557  -507  -458  -411  -373  -345  -312  -273  -231  -188  -151  -121  -95  -98  -157  -262  -358  -404  -408  -396  -392  -413  -453  -488  -502  -500  -497  -500  -512  -534  -563  -586  -587  -545  -455  -362  -293  -226  -149  2  341  873  1458  1952  2229  2107  1470  435  -755  -1851  -2593  -2882  -2837  -2579  -2135  -1560  -1024  -678  -519  -425  -299  -155  -46  20  68  98  117  141  172  200  217  230  243  254  263  266  265  267  296  383  531  706  870  994  1082  1164  1260  1371  1498  1642  1787  1916  2018  2099  2159  2195  2211  2217  2221  2226  2218  2170  2069  1929  1787  1671  1580  1479  1339  1175  1040  949  840  624  304  -33  -320  -522  -629  -673  -704  -753  -834  -932  -1006  -1039  -1032  -968  -832  -669  -557  -522  -541  -604  -712  -833  -907  -900  -819  -698  -578  -484  -426  -396  -381  -382  -412  -474  -545  -592  -606  -604  -603  -603  -593  -565  -526  -502  -505  -528  -552  -563  -563  -563  -566  -561  -548  -537  -544  -571  -588  -572  -542  -526  -524  -520  -513  -527  -592  -683  -734  -705  -615  -519  -458  -431  -424  -424  -423  -419  -416  -419  -426  -431  -432  -439  -456  -456  -372  -159  113  300  338  258  102  -81  -233  -320  -363  -386  -399  -401  -399  -397  -395  -393  -393  -404  -426  -447  -467  -525  -620  -667  -581  -346  19  486  1015  1561  2088  2497  2542  1979  855  -494  -1710  -2491  -2675  -2456  -2208  -2070  -1954  -1736  -1333  -801  -348  -98  22  119  214  277  291  275  252  241  260  312  377  432  474  505  526  547  584  629  658  658  668  772  1016  1322  1558  1673  1704  1712  1752  1844  1962  2088  2240  2402  2508  2510  2417  2287  2196  2169  2179  2192  2179  2112  1971  1777  1583  1420  1267  1105  948  822  733  652  531  341  112  -79  -196  -281  -383  -487  -555  -580  -591  -604  -601  -557  -485  -426  -400  -398  -402  -402  -397  -394  -412  -466  -540  -589  -588  -553  -529  -533  -539  -522  -477  -416  -375  -368  -372  -360  -329  -310  -325  -348  -350  -334  -316  -311  -318  -322  -319  -324  -346  -392  -448  -488  -501  -495  -484  -483  -514  -591  -679  -724  -713  -670  -625  -595  -584  -585  -598  -632  -680  -720  -734  -706  -626  -524  -472  -507  -593  -665  -694  -681  -621  -514  -377  -241  -136  -77  -50  -33  -34  -109  -313  -591  -810  -905  -909  -862  -761  -606  -457  -404  -456  -548  -634  -691  -641  -386  76  638  1151  1513  1723  1764  1510  870  -60  -1088  -2031  -2686  -2933  -2849  -2512  -1989  -1481  -1150  -952  -784  -637  -553  -534  -536  -511  -444  -347  -225  -87  36  109  129  118  99  83  74  81  124  218  344  460  547  622  719  831  912  943  951  971  1038  1187  1407  1649  1881  2071  2175  2190  2157  2122  2098  2073  2047  2031  2033  2051  2054  1971  1750  1456  1224  1087  969  808  607  409  249  140  72  24  -5  -30  -67  -121  -188  -275  -366  -421  -432  -409  -351  -256  -144  -45  8  9  -27  -80  -148  -239  -324  -369  -369  -343  -314  -292  -273  -259  -262  -281  -293  -277  -247  -233  -248  -276  -290  -296  -327  -388  -453  -498  -512  -505  -495  -489  -485  -458  -391  -311  -263  -262  -299  -353  -402  -436  -467  -509  -548  -549  -504  -443  -400  -386  -387  -384  -374  -364  -353  -331  -293  -250  -220  -208  -208  -225  -272  -323  -291  -136  48  153  171  153  141  140  133  94  4  -105  -168  -150  -98  -67  -59  -50  -34  -26  -34  -57  -107  -182  -243  -279  -301  -260  -120  115  539  1224  2001  2583  2731  2255  1193  -121  -1346  -2254  -2691  -2664  -2301  -1740  -1171  -765  -530  -367  -230  -136  -95  -89  -95  -90  -62  -18  36  111  207  304  393  471  538  587  612  603  572  550  553  575  618  696  806  912  994  1059  1131  1244  1408  1581  1724  1845  1966  2080  2159  2208  2263  2345  2428  2454  2383  2235  2073  1905  1673  1362  1057  845  710  573  400  212  37  -135  -341  -556  -702  -761  -802  -874  -983  -1119  -1255  -1364  -1445  -1505  -1541  -1551  -1538  -1505  -1457  -1406  -1359  -1319  -1282  -1243  -1216  -1216  -1240  -1277  -1314  -1358  -1427  -1503  -1552  -1570  -1573  -1570  -1564  -1557  -1542  -1514  -1476  -1445  -1434  -1447  -1487  -1535  -1554  -1522  -1453  -1378  -1305  -1215  -1105  -1006  -950  -937  -946  -960  -965  -942  -874  -780  -699  -647  -624  -638  -686  -742  -779  -793  -782  -743  -679  -609  -549  -511  -488  -451  -374  -264  -154  -73  -16  48  140  226  280  314  338  352  377  431  504  564  595  601  578  522  433  319  208  132  93  72  59  65  113  213  351  493  592  591  474  321  275  454  947  1706  2514  3130  3342  2947  1958  671  -619  -1673  -2238  -2262  -1933  -1459  -999  -617  -286  -20  153  263  364  469  544  570  570  567  564  562  567  596  660  751  844  898  891  845  816  844  916  989  1037  1066  1097  1153  1254  1399  1556  1678  1746  1781  1817  1851  1861  1879  1936  2017  2102  2192  2278  2317  2286  2211  2128  2047  1973  1898  1801  1678  1529  1325  1046  745  484  257  42  -135  -255  -342  -414  -464  -490  -510  -527  -542  -566  -604  -648  -685  -705  -702  -672  -609  -550  -543  -562  -561  -559  -551  -498  -418  -368  -369  -404  -443  -471  -496  -526  -566  -625  -689  -726  -728  -710  -696  -697  -724  -783  -865  -935  -964  -936  -846  -720  -612  -557  -546  -551  -556  -559  -559  -555  -549  -540  -528  -516  -510  -514  -524  -536  -549  -572  -607  -624  -602  -566  -552  -568  -591  -590  -543  -456  -366  -313  -322  -390  -486  -574  -655  -733  -784  -771  -692  -607  -583  -591  -545  -434  -305  -184  -65  39  82  31  -82  -198  -286  -364  -441  -498  -528  -539  -535  -517  -492  -466  -451  -457  -486  -528  -553  -522  -414  -239  -28  236  629  1178  1783  2258  2381  1930  879  -421  -1569  -2389  -2792  -2797  -2564  -2134  -1514  -886  -416  -123  13  38  23  8  2  4  18  46  76  103  160  294  471  594  624  610  609  633  665  693  723  760  797  831  877  977  1157  1373  1535  1610  1634  1640  1651  1710  1865  2096  2301  2387  2334  2216  2131  2111  2128  2157  2188  2224  2258  2245  2135  1941  1748  1594  1428  1215  980  730  468  239  72  -65  -219  -380  -499  -553  -556  -538  -520  -513  -515  -512  -487  -444  -402  -362  -318  -274  -246  -238  -241  -245  -246  -235  -216  -207  -226  -258  -279  -286  -284  -280  -279  -276  -262  -238  -222  -229  -261  -295  -301  -262  -182  -92  -26  -5  -42  -152  -300  -411  -454  -448  -408  -334  -247  -185  -160  -174  -235  -341  -445  -485  -453  -387  -319  -267  -249  -290  -381  -471  -520  -531  -530  -523  -493  -425  -340  -282  -265  -264  -261  -253  -242  -234  -237  -264  -317  -376  -410  -391  -304  -177  -63  6  37  42  41  51  73  94  97  45  -85  -258  -397  -464  -478  -473  -457  -434  -401  -348  -285  -240  -234  -250  -259  -258  -232  -123  115  432  728  973  1211  1449  1622  1584  1142  231  -923  -1936  -2550  -2767  -2710  -2452  -2042  -1613  -1290  -1041  -759  -443  -191  -56  -12  -13  -20  3  76  169  234  267  283  278  248  205  160]
