reading_id,reading_time,wire_id,result_classification,heart_rate,heart_rate_alert,firmware_version,device_app_version,hardware_version,waveform_samples
1e0c75d0-57df-11ed-8080-808080808080,Sat Oct 29 23:12:11 UTC 2022,2101e3d81839,NSR,77,NONE,20001.171.50,2.10.0,Charge 5,[0  1752  3164  4025  4395  4565  4811  5149  5400  5477  5462  5443  5446  5456  5458  5463  5502  5581  5636  5602  5470  5258  5021  4846  4752  4684  4619  4590  4649  4818  5037  5198  5258  5247  5213  5185  5184  5211  5257  5323  5433  5604  5781  5880  5897  5881  5844  5747  5566  5325  5075  4873  4753  4697  4632  4447  4086  3654  3322  3116  2945  2781  2653  2525  2303  1934  1490  1116  901  831  842  862  824  687  458  204  33  1  101  301  529  705  802  845  865  875  862  813  723  574  363  136  -26  -97  -113  -111  -102  -85  -79  -138  -305  -514  -632  -626  -577  -543  -498  -405  -293  -227  -211  -201  -178  -144  -89  -2  94  162  165  78  -109  -387  -696  -937  -1072  -1156  -1253  -1382  -1516  -1580  -1545  -1514  -1606  -1794  -1973  -2130  -2319  -2526  -2690  -2732  -2533  -2048  -1296  -197  1210  2523  3182  2869  1589  -498  -2954  -5084  -6463  -7034  -6829  -6132  -5357  -4666  -4120  -3818  -3733  -3724  -3707  -3685  -3663  -3611  -3494  -3303  -3083  -2910  -2822  -2795  -2776  -2704  -2529  -2272  -2022  -1857  -1799  -1805  -1800  -1724  -1575  -1418  -1317  -1241  -1091  -821  -467  -102  150  193  82  -41  -106  -110  -80  -50  -27  15  103  201  203  56  -135  -225  -208  -177  -219  -378  -606  -792  -888  -929  -965  -1042  -1160  -1264  -1315  -1313  -1260  -1179  -1097  -1037  -1038  -1105  -1177  -1211  -1217  -1206  -1144  -989  -776  -611  -549  -568  -621  -660  -664  -655  -658  -677  -710  -749  -780  -786  -737  -642  -565  -554  -609  -690  -751  -771  -752  -694  -618  -565  -573  -649  -756  -839  -868  -840  -752  -628  -504  -389  -277  -187  -148  -159  -192  -219  -232  -242  -243  -200  -77  96  242  318  353  368  322  142  -134  -323  -316  -221  -178  -197  -227  -245  -253  -269  -329  -462  -657  -861  -1041  -1164  -1148  -875  -259  761  2217  3924  5464  6282  5853  4161  1799  -560  -2449  -3618  -4093  -4068  -3718  -3161  -2526  -1955  -1492  -1111  -822  -634  -520  -463  -470  -536  -627  -698  -725  -697  -596  -439  -283  -176  -127  -117  -125  -137  -138  -99  12  211  455  674  840  991  1179  1405  1601  1716  1773  1819  1872  1924  1964  1984  1987  1992  2018  2052  2016  1819  1493  1203  1062  1044  1061  1052  986  848  657  479  364  299  239  147  26  -93  -198  -287  -341  -354  -339  -301  -235  -172  -174  -266  -403  -494  -467  -330  -133  24  -2  -222  -456  -570  -569  -517  -466  -436  -420  -408  -398  -390  -388  -394  -400  -389  -354  -300  -224  -127  -58  -85  -197  -341  -484  -556  -518  -409  -263  -102  22  67  35  -41  -122  -177  -206  -210  -152  11  233  389  410  329  223  156  149  187  245  299  336  357  370  391  432  486  534  557  554  541  503  371  101  -242  -510  -607  -557  -457  -379  -317  -217  -70  66  95  -111  -560  -935  -903  -539  -6  764  1825  3082  4361  5223  5091  3827  1827  -352  -2157  -3244  -3723  -3850  -3683  -3253  -2687  -2043  -1368  -835  -577  -533  -535  -487  -416  -367  -346  -337  -331  -326  -324  -323  -327  -335  -331  -271  -118  83  240  335  434  564  677  749  841  1035  1322  1602  1791  1873  1887  1895  1939  2034  2164  2279  2321  2268  2155  2057  2014  2002  2001  2026  2081  2149  2184  2112  1923  1696  1501  1339  1209  1126  1060  965  851  707  488  253  115  90  107  105  60  -6  -34  22  151  285  365  389  402  413  389  300  177  90  65  79  105  121  90  -24  -201  -375  -501  -571  -601  -609  -595  -566  -536  -504  -481  -485  -502  -546  -644  -753  -810  -798  -745  -694  -667  -647  -620  -627  -717  -850  -925  -911  -864  -829  -815  -816  -821  -812  -786  -768  -781  -805  -799  -764  -740  -757  -791  -810  -798  -735  -605  -426  -252  -138  -93  -87  -88  -105  -172  -298  -438  -545  -631  -746  -902  -1045  -1102  -1032  -835  -586  -408  -398  -634  -1094  -1544  -1698  -1477  -961  -240  627  1660  2883  4069  4731  4524  3465  1764  -232  -2096  -3573  -4607  -5052  -4763  -3877  -2746  -1758  -1163  -940  -919  -948  -940  -873  -792  -771  -820  -874  -866  -777  -651  -544  -445  -312  -163  -58  -12  2  10  34  123  315  567  772  878  926  971  1017  1044  1064  1126  1274  1479  1661  1807  1969  2151  2271  2257  2115  1929  1795  1748  1756  1778  1794  1798  1790  1759  1681  1540  1331  1070  828  677  582  432  209  14  -77  -85  -58  -28  -18  -25  -20  12  54  81  89  89  92  99  99  84  53  14  -13  -16  6  40  68  85  85  35  -104  -300  -454  -515  -499  -444  -381  -336  -320  -320  -326  -347  -396  -459  -502  -498  -462  -437  -446  -468  -483  -490  -491  -471  -414  -335  -274  -254  -273  -328  -407  -478  -517  -529  -529  -519  -485  -431  -411  -458  -524  -555  -540  -493  -433  -389  -391  -456  -574  -695  -763  -751  -657  -518  -393  -309  -266  -254  -270  -310  -354  -374  -337  -223  -70  33  39  -36  -142  -228  -287  -330  -356  -370  -388  -410  -421  -412  -399  -405  -443  -524  -671  -848  -911  -743  -369  192  981  1987  3151  4296  5000  4793  3517  1431  -918  -2933  -4182  -4541  -4207  -3516  -2724  -1984  -1422  -1080  -905  -819  -761  -719  -689  -645  -565  -475  -423  -422  -442  -452  -456  -462  -445  -356  -184  1  124  188  258  358  464  547  605  687  863  1131  1396  1582  1682  1718  1721  1726  1774  1907  2128  2385  2607  2748  2788  2724  2571  2391  2246  2134  2007  1868  1752  1648  1526  1384  1217  1011  777  570  422  310  209  120  35  -59  -165  -270  -350  -386  -382  -355  -315  -261  -205  -165  -150  -152  -173  -215  -251  -241  -183  -111  -46  8  46  60  39  -37  -160  -277  -329  -308  -267  -241  -225  -215  -215  -231  -284  -383  -489  -542  -518  -453  -401  -369  -334  -294  -269  -264  -264  -260  -260  -295  -384  -499  -581  -608  -605  -596  -584  -564  -542  -525  -497  -435  -350  -284  -260  -273  -314  -374  -430  -459  -455  -445  -463  -510  -553  -583  -623  -677  -722  -723  -652  -508  -346  -228  -175  -165  -180  -219  -264  -293  -306  -321  -357  -410  -465  -509  -525  -484  -367  -202  -54  53  133  177  158  67  -82  -278  -480  -622  -684  -696  -671  -598  -491  -399  -361  -382  -453  -573  -726  -880  -991  -1006  -871  -514  143  1088  2234  3478  4527  4908  4322  2827  725  -1485  -3224  -4205  -4516  -4340  -3848  -3201  -2499  -1813  -1250  -870  -635  -490  -416  -396  -401  -418  -454  -503  -545  -556  -516  -414  -285  -189  -147  -134  -134  -132  -95  -11  102  247  445  685  917  1112  1290  1455  1568  1612  1629  1696  1850  2051  2225  2326  2353  2331  2292  2271  2294  2351  2418  2483  2511  2445  2279  2059  1822  1574  1339  1144  976  824  708  633  579  534  471  347  158  -51  -194  -202  -106  -2  62  103  134  158  177  186  154  18  -256  -578  -786  -795  -631  -400  -224  -146  -126  -116  -102  -97  -131  -228  -362  -468  -515  -519  -501  -479  -465  -464  -489  -547  -635  -728  -788  -799  -774  -730  -681  -647  -633  -631  -636  -646  -660  -664  -645  -609  -580  -578  -601  -626  -641  -648  -649  -632  -579  -499  -432  -406  -415  -436  -453  -467  -480  -489  -491  -480  -476  -513  -586  -655  -698  -717  -727  -744  -767  -773  -725  -606  -469  -387  -360  -332  -282  -255  -292  -350  -372  -370  -387  -431  -480  -513  -514  -456  -305  -75  160  336  425  430  363  244  112  2  -91  -204  -360  -528  -652  -715  -735  -714  -634  -498  -381  -387  -509  -612  -670  -755  -760  -455  292  1465  2925  4360  5267  5195  4029  2023  -304  -2338  -3707  -4399  -4489  -4104  -3478  -2781  -2113  -1579  -1199  -913  -704  -609  -636  -724  -799  -829  -798  -687  -517  -365  -277  -200  -73  38  8  -128  -192  -102  71  257  425  567  694  818  940  1064  1187  1300  1406  1499  1570  1669  1861  2111  2326  2468  2544  2561  2551  2548  2547  2500  2364  2170  2012  1944  1939  1952  1926  1789  1513  1169  857  629  488  411  364  330  301  275  253  230  211  208  212  201  156  79  -8  -92  -169  -249  -332  -371  -325  -233  -154  -109  -97  -114  -188  -357  -584  -757  -823  -804  -724  -593  -443  -324  -265  -255  -261  -266  -281  -346  -493  -681  -813  -811  -674  -479  -329  -264  -253  -267  -316  -425  -574  -699  -759  -767  -760  -757  -757  -756  -757  -765  -777  -772  -708  -553  -337  -169  -147  -266  -439  -590  -679  -702  -673  -604  -523  -461  -432  -429  -446  -464  -459  -421  -365  -324  -310  -313  -316  -306  -276  -234  -193  -141  -51  64  157  200  202  182  140  72  -21  -132  -242  -343  -435  -511  -561  -587  -611  -645  -680  -700  -700  -695  -706  -668  -493  -235  63  558  1405  2522  3610  4228  3977  2794  999  -931  -2569  -3627  -4054  -3988  -3650  -3232  -2771  -2230  -1684  -1288  -1056  -869  -681  -535  -458  -435  -445  -471  -487  -479  -454  -417  -362  -277  -149  13  165  268  336  411  501  581  654  739  829  905  972  1068  1227  1425  1605  1759  1930  2132  2314  2418  2444  2434  2416  2395  2372  2353  2328  2265  2129  1935  1755  1647  1578  1467  1283  1076  881  681  461  254  111  64  86  107  92  57  20  -6  -16  -19  -26  -38  -48  -52  -56  -60  -58  -45  -40  -78  -189  -344  -453  -471  -445  -431  -436  -447  -454  -464  -510  -611  -725  -769  -720  -644  -605  -624  -687  -764  -810  -781  -656  -484  -355  -293  -252  -219  -227  -277  -320  -328  -321  -327  -352  -380  -406  -427  -436  -425  -403  -385  -377  -392  -441  -519  -602  -669  -692  -662  -611  -578  -570  -574  -582  -584  -561  -498  -409  -306  -165  9  156  244  307  388  463  466  327  35  -310  -570  -693  -740  -789  -841  -844  -771  -654  -557  -532  -611  -807  -1016  -1025  -696  -78  658  1367  2051  2802  3490  3707  3132  1763  -49  -1755  -2984  -3689  -3962  -3879  -3444  -2685  -1852  -1257  -941  -758  -634  -578  -570  -545  -451  -314  -203  -147  -119  -89  -50  -5  30  39  22  5  27  106  213  293  349  445  606  784  944  1112  1316  1537  1721  1842  1921  1983  2022  2045  2092  2188  2286  2322  2317  2308  2261  2158  2079  2095  2185  2219  2052  1666  1214  890  754  699  601  440  285  194  140  55  -77  -200  -258  -250  -215  -187  -178  -184  -194  -201  -210  -233  -264  -277  -266  -261  -297  -363  -409  -403  -358  -307  -262  -223  -198  -196  -219  -274  -375  -506  -606  -628  -606  -594  -612  -636  -630  -584  -538  -534  -586  -674  -751  -790  -802  -801  -777  -707  -602  -502  -435  -420  -476  -586  -695  -761  -778  -767  -754  -750  -749  -733  -691  -625  -558  -553  -642  -744  -756  -703  -653  -575  -404  -175  -8  27  -33  -123  -187  -221  -265  -329  -365  -363  -404  -524  -645  -712  -751  -790  -811  -788  -739  -734  -804  -881  -885  -768  -523  -182  340  1235  2509  3887  4898  5017  4016  2171  7  -1969  -3388  -4105  -4198  -3823  -3125  -2252  -1412  -837  -609  -603  -641  -627  -564  -513  -501  -489  -461  -450  -464  -476  -429  -276  -52  141  247  287  309  350  447  601  765  897  984  1034  1086  1201  1429  1746  2040  2220  2307  2358  2392  2417  2469  2575  2703  2793  2823  2805  2745  2648  2536  2428  2347  2312  2291  2167  1839  1391  1046  896  831  733  611  519  430  264  8  -272  -509  -661  -716  -635  -363  19  294  348  267  160  40  -146  -411  -664  -804  -817  -750  -655  -566  -484  -392  -282  -173  -99  -82  -111  -158  -224  -323  -440  -528  -561  -543  -499  -482  -528  -597  -640  -661  -677  -687  -690  -697  -722  -763  -803  -828  -834  -824  -813  -815  -824  -819  -788  -742  -704  -679  -660  -645  -645  -668  -705  -748  -788  -818  -817  -747  -599  -431  -313  -256  -214  -127  20  182  279  256  93  -160  -418  -624  -776  -887  -956  -969  -939  -901  -868  -832  -790  -745  -695  -651  -632  -592  -476  -300  44  777  1896  3143  4120  4394  3720  2250  386  -1507  -3096  -4108  -4516  -4370  -3672  -2679  -1818  -1286  -1037  -963  -960  -972  -970  -929  -856  -782  -707  -601  -470  -363  -309  -279  -228  -150  -49  86  234  331  360  359  369  396  428  493  663  942  1229  1427  1538  1654  1847  2083  2268  2379  2470  2548  2564  2513  2452  2411  2367  2297  2218  2166  2141  2117  2064  1952  1773  1560  1335  1080  795  519  283  104  7  -15  -5  10  20  11  -49  -187  -363  -494  -538  -523  -493  -473  -473  -496  -535  -571  -587  -572  -520  -446  -382  -344  -326  -333  -382  -491  -645  -788  -850  -809  -711  -613  -527  -439  -360  -314  -308  -356  -467  -627  -789  -889  -888  -816  -745  -719  -734  -756  -756  -747  -749  -757  -758  -749  -739  -733  -726  -723  -742  -792  -853  -900  -920  -920  -909  -889  -859  -822  -786  -762  -746  -721  -669  -590  -507  -452  -426  -405  -380  -347  -281  -163  -27  46  19  -79  -226  -437  -681  -860  -935  -950  -937  -894  -820  -744  -711  -747  -818  -892  -987  -1096  -1157  -1107  -868  -362  423  1530  2955  4338  5081  4792  3468  1457  -695  -2501  -3744  -4432  -4543  -4060  -3194  -2263  -1505  -1076  -966  -1001  -1015  -936  -796  -674  -613  -589  -572  -547  -493  -394  -270  -164  -88  -11  80  164  227  281  336  393  456  526  646  873  1150  1362  1515  1694  1917  2132  2297  2400  2463  2517  2561  2593  2620  2655  2720  2833  2938  2957  2894  2801  2653  2378  2015  1724  1587  1550  1521  1418  1206  942  730  596  493  378  256  161  116  105  88  30  -62  -166  -282  -401  -478  -478  -406  -304  -216  -151  -98  -53  -10  38  67  16  -159  -402  -583  -642  -613  -529  -410  -314  -323  -433  -548  -601  -604  -601  -620  -671  -738  -791  -811  -785  -700  -574  -457  -390  -390  -455  -574  -704  -790  -819  -816  -802  -771  -718  -659  -616  -603  -615  -634  -638  -620  -584  -538  -494  -470  -481  -529  -594  -637  -649  -648  -646  -637  -607  -566  -560  -597  -630  -628  -614  -608  -604  -581  -519  -434  -363  -324  -294  -245  -174  -103  -48  -14  -2  -13  -65  -176  -328  -485  -625  -738  -819  -853  -834  -792  -769  -782  -825  -883  -947  -995  -959  -798  -543  -176  381  1205  2319  3556  4474  4585  3740  2156  170  -1763  -3240  -4148  -4452  -4121  -3377  -2547  -1831  -1330  -1055  -950  -939  -936  -879  -768  -684  -693  -754  -753  -610  -347  -94  42  69  53  38  41  65  107  164  233  301  358  426  588  905  1282  1543  1632  1643  1711  1916  2216  2487  2643  2686  2679  2686  2718  2752  2775  2790  2802  2783  2682  2487  2264  2090  1976  1876  1743  1552  1294  1006  773  651  606  575  526  444  302  112  -50  -112  -68  22  95  129  140  125  74  -4  -86  -154  -214  -271  -310  -326  -334  -347  -362  -372  -372  -367  -363  -362  -354  -332  -308  -324  -419  -587  -765  -889  -944  -946  -889  -761  -599  -486  -458  -487  -535  -582  -623  -651  -658  -654  -658  -672  -695  -732  -773  -799  -808  -813  -829  -855  -874  -881  -886  -896  -900  -865  -767  -647  -586  -609  -673  -737  -773  -768  -722  -626  -535  -584  -800  -1027  -1098  -989  -806  -672  -607  -540  -426  -290  -171  -77  1  70  124  175  234  276  288  301  307  239  64  -164  -363  -506  -618  -708  -751  -719  -627  -519  -422  -346  -283  -215  -163  -172  -282  -459  -516  -281  236  989  1962  3083  4142  4775  4648  3578  1580  -911  -3136  -4520  -4910  -4529  -3837  -3179  -2637  -2176  -1690  -1162  -764  -603  -590  -602  -605  -635  -709  -784  -811  -770  -661  -519  -382  -258  -143  -30  72  144  189  255  375  521  648  766  906  1048  1175  1318  1487  1658  1820  1985  2157  2340  2500  2591  2610  2596  2578  2564  2551  2532  2495  2419  2312  2211  2146  2115  2087  1979  1710  1325  976  749  610  493  381  308  293  302  279  189  57  -47  -92  -98  -93  -98  -134  -195  -247  -268  -265  -260  -270  -301  -341  -371  -389  -400  -416  -459  -532  -587  -558  -455  -365  -356  -427  -528  -604  -639  -640  -615  -582  -574  -608  -666  -712  -729  -716  -680  -634  -601  -599  -624  -665  -704  -731  -745  -746  -732  -706  -676  -647  -618  -568  -487  -439  -492  -607  -711  -781  -814  -808  -786  -766  -739  -689  -609  -515  -449  -431  -448  -474  -479  -454  -420  -404  -404  -409  -409  -394  -363  -316  -260  -195  -104  16  150  260  296  231  106  -10  -105  -222  -383  -550  -671  -720  -707  -667  -630  -601  -574  -555  -597  -766  -1012  -1133  -925  -320  632  1797  3007  4067  4731  4714  3863  2267  194  -1906  -3500  -4345  -4575  -4368  -3839  -3114  -2309  -1573  -1077  -843  -748  -691  -675  -724  -792  -797  -713  -568  -409  -247  -71  95  197  221  207  210  253  319  366  375  366  389  496  694  927  1147  1357  1578  1794  1977  2147  2333  2513  2640  2692  2681  2650  2621  2583  2529  2476  2437  2400  2332  2224  2105  2012  1957  1909  1798  1575  1306  1103  987  882  710  476  269  143  66  0  -52  -83  -116  -167  -229  -281  -320  -343  -338  -316  -302  -303  -300  -282  -255  -237  -237  -250  -265  -276  -289  -310  -339  -369  -393  -408  -415  -425  -448  -486  -530  -566  -586  -590  -579  -546  -502  -471  -479  -533  -610  -672  -692  -659  -569  -453  -381  -398  -494  -620  -714  -746  -721  -666  -605  -552  -516  -499  -496  -500  -506  -516  -537  -564  -583  -583  -557  -488  -377  -273  -243  -308  -424  -519  -557  -553  -534  -514  -496  -455  -362  -231  -93  70  271  448  537  548  510  442  354  243  84  -149  -420  -624  -707  -710  -692  -682  -680  -681  -682  -678  -667  -650  -620  -578  -544  -526  -479  -252  413  1616  3122  4531  5393  5288  4118  2175  -113  -2322  -4014  -4910  -4962  -4319  -3325  -2371  -1711  -1383  -1222  -1042  -828  -678  -639  -674  -728  -764  -756  -687  -573  -467  -412  -407  -424  -439  -411  -304  -132  44  210  413  659  873  1015  1128  1247  1343  1407  1496  1662  1880  2074  2202  2281  2342  2393  2423  2428  2422  2425  2457  2521  2594  2638  2597  2406  2064  1686  1401  1218  1072  935  830  770  744  704  578  328  2  -281  -437  -481  -489  -513  -564  -626  -667  -658  -591  -500  -431  -401  -391  -387  -385  -387  -391  -394  -398  -404  -409  -410  -408  -402  -400  -419  -474  -552  -624  -682  -736  -783  -814  -843  -878  -897  -873  -823  -770  -722  -706  -739  -790  -818  -822  -828  -859  -904  -905  -839  -756  -713  -702  -699  -697  -709  -748  -793  -812  -798  -776  -765  -763  -770  -786  -808  -824  -818  -785  -735  -693  -672  -669  -671  -667  -644  -601  -552  -516  -509  -528  -532  -479  -382  -300  -267  -270  -277  -267  -235  -191  -132  -58  -16  -66  -208  -391  -551  -641  -659  -649  -655  -698  -762  -809  -822  -813  -800  -814  -887  -1009  -1108  -1106  -982  -735  -302  421  1515  2930  4325  5124  4868  3528  1468  -768  -2615  -3731  -4153  -4073  -3661  -3076  -2437  -1843  -1381  -1053  -779  -537  -387  -357  -400  -450  -454  -389  -262  -114  3  78  131  189  251  296  305  289  267  283  393  620  905  1145  1284  1349  1413  1534  1703  1872  2029  2232  2495  2736  2873  2911  2902  2888  2883  2883  2880  2865  2821  2723  2570  2412  2319  2289  2224  2028  1721  1419  1193  1016  857  726  626  521  364  156  -38  -150  -190  -216  -253  -266  -233  -205  -245  -325  -371  -351  -280  -203  -179  -225  -292  -330  -336  -335  -361  -417  -458  -460  -441  -433  -460  -529  -614  -688  -751  -815  -868  -890  -853  -752  -689  -757  -889  -967  -978  -963  -945  -921  -875  -793  -671  -539  -447  -422  -461  -554  -664  -738  -764  -766  -765  -769  -782  -804  -829  -837  -819  -790  -767  -745  -711  -664  -618  -606  -656  -747  -838  -901  -920  -904  -880  -859  -819  -733  -618  -533  -506  -512  -508  -478  -431  -397  -388  -398  -402  -361  -232  -17  200  337  380  359  280  135  -64  -287  -474  -572  -581  -549  -514  -480  -427  -362  -312  -290  -291  -322  -423  -608  -777  -829  -814  -767  -557  15  1101  2657  4325  5468  5507  4375  2468  252  -1806  -3316  -4183  -4452  -4122  -3338  -2418  -1646  -1165  -938  -817  -695  -524  -309  -105  26  86  109  105  68  21  12  71  168  274  381  461  497  522  571  643  722  811  935  1106  1320  1571  1808  1963  2027  2062  2145  2312  2536  2737  2844  2850  2810  2778  2771  2776  2781  2784  2788  2773  2688  2495  2234  1991  1821  1721  1651  1542  1338  1053  762  512  305  148  59  25  14  13  12  9  1  -7  -11  -14  -27  -75  -180  -312  -408  -442  -440  -423  -388  -340  -313  -318  -311  -272  -242  -254  -303  -365  -411  -436  -457  -493  -542  -582  -596  -596  -601  -620  -643  -666  -696  -728  -758  -797  -839  -869  -883  -890  -893  -888  -860  -803  -737  -706  -738  -813  -890  -944  -978  -998  -1005  -979  -898  -781  -685  -643  -639  -645  -649  -647  -650  -673  -709  -743  -766  -776  -771  -760  -755  -753  -739  -707  -677  -681  -710  -715  -667  -579  -484  -426  -450  -575  -750  -873  -863  -714  -507  -357  -304  -304  -323  -365  -441  -538  -624  -691  -750  -798  -839  -885  -935  -982  -1028  -1049  -1016  -942  -871  -829  -826  -873  -985  -1137  -1171  -832  37  1370  2910  4284  5035  4754  3437  1480  -722  -2755  -4161  -4837  -4951  -4530  -3641  -2636  -1853  -1378  -1146  -1046  -986  -915  -798  -643  -517  -469  -478  -494  -465  -374  -255  -169  -135  -124  -103  -70  -10  104  275  462  642  814  960  1075  1187  1306  1416  1542  1748  2024  2269  2407  2462  2503  2571  2656  2736  2807  2852  2844  2791  2723  2644  2540  2410  2282  2175  2068  1919  1717  1497  1293  1092  877  688  575  538  528  493  422  338  263  187  96  5  -59  -94  -103  -98  -102  -128  -169  -210  -241  -254  -240  -198  -136  -79  -53  -70  -135  -243  -379  -498  -559  -560  -537  -513  -501  -509  -543  -604  -675  -722  -720  -664  -572  -488  -441  -433  -448  -468  -482  -493  -503  -512  -522  -555  -630  -731  -808  -837  -837  -824  -796  -753  -716  -714  -745  -778  -797  -802  -792  -765  -730  -702  -675  -636  -606  -624  -667  -680  -655  -623  -603  -585  -567  -553  -537  -498  -432  -372  -347  -348  -326  -259  -165  -75  -37  -74  -138  -179  -207  -245  -287  -319  -357  -444  -590  -753  -875  -934  -944  -926  -898  -881  -894  -934  -983  -957  -714  -222  391  1071  1900  2864  3745  4177  3810  2611  870  -1007  -2597  -3692  -4343  -4552  -4247  -3495  -2545  -1694  -1132  -881  -829  -853  -876  -849  -743  -579  -422  -327  -297  -287  -256  -197  -134  -87  -52  -6  84  232  397  524  598  661  766  922  1108  1307  1510  1712  1899  2046  2154  2274  2452  2645  2773  2828  2855  2869  2861  2843  2835  2826  2781  2669  2502  2331  2201  2121  2061  1951  1738  1427  1093  836  682  568  428  276  162  112  113  147  199  265  309  273  165  65  22  21  31  36  22  -18  -93  -184  -241  -206  -51  166  332  394  371  284  165  68  24  9  -10  -43  -70  -88  -109  -137  -172  -229  -316  -407  -449  -420  -351  -284  -253  -278  -351  -463  -587  -633  -571  -486  -452  -461  -474  -475  -476  -492  -536  -617  -716  -791  -825  -827  -783  -666  -493  -329  -230  -208  -229  -242  -235  -233  -274  -396  -590  -766  -803  -653  -395  -170  -45  20  86  163  217  206  107  -46  -175  -240  -273  -317  -383  -463  -537  -592  -626  -652  -683  -705  -697  -663  -663  -798  -1051  -1231  -1218  -1058  -721  -103  802  1894  3045  4016  4400  3923  2678  932  -999  -2714  -3891  -4458  -4496  -4105  -3422  -2654  -2008  -1599  -1402  -1311  -1248  -1201  -1165  -1107  -1026  -950  -886  -823  -770  -748  -759  -767  -697  -496  -232  -46  23  73  186  338  458  529  596  698  840  996  1139  1270  1406  1553  1714  1906  2113  2270  2342  2350  2330  2312  2309  2313  2318  2320  2305  2249  2140  1992  1826  1650  1451  1202  931  720  596  508  403  272  146  64  35  39  44  1  -127  -303  -436  -490  -490  -470  -447  -426  -405  -361  -265  -123  1  80  120  73  -84  -291  -463  -560  -594  -591  -543  -432  -298  -220  -225  -274  -331  -374  -396  -412  -460  -575  -701  -720  -626  -530  -519  -594  -687  -735  -740  -731  -715  -694  -680  -681  -687  -686  -682  -678  -664  -628  -579  -542  -529  -535  -552  -574  -591  -595  -574  -530  -487  -465  -467  -497  -539  -557  -558  -578  -609  -627  -628  -616  -572  -453  -262  -72  39  70  56  18  -62  -208  -395  -544  -615  -631  -628  -629  -640  -658  -686  -719  -749  -767  -773  -772  -765  -741  -713  -712  -682  -506  -40  870  2205  3708  4999  5548  4927  3242  1031  -1069  -2542  -3256  -3451  -3423  -3298  -2980  -2371  -1666  -1197  -1045  -1048  -1054  -1018  -941  -820  -674  -543  -455  -401  -359  -303  -228  -147  -68  -7  38  98  192  330  497  644  752  836  916  1004  1118  1287  1536  1856  2165  2365  2450  2511  2617  2749  2843  2874  2868  2847  2817  2774  2728  2691  2656  2592  2488  2366  2249  2123  1932  1623  1251  936  740  648  611  552  405  194  14  -87  -142  -184  -233  -303  -369  -399  -398  -390  -389  -395  -402  -410  -420  -429  -436  -438  -421  -372  -305  -264  -280  -340  -401  -422  -406  -384  -373  -370  -367  -369  -394  -459  -575  -738  -902  -1009  -1047  -1046  -1010  -907  -724  -548  -494  -546  -611  -652  -656  -630  -600  -572  -555  -562  -601  -670  -735  -764  -767  -773  -798  -817  -799  -759  -735  -742  -749  -738  -738  -787  -865  -916  -907  -866  -829  -809  -792  -759  -694  -605  -532  -503  -501  -484  -401  -223  -11  118  129  63  -48  -212  -431  -642  -768  -800  -786  -764  -740  -694  -604  -495  -423  -398  -391  -389  -427  -564  -783  -965  -975  -749  -252  559  1655  2898  4116  4990  5084  4276  2775  802  -1312  -3062  -4165  -4590  -4303  -3457  -2503  -1801  -1389  -1150  -994  -883  -819  -798  -785  -749  -687  -616  -536  -408  -213  -9  128  175  158  129  125  155  209  290  439  691  980  1177  1236  1220  1231  1354  1627  1995  2340  2562  2647  2660  2686  2770  2882  2967  3002  2995  2930  2780  2593  2467  2432  2410  2310  2129  1942  1799  1677  1534  1334  1050  725  450  288  217  161  67  -55  -163  -231  -277  -332  -400  -469  -528  -554  -518  -424  -296  -172  -116  -157  -246  -329  -393  -433  -444  -423  -366  -294  -250  -255  -285  -305  -311  -333  -400  -493  -566  -608  -641  -668  -688  -732  -839  -1018  -1194  -1240  -1108  -905  -798  -853  -965  -1019  -1016  -1001  -990  -980  -970  -961  -940  -889  -821  -772  -756  -752  -738  -714  -696  -686  -675  -657  -623  -571  -526  -534  -608  -706  -769  -764  -727  -725  -769  -798  -769  -705  -667  -680  -724  -761  -791  -831  -880  -921  -920  -835  -690  -580  -532  -469  -309  -92  67  114  89  49  11  -62  -231  -495  -784  -1015  -1142  -1180  -1171  -1124  -1023  -896  -817  -824  -892  -986  -1083  -1154  -1176  -1115  -912  -518  137  1158  2528  3954  4892  4847  3727  1846  -298  -2163  -3381  -3996  -4214  -4055  -3533  -2865  -2277  -1850  -1539  -1274  -1065  -958  -939  -949  -930  -835  -655  -450  -294  -212  -187  -174  -129  -31  111  273  413  507  564  609  669  757  860  969  1086  1226  1419  1679  1959  2171  2280  2356  2487  2666  2819  2923  3019  3123  3197  3192  3106  2965  2785  2606  2432  2220  2009  1874  1795  1713  1612  1494  1343  1173  1050  977  857  610  300  63  -61  -140  -218  -287  -330  -342  -322  -265  -187  -124  -104  -113  -116  -86  -50  -67  -136  -189  -192  -178  -182  -209  -243  -278  -315  -345  -358  -370  -409  -475  -535  -561  -552  -529  -515  -516  -526  -535  -541  -541  -526  -485  -430  -388  -366  -356  -354  -385  -482  -622  -730  -758  -716  -625  -513  -424  -377  -356  -345  -336  -336  -366  -460  -628  -800  -877  -851  -781  -695  -608  -543  -515  -530  -556  -560  -550  -547  -544  -525  -493  -466  -452  -446  -445  -464  -516  -589  -641  -649  -623  -587  -562  -533  -471  -375  -282  -218  -185  -160  -105  2  151  302  403  406  287  72  -142  -270  -305  -305  -353  -506  -730  -904  -939  -868  -788  -754  -772  -807  -808  -805  -842  -814  -577  -60  839  2149  3610  4739  5069  4374  2801  773  -1248  -2891  -3941  -4422  -4445  -3997  -3168  -2297  -1619  -1139  -854  -753  -740  -722  -679  -643  -636  -636  -582  -440  -259  -129  -78  -60  -27  26  90  162  232  278  303  356  495  714  934  1085  1184  1299  1476  1727  2028  2311  2509  2620  2687  2747  2831  2943  3044  3095  3081  2998  2846  2652  2473  2352  2291  2261  2221  2160  2091  1997  1816  1531  1216  961  766  543  238  -61  -243  -298  -296  -288  -278  -258  -237  -240  -278  -329  -371  -409  -449  -489  -532  -565  -540  -420  -225  -41  60  63  -25  -202  -436  -647  -761  -777  -752  -729  -723  -724  -725  -721  -716  -713  -715  -712  -692  -640  -547  -445  -404  -450  -540  -624  -662  -674  -749  -904  -1031  -1036  -922  -776  -684  -656  -649  -638  -617  -596  -590  -601  -624  -651  -668  -676  -694  -723  -733  -694  -631  -593  -599  -629  -657  -673  -683  -666  -590  -470  -372  -343  -363  -390  -405  -415  -433  -452  -445  -407  -370  -355  -348  -332  -307  -285  -257  -203  -127  -59  -19  -3  -3  -18  -56  -128  -233  -343  -432  -494  -539  -570  -602  -658  -734  -798  -828  -804  -692  -508  -369  -400  -595  -734  -431  587  2250  4117  5487  5754  4819  3024  824  -1289  -2927  -4035  -4679  -4832  -4479  -3692  -2652  -1671  -1026  -762  -718  -727  -726  -708  -670  -620  -584  -571  -569  -569  -570  -573  -579  -568  -506  -371  -181  0  104  169  328  663  1065  1350  1467  1496  1517  1593  1773  2035  2297  2503  2640  2721  2780  2840  2903  2961  3009  3035  3029  2993  2911  2778  2646  2568  2492  2297  1960  1613  1378  1227  1067  890  745  639  550  468  397  325  236  141  62  12  -27  -71  -123  -170  -199  -205  -197  -187  -193  -234  -317  -411  -486  -536  -565  -575  -568  -546  -507  -441  -360  -309  -319  -366  -417  -473  -550  -630  -685  -716  -734  -743  -747  -758  -782  -810  -828  -835  -842  -851  -848  -811  -745  -686  -674  -711  -754  -766  -755  -744  -731  -705  -665  -623  -600  -623  -701  -795  -835  -792  -708  -645  -620  -614  -614  -616  -615  -596  -543  -461  -398  -397  -441  -495  -546  -583  -580  -529  -452  -380  -311  -242  -204  -223  -263  -275  -250  -220  -215  -229  -237  -240  -261  -318  -388  -433  -440  -430  -434  -487  -606  -751  -856  -881  -828  -771  -817  -913  -765  -131  966  2365  3789  4776  4859  3880  2062  -155  -2233  -3724  -4506  -4722  -4510  -3940  -3141  -2319  -1624  -1124  -842  -741  -738  -767  -798  -816  -785  -657  -451  -265  -168  -135  -107  -66  -32  -6  34  94  160  230  300  364  437  557  755  1024  1294  1494  1651  1843  2091  2335  2494  2555  2579  2619  2679  2714  2698  2661  2644  2652  2663  2640  2544  2381  2228  2156  2140  2077  1887  1606  1348  1130  886  627  447  336  184  -43  -256  -368  -372  -296  -183  -88  -39  -22  -27  -78  -200  -362  -488  -540  -535  -499  -433  -331  -215  -131  -98  -97  -108  -132  -188  -276  -355  -406  -445  -477  -493  -500  -513  -545  -600  -649  -658  -648  -662  -697  -748  -836  -945  -1012  -1001  -939  -883  -862  -863  -844  -774  -670  -581  -533  -513  -502  -515  -579  -687  -777  -812  -816  -829  -858  -874  -845  -757  -623  -528  -561  -674  -753  -765  -734  -656  -507  -314  -153  -52  13  59  88  112  124  82  -42  -204  -331  -438  -581  -731  -816  -851  -875  -880  -847  -761  -643  -565  -576  -613  -610  -575  -459  -125  538  1570  2895  4230  5050  4854  3611  1686  -470  -2338  -3520  -4066  -4210  -4005  -3450  -2692  -1957  -1422  -1123  -967  -865  -802  -783  -791  -801  -790  -731  -611  -454  -300  -150  19  184  273  252  172  108  106  179  335  543  736  876  1004  1166  1351  1520  1686  1897  2173  2485  2757  2914  2958  2950  2937  2929  2919  2899  2868  2826  2784  2741  2671  2542  2317  2019  1751  1575  1432  1226  960  736  632  608  560  411  176  -55  -213  -309  -375  -416  -423  -397  -354  -328  -340  -368  -380  -363  -333  -312  -301  -291  -282  -302  -376  -483  -571  -602  -562  -448  -307  -228  -258  -352  -449  -538  -624  -686  -698  -648  -559  -504  -527  -573  -582  -579  -617  -700  -765  -761  -727  -713  -718  -719  -711  -706  -717  -744  -766  -763  -738  -714  -701  -697  -701  -729  -797  -897  -987  -1020  -959  -800  -611  -493  -470  -501  -548  -575  -542  -424  -256  -112  -24  28  55  20  -119  -351  -594  -770  -855  -869  -836  -764  -681  -646  -691  -775  -814  -768  -680  -614  -604  -682  -870  -1098  -1191  -931  -213  846  2098  3404  4434  4783  4262  2896  905  -1204  -2864  -3870  -4321  -4285  -3834  -3149  -2448  -1871  -1410  -1023  -757  -637  -588  -544  -507  -492  -495  -503  -503  -479  -410  -302  -196  -137  -132  -159  -174  -99  124  432  676  802  885  1012  1219  1468  1679  1805  1882  1995  2189  2433  2655  2809  2896  2940  2981  3048  3125  3162  3149  3124  3111  3081  2976  2761  2449  2080  1721  1433  1231  1093  987  864  680  474  337  299  308  278  161  -12  -159  -238  -269  -298  -342  -387  -412  -417  -414  -413  -414  -412  -398  -369  -341  -324  -314  -316  -333  -357  -373  -376  -372  -372  -379  -396  -426  -459  -485  -531  -630  -763  -862  -899  -899  -893  -893  -897  -901  -902  -899  -883  -853  -817  -792  -786  -790  -790  -771  -723  -659  -608  -588  -584  -580  -574  -581  -608  -636  -653  -670  -693  -712  -717  -709  -689  -663  -633  -599  -568  -550  -539  -507  -432  -331  -250  -200  -153  -100  -76  -121  -230  -349  -423  -447  -444  -434  -428  -435  -462  -508  -562  -620  -667  -697  -726  -756  -783  -835  -920  -991  -1015  -953  -653  2  1012  2360  3893  5130  5415  4399  2313  -242  -2533  -3942  -4393  -4293  -3969  -3453  -2781  -2098  -1520  -1097  -846  -737  -716  -726  -716  -653  -557  -480  -456  -474  -479  -411  -261  -85  32  50  5  -34  -25  77  302  595  850  1024  1157  1312  1515  1746  1978  2195  2386  2555  2692  2787  2864  2940  2999  3031  3047  3047  3034  3014  2984  2924  2816  2657  2469  2275  2075  1853  1595  1296  990  743  604  545  496  427  340  243  133  10  -108  -194  -233  -237  -231  -233  -254  -297  -349  -397  -438  -469  -479  -472  -464  -462  -462  -458  -448  -429  -400  -374  -362  -364  -375  -395  -435  -491  -539  -570  -591  -601  -591  -558  -514  -479  -458  -442  -434  -462  -567  -742  -904  -972  -955  -904  -841  -783  -733  -686  -653  -657  -688  -732  -777  -806  -805  -774  -727  -693  -688  -709  -749  -796  -834  -851  -850  -825  -778  -726  -690  -667  -649  -651  -694  -759  -816  -857  -881  -868  -772  -563  -305  -119  -49  -40  -24  29  103  141  93  -54  -285  -538  -727  -813  -819  -789  -756  -734  -724  -721  -723  -746  -819  -951  -1092  -1152  -1083  -951  -815  -542  102  1183  2582  4053  5104  5173  4161  2400  278  -1743  -3273  -4237  -4684  -4585  -3966  -3016  -2028  -1277  -893  -803  -832  -871  -897  -911  -906  -872  -813  -744  -682  -616  -501  -317  -114  52  173  247  274  283  317  393  476  531  595  749  1008  1284  1487  1610  1723  1919  2214  2529  2771  2897  2928  2925  2917  2899  2872  2854  2848  2832  2784  2718  2672  2651  2593  2401  2050  1628  1251  987  819  692  566  440  340  282  246  212  167  86  -26  -141  -226  -272  -296  -326  -360  -375  -365  -349  -342  -336  -319  -290  -261  -239  -221  -194  -155  -118  -102  -131  -224  -355  -467  -534  -584  -632  -665  -676  -682  -698  -717  -727  -723  -713  -706  -694  -667  -636  -622  -633  -661  -678  -671  -654  -643  -631  -607  -580  -572  -585  -591  -579  -566  -565  -572  -582  -606  -672  -779  -894  -972  -955  -821  -640  -494  -393  -333  -345  -445  -590  -707  -758  -757  -707  -595  -434  -286  -205  -186  -177  -135  -51  46  125  176  188  103  -117  -395  -584  -642  -652  -697  -779  -851  -890  -898  -843  -681  -452  -301  -377  -712  -1134  -1388  -1283  -746  115  1109  2132  3107  3844  4046  3486  2196  452  -1354  -2848  -3846  -4361  -4389  -3902  -3063  -2192  -1536  -1154  -959  -843  -764  -712  -665  -586  -459  -310  -185  -119  -106  -123  -143  -142  -84  51  225  362  430  449  446  445  486  603  783  974  1143  1308  1500  1700  1844  1925  2000  2121  2288  2455  2564  2601  2597  2586  2575  2568  2571  2567  2468  2190  1812  1535  1435  1429  1422  1362  1206  965  741  616  573  542  470  330  103  -180  -417  -533  -553  -537  -510  -465  -407  -362  -341  -330  -318  -305  -303  -328  -372  -390  -354  -288  -232  -200  -174  -141  -112  -98  -84  -70  -85  -149  -274  -434  -570  -649  -682  -689  -676  -644  -606  -582  -575  -577  -578  -571  -563  -568  -594  -632  -688  -772  -867  -925  -916  -834  -719  -638  -638  -718  -832  -918  -949  -935  -878  -784  -680  -594  -537  -522  -562  -647  -733  -779  -787  -782  -769  -739  -669  -544  -389  -254  -171  -128  -84  -28  18  30  9  -31  -83  -150  -226  -289  -342  -408  -497  -592  -660  -684  -675  -668  -685  -723  -764  -808  -861  -892  -865  -770  -555  -155  463  1390  2645  3954  4837  4850  3828  2023  -48  -1882  -3150  -3802  -3986  -3826  -3388  -2784  -2189  -1733  -1407  -1127  -875  -697  -613  -597  -607  -609  -583  -521  -437  -370  -340  -341  -358  -373  -355  -265  -81  167  393  536  631  741  877  1018  1179  1380  1583  1727  1824  1948  2149  2383  2566  2655  2682  2695  2717  2740  2752  2748  2727  2688  2602  2441  2247  2105  2036  1979  1885  1755  1582  1347  1054  758  531  389  279  136  -58  -257  -385  -421  -393  -327  -249  -199  -201  -257  -336  -400  -430  -423  -380  -324  -285  -279  -296  -330  -383  -461  -522  -503  -409  -314  -260  -237  -233  -263  -351  -485  -620  -723  -776  -773  -713  -616  -523  -468  -452  -462  -492  -540  -612  -715  -803  -803  -715  -627  -599  -620  -655  -691  -741  -799  -837  -843  -828  -808  -776  -709  -627  -569  -545  -540  -564  -650  -793  -914  -934  -863  -776  -723  -705  -706  -716  -725  -734  -742  -744  -712  -596  -373  -110  86  149  76  -72  -206  -281  -326  -388  -480  -591  -714  -835  -909  -902  -810  -680  -582  -544  -542  -548  -568  -626  -711  -761  -781  -830  -796  -420  463  1794  3328  4687  5341  4907  3504  1513  -637  -2409  -3449  -3882  -3920  -3579  -2941  -2237  -1658  -1290  -1112  -1024  -939  -848  -788  -771  -748  -674  -560  -448  -344  -245  -174  -145  -144  -155  -164  -161  -126  -39  99  275  475  693  926  1172  1395  1560  1681  1803  1953  2120  2265  2383  2506  2643  2769  2872  2961  3039  3098  3131  3131  3081  2963  2762  2491  2212  1996  1840  1700  1572  1473  1389  1290  1153  976  762  524  263  -37  -333  -512  -545  -508  -467  -438  -422  -417  -405  -364  -301  -245  -214  -204  -209  -239  -305  -390  -446  -440  -378  -313  -308  -359  -411  -433  -435  -430  -424  -428  -458  -507  -541  -539  -521  -507  -498  -488  -487  -512  -558  -601  -634  -678  -751  -834  -878  -848  -751  -618  -489  -407  -409  -519  -717  -917  -1034  -1062  -1045  -1004  -920  -778  -618  -498  -439  -420  -416  -417  -434  -489  -577  -658  -689  -653  -581  -529  -523  -544  -563  -574  -581  -562  -486  -357  -231  -159  -133  -120  -106  -93  -84  -76  -70  -66  -77  -114  -175  -251  -341  -446  -576  -706  -771  -754  -724  -741  -780  -796  -790  -778  -752  -704  -670  -711  -804  -740  -254  734  2076  3482  4596  5031  4509  3102  1188  -802  -2455  -3514  -4031  -4141  -3884  -3316  -2608  -1965  -1501  -1204  -1005  -830  -654  -505  -409  -351  -298  -247  -210  -182  -173  -187  -188  -155  -120  -106  -86  -25  71  178  315  531  824  1103  1286  1383  1459  1575  1770  2001  2174  2268  2361  2514  2722  2938  3113  3225  3258  3198  3067  2919  2802  2735  2718  2727  2709  2595  2333  1943  1544  1252  1056  884  726  606  525  450  329  157  -25  -182  -296  -364  -404  -429  -444  -451  -452  -456  -472  -481  -443  -348  -254  -214  -221  -246  -273  -300  -333  -348  -323  -279  -253  -268  -334  -434  -527  -592  -650  -726  -801  -822  -771  -697  -655  -656  -690  -731  -758  -778  -792  -798  -800  -782  -714  -610  -520  -486  -500  -517  -510  -493  -492  -503  -516  -550  -635  -753  -839  -841  -761  -648  -564  -532  -532  -548  -571  -596  -623  -657  -696  -723  -720  -693  -658  -618  -569  -527  -513  -541  -604  -667  -696  -686  -648  -588  -488  -334  -158  -15  76  131  157  162  152  122  51  -73  -226  -364  -488  -605  -684  -691  -623  -517  -450  -488  -635  -818  -955  -1034  -1067  -1035  -961  -902  -810  -557  -1  998  2397  3917  5132  5500  4689  2849  373  -2120  -3882  -4594  -4469  -3900  -3290  -2834  -2419  -1942  -1502  -1192  -984  -834  -728  -647  -584  -553  -547  -537  -513  -479  -425  -352  -291  -271  -281  -262  -137  113  391  562  605  608  655  768  935  1176  1506  1848  2075  2150  2158  2229  2442  2730  2937  3007  3003  2993  2992  2990  2984  2987  2998  2975  2871  2681  2438  2173  1898  1644  1465  1383  1336  1209  941  617  386  265  142  -24  -164  -212  -179  -120  -73  -40  -4  9  -50  -200  -378  -498  -531  -502  -452  -418  -432  -504  -606  -686  -719  -696  -602  -446  -286  -186  -153  -154  -159  -160  -174  -216  -282  -367  -484  -618  -713  -743  -737  -726  -721  -712  -688  -652  -623  -620  -653  -706  -726  -692  -655  -631  -591  -546  -534  -564  -634  -736  -875  -1021  -1052  -894  -663  -525  -515  -581  -684  -798  -883  -902  -863  -791  -704  -620  -552  -517  -529  -592  -678  -740  -750  -715  -653  -585  -526  -487  -463  -412  -297  -147  -37  6  20  30  36  27  -1  -50  -123  -213  -298  -384  -503  -639  -734  -766  -765  -766  -781  -810  -851  -889  -870  -769  -708  -796  -873  -669  -37  1096  2665  4297  5391  5417  4208  2066  -349  -2313  -3481  -4055  -4295  -4228  -3819  -3098  -2220  -1473  -1057  -932  -937  -963  -947  -826  -586  -315  -126  -45  -27  -27  -30  -46  -72  -89  -67  14  143  272  357  381  372  395  541  872  1321  1694  1870  1916  1971  2093  2241  2389  2570  2777  2943  3032  3065  3077  3086  3086  3080  3070  3036  2925  2693  2379  2108  1962  1901  1830  1692  1475  1191  911  728  648  585  464  293  133  33  -9  -29  -51  -57  -24  22  36  2  -59  -118  -153  -166  -173  -203  -294  -440  -576  -637  -612  -537  -442  -343  -273  -255  -295  -374  -443  -471  -487  -510  -525  -526  -520  -523  -547  -595  -650  -690  -713  -738  -784  -863  -958  -1019  -992  -856  -668  -534  -499  -522  -548  -560  -573  -606  -671  -762  -857  -928  -959  -957  -933  -886  -801  -663  -506  -395  -354  -367  -430  -547  -673  -726  -659  -502  -318  -154  -36  29  55  41  -46  -197  -357  -512  -658  -750  -750  -672  -568  -518  -558  -634  -678  -676  -641  -584  -522  -506  -611  -823  -977  -905  -522  266  1447  2765  3878  4437  4110  2876  1126  -702  -2301  -3460  -4165  -4519  -4481  -3944  -3001  -1979  -1210  -839  -775  -826  -867  -866  -819  -745  -676  -629  -587  -527  -451  -377  -331  -316  -304  -259  -158  -27  76  151  257  447  701  930  1075  1175  1302  1461  1597  1702  1829  2022  2261  2481  2622  2674  2679  2678  2681  2678  2668  2656  2637  2587  2502  2417  2353  2270  2115  1896  1673  1449  1158  797  469  271  198  184  177  163  142  90  -30  -211  -370  -453  -471  -460  -435  -406  -380  -359  -360  -384  -409  -423  -430  -430  -411  -374  -350  -382  -463  -552  -624  -677  -716  -771  -866  -944  -907  -764  -634  -596  -635  -700  -751  -774  -778  -773  -764  -758  -772  -831  -937  -1051  -1137  -1187  -1208  -1203  -1173  -1123  -1055  -981  -940  -954  -976  -964  -936  -933  -956  -976  -971  -945  -897  -804  -659  -503  -389  -332  -314  -311  -309  -302  -292  -294  -330  -405  -515  -669  -859  -1030  -1132  -1163  -1153  -1124  -1083  -1030  -975  -948  -1008  -1198  -1455  -1593  -1493  -1230  -878  -318  594  1806  3107  4177  4567  3967  2536  701  -1165  -2712  -3693  -4169  -4301  -4108  -3589  -2879  -2192  -1701  -1425  -1257  -1096  -921  -782  -743  -795  -880  -941  -906  -732  -465  -208  -54  -27  -86  -174  -236  -224  -93  145  408  619  756  818  825  858  1017  1318  1647  1883  2010  2082  2151  2265  2439  2620  2740  2780  2765  2718  2664  2629  2622  2620  2583  2482  2333  2172  2003  1808  1584  1366  1184  1004  733  362  16  -211  -325  -344  -283  -192  -146  -182  -268  -345  -385  -396  -398  -399  -392  -367  -332  -304  -297  -304  -307  -292  -250  -167  -64  12  38  21  -26  -85  -121  -115  -68  0]
