reading_id,reading_time,wire_id,result_classification,heart_rate,heart_rate_alert,firmware_version,device_app_version,hardware_version,waveform_samples
60548e50-558c-11ed-8080-808080808080,Thu Oct 27 00:14:51 UTC 2022,2101e3d81839,NSR,63,NONE,20001.171.50,2.10.0,Charge 5,[-10088  -10874  -11317  -11409  -11355  -11309  -11312  -11314  -11186  -10836  -10375  -10016  -9750  -9374  -8819  -8211  -7646  -7077  -6488  -5944  -5424  -4805  -4068  -3318  -2641  -2089  -1709  -1506  -1451  -1462  -1435  -1388  -1418  -1493  -1471  -1267  -901  -490  -183  -32  34  131  314  523  662  710  703  679  673  723  847  1023  1200  1337  1426  1485  1530  1568  1606  1658  1727  1813  1923  2084  2287  2492  2686  2871  3020  3134  3270  3465  3699  3926  4118  4292  4481  4672  4797  4813  4730  4599  4484  4397  4292  4135  3912  3641  3397  3252  3197  3173  3150  3126  3123  3146  3162  3117  2994  2845  2738  2664  2559  2423  2331  2342  2433  2495  2447  2318  2180  2065  1952  1796  1616  1487  1435  1434  1483  1602  1769  1894  1909  1805  1583  1307  1090  980  925  888  893  951  977  887  714  543  377  163  -27  -5  274  643  902  965  876  756  695  702  731  766  837  974  1172  1371  1488  1505  1490  1553  1784  2186  2655  3040  3243  3290  3273  3277  3363  3544  3764  3953  4130  4413  4877  5345  5503  5356  5202  5233  5538  6206  7209  8439  9684  10526  10562  9568  7703  5582  3708  2273  1457  1285  1653  2502  3578  4410  4763  4765  4635  4496  4369  4207  3971  3698  3478  3366  3345  3362  3385  3399  3379  3288  3127  2938  2755  2603  2508  2471  2464  2465  2464  2458  2440  2412  2398  2413  2432  2432  2439  2529  2757  3039  3215  3214  3080  2906  2783  2740  2761  2837  2962  3101  3202  3237  3223  3206  3215  3227  3210  3169  3123  3058  2944  2788  2651  2575  2550  2549  2562  2578  2567  2475  2268  1983  1724  1585  1574  1635  1713  1768  1775  1714  1573  1385  1222  1126  1069  1011  983  1050  1207  1387  1518  1580  1601  1606  1589  1539  1447  1323  1206  1132  1109  1121  1164  1251  1354  1409  1379  1296  1220  1187  1191  1215  1224  1140  888  541  289  233  327  470  582  639  651  610  498  350  242  194  150  53  -83  -186  -216  -198  -166  -133  -104  -97  -163  -341  -576  -754  -834  -859  -858  -833  -798  -766  -735  -716  -752  -886  -1100  -1312  -1452  -1483  -1415  -1317  -1269  -1291  -1329  -1340  -1357  -1439  -1563  -1642  -1633  -1581  -1547  -1543  -1547  -1539  -1493  -1379  -1225  -1109  -1063  -1064  -1100  -1183  -1295  -1387  -1433  -1450  -1458  -1468  -1495  -1542  -1570  -1528  -1412  -1219  -932  -596  -329  -203  -185  -198  -195  -166  -123  -83  -74  -130  -253  -406  -533  -599  -628  -668  -761  -911  -1068  -1167  -1180  -1119  -1013  -905  -849  -904  -1120  -1475  -1825  -2002  -1927  -1653  -1425  -1467  -1632  -1582  -1164  -326  922  2295  3349  3818  3647  2778  1242  -622  -2367  -3647  -4247  -4229  -3850  -3315  -2761  -2288  -1916  -1638  -1463  -1374  -1335  -1326  -1339  -1348  -1290  -1120  -895  -737  -686  -681  -662  -627  -598  -580  -558  -517  -464  -420  -384  -332  -258  -177  -92  -16  36  59  48  29  39  75  119  187  286  427  633  895  1152  1355  1482  1546  1577  1600  1631  1678  1729  1770  1798  1811  1808  1790  1768  1751  1719  1634  1478  1268  1031  807  633  473  270  64  -57  -94  -143  -288  -504  -686  -766  -757  -705  -670  -696  -758  -795  -803  -824  -863  -896  -906  -891  -857  -813  -766  -722  -688  -673  -679  -707  -759  -827  -880  -901  -895  -862  -805  -735  -680  -654  -639  -614  -586  -575  -592  -640  -721  -830  -916  -920  -865  -821  -794  -751  -688  -627  -618  -676  -738  -756  -749  -753  -781  -798  -769  -717  -695  -722  -776  -815  -816  -800  -788  -770  -726  -671  -646  -662  -688  -690  -662  -610  -558  -532  -537  -567  -611  -650  -665  -626  -508  -344  -224  -216  -324  -497  -665  -782  -836  -840  -814  -775  -741  -716  -691  -674  -696  -770  -848  -866  -823  -762  -703  -655  -634  -650  -710  -811  -944  -1094  -1176  -1055  -734  -408  -246  -250  -332  -421  -489  -521  -500  -415  -300  -214  -182  -191  -238  -340  -482  -608  -683  -723  -757  -795  -824  -825  -774  -684  -640  -712  -850  -956  -1000  -1017  -1043  -1028  -896  -656  -389  -131  279  1107  2371  3749  4721  4777  3771  2038  96  -1615  -2780  -3313  -3391  -3134  -2573  -1938  -1483  -1182  -924  -728  -624  -567  -524  -501  -494  -475  -425  -360  -306  -248  -146  -18  53  25  -54  -94  -46  58  168  274  412  589  754  839  831  779  737  725  735  753  762  753  752  834  1093  1537  2002  2290  2376  2378  2381  2366  2305  2226  2172  2159  2178  2212  2232  2222  2192  2169  2164  2149  2084  1960  1802  1660  1557  1439  1208  886  619  490  438  363  226  41  -159  -334  -439  -466  -451  -422  -387  -364  -390  -484  -602  -665  -628  -512  -366  -237  -164  -160  -215  -295  -361  -390  -392  -381  -367  -353  -338  -329  -332  -348  -377  -427  -486  -539  -597  -663  -711  -709  -657  -583  -523  -481  -432  -380  -382  -475  -611  -716  -772  -794  -800  -815  -850  -862  -780  -612  -456  -387  -387  -403  -393  -339  -263  -201  -171  -168  -209  -322  -473  -583  -619  -609  -585  -570  -577  -616  -673  -708  -694  -630  -525  -414  -354  -361  -409  -458  -483  -467  -404  -305  -203  -123  -70  -43  -70  -184  -367  -521  -565  -510  -446  -491  -656  -805  -805  -630  -381  -200  -136  -136  -159  -214  -304  -387  -404  -338  -234  -153  -113  -109  -129  -143  -123  -79  -38  -6  24  56  84  105  113  86  5  -103  -199  -286  -384  -493  -586  -611  -540  -424  -341  -301  -289  -340  -539  -857  -1054  -910  -518  -185  -71  52  641  1873  3389  4600  5077  4575  3151  1300  -467  -1918  -2880  -3239  -3083  -2628  -2075  -1554  -1128  -826  -660  -597  -583  -566  -500  -348  -143  18  88  97  91  88  78  56  26  3  -8  -5  29  112  214  284  312  344  433  590  766  888  933  931  909  887  907  1006  1164  1316  1441  1564  1690  1794  1863  1930  2045  2204  2333  2379  2356  2319  2312  2337  2362  2373  2373  2353  2297  2205  2101  1993  1869  1712  1490  1172  808  509  313  182  87  9  -79  -194  -316  -429  -518  -571  -582  -575  -603  -669  -678  -594  -522  -533  -589  -638  -663  -669  -671  -670  -648  -592  -519  -467  -451  -454  -462  -465  -461  -444  -419  -404  -407  -412  -404  -394  -408  -454  -523  -588  -628  -642  -655  -700  -773  -833  -836  -783  -717  -675  -663  -664  -671  -688  -708  -703  -651  -572  -511  -487  -486  -502  -544  -605  -639  -598  -497  -417  -437  -538  -628  -659  -653  -647  -647  -649  -643  -613  -548  -466  -406  -378  -366  -376  -462  -679  -968  -1171  -1166  -948  -638  -387  -235  -141  -100  -125  -183  -228  -245  -255  -274  -293  -299  -293  -279  -256  -232  -211  -195  -182  -176  -192  -231  -286  -343  -366  -312  -180  -29  70  102  100  95  92  79  43  -14  -92  -187  -270  -299  -290  -285  -285  -237  -92  112  264  282  164  -30  -203  -295  -319  -311  -292  -276  -285  -327  -388  -435  -451  -431  -339  -152  34  57  -82  -85  366  1302  2569  3898  4846  5014  4271  2771  888  -916  -2253  -2953  -3068  -2740  -2202  -1729  -1396  -1117  -885  -741  -644  -521  -406  -403  -480  -475  -335  -157  -14  84  134  133  102  76  59  25  9  87  265  450  548  545  515  520  546  561  562  572  606  658  727  841  1012  1207  1372  1462  1476  1455  1456  1539  1730  1976  2200  2386  2550  2672  2724  2696  2601  2463  2321  2213  2132  2034  1903  1765  1630  1459  1234  1006  835  731  636  490  324  198  94  -51  -239  -410  -536  -631  -704  -744  -754  -761  -791  -824  -804  -732  -690  -704  -729  -738  -736  -735  -739  -744  -724  -654  -545  -438  -347  -265  -236  -310  -454  -613  -760  -865  -917  -940  -958  -969  -944  -863  -751  -669  -650  -677  -716  -743  -753  -755  -759  -755  -719  -632  -494  -323  -161  -59  -26  -23  -21  -28  -76  -195  -389  -605  -771  -863  -898  -850  -682  -457  -290  -218  -210  -238  -279  -326  -381  -461  -570  -650  -610  -464  -333  -286  -296  -313  -325  -349  -405  -501  -627  -756  -839  -838  -736  -563  -399  -312  -295  -305  -314  -321  -333  -348  -358  -363  -365  -369  -375  -378  -372  -359  -352  -349  -339  -319  -302  -306  -328  -363  -414  -477  -529  -556  -558  -515  -400  -236  -104  -48  -43  -34  10  66  72  0  -134  -289  -422  -519  -591  -638  -649  -629  -606  -593  -579  -550  -495  -427  -375  -349  -342  -351  -383  -389  -204  306  1136  2215  3311  4030  4176  3764  2835  1531  38  -1454  -2634  -3217  -3141  -2574  -1891  -1411  -1174  -1064  -946  -738  -471  -236  -75  -10  -36  -99  -149  -179  -199  -211  -206  -157  -46  114  290  457  600  706  772  804  815  818  817  797  756  726  738  793  891  1024  1177  1335  1476  1585  1684  1819  2012  2228  2410  2530  2576  2546  2488  2481  2541  2614  2671  2721  2771  2791  2721  2525  2272  2092  2016  1953  1821  1627  1431  1286  1212  1155  1028  820  593  399  256  147  22  -118  -220  -276  -341  -443  -541  -594  -607  -603  -588  -553  -498  -435  -365  -298  -251  -231  -219  -211  -218  -248  -311  -432  -596  -741  -819  -818  -746  -618  -477  -386  -390  -487  -629  -747  -819  -867  -881  -833  -725  -611  -544  -536  -555  -572  -591  -632  -701  -785  -865  -915  -917  -894  -871  -857  -851  -859  -887  -937  -1008  -1075  -1083  -993  -842  -713  -654  -643  -637  -623  -607  -592  -575  -555  -536  -545  -601  -675  -702  -650  -554  -479  -456  -485  -566  -678  -785  -856  -859  -775  -654  -565  -518  -489  -475  -471  -456  -412  -358  -335  -350  -373  -400  -476  -632  -785  -789  -639  -486  -437  -481  -556  -615  -647  -659  -644  -593  -519  -452  -413  -407  -437  -497  -540  -515  -426  -331  -262  -207  -137  -53  4  -20  -168  -388  -534  -519  -406  -308  -277  -295  -327  -367  -437  -551  -672  -681  -490  -175  156  554  1196  2164  3265  4155  4534  4148  2948  1242  -567  -2141  -3123  -3355  -3059  -2542  -1917  -1271  -794  -556  -435  -322  -182  -62  -52  -151  -241  -250  -219  -199  -198  -200  -179  -117  2  188  395  536  583  577  554  515  462  424  443  556  751  959  1112  1185  1197  1183  1168  1171  1222  1362  1597  1869  2097  2228  2271  2287  2329  2399  2463  2499  2511  2510  2504  2495  2484  2470  2442  2390  2314  2202  2046  1871  1701  1521  1321  1135  987  857  742  666  615  522  344  122  -55  -165  -250  -334  -400  -443  -478  -515  -536  -492  -342  -138  10  64  57  9  -95  -241  -363  -420  -429  -417  -393  -363  -339  -325  -320  -315  -299  -273  -240  -211  -200  -224  -289  -372  -441  -483  -500  -506  -521  -566  -641  -706  -716  -680  -624  -550  -478  -439  -434  -441  -449  -460  -475  -486  -490  -490  -491  -495  -500  -506  -517  -530  -534  -534  -541  -538  -492  -407  -316  -249  -214  -202  -208  -245  -326  -429  -506  -535  -535  -525  -521  -537  -565  -582  -577  -558  -536  -506  -458  -393  -327  -279  -255  -245  -232  -203  -168  -142  -125  -101  -68  -54  -94  -193  -295  -325  -285  -236  -213  -193  -152  -102  -73  -72  -92  -146  -250  -382  -476  -496  -458  -402  -362  -352  -374  -421  -467  -474  -443  -477  -661  -831  -725  -323  307  1171  2168  3114  3863  4263  4133  3335  1945  291  -1314  -2609  -3295  -3336  -3033  -2592  -2010  -1329  -743  -412  -303  -295  -329  -382  -419  -414  -379  -344  -319  -296  -285  -309  -368  -434  -481  -493  -448  -271  75  476  740  806  734  590  433  326  297  317  338  348  387  513  722  920  1021  1029  998  988  1067  1278  1555  1756  1807  1760  1698  1658  1635  1621  1604  1569  1509  1432  1344  1228  1079  928  784  613  450  365  333  240  -6  -397  -815  -1143  -1364  -1521  -1625  -1668  -1668  -1660  -1681  -1748  -1848  -1952  -2038  -2099  -2127  -2119  -2087  -2057  -2046  -2044  -2021  -1961  -1901  -1907  -1991  -2092  -2151  -2163  -2155  -2149  -2151  -2149  -2127  -2080  -2031  -2022  -2079  -2166  -2224  -2241  -2240  -2255  -2313  -2408  -2501  -2564  -2598  -2605  -2594  -2578  -2578  -2612  -2694  -2802  -2877  -2865  -2755  -2600  -2468  -2364  -2244  -2119  -2037  -2017  -2046  -2116  -2224  -2344  -2426  -2422  -2269  -1850  -1116  -285  333  694  925  1074  1143  1188  1256  1351  1455  1556  1655  1759  1851  1897  1892  1873  1874  1902  1957  2036  2124  2195  2222  2205  2171  2142  2116  2089  2064  2051  2064  2113  2199  2298  2369  2367  2263  2067  1859  1728  1690  1711  1755  1807  1852  1857  1806  1722  1641  1554  1415  1220  1029  914  888  891  871  839  828  826  785  685  627  763  1100  1572  2247  3148  4069  4751  4979  4552  3493  2077  560  -815  -1748  -2095  -1929  -1384  -704  -184  109  312  505  662  729  696  621  591  646  751  836  879  898  902  887  855  819  787  767  775  845  999  1192  1335  1386  1379  1364  1366  1389  1434  1496  1557  1594  1602  1600  1598  1600  1618  1677  1778  1884  1955  1984  1988  1979  1970  1983  2044  2152  2267  2350  2399  2434  2455  2424  2296  2072  1786  1465  1149  887  690  528  358  151  -85  -346  -634  -909  -1092  -1167  -1197  -1251  -1362  -1519  -1661  -1715  -1669  -1581  -1514  -1484  -1456  -1390  -1267  -1105  -961  -888  -878  -876  -830  -735  -639  -629  -752  -945  -1105  -1190  -1219  -1220  -1211  -1203  -1211  -1255  -1330  -1404  -1444  -1443  -1433  -1448  -1481  -1507  -1516  -1503  -1439  -1293  -1098  -946  -869  -836  -823  -825  -830  -816  -759  -673  -614  -665  -871  -1156  -1364  -1414  -1347  -1238  -1145  -1087  -1056  -1031  -1000  -968  -938  -919  -932  -1000  -1127  -1263  -1331  -1314  -1249  -1162  -1070  -1007  -994  -1016  -1048  -1071  -1079  -1076  -1066  -1055  -1065  -1128  -1246  -1351  -1364  -1293  -1213  -1162  -1123  -1069  -986  -874  -759  -673  -634  -629  -641  -662  -678  -645  -516  -316  -152  -110  -182  -312  -445  -535  -572  -589  -615  -643  -652  -645  -649  -676  -706  -711  -699  -692  -693  -691  -679  -678  -716  -779  -800  -656  -158  806  2076  3290  4130  4320  3626  2116  247  -1488  -2773  -3390  -3333  -2864  -2324  -1924  -1644  -1299  -767  -135  369  605  601  461  289  165  109  87  69  59  70  98  133  169  192  172  84  -45  -151  -167  -35  258  625  942  1159  1287  1358  1392  1384  1383  1469  1640  1836  2001  2097  2133  2166  2242  2376  2569  2796  2990  3089  3099  3068  3033  3001  2968  2949  2952  2929  2824  2636  2402  2153  1903  1680  1532  1481  1475  1392  1133  774  502  380  315  223  91  -67  -231  -374  -483  -557  -594  -600  -591  -575  -536  -469  -399  -360  -357  -374  -392  -401  -403  -396  -369  -314  -234  -153  -101  -89  -106  -131  -139  -124  -94  -70  -71  -72  -29  38  70  17  -128  -330  -537  -725  -873  -945  -945  -922  -906  -887  -859  -839  -843  -867  -921  -1023  -1152  -1251  -1293  -1298  -1294  -1298  -1331  -1408  -1513  -1600  -1630  -1587  -1473  -1319  -1173  -1044  -912  -752  -553  -354  -225  -182  -179  -176  -160  -141  -131  -128  -117  -102  -97  -105  -101  -68  -15  39  70  39  -88  -287  -477  -601  -643  -618  -566  -517  -472  -425  -402  -425  -468  -500  -521  -526  -463  -279  -26  165  235  219  150  39  -73  -123  -83  15  116  184  203  163  67  -70  -241  -408  -509  -524  -495  -461  -427  -400  -390  -391  -383  -354  -329  -380  -518  -586  -430  -49  557  1397  2374  3322  4033  4232  3708  2510  879  -869  -2327  -3191  -3452  -3256  -2764  -2127  -1470  -910  -515  -258  -83  16  32  -30  -146  -257  -313  -301  -249  -210  -201  -192  -152  -62  84  259  407  471  456  433  436  427  398  410  496  603  679  722  761  800  827  852  878  905  969  1118  1324  1492  1567  1573  1543  1489  1432  1441  1578  1827  2111  2366  2543  2609  2592  2542  2461  2335  2167  1979  1793  1633  1487  1284  972  589  230  -35  -201  -311  -421  -554  -685  -799  -914  -1035  -1132  -1187  -1215  -1234  -1242  -1240  -1228  -1189  -1119  -1038  -969  -910  -846  -775  -705  -640  -569  -481  -392  -340  -330  -330  -303  -235  -152  -91  -70  -100  -197  -344  -476  -544  -565  -579  -595  -587  -533  -455  -392  -361  -359  -407  -535  -704  -827  -866  -861  -859  -869  -877  -866  -849  -840  -844  -856  -861  -853  -841  -834  -831  -820  -798  -774  -754  -698  -546  -299  -57  77  98  58  2  -48  -102  -187  -316  -467  -594  -663  -683  -680  -669  -655  -637  -619  -608  -625  -681  -745  -758  -688  -576  -488  -441  -418  -412  -412  -381  -259  -55  117  153  71  -40  -143  -242  -320  -354  -332  -255  -124  45  208  306  332  320  280  207  114  31  -29  -77  -113  -135  -135  -75  58  196  269  275  245  211  186  147  59  -68  -192  -304  -442  -607  -737  -789  -776  -733  -696  -668  -615  -534  -466  -428  -390  -322  -245  -164  7  367  1027  2095  3437  4655  5353  5233  4157  2303  115  -1864  -3124  -3421  -2964  -2224  -1611  -1286  -1173  -1113  -1013  -859  -674  -487  -331  -242  -220  -233  -258  -278  -273  -227  -146  -32  133  323  453  489  476  480  543  658  786  905  1010  1088  1126  1132  1123  1111  1098  1094  1129  1243  1441  1660  1814  1875  1875  1863  1881  1945  2029  2091  2135  2202  2307  2432  2575  2719  2790  2747  2656  2581  2493  2360  2229  2155  2098  1931  1592  1196  920  809  772  707  561  323  13  -294  -523  -667  -784  -934  -1142  -1369  -1534  -1598  -1571  -1474  -1348  -1253  -1212  -1207  -1217  -1238  -1262  -1255  -1150  -908  -611  -405  -340  -349  -353  -314  -222  -86  58  167  203  145  -3  -188  -345  -447  -476  -428  -354  -313  -314  -347  -391  -409  -377  -316  -279  -294  -343  -383  -397  -396  -394  -395  -397  -395  -380  -320  -170  46  232  321  336  325  308  281  232  174  124  86  40  -14  -52  -58  -48  -52  -97  -194  -335  -474  -534  -505  -438  -389  -407  -494  -587  -650  -694  -741  -810  -896  -955  -951  -888  -804  -743  -719  -711  -701  -691  -691  -708  -739  -781  -833  -876  -893  -875  -828  -788  -777  -780  -800  -857  -926  -978  -1009  -1026  -1036  -1052  -1073  -1084  -1073  -1036  -964  -839  -672  -501  -364  -286  -262  -269  -289  -301  -265  -138  48  183  179  43  -169  -377  -504  -543  -536  -501  -424  -317  -222  -163  -135  -126  -120  -92  -35  23  60  85  83  -11  -148  -44  538  1503  2593  3669  4622  5201  5066  3985  2048  -225  -2092  -3036  -3055  -2572  -2036  -1611  -1237  -853  -504  -278  -167  -78  52  209  331  384  376  323  237  140  61  26  24  7  -58  -127  -107  45  252  387  403  365  346  343  320  282  275  334  467  662  900  1125  1268  1334  1398  1529  1744  1999  2223  2365  2427  2447  2464  2492  2504  2475  2431  2402  2384  2355  2311  2255  2184  2114  2088  2110  2106  2001  1812  1595  1355  1075  767  451  144  -130  -356  -567  -780  -950  -1047  -1088  -1096  -1071  -1019  -953  -888  -836  -799  -772  -756  -768  -834  -966  -1122  -1227  -1231  -1126  -944  -752  -607  -523  -484  -478  -507  -586  -717  -856  -939  -958  -948  -918  -855  -777  -736  -760  -822  -874  -896  -897  -873  -811  -733  -694  -732  -829  -943  -1047  -1127  -1170  -1178  -1164  -1133  -1095  -1057  -1023  -981  -930  -909  -942  -973  -940  -845  -700  -493  -261  -98  -43  -62  -126  -229  -336  -394  -390  -357  -323  -280  -227  -187  -168  -165  -167  -170  -163  -140  -128  -158  -198  -196  -158  -121  -106  -115  -156  -227  -309  -368  -394  -403  -413  -418  -412  -404  -403  -403  -401  -401  -405  -400  -363  -281  -158  -19  86  102  0  -212  -464  -650  -724  -730  -717  -691  -628  -543  -487  -479  -478  -431  -323  -183  -62  8  37  39  25  13  24  64  114  123  71  7  -21  -18  -13  -40  -123  -234  -311  -325  -315  -348  -474  -658  -808  -877  -875  -815  -734  -711  -728  -600  -184  542  1559  2800  4092  5075  5262  4378  2657  678  -1112  -2445  -3113  -3195  -2968  -2551  -1968  -1317  -747  -373  -197  -133  -98  -39  59  163  231  262  276  284  286  289  297  300  275  204  96  -14  -92  -118  -69  75  290  501  659  760  807  803  772  775  874  1051  1231  1364  1445  1502  1574  1674  1783  1901  2040  2186  2310  2407  2494  2564  2576  2519  2450  2447  2552  2700  2728  2590  2439  2373  2349  2322  2254  2093  1832  1541  1309  1178  1124  1074  957  768  572  423  332  277  230  176  132  119  132  150  169  206  266  328  362  345  271  170  96  68  69  91  141  206  250  248  209  172  168  173  147  92  22  -61  -143  -199  -240  -296  -382  -491  -592  -647  -658  -665  -717  -826  -952  -1043  -1072  -1025  -884  -693  -545  -494  -550  -713  -928  -1083  -1123  -1079  -1012  -964  -943  -939  -961  -1021  -1106  -1166  -1187  -1206  -1247  -1304  -1365  -1408  -1426  -1433  -1421  -1366  -1268  -1157  -1075  -1032  -1025  -1043  -1065  -1071  -1062  -1045  -1028  -1026  -1065  -1163  -1282  -1347  -1349  -1314  -1253  -1215  -1232  -1271  -1299  -1335  -1407  -1502  -1555  -1497  -1301  -1007  -724  -555  -513  -545  -615  -700  -772  -821  -884  -1012  -1215  -1437  -1588  -1642  -1627  -1548  -1390  -1201  -1074  -1042  -1052  -1029  -940  -821  -724  -659  -621  -618  -665  -777  -953  -1134  -1242  -1258  -1234  -1215  -1205  -1196  -1183  -1149  -1073  -973  -892  -845  -811  -784  -788  -813  -740  -490  -136  336  1085  2150  3386  4531  5200  5015  3896  2115  125  -1561  -2589  -2896  -2591  -1954  -1324  -804  -348  -13  146  198  211  213  219  234  288  429  649  856  967  988  963  917  865  827  822  872  989  1153  1313  1435  1517  1571  1615  1664  1722  1790  1876  1973  2053  2090  2099  2148  2291  2489  2643  2708  2723  2772  2956  3312  3738  4066  4207  4182  4043  3857  3696  3592  3536  3514  3500  3451  3343  3197  3047  2882  2663  2410  2201  2071  1952  1764  1522  1290  1083  885  712  583  474  359  236  109  -10  -110  -194  -270  -319  -333  -331  -331  -340  -341  -293  -159  20  157  214  200  99  -113  -390  -625  -751  -791  -801  -814  -834  -845  -843  -853  -884  -917  -945  -974  -990  -965  -925  -929  -993  -1067  -1114  -1150  -1204  -1277  -1347  -1388  -1394  -1392  -1415  -1481  -1567  -1638  -1694  -1748  -1814  -1908  -2017  -2101  -2142  -2164  -2189  -2231  -2285  -2320  -2298  -2196  -2052  -1937  -1883  -1876  -1883  -1861  -1805  -1750  -1716  -1688  -1631  -1524  -1405  -1364  -1470  -1682  -1882  -1980  -1965  -1858  -1710  -1585  -1502  -1428  -1350  -1290  -1240  -1170  -1078  -996  -947  -943  -985  -1050  -1105  -1137  -1144  -1086  -915  -672  -469  -361  -345  -426  -573  -703  -777  -817  -830  -760  -548  -249  -2  126  165  121  -19  -208  -341  -382  -375  -371  -390  -420  -438  -437  -435  -467  -553  -671  -766  -822  -871  -917  -859  -547  110  1088  2231  3311  4098  4440  4357  3925  3124  1973  557  -995  -2362  -3194  -3378  -2913  -1962  -968  -313  -30  39  39  41  65  126  232  371  501  579  599  595  611  670  755  821  854  876  901  921  927  927  930  949  981  1014  1034  1042  1058  1111  1209  1323  1420  1513  1629  1749  1840  1894  1943  2028  2147  2246  2276  2229  2140  2078  2090  2167  2290  2435  2550  2613  2667  2763  2867  2876  2749  2558  2401  2301  2214  2087  1895  1644  1376  1158  1037  1000  993  984  973  960  937  901  852  771  623  427  263  188  185  205  198  134  33  -48  -82  -76  -47  -8  20  15  -48  -175  -338  -485  -570  -592  -585  -579  -582  -589  -595  -604  -618  -623  -580  -457  -292  -173  -132  -137  -156  -180  -204  -206  -179  -151  -195  -358  -591  -773  -835  -802  -753  -755  -827  -929  -995  -1004  -984  -964  -955  -981  -1069  -1210  -1350  -1434  -1453  -1444  -1441  -1423  -1380  -1340  -1325  -1322  -1317  -1316  -1343  -1425  -1538  -1618  -1614  -1522  -1389  -1282  -1234  -1255  -1352  -1501  -1628  -1655  -1557  -1388  -1229  -1127  -1092  -1091  -1081  -1064  -1082  -1177  -1350  -1499  -1477  -1279  -1054  -914  -867  -875  -894  -877  -788  -629  -446  -297  -245  -328  -511  -696  -797  -789  -689  -541  -416  -356  -357  -410  -519  -670  -833  -965  -1027  -1020  -984  -954  -966  -1024  -993  -637  137  1236  2450  3508  4258  4638  4405  3311  1490  -637  -2557  -3759  -3966  -3363  -2513  -1847  -1339  -851  -439  -203  -138  -159  -180  -172  -155  -139  -109  -54  20  92  137  152  152  149  145  141  148  186  271  391  519  623  683  705  706  736  866  1075  1258  1372  1462  1547  1606  1625  1623  1628  1656  1715  1806  1919  2042  2165  2283  2380  2451  2507  2571  2649  2686  2640  2552  2489  2466  2463  2467  2467  2444  2343  2110  1769  1433  1204  1100  1065  1011  851  528  80  -323  -542  -592  -565  -494  -352  -112  166  356  384  271  94  -47  -99  -68  1  68  101  77  -18  -165  -311  -415  -469  -478  -451  -409  -375  -357  -343  -318  -267  -201  -150  -126  -122  -148  -240  -394  -531  -612  -689  -769  -799  -777  -740  -714  -706  -705  -704  -703  -717  -770  -879  -1020  -1139  -1206  -1236  -1260  -1301  -1353  -1400  -1448  -1500  -1508  -1424  -1284  -1163  -1083  -1024  -955  -878  -821  -804  -820  -861  -919  -977  -1016  -1036  -1036  -986  -848  -670  -578  -646  -821  -982  -1056  -1050  -1008  -928  -765  -542  -360  -277  -265  -276  -279  -244  -142  -2  99  126  98  46  -3  -43  -64  -69  -63  -59  -74  -124  -184  -194  -103  49  156  164  127  104  81  19  -89  -205  -287  -328  -361  -423  -511  -569  -553  -485  -411  -347  -262  -123  94  423  940  1748  2823  3924  4762  5087  4662  3420  1618  -324  -1947  -2823  -2829  -2249  -1482  -794  -358  -207  -160  -52  109  263  373  430  453  469  487  495  480  452  434  446  475  500  512  518  530  552  561  510  357  150  2  -11  111  305  478  592  708  894  1123  1300  1383  1425  1491  1589  1655  1627  1530  1449  1435  1482  1578  1734  1951  2179  2343  2414  2421  2409  2400  2397  2392  2380  2332  2213  2015  1740  1377  996  738  639  608  546  400  179  -42  -203  -290  -322  -322  -314  -316  -338  -384  -452  -553  -705  -902  -1078  -1145  -1080  -953  -857  -821  -822  -840  -893  -1001  -1143  -1255  -1297  -1285  -1258  -1226  -1160  -1039  -902  -814  -789  -792  -793  -790  -801  -847  -928  -1013  -1078  -1117  -1129  -1103  -1029  -922  -822  -765  -753  -761  -760  -762  -782  -803  -812  -818  -822  -823  -810  -757  -653  -534  -451  -422  -425  -436  -445  -442  -409  -339  -258  -201  -183  -202  -262  -353  -443  -518  -591  -658  -682  -633  -531  -436  -396  -414  -456  -499  -557  -640  -708  -705  -623  -510  -401  -310  -246  -229  -271  -349  -433  -509  -567  -587  -520  -323  -54  144  209  173  84  -26  -124  -201  -301  -485  -726  -902  -932  -824  -637  -424  -198  5  94  -4  -264  -585  -881  -1098  -1218  -1275  -1322  -1379  -1427  -1438  -1379  -1230  -1036  -895  -843  -848  -893  -996  -1135  -1151  -811  23  1284  2640  3700  4291  4331  3721  2539  1041  -577  -2118  -3218  -3612  -3328  -2538  -1523  -682  -267  -189  -221  -234  -191  -95  5  82  154  217  251  255  243  231  232  254  297  340  368  387  399  401  400  416  466  537  611  701  821  945  1034  1061  1029  981  968  1016  1128  1282  1440  1572  1689  1800  1880  1922  1959  2013  2086  2184  2318  2465  2572  2615  2613  2591  2555  2494  2399  2293  2220  2183  2139  2059  1932  1732  1461  1170  917  717  545  372  201  64  -14  -37  -9  67  170  254  290  276  217  109  -30  -162  -244  -267  -235  -155  -57  15  41  31  3  -36  -87  -149  -214  -264  -289  -293  -295  -327  -410  -523  -607  -638  -639  -645  -677  -736  -824  -952  -1098  -1214  -1291  -1354  -1410  -1433  -1361  -1138  -831  -602  -516  -513  -531  -582  -699  -857  -970  -996  -972  -944  -924  -912  -908  -918  -953  -1009  -1054  -1024  -853  -560  -276  -116  -77  -92  -108  -102  -74  -53  -104  -270  -501  -672  -733  -719  -661  -559  -438  -355  -338  -368  -409  -434  -450  -488  -558  -631  -644  -568  -461  -411  -407  -409  -467  -601  -724  -777  -794  -816  -834  -830  -810  -786  -743  -666  -566  -464  -376  -312  -282  -276  -276  -266  -232  -166  -84  -18  6  -34  -168  -369  -556  -676  -727  -731  -710  -684  -676  -698  -729  -748  -754  -744  -704  -652  -694  -913  -1187  -1293  -1084  -442  662  2055  3465  4560  4905  4180  2514  420  -1560  -3000  -3669  -3636  -3176  -2605  -2123  -1709  -1309  -982  -783  -705  -702  -706  -685  -643  -571  -478  -406  -377  -376  -372  -334  -248  -121  17  134  217  276  321  352  360  344  331  392  588  867  1086  1173  1173  1157  1173  1266  1456  1684  1864  1981  2079  2188  2321  2481  2639  2774  2877  2934  2943  2916  2863  2799  2754  2753  2772  2755  2658  2472  2241  2058  1980  1973  1956  1873  1730  1566  1369  1096  785  550  444  401  334  198  -23  -284  -484  -569  -559  -469  -311  -142  -31  11  20  4  -47  -116  -170  -210  -264  -341  -419  -460  -458  -450  -461  -480  -495  -507  -512  -512  -529  -600  -736  -907  -1063  -1158  -1182  -1167  -1145  -1115  -1065  -994  -907  -797  -653  -492  -364  -294  -278  -324  -467  -690  -872  -896  -788  -677  -631  -628  -630  -624  -616  -596  -552  -491  -447  -432  -437  -447  -451  -428  -351  -224  -125  -155  -293  -418  -474  -488  -483  -459  -421  -395  -388  -381  -364  -353  -372  -427  -495  -541  -555  -554  -557  -580  -611  -604  -538  -467  -470  -571  -722  -827  -835  -778  -737  -756  -798  -810  -796  -777  -738  -640  -492  -339  -204  -108  -96  -165  -247  -297  -322  -338  -346  -351  -357  -367  -385  -400  -375  -275  -116  20  73  48  -2  -41  -81  -172  -344  -553  -715  -788  -792  -757  -700  -633  -575  -547  -595  -726  -791  -609  -141  580  1538  2620  3616  4276  4306  3509  2010  204  -1526  -2854  -3491  -3451  -3066  -2614  -2140  -1624  -1151  -832  -667  -580  -489  -344  -159  0  89  130  156  177  184  174  163  173  210  245  253  261  319  428  572  761  966  1110  1170  1199  1238  1287  1336  1380  1404  1416  1460  1587  1789  1994  2141  2206  2193  2126  2069  2071  2114  2167  2256  2400  2558  2666  2709  2721  2731  2755  2788  2785  2670  2415  2102  1859  1722  1616  1470  1299  1134  960  747  487  187  -105  -335  -482  -549  -559  -555  -562  -572  -571  -545  -491  -415  -342  -308  -314  -337  -361  -395  -449  -529  -628  -725  -789  -814  -816  -814  -815  -811  -795  -759  -708  -656  -622  -611  -613  -619  -627  -642  -667  -695  -718  -753  -830  -934  -1009  -1031  -1028  -1036  -1074  -1132  -1193  -1239  -1240  -1170  -1058  -956  -873  -804  -758  -736  -717  -693  -684  -716  -796  -895  -979  -1028  -1050  -1052  -1018  -934  -839  -791  -786  -773  -742  -709  -681  -651  -609  -555  -504  -464  -447  -469  -538  -648  -766  -825  -781  -678  -567  -467  -395  -363  -363  -378  -398  -434  -492  -541  -558  -571  -590  -594  -577  -562  -580  -646  -738  -802  -795  -720  -633  -603  -638  -690  -723  -731  -686  -559  -381  -228  -125  -54  8  70  108  98  61  23  -31  -138  -291  -406  -401  -306  -231  -238  -299  -369  -435  -500  -552  -578  -572  -533  -497  -552  -721  -854  -774  -435  144  945  1978  3187  4260  4791  4507  3341  1574  -311  -1913  -2937  -3318  -3234  -2851  -2275  -1688  -1269  -1043  -924  -855  -802  -717  -595  -465  -335  -204  -99  -42  -14  6  22  29  26  19  15  26  70  168  309  435  519  565  566  518  442  386  444  636  855  1005  1083  1111  1102  1095  1167  1382  1675  1902  2013  2073  2160  2319  2542  2759  2896  2949  2952  2932  2898  2843  2759  2663  2588  2545  2531  2540  2563  2546  2399  2083  1689  1361  1141  965  776  598  487  449  434  389  306  210  113  11  -83  -148  -181  -195  -197  -186  -180  -220  -345  -512  -606  -548  -378  -206  -114  -96  -108  -119  -115  -94  -64  -39  -29  -46  -102  -186  -268  -332  -374  -394  -402  -405  -404  -394  -379  -381  -410  -441  -451  -438  -411  -383  -355  -317  -283  -291  -372  -516  -657  -736  -753  -753  -769  -808  -874  -960  -1022  -1033  -1016  -1003  -1003  -1010  -1014  -1002  -968  -925  -895  -877  -849  -803  -747  -696  -653  -616  -584  -551  -513  -492  -506  -542  -579  -616  -654  -686  -696  -676  -635  -604  -604  -634  -687  -746  -794  -817  -801  -750  -690  -647  -628  -625  -622  -608  -591  -574  -540  -484  -436  -434  -489  -576  -653  -697  -714  -717  -713  -711  -717  -725  -723  -708  -698  -719  -778  -839  -838  -761  -654  -589  -611  -696  -775  -808  -798  -747  -677  -664  -733  -726  -391  418  1655  3084  4313  4933  4757  3805  2195  254  -1546  -2821  -3375  -3317  -2971  -2544  -2095  -1641  -1174  -733  -420  -285  -276  -302  -299  -244  -144  -30  67  122  139  138  133  115  77  31  -8  -29  -6  63  145  235  374  566  740  840  912  1041  1220  1358  1408  1406  1409  1458  1547  1634  1684  1715  1769  1862  1972  2078  2177  2279  2394  2510  2590  2620  2625  2622  2601  2542  2449  2349  2248  2120  1952  1786  1668  1574  1445  1281  1145  1073  1025  922  728  477  244  71  -60  -182  -308  -419  -483  -499  -517  -578  -670  -748  -796  -830  -848  -815  -706  -554  -433  -365  -331  -340  -422  -553  -667  -723  -729  -716  -700  -681  -655  -630  -608  -584  -554  -535  -547  -598  -657  -690  -714  -763  -806  -792  -727  -658  -620  -611  -609  -604  -607  -627  -659  -677  -656  -602  -534  -483  -484  -536  -600  -651  -684  -701  -704  -691  -649  -563  -456  -376  -345  -351  -382  -438  -516  -593  -643  -658  -656  -649  -641  -628  -603  -555  -496  -455  -441  -433  -415  -395  -395  -422  -463  -493  -510  -526  -542  -554  -559  -558  -557  -561  -578  -599  -608  -584  -525  -441  -358  -306  -298  -320  -349  -378  -413  -448  -474  -495  -509  -504  -484  -464  -454  -451  -445  -439  -450  -501  -593  -689  -747  -762  -755  -742  -723  -679  -587  -469  -403  -456  -616  -790  -874  -833  -661  -314  280  1147  2184  3181  3959  4342  4048  2942  1326  -410  -2066  -3312  -3803  -3562  -2869  -2000  -1224  -754  -582  -545  -532  -524  -521  -523  -527  -536  -542  -528  -478  -400  -313  -213  -81  77  221  301  288  180  28  -94  -138  -70  140  429  654  756  797  841  893  940  975  993  1007  1041  1098  1160  1234  1368  1571  1791  1963  2050  2061  2043  2059  2152  2295  2412  2457  2451  2437  2435  2424  2342  2148  1895  1692  1576  1510  1436  1324  1175  1025  917  839  726  522  229  -103  -375  -509  -528  -501  -475  -462  -460  -468  -486  -506  -506  -467  -404  -354  -335  -337  -349  -385  -446  -499  -508  -458  -358  -226  -94  -4  10  -34  -98  -149  -175  -187  -212  -280  -402  -514  -526  -436  -337  -288  -283  -326  -434  -577  -689  -740  -756  -763  -766  -757  -743  -747  -768  -783  -778  -745  -690  -613  -513  -408  -330  -292  -287  -320  -400  -508  -597  -639  -640  -618  -588  -555  -520  -496  -487  -479  -462  -452  -478  -542  -609  -652  -675  -688  -654  -511  -259  -9  114  90  -13  -112  -167  -185  -188  -186  -190  -205  -226  -236  -228  -215  -207  -200  -187  -164  -136  -107  -81  -61  -49  -43  -36  -15  25  75  114  133  133  123  109  90  66  34  -20  -107  -202  -255  -256  -244  -250  -258  -241  -186  -109  -47  -13  0  -22  -119  -271  -371  -277  122  849  1816  2892  3946  4792  5068  4395  2823  837  -1077  -2561  -3321  -3345  -2941  -2338  -1580  -805  -262  -45  -52  -148  -261  -356  -408  -405  -365  -326  -321  -370  -473  -580  -613  -533  -387  -260  -186  -146  -136  -168  -215  -237  -200  -90  85  297  498  627  670  668  662  663  660  644  639  685  794  950  1119  1267  1382  1476  1584  1748  1965  2163  2282  2329  2325  2246  2061  1818  1624  1518  1458  1407  1364  1333  1312  1286  1225  1078  821  514  232  0  -178  -303  -397  -479  -535  -556  -557  -559  -567  -563  -519  -436  -359  -357  -468  -617  -648  -533  -403  -352  -367  -399  -428  -480  -585  -714  -807  -841  -842  -828  -781  -676  -536  -429  -393  -423  -509  -610  -651  -589  -466  -366  -332  -357  -423  -514  -608  -704  -809  -901  -958  -979  -975  -963  -959  -961  -956  -932  -894  -861  -843  -838  -841  -843  -836  -811  -776  -763  -810  -921  -1048  -1135  -1154  -1098  -962  -793  -669  -626  -639  -668  -685  -676  -642  -593  -543  -507  -490  -493  -515  -545  -566  -574  -572  -569  -572  -586  -605  -604  -552  -452  -342  -263  -228  -224  -230  -231  -222  -206  -190  -177  -178  -220  -332  -502  -670  -775  -792  -734  -622  -496  -406  -374  -391  -452  -551  -675  -790  -856  -867  -846  -817  -791  -766  -730  -689  -665  -672  -715  -787  -886  -1014  -1130  -1160  -1037  -622  219  1393  2613  3605  4184  4253  3755  2719  1321  -251  -1765  -2863  -3306  -3086  -2370  -1535  -976  -758  -675  -548  -328  -73  121  221  253  246  224  206  198  191  178  172  223  371  572  719  769  766  756  758  787  854  947  1031  1076  1086  1085  1090  1110  1149  1190  1210  1225  1304  1493  1731  1903  1980  2025  2087  2163  2225  2278  2360  2457  2520  2526  2495  2461  2444  2436  2432  2434  2435  2411  2323  2141  1910  1730  1637  1562  1409  1124  770  494  375  358  342  257  70  -174  -369  -465  -509  -537  -531  -467  -349  -222  -131  -96  -130  -249  -417  -552  -607  -586  -497  -346  -172  -22  76  122  135  143  154  124  -23  -318  -659  -891  -969  -967  -966  -1003  -1069  -1131  -1163  -1149  -1061  -902  -745  -668  -679  -730  -769  -782  -783  -782  -776  -753  -716  -697  -723  -771  -802  -806  -801  -820  -893  -1000  -1080  -1082  -1010  -919  -863  -837  -779  -668  -590  -625  -723  -795  -827  -837  -829  -776  -657  -533  -479  -491  -530  -576  -613  -631  -632  -623  -610  -599  -597  -604  -610  -614  -625  -639  -620  -537  -393  -226  -91  -24  -30  -77  -136  -223  -352  -491  -585  -611  -582  -524  -449  -343  -185  -7  119  157  93  -76  -295  -465  -548  -562  -527  -460  -381  -346  -418  -566  -680  -705  -674  -671  -748  -749  -415  318  1378  2662  3879  4603  4537  3613  2014  164  -1515  -2769  -3471  -3630  -3333  -2712  -2023  -1514  -1196  -933  -683  -501  -421  -405  -401  -379  -325  -247  -152  -26  116  217  246  223  190  200  290  418  512  545  556  593  669  785  963  1172  1325  1383  1383  1371  1356  1339  1328  1344  1406  1524  1681  1828  1931  1999  2059  2116  2166  2219  2286  2350  2391  2407  2410  2405  2400  2407  2445  2508  2550  2530  2452  2336  2189  1992  1734  1461  1245  1063  852  626  445  304  156  -45  -329  -634  -836  -897  -884  -858  -842  -837  -842  -852  -858  -840  -790  -729  -699  -723  -776  -818  -832  -825  -805  -781  -761  -741  -702  -626  -527  -455  -434  -441  -450  -456  -460  -462  -452  -413  -347  -273  -219  -200  -228  -321  -473  -624  -741  -823  -832  -771  -707  -650  -578  -518  -496  -503  -532  -599  -707  -823  -905  -952  -990  -993  -865  -544  -172  -12  -144  -417  -637  -699  -634  -552  -518  -515  -506  -474  -422  -370  -338  -324  -310  -276  -226  -184  -172  -197  -258  -346  -473  -659  -873  -1033  -1111  -1139  -1148  -1154  -1161  -1169  -1175  -1173  -1151  -1106  -1065  -1063  -1098  -1125  -1093  -986  -844  -725  -649  -578  -471  -346  -278  -296  -344  -378  -404  -437  -472  -493  -498  -492  -486  -497  -545  -630  -728  -803  -824  -778  -667  -531  -461  -521  -625  -567  -203  547  1688  2985  4085  4774  4846  4098  2667  991  -622  -1977  -2807  -3028  -2815  -2324  -1693  -1120  -722  -477  -340  -287  -296  -353  -440  -536  -608  -642  -651  -639  -595  -509  -416  -360  -355  -364  -336  -235  -91  35  133  225  301  333  329  330  391  532  699  809  850  890  998  1156  1296  1401  1512  1653  1797  1905  1981  2079  2242  2433  2544  2511  2389  2293  2274  2299  2322  2329  2329  2336  2353  2355  2275  2069  1800  1594  1486  1425  1367  1285  1119  816  436  120  -63  -157  -245  -407  -652  -886  -1013  -1031  -997  -963  -934  -892  -830  -780  -787  -850  -914  -945  -938  -900  -850  -805  -766  -742  -744  -777  -831  -879  -904  -914  -924  -927  -874  -730  -555  -457  -447  -479  -537  -601  -631  -631  -624  -631  -665  -711  -745  -757  -756  -752  -750  -746  -741  -745  -767  -807  -844  -850  -795  -649  -440  -266  -192  -199  -242  -277  -280  -253  -222  -204  -199  -201  -210  -224  -233  -209  -131  -25  51  73  58  34  16  11  25  62  100  79  -44  -229  -371  -423  -421  -408  -404  -408  -411  -387  -319  -225  -148  -106  -91  -113  -205  -348  -435  -395  -300  -240  -203  -149  -107  -146  -257  -348  -351  -276  -188  -115  -35  57  157  256  322  325  264  147  4  -106  -157  -169  -169  -172  -175  -174  -163  -145  -127  -130  -214  -452  -803  -1116  -1291  -1247  -817  77  1327  2697  3862  4552  4571  3785  2317  485  -1372  -2811  -3426  -3254  -2689  -2093  -1675  -1449  -1282  -1104  -957  -870  -816  -752  -664  -540  -356  -136  17  35  -69  -221  -336  -382  -364  -274  -113  59  166  202  212  224  233  230  232  273  386  556  716  809  841  887  1034  1286  1545  1702  1752  1758  1777  1843  1965  2111  2229  2297  2326  2337  2356  2406  2489  2573  2608  2548  2390  2202  2077  2037  2048  2070  2062  1954  1701  1374  1121  1026  1036  1014  820  418  -47  -373  -494  -485  -438  -395  -367  -353  -350  -362  -384  -401  -399  -379  -351  -330  -318  -310  -303  -298  -301  -312  -326  -337  -334  -299  -213  -73  77  171  166  70  -57  -137  -137  -84  -28  -15  -68  -198  -389  -597  -787  -944  -1060  -1148  -1225  -1281  -1303  -1302  -1288  -1279  -1281  -1274  -1249  -1220  -1190  -1151  -1108  -1079  -1068  -1065  -1065  -1084  -1137  -1211  -1272  -1314  -1351  -1371  -1324  -1168  -951  -784  -720  -732  -809  -946  -1091  -1156  -1103  -982  -868  -790  -733  -689  -659  -642  -638  -677  -790  -949  -1073  -1123  -1114  -1053  -943  -822  -745  -728  -751  -790  -831  -862  -878  -882  -880  -874  -866  -865  -887  -931  -983  -1014  -968  -830  -667  -533  -435  -361  -294  -219  -154  -116  -96  -72  -16  87  196  231  173  78  0  -61  -119  -164  -177  -163  -141  -128  -144  -202  -279  -341  -372  -370  -338  -302  -310  -374  -454  -478  -345  37  742  1803  3103  4289  4877  4506  3168  1268  -600  -2023  -2857  -3168  -3168  -2968  -2482  -1690  -851  -295  -99  -96  -107  -63  2  34  49  81  101  74  31  5  -1  2  20  62  135  232  340  447  529  569  577  579  608  713  919  1178  1394  1510  1543  1540  1527  1513  1509  1552  1690  1942  2233  2438  2510  2503  2477  2461  2479  2572  2766  3003  3170  3228  3225  3203  3151  3056  2941  2843  2769  2696  2584  2382  2078  1755  1516  1359  1220  1082  957  842  730  627  546  501  472  410  293  163  78  42  14  -29  -80  -122  -143  -144  -134  -135  -176  -280  -434  -585  -685  -742  -788  -798  -718  -568  -433  -363  -356  -410  -503  -571  -549  -466  -407  -397  -393  -360  -316  -287  -272  -257  -240  -233  -260  -355  -515  -678  -750  -686  -508  -292  -124  -50  -61  -118  -188  -248  -282  -288  -282  -275  -265  -240  -211  -209  -256  -325  -357  -326  -275  -255  -252  -229  -217  -260  -336  -377  -367  -364  -413  -498  -597  -702  -784  -820  -821  -815  -824  -851  -881  -910  -947  -984  -1000  -983  -946  -920  -928  -955  -987  -1032  -1084  -1122  -1137  -1139  -1140  -1146  -1147  -1113  -1030  -949  -951  -1041  -1139  -1190  -1196  -1161  -1076  -962  -871  -827  -824  -868  -967  -1061  -1062  -971  -880  -841  -828  -802  -761  -730  -718  -709  -704  -745  -879  -1078  -1239  -1287  -1216  -1054  -866  -738  -715  -777  -883  -975  -1002  -1005  -1118  -1369  -1533  -1306  -501  835  2356  3615  4325  4336  3589  2215  517  -1155  -2501  -3336  -3620  -3458  -3068  -2615  -2164  -1794  -1577  -1490  -1469  -1464  -1434  -1319  -1052  -679  -357  -193  -164  -218  -335  -490  -621  -689  -705  -694  -648  -541  -364  -167  -35  8  3  -10  -25  -48  -80  -93  -29  134  337  483  536  534  557  694  969  1281  1492  1568  1560  1532  1525  1566  1643  1716  1757  1787  1830  1871  1861  1765  1611  1453  1302  1145  1010  927  876  813  704  546  362  176  3  -168  -366  -583  -770  -893  -962  -993  -980  -926  -867  -826  -801  -787  -781  -778  -778  -792  -826  -879  -923  -918  -864  -803  -760  -717  -643  -549  -477  -452  -463  -503  -578  -679  -776  -840  -857  -841  -816  -802  -805  -812  -789  -702  -563  -424  -330  -303  -351  -450  -548  -605  -617  -609  -601  -597  -587  -567  -529  -465  -375  -283  -222  -197  -183  -166  -148  -127  -92  -58  -65  -137  -232  -280  -264  -220  -178  -147  -136  -145  -156  -153  -141  -123  -83  -10  76  140  163  163  178  231  304  355  368  356  339  321  304  289  292  331  414  521  623  709  783  836  892  998  1137  1264  1370  1457  1518  1549  1553  1549  1545  1541  1543  1563  1602  1657  1740  1874  2040  2186  2286  2325  2273  2125  1927  1739  1601  1507]
