reading_id,reading_time,wire_id,result_classification,heart_rate,heart_rate_alert,firmware_version,device_app_version,hardware_version,waveform_samples
acf693f0-5caa-11ed-8080-808080808080,Sat Nov 05 01:39:23 UTC 2022,2101e3d81839,NSR,59,NONE,20001.171.50,2.10.0,Charge 5,[0  3447  6127  8107  9555  10040  9362  8243  7486  7169  7018  6880  6675  6429  6337  6453  6580  6608  6608  6612  6453  5923  5146  4615  4671  5183  5810  6249  6283  5891  5294  4802  4543  4379  4179  4043  4020  3955  3760  3541  3448  3512  3629  3696  3715  3729  3728  3623  3353  2986  2631  2348  2149  2028  1982  2019  2160  2355  2415  2238  2021  2011  2164  2235  2151  2041  1971  1925  1881  1798  1628  1366  1073  899  991  1244  1421  1489  1547  1613  1662  1688  1674  1584  1457  1405  1434  1496  1660  1962  2250  2384  2406  2426  2450  2369  2120  1869  1819  1934  2072  2204  2307  2225  1873  1425  1150  1133  1250  1365  1458  1522  1526  1537  1645  1759  1716  1542  1398  1362  1371  1306  1082  799  677  697  693  696  834  1101  1351  1437  1314  951  413  -13  -117  -23  70  107  145  244  362  360  164  -126  -368  -471  -365  -49  301  497  484  265  -14  26  354  214  -545  -1040  -648  478  1832  2911  3486  3660  3595  3215  2267  637  -1311  -2822  -3396  -3140  -2489  -2077  -2464  -3106  -2771  -1581  -618  -149  97  245  272  43  -452  -910  -1082  -1057  -1008  -1000  -1022  -1023  -900  -602  -257  -39  1  -69  -137  -114  41  287  488  555  504  439  496  681  866  950  906  802  769  825  875  873  869  951  1161  1453  1798  2180  2504  2638  2595  2555  2651  2824  2976  3110  3164  3036  2784  2546  2405  2350  2324  2261  2111  1878  1632  1432  1258  1022  648  147  -364  -756  -1037  -1278  -1410  -1359  -1238  -1253  -1459  -1728  -1872  -1761  -1462  -1222  -1172  -1218  -1253  -1257  -1238  -1216  -1254  -1369  -1433  -1387  -1338  -1326  -1292  -1228  -1135  -964  -774  -707  -783  -913  -985  -945  -889  -936  -1051  -1133  -1163  -1235  -1446  -1738  -1933  -1944  -1770  -1407  -1001  -759  -683  -744  -995  -1309  -1440  -1351  -1170  -963  -786  -738  -830  -987  -1139  -1213  -1204  -1178  -1182  -1187  -1113  -944  -872  -1094  -1405  -1456  -1250  -910  -499  -252  -359  -626  -762  -689  -473  -245  -182  -340  -591  -776  -847  -886  -978  -1075  -1008  -709  -369  -241  -348  -504  -578  -573  -501  -420  -452  -558  -555  -440  -361  -313  -166  71  290  430  481  475  461  463  485  513  515  451  262  -61  -340  -410  -344  -278  -282  -397  -565  -624  -468  -200  -58  -222  -622  -970  -1093  -1066  -987  -837  -594  -363  -261  -134  445  1616  2961  3949  4210  3579  2310  879  -460  -1571  -2266  -2533  -2529  -2388  -2106  -1595  -1010  -669  -621  -689  -715  -583  -288  -26  5  -169  -377  -451  -295  -3  212  273  239  198  275  527  794  829  602  312  191  311  527  654  669  635  597  613  797  1193  1595  1783  1825  1937  2144  2272  2281  2313  2449  2642  2840  2995  3091  3206  3353  3399  3313  3225  3197  3187  3161  3149  3219  3367  3492  3475  3280  2938  2520  2062  1552  1125  923  814  628  407  218  27  -127  -139  -49  18  35  24  -27  -190  -480  -755  -915  -1068  -1277  -1391  -1307  -1115  -948  -845  -761  -694  -725  -878  -1003  -999  -980  -1033  -1095  -1110  -1103  -1099  -1087  -1037  -963  -931  -946  -904  -805  -821  -990  -1151  -1221  -1193  -1038  -812  -661  -670  -816  -1010  -1138  -1128  -1053  -1027  -1046  -1064  -1082  -1101  -1083  -982  -832  -745  -777  -874  -987  -1087  -1129  -1146  -1219  -1308  -1277  -1098  -865  -662  -525  -504  -636  -858  -1037  -1104  -1108  -1105  -1072  -941  -743  -673  -839  -1070  -1128  -1027  -933  -883  -825  -761  -706  -634  -542  -508  -572  -633  -653  -702  -771  -812  -818  -814  -838  -913  -962  -849  -565  -225  31  75  -114  -363  -504  -582  -700  -796  -782  -755  -826  -869  -736  -557  -509  -554  -587  -558  -455  -384  -506  -766  -925  -832  -493  36  774  1719  2688  3454  3749  3231  1886  151  -1496  -2765  -3422  -3406  -3003  -2411  -1627  -921  -611  -593  -559  -370  -131  -29  -129  -316  -370  -161  143  312  382  432  436  445  544  646  632  585  656  823  967  1038  1046  1030  1040  1116  1224  1235  1055  740  510  653  1219  1855  2179  2192  2132  2161  2314  2553  2792  2907  2836  2714  2746  2918  3063  3111  3143  3271  3495  3648  3573  3355  3158  3030  2970  2895  2637  2183  1723  1307  809  318  84  71  4  -204  -416  -517  -552  -612  -695  -766  -889  -1138  -1361  -1312  -1031  -822  -814  -883  -970  -1085  -1159  -1137  -1086  -1119  -1195  -1160  -1025  -948  -994  -1096  -1166  -1193  -1206  -1177  -1027  -777  -626  -712  -930  -1083  -1107  -1063  -973  -846  -773  -791  -797  -745  -699  -669  -634  -591  -489  -336  -236  -217  -221  -213  -213  -281  -505  -905  -1296  -1412  -1224  -953  -805  -784  -808  -815  -707  -468  -265  -246  -370  -516  -613  -697  -857  -1058  -1174  -1193  -1182  -1179  -1167  -1170  -1273  -1407  -1349  -1048  -719  -549  -513  -535  -620  -708  -659  -519  -493  -614  -732  -762  -726  -667  -638  -651  -660  -581  -365  -92  48  -71  -330  -466  -396  -271  -256  -361  -460  -491  -538  -625  -731  -938  -1232  -1385  -1332  -1260  -1254  -1174  -885  -506  -275  -241  -254  -65  591  1716  2949  3838  3994  3173  1574  -196  -1632  -2526  -2860  -2818  -2672  -2475  -2040  -1315  -602  -219  -136  -151  -150  -133  -170  -332  -559  -713  -705  -449  30  436  552  513  519  572  591  620  688  687  619  624  720  792  801  804  871  1004  1101  1114  1183  1447  1781  1989  2108  2221  2298  2412  2693  3022  3173  3169  3208  3319  3363  3320  3285  3294  3307  3305  3320  3406  3547  3634  3621  3561  3468  3269  2931  2557  2246  1969  1690  1471  1276  886  301  -133  -301  -454  -696  -889  -956  -962  -1000  -1095  -1173  -1142  -1001  -820  -714  -805  -1088  -1386  -1519  -1449  -1254  -1039  -871  -801  -872  -1041  -1155  -1120  -953  -755  -644  -628  -643  -664  -698  -724  -705  -680  -735  -902  -1078  -1141  -1109  -1033  -955  -960  -1070  -1173  -1202  -1217  -1193  -1035  -885  -965  -1191  -1353  -1397  -1400  -1410  -1396  -1293  -1137  -1049  -1045  -1079  -1117  -1121  -1081  -1001  -940  -1054  -1377  -1671  -1724  -1558  -1233  -831  -549  -504  -579  -636  -655  -691  -781  -873  -823  -593  -407  -429  -534  -569  -502  -366  -241  -233  -429  -755  -943  -897  -774  -654  -537  -497  -549  -602  -615  -626  -683  -769  -785  -684  -571  -605  -763  -852  -748  -482  -165  86  180  55  -218  -441  -540  -637  -746  -721  -567  -446  -415  -426  -451  -489  -510  -486  -490  -615  -827  -972  -936  -876  -1185  -1739  -1779  -1222  -720  -404  26  680  1537  2512  3333  3667  3350  2391  935  -670  -1994  -2783  -3052  -2855  -2189  -1245  -569  -618  -1053  -1167  -800  -272  64  94  3  4  67  78  44  10  -7  -21  -39  -21  114  363  556  556  443  409  518  679  865  1100  1269  1263  1169  1111  1146  1361  1736  2037  2137  2139  2137  2162  2217  2271  2295  2316  2390  2540  2679  2707  2703  2763  2874  3093  3419  3592  3465  3272  3191  3095  2910  2750  2646  2541  2468  2458  2466  2394  2164  1845  1598  1411  1109  719  431  290  213  161  113  -43  -415  -908  -1259  -1305  -1121  -879  -706  -684  -776  -849  -860  -851  -845  -845  -840  -768  -555  -303  -237  -415  -677  -834  -799  -608  -468  -581  -907  -1178  -1157  -863  -515  -329  -390  -618  -843  -959  -974  -965  -1009  -1130  -1224  -1139  -927  -817  -868  -918  -883  -840  -818  -790  -782  -833  -918  -1013  -1102  -1069  -836  -574  -470  -485  -516  -535  -554  -570  -578  -617  -717  -804  -755  -612  -593  -790  -1042  -1158  -1139  -1058  -879  -634  -520  -573  -576  -447  -330  -319  -348  -358  -370  -443  -578  -700  -764  -768  -695  -526  -324  -252  -397  -593  -641  -585  -565  -600  -602  -544  -567  -764  -981  -1061  -1048  -1031  -1016  -951  -823  -698  -600  -438  -162  115  272  304  187  -102  -381  -459  -389  -286  -199  -184  -313  -598  -957  -1237  -1349  -1355  -1360  -1378  -1306  -1055  -732  -531  -489  -517  -592  -808  -1254  -1652  -1468  -851  -465  -486  -576  -278  613  1821  2907  3640  3833  3255  1978  396  -1171  -2528  -3379  -3508  -3026  -2157  -1216  -713  -716  -671  -292  108  228  152  56  -41  -128  -177  -250  -374  -464  -494  -514  -522  -423  -150  185  441  591  615  495  396  503  745  1006  1274  1465  1524  1564  1636  1675  1722  1865  2066  2242  2360  2409  2408  2390  2360  2338  2408  2628  2878  3043  3150  3231  3279  3295  3292  3283  3272  3285  3361  3457  3444  3257  2939  2558  2178  1861  1657  1593  1618  1617  1478  1217  998  874  732  519  244  -108  -494  -752  -839  -894  -969  -956  -848  -770  -740  -711  -715  -763  -792  -787  -770  -762  -797  -901  -986  -933  -849  -874  -937  -957  -951  -946  -951  -955  -943  -893  -827  -873  -1088  -1323  -1389  -1298  -1207  -1186  -1196  -1180  -1104  -952  -742  -598  -641  -825  -1003  -1047  -933  -782  -727  -770  -849  -952  -1052  -1040  -887  -748  -771  -903  -1001  -1026  -1023  -1013  -980  -925  -890  -901  -953  -1009  -1033  -1041  -997  -841  -640  -475  -319  -202  -251  -472  -728  -909  -959  -891  -806  -771  -780  -802  -787  -665  -436  -226  -171  -321  -591  -819  -924  -907  -822  -748  -689  -572  -401  -285  -293  -447  -746  -1061  -1222  -1240  -1228  -1233  -1212  -1110  -956  -818  -763  -850  -1006  -1054  -985  -918  -854  -730  -574  -395  -116  193  358  357  236  0  -247  -373  -387  -369  -353  -322  -298  -366  -568  -823  -948  -824  -545  -323  -242  -232  -286  -543  -1013  -1363  -1284  -982  -883  -920  -715  -267  110  265  470  1129  2237  3341  3902  3552  2275  464  -1315  -2602  -3277  -3484  -3386  -3238  -3079  -2470  -1470  -769  -616  -711  -704  -525  -344  -267  -258  -248  -206  -160  -146  -129  -61  -3  37  184  423  523  389  234  210  266  390  619  881  1051  1091  1095  1137  1179  1189  1195  1233  1291  1321  1359  1519  1796  2007  2076  2132  2271  2464  2661  2867  3103  3378  3689  3987  4146  4020  3641  3268  3104  3096  3119  3147  3224  3358  3444  3339  3007  2519  1967  1463  1114  912  726  468  207  -25  -330  -661  -846  -906  -948  -979  -992  -998  -1002  -1014  -1023  -988  -899  -828  -819  -827  -800  -758  -758  -798  -854  -922  -926  -754  -478  -333  -440  -684  -886  -971  -955  -898  -862  -866  -896  -884  -719  -397  -114  -42  -173  -371  -491  -486  -364  -189  -152  -353  -611  -733  -703  -520  -256  -141  -241  -367  -410  -408  -401  -396  -401  -428  -419  -337  -269  -282  -337  -411  -514  -620  -722  -807  -759  -574  -491  -631  -801  -805  -679  -552  -487  -478  -496  -488  -402  -261  -165  -139  -136  -180  -307  -446  -522  -522  -448  -364  -357  -419  -469  -453  -378  -253  -96  -16  -65  -142  -165  -159  -205  -366  -593  -740  -753  -703  -604  -450  -303  -208  -169  -168  -202  -302  -428  -430  -273  -86  69  205  278  268  238  230  221  160  53  -35  -84  -113  -148  -231  -390  -569  -659  -613  -467  -316  -234  -214  -259  -404  -596  -692  -642  -610  -691  -671  -389  112  875  1907  2946  3681  3920  3432  2125  376  -1295  -2582  -3230  -3138  -2636  -2226  -2063  -1860  -1353  -820  -677  -796  -876  -881  -875  -860  -792  -658  -491  -293  -119  -96  -221  -312  -156  234  529  486  287  188  240  442  761  1067  1290  1442  1512  1526  1527  1501  1389  1208  1101  1114  1157  1245  1445  1668  1796  1900  2083  2306  2535  2803  3040  3116  3065  3027  3004  2942  2886  2877  2883  2875  2859  2895  3052  3287  3394  3175  2651  2091  1743  1614  1531  1217  519  -297  -792  -894  -864  -907  -1091  -1348  -1487  -1447  -1362  -1324  -1325  -1355  -1410  -1431  -1359  -1276  -1279  -1337  -1392  -1437  -1439  -1346  -1223  -1171  -1134  -983  -774  -702  -819  -959  -986  -949  -923  -917  -923  -934  -942  -945  -955  -984  -1058  -1195  -1266  -1089  -788  -641  -670  -751  -828  -832  -691  -534  -628  -993  -1318  -1401  -1353  -1310  -1290  -1259  -1202  -1143  -1063  -880  -658  -623  -749  -773  -645  -564  -635  -717  -638  -411  -196  -128  -221  -463  -825  -1139  -1257  -1249  -1235  -1215  -1109  -883  -660  -571  -558  -474  -318  -206  -185  -243  -362  -480  -514  -442  -329  -241  -180  -188  -329  -523  -617  -588  -535  -510  -508  -533  -603  -670  -634  -479  -315  -277  -392  -504  -455  -270  -32  219  395  370  140  -97  -179  -209  -329  -496  -593  -607  -592  -572  -550  -560  -619  -619  -468  -240  -91  -118  -265  -382  -436  -469  -402  -54  439  461  -112  -615  -619  -217  390  1132  2027  2947  3632  3808  3269  2086  580  -912  -2069  -2718  -2901  -2751  -2584  -2560  -2258  -1538  -877  -482  -223  -38  80  176  271  327  345  351  324  208  32  -54  6  129  232  312  404  503  611  741  830  836  844  955  1137  1267  1315  1358  1436  1498  1506  1487  1461  1420  1391  1500  1811  2094  2113  1991  2020  2301  2742  3148  3303  3193  3018  2975  3108  3305  3384  3231  2917  2649  2549  2560  2595  2636  2677  2640  2449  2192  1965  1708  1349  865  284  -190  -406  -494  -629  -779  -799  -729  -795  -1024  -1174  -1137  -1049  -1007  -996  -1002  -1051  -1156  -1226  -1121  -871  -715  -725  -718  -601  -495  -508  -592  -669  -734  -746  -666  -613  -690  -775  -735  -623  -555  -553  -548  -464  -314  -237  -367  -672  -966  -1090  -1028  -836  -639  -606  -719  -780  -754  -799  -948  -993  -841  -648  -522  -430  -347  -298  -270  -234  -244  -450  -904  -1331  -1383  -1047  -613  -313  -180  -217  -449  -746  -875  -762  -536  -334  -207  -190  -303  -468  -584  -627  -664  -761  -882  -914  -838  -766  -772  -823  -841  -819  -802  -770  -694  -598  -469  -298  -205  -283  -424  -513  -588  -688  -753  -762  -751  -745  -736  -703  -650  -635  -698  -770  -790  -754  -681  -604  -514  -459  -617  -971  -1197  -1160  -1014  -785  -430  -113  6  -2  -24  -42  -103  -233  -377  -471  -521  -605  -749  -837  -775  -645  -565  -538  -526  -497  -455  -446  -571  -1002  -1588  -1768  -1468  -1137  -856  -463  23  647  1554  2625  3509  3967  3778  2773  1249  -234  -1445  -2331  -2753  -2648  -1994  -953  -167  -37  -198  -206  -6  188  238  211  190  161  74  -32  -29  121  313  418  395  344  385  493  638  839  1001  989  856  787  861  1024  1200  1350  1456  1501  1500  1495  1511  1534  1530  1509  1575  1798  2041  2179  2320  2579  2841  2954  2967  3007  3110  3281  3534  3835  4046  3999  3747  3517  3426  3418  3393  3299  3166  3035  2880  2631  2329  2084  1904  1699  1357  842  275  -170  -448  -586  -558  -346  -101  -56  -227  -418  -514  -623  -886  -1217  -1345  -1194  -973  -819  -702  -669  -801  -991  -1051  -946  -775  -639  -576  -570  -622  -699  -689  -614  -640  -802  -959  -1015  -1014  -1009  -969  -828  -644  -608  -745  -853  -829  -799  -857  -908  -894  -877  -865  -815  -766  -777  -752  -577  -384  -340  -384  -412  -409  -403  -439  -568  -766  -910  -948  -945  -915  -840  -790  -807  -820  -811  -826  -832  -774  -708  -737  -862  -974  -988  -955  -940  -938  -916  -854  -762  -660  -563  -489  -504  -641  -797  -819  -737  -686  -663  -601  -524  -513  -595  -723  -846  -940  -949  -855  -750  -703  -692  -655  -568  -485  -478  -528  -584  -639  -650  -603  -575  -562  -470  -282  -143  -210  -445  -661  -781  -864  -878  -740  -532  -408  -388  -409  -441  -476  -452  -286  -57  -7  -237  -513  -527  -288  -81  -72  -145  -213  -387  -665  -802  -697  -508  -330  -155  -13  59  91  124  148  69  -180  -498  -723  -898  -1277  -1734  -1612  -903  -380  -317  -289  65  807  1910  3135  3970  4052  3349  2018  414  -1053  -2165  -2843  -3052  -2766  -2087  -1537  -1509  -1508  -1037  -380  92  339  356  157  -54  -67  43  75  44  69  118  136  142  167  201  207  200  273  444  583  563  425  354  427  565  756  1036  1295  1455  1618  1846  2018  2028  1983  1995  2021  2024  2017  1994  1955  1956  2087  2366  2717  3001  3104  3056  3009  3038  3095  3150  3187  3165  3114  3099  3041  2768  2272  1759  1430  1301  1292  1317  1338  1361  1381  1339  1166  865  495  126  -197  -476  -731  -924  -982  -936  -957  -1128  -1272  -1209  -952  -552  -84  218  160  -124  -354  -435  -503  -696  -1002  -1298  -1426  -1289  -951  -618  -460  -472  -540  -585  -603  -586  -530  -448  -361  -360  -521  -765  -942  -985  -940  -894  -875  -858  -836  -863  -948  -965  -896  -856  -831  -752  -695  -737  -795  -800  -800  -775  -654  -526  -576  -793  -981  -1028  -1000  -977  -960  -927  -892  -891  -905  -863  -746  -661  -669  -679  -658  -698  -800  -827  -734  -615  -509  -383  -296  -357  -542  -718  -793  -790  -767  -748  -748  -800  -903  -1003  -1046  -991  -866  -752  -646  -543  -532  -602  -640  -626  -606  -580  -538  -499  -471  -436  -407  -392  -379  -390  -489  -682  -862  -922  -881  -840  -827  -788  -719  -630  -527  -474  -469  -404  -299  -302  -395  -407  -295  -151  -31  54  102  119  136  175  197  115  -79  -301  -506  -643  -645  -563  -467  -388  -405  -536  -655  -698  -766  -846  -770  -563  -436  -471  -605  -721  -733  -648  -457  6  913  2135  3224  3775  3619  2738  1378  -25  -1241  -2187  -2752  -2897  -2649  -2034  -1247  -709  -639  -785  -877  -900  -914  -905  -771  -455  -80  165  184  15  -156  -91  211  528  721  773  655  435  312  328  350  368  472  622  718  742  728  705  721  837  1028  1164  1207  1211  1223  1377  1790  2311  2658  2748  2694  2628  2671  2873  3088  3195  3323  3588  3857  3979  3990  3979  3944  3823  3637  3509  3432  3304  3111  2878  2600  2228  1691  1074  636  467  359  138  -122  -295  -374  -431  -496  -540  -554  -576  -644  -764  -881  -992  -1181  -1384  -1350  -1069  -794  -642  -548  -458  -407  -421  -471  -561  -676  -751  -767  -719  -620  -547  -530  -532  -532  -540  -562  -575  -581  -600  -613  -574  -511  -496  -514  -546  -624  -719  -727  -643  -593  -624  -666  -703  -747  -760  -746  -737  -743  -760  -760  -674  -489  -352  -396  -549  -647  -642  -621  -646  -741  -900  -992  -868  -629  -454  -319  -178  -127  -187  -247  -262  -255  -232  -197  -192  -279  -436  -584  -679  -717  -683  -613  -580  -563  -504  -420  -359  -346  -423  -621  -839  -889  -727  -515  -399  -380  -383  -330  -199  -82  -131  -356  -624  -788  -717  -445  -239  -231  -262  -250  -302  -435  -535  -537  -493  -442  -372  -325  -346  -387  -410  -419  -409  -347  -247  -178  -163  -205  -297  -339  -275  -217  -253  -312  -302  -191  1  162  131  -79  -262  -275  -189  -136  -132  -142  -163  -209  -246  -240  -273  -441  -705  -886  -698  0  686  559  -138  -554  -541  -282  294  1154  2079  2995  3757  3900  3153  1787  230  -1232  -2298  -2716  -2685  -2688  -2910  -3048  -2684  -1859  -1025  -511  -324  -250  -139  -25  46  116  187  179  89  14  6  21  23  46  148  297  341  224  108  171  393  630  796  881  914  968  1095  1238  1345  1471  1622  1685  1667  1669  1683  1672  1687  1829  2107  2358  2479  2532  2548  2544  2645  2883  3093  3178  3177  3139  3114  3149  3197  3153  3046  2976  2865  2606  2298  2088  2003  1990  1985  1925  1735  1355  839  402  173  46  -165  -528  -897  -1115  -1188  -1157  -1069  -1029  -1083  -1135  -1094  -1014  -991  -1011  -1028  -1030  -1021  -1006  -1017  -1062  -1079  -1029  -932  -841  -830  -898  -972  -1007  -1014  -1042  -1052  -941  -783  -750  -858  -1030  -1194  -1276  -1264  -1232  -1228  -1225  -1163  -1022  -850  -743  -807  -1020  -1182  -1148  -969  -728  -461  -300  -402  -730  -1065  -1234  -1258  -1189  -1017  -813  -699  -672  -669  -703  -857  -1112  -1253  -1107  -776  -532  -520  -623  -679  -709  -802  -915  -998  -1114  -1225  -1153  -928  -786  -797  -841  -840  -823  -815  -797  -745  -696  -731  -820  -804  -647  -534  -550  -560  -522  -566  -708  -780  -714  -614  -546  -479  -431  -444  -483  -506  -510  -501  -499  -528  -599  -701  -797  -806  -732  -646  -566  -494  -443  -420  -444  -514  -590  -613  -524  -274  47  212  167  85  57  65  103  164  167  15  -212  -378  -529  -715  -822  -797  -692  -528  -359  -364  -621  -930  -1057  -950  -611  -221  -178  -455  -613  -507  -120  675  1783  2846  3567  3808  3442  2397  899  -602  -1837  -2633  -2756  -2367  -2086  -2267  -2510  -2161  -1312  -612  -313  -296  -381  -425  -426  -426  -410  -325  -174  -34  60  88  -5  -105  24  362  694  923  1005  894  669  513  534  692  919  1146  1258  1230  1174  1157  1144  1075  958  909  1036  1316  1605  1817  2032  2310  2566  2780  3040  3292  3422  3481  3554  3601  3607  3625  3663  3692  3701  3701  3729  3798  3828  3683  3376  3050  2802  2588  2290  1880  1408  899  463  233  149  8  -262  -524  -681  -790  -852  -812  -710  -640  -618  -615  -634  -715  -827  -864  -820  -752  -680  -634  -632  -675  -774  -896  -981  -958  -791  -512  -231  -111  -196  -337  -407  -421  -515  -809  -1211  -1432  -1320  -1026  -769  -628  -601  -689  -859  -1029  -1192  -1362  -1405  -1231  -1016  -948  -959  -906  -776  -617  -476  -409  -407  -413  -387  -339  -299  -279  -327  -494  -716  -844  -841  -803  -784  -754  -686  -595  -507  -436  -466  -632  -758  -731  -664  -641  -640  -646  -681  -767  -862  -851  -699  -522  -417  -369  -327  -280  -269  -296  -366  -517  -716  -840  -868  -868  -813  -642  -416  -222  -92  -41  -35  -23  -2  -54  -249  -524  -761  -857  -748  -492  -251  -133  -100  -84  -124  -281  -459  -553  -601  -591  -428  -188  -46  -13  -2  -4  -116  -399  -693  -762  -582  -372  -325  -380  -357  -286  -420  -975  -1705  -1845  -1204  -536  -335  -293  95  998  2221  3390  4126  4149  3327  1863  225  -1268  -2416  -2993  -3061  -2791  -2070  -1139  -722  -832  -863  -661  -409  -180  71  290  284  25  -270  -416  -438  -430  -401  -279  -57  151  302  440  527  514  474  503  595  691  790  917  1045  1156  1350  1677  1935  1968  1898  1856  1839  1808  1770  1769  1792  1804  1858  2043  2314  2542  2664  2703  2732  2790  2856  2946  3090  3205  3184  3055  2908  2743  2570  2473  2459  2478  2501  2518  2478  2321  2071  1777  1416  967  507  116  -183  -366  -467  -586  -737  -877  -1010  -1161  -1244  -1109  -838  -667  -634  -645  -671  -758  -918  -1069  -1122  -1041  -885  -766  -730  -789  -930  -1056  -1076  -991  -881  -827  -816  -815  -867  -935  -911  -834  -812  -833  -848  -856  -874  -895  -914  -949  -1008  -1100  -1174  -1095  -856  -687  -745  -904  -989  -980  -900  -779  -739  -825  -889  -831  -721  -658  -650  -649  -622  -594  -603  -628  -627  -614  -639  -711  -781  -834  -870  -780  -527  -320  -313  -396  -421  -423  -544  -815  -1082  -1208  -1218  -1200  -1169  -1098  -1016  -989  -984  -950  -938  -992  -1086  -1105  -943  -710  -591  -571  -550  -558  -660  -753  -691  -531  -447  -480  -532  -551  -572  -638  -706  -661  -519  -475  -656  -912  -1026  -966  -763  -453  -221  -217  -329  -398  -439  -511  -579  -621  -639  -621  -591  -579  -586  -613  -643  -594  -426  -327  -566  -1180  -1682  -1415  -619  -98  -35  -113  -45  398  1277  2338  3258  3753  3445  2248  691  -660  -1626  -2172  -2380  -2444  -2313  -1914  -1613  -1616  -1549  -1144  -614  -249  -105  -109  -162  -150  -23  107  121  101  167  256  275  257  240  225  233  317  483  645  713  671  606  647  824  1034  1166  1242  1346  1484  1651  1874  2054  2078  2073  2240  2515  2689  2716  2690  2699  2793  2955  3094  3143  3096  2942  2777  2826  3129  3434  3537  3507  3400  3047  2397  1822  1627  1654  1665  1595  1471  1322  1163  1019  932  887  802  602  300  -8  -272  -463  -519  -493  -568  -779  -935  -899  -775  -727  -779  -885  -994  -1023  -958  -877  -841  -838  -823  -762  -655  -558  -587  -796  -1017  -1080  -1011  -837  -574  -390  -421  -553  -600  -525  -395  -299  -342  -563  -862  -1092  -1179  -1177  -1182  -1226  -1234  -1106  -890  -705  -577  -537  -640  -792  -798  -647  -558  -682  -901  -1045  -1078  -988  -806  -680  -652  -631  -600  -585  -580  -593  -644  -696  -673  -622  -644  -706  -708  -647  -588  -555  -547  -572  -574  -479  -356  -334  -400  -469  -557  -664  -719  -718  -707  -697  -675  -642  -605  -572  -587  -642  -651  -625  -667  -762  -775  -690  -606  -590  -642  -750  -894  -924  -653  -237  4  35  -2  -22  -8  11  -68  -368  -818  -1225  -1437  -1330  -901  -410  -152  -136  -215  -338  -488  -563  -525  -520  -674  -889  -1033  -1099  -1115  -1107  -1114  -1166  -1229  -1216  -1096  -1034  -1339  -1843  -1838  -1275  -835  -724  -527  80  1026  2101  3099  3755  3839  3289  2207  818  -553  -1642  -2392  -2863  -3002  -2711  -2209  -1871  -1688  -1432  -1050  -590  -176  -30  -176  -356  -407  -350  -150  183  445  458  296  154  121  140  151  174  261  391  451  420  412  500  657  836  990  1079  1117  1198  1389  1629  1791  1839  1870  2008  2239  2410  2442  2405  2365  2326  2314  2435  2742  3070  3223  3214  3197  3268  3376  3452  3490  3470  3391  3314  3245  3033  2579  2017  1560  1328  1303  1355  1400  1431  1425  1296  994  607  236  -114  -436  -636  -669  -620  -578  -595  -697  -803  -780  -665  -611  -668  -755  -766  -677  -563  -502  -487  -487  -516  -620  -763  -832  -846  -892  -888  -735  -521  -393  -372  -432  -576  -722  -726  -629  -648  -826  -993  -1054  -1052  -1031  -1016  -1019  -1023  -999  -923  -782  -593  -489  -563  -715  -793  -765  -679  -573  -496  -531  -682  -808  -817  -745  -610  -455  -416  -507  -591  -608  -605  -651  -761  -896  -1010  -1037  -955  -847  -754  -627  -509  -470  -428  -325  -283  -388  -535  -622  -714  -852  -929  -900  -853  -838  -819  -745  -650  -640  -711  -749  -719  -649  -567  -533  -587  -700  -799  -777  -633  -495  -434  -416  -440  -595  -906  -1216  -1366  -1387  -1377  -1345  -1222  -1014  -879  -895  -908  -804  -676  -599  -486  -325  -292  -460  -622  -604  -454  -258  -102  -66  -90  -71  -35  -24  -24  -7  41  95  67  -136  -447  -694  -782  -747  -665  -569  -485  -484  -604  -757  -806  -677  -306  186  313  -58  -407  -443  -253  195  993  2073  3165  3922  4057  3337  1780  -77  -1534  -2262  -2284  -1934  -1782  -2101  -2380  -1875  -820  -133  -104  -376  -595  -657  -638  -624  -625  -594  -478  -253  39  259  293  191  133  225  385  515  620  673  643  618  675  811  1059  1419  1735  1866  1852  1804  1782  1781  1764  1703  1651  1679  1735  1774  1898  2167  2474  2733  3015  3333  3481  3373  3247  3263  3319  3365  3457  3554  3584  3569  3556  3546  3525  3500  3476  3396  3194  2860  2424  1930  1444  1001  611  330  201  137  13  -200  -473  -777  -1053  -1212  -1230  -1200  -1196  -1188  -1084  -855  -634  -597  -742  -910  -1026  -1094  -1069  -965  -884  -804  -615  -375  -255  -295  -413  -587  -871  -1246  -1554  -1683  -1699  -1698  -1664  -1483  -1152  -896  -896  -1072  -1252  -1351  -1356  -1218  -935  -680  -542  -436  -402  -589  -956  -1204  -1161  -962  -798  -738  -748  -767  -751  -680  -577  -543  -678  -921  -1144  -1294  -1364  -1354  -1242  -1026  -833  -766  -746  -676  -596  -571  -553  -523  -533  -586  -633  -642  -624  -643  -783  -1012  -1152  -1155  -1159  -1180  -1110  -965  -845  -726  -582  -548  -672  -748  -637  -476  -411  -384  -319  -261  -246  -248  -247  -242  -258  -348  -518  -687  -808  -914  -997  -1008  -959  -901  -786  -538  -280  -235  -399  -591  -713  -695  -495  -267  -182  -202  -231  -249  -272  -293  -305  -341  -438  -598  -754  -778  -615  -363  -154  -18  39  -21  -155  -208  -146  -137  -296  -498  -579  -543  -480  -440  -420  -408  -446  -604  -819  -871  -707  -492  -389  -569  -1209  -1937  -1885  -1108  -551  -409  -152  497  1484  2656  3697  4210  3964  2945  1345  -439  -1944  -2865  -3239  -3251  -2870  -2017  -1120  -794  -882  -823  -540  -235  -3  108  76  -19  -71  -30  72  149  171  170  159  116  46  24  99  202  224  196  215  273  354  471  591  704  863  1096  1373  1658  1925  2106  2080  1831  1546  1405  1390  1401  1400  1429  1550  1775  2076  2410  2721  2922  3009  3123  3332  3490  3482  3409  3391  3354  3123  2711  2312  2068  1997  2012  2010  1947  1840  1739  1677  1630  1517  1235  786  314  -72  -355  -515  -577  -648  -774  -876  -909  -911  -874  -814  -822  -896  -947  -957  -955  -926  -839  -743  -774  -970  -1193  -1279  -1145  -866  -663  -645  -696  -732  -789  -848  -807  -647  -503  -533  -738  -987  -1163  -1227  -1225  -1222  -1237  -1226  -1130  -934  -677  -484  -506  -706  -849  -838  -808  -827  -866  -929  -1028  -1143  -1226  -1224  -1031  -627  -240  -79  -76  -98  -134  -261  -474  -623  -624  -576  -596  -670  -713  -720  -800  -994  -1165  -1186  -1072  -870  -623  -471  -533  -725  -854  -854  -808  -779  -775  -800  -861  -885  -754  -532  -403  -417  -487  -510  -485  -502  -514  -365  -130  -43  -184  -483  -840  -1110  -1174  -1060  -918  -857  -872  -872  -755  -518  -307  -227  -277  -426  -620  -757  -755  -640  -520  -428  -323  -242  -253  -292  -263  -233  -272  -322  -342  -340  -331  -341  -401  -489  -526  -479  -392  -289  -125  72  202  241  189  0  -286  -526  -635  -624  -495  -291  -152  -143  -176  -195  -203  -185  -110  -1  7  -254  -850  -1408  -1315  -652  -119  49  287  944  1859  2784  3632  4110  3813  2759  1280  -393  -1930  -2832  -2984  -2678  -2111  -1451  -1091  -1153  -1203  -1031  -856  -726  -505  -231  -37  64  120  82  -27  -38  82  218  388  634  821  856  815  780  757  745  793  936  1096  1127  961  708  586  720  1032  1399  1784  2122  2352  2497  2596  2639  2601  2590  2776  3079  3263  3293  3275  3273  3274  3251  3235  3283  3377  3422  3407  3440  3541  3573  3459  3273  3048  2683  2168  1719  1507  1402  1227  993  779  637  598  626  632  507  228  -44  -152  -148  -203  -387  -607  -707  -636  -495  -385  -365  -496  -700  -748  -595  -472  -542  -716  -832  -865  -875  -859  -737  -482  -258  -262  -456  -643  -758  -824  -761  -555  -401  -469  -654  -757  -753  -710  -657  -624  -646  -735  -848  -910  -920  -938  -997  -1024  -896  -653  -524  -657  -904  -1028  -995  -865  -687  -571  -583  -646  -714  -865  -1060  -1101  -990  -907  -892  -895  -902  -908  -875  -760  -564  -399  -431  -661  -883  -917  -815  -734  -723  -762  -835  -894  -902  -891  -897  -857  -731  -632  -640  -680  -698  -704  -688  -621  -520  -463  -488  -583  -696  -700  -525  -277  -103  -51  -147  -425  -753  -891  -813  -699  -651  -710  -902  -1111  -1200  -1205  -1208  -1192  -1049  -742  -420  -263  -326  -553  -766  -757  -562  -397  -330  -300  -275  -214  -143  -202  -459  -801  -1055  -1143  -1133  -1117  -1104  -1048  -931  -803  -720  -667  -569  -416  -276  -212  -280  -507  -889  -1493  -2096  -2067  -1352  -581  -99  234  708  1380  2082  2785  3448  3658  2968  1470  -311  -1870  -2865  -3134  -2866  -2442  -1877  -1140  -759  -918  -1035  -837  -596  -486  -389  -257  -178  -158  -159  -166  -175  -175  -145  -65  22  42  27  68  147  173  145  181  369  572  594  484  414  432  559  832  1104  1195  1157  1116  1101  1075  1002  917  940  1134  1408  1654  1827  1929  2019  2132  2312  2578  2793  2855  2879  2982  3135  3250  3208  2938  2593  2410  2405  2448  2409  2206  1879  1585  1410  1265  1037  718  344  -34  -317  -433  -462  -557  -748  -922  -1024  -1134  -1237  -1201  -1052  -939  -900  -900  -907  -891  -843  -818  -873  -932  -920  -889  -905  -962  -1011  -995  -861  -652  -580  -736  -895  -880  -754  -566  -363  -281  -345  -423  -447  -452  -484  -540  -570  -541  -453  -353  -353  -535  -777  -862  -716  -407  -101  29  -13  -112  -218  -347  -486  -588  -649  -671  -655  -635  -635  -627  -562  -446  -355  -352  -432  -504  -482  -427  -443  -513  -545  -490  -347  -127  135  331  274  -76  -477  -676  -690  -660  -660  -686  -694  -644  -507  -317  -177  -174  -299  -420  -408  -315  -255  -219  -156  -54  81  150  30  -189  -348  -428  -458  -463  -464  -446  -370  -261  -229  -330  -505  -643  -688  -648  -531  -367  -228  -154  -108  -66  -64  -99  -98  -77  -90  -100  -91  -87  -93  -101  -84  5  172  295  246  45  -148  -213  -165  -109  -158  -357  -618  -775  -751  -617  -427  -144  164  345  393  361  195  -134  -492  -736  -811  -616  -117  520  1241  2176  3158  3732  3630  2785  1299  -388  -1760  -2562  -2799  -2646  -2346  -2037  -1637  -1039  -448  -154  -131  -184  -191  -124  -61  -107  -229  -344  -421  -445  -418  -307  -87  78  -21  -301  -503  -514  -315  17  249  263  189  141  122  132  206  329  393  383  411  543  763  1013  1200  1291  1358  1499  1754  2124  2538  2812  2831  2735  2737  2847  2933  2948  2936  2949  3015  3155  3358  3496  3441  3234  3015  2878  2776  2519  2056  1578  1214  878  501  162  -63  -187  -241  -310  -471  -656  -753  -767  -766  -774  -743  -668  -666  -761  -822  -771  -629  -523  -610  -776  -738  -537  -425  -432  -450  -492  -603  -740  -845  -890  -899  -910  -909  -827  -657  -546  -568  -609  -613  -646  -700  -681  -602  -602  -708  -765  -641  -425  -353  -468  -586  -645  -747  -896  -992  -1019  -1030  -1024  -925  -701  -508  -560  -801  -939  -872  -738  -580  -379  -272  -373  -556  -641  -623  -573  -518  -520  -589  -639  -644  -635  -628  -622  -618  -613  -603  -594  -584  -594  -632  -669  -700  -726  -741  -727  -622  -424  -312  -447  -732  -905  -851  -705  -616  -597  -567  -444  -248  -88  -51  -166  -435  -723  -780  -541  -214  -11  51  11  -158  -389  -482  -430  -457  -598  -642  -534  -424  -388  -391  -407  -445  -489  -484  -403  -315  -335  -438  -477  -393  -270  -232  -284  -321  -301  -244  -158  -94  -130  -191  -109  84  215  243  240  248  237  157  17  -169  -441  -810  -1150  -1264  -1091  -825  -672  -616  -553  -393  -17  446  506  108  -205  -193  32  479  1215  2151  3010  3518  3501  2788  1406  -221  -1678  -2746  -3186  -3011  -2680  -2553  -2407  -1788  -939  -487  -431  -385  -242  -148  -175  -230  -254  -268  -302  -325  -289  -221  -150  -62  62  211  345  495  711  911  1004  1037  1060  1037  982  979  1019  1042  1062  1080  1079  1065  1059  1107  1281  1556  1752  1788  1843  2045  2285  2442  2592  2823  3013  3040  3003  3003  3016  3090  3291  3488  3536  3498  3472  3471  3463  3411  3267  2979  2629  2380  2210  1949  1524  1019  626  446  315  28  -331  -527  -519  -470  -510  -599  -633  -607  -588  -601  -616  -616  -636  -718  -825  -865  -885  -997  -1105  -1033  -837  -701  -673  -713  -812  -952  -1039  -997  -853  -639  -436  -393  -505  -611  -639  -632  -634  -658  -703  -742  -735  -710  -712  -693  -640  -705  -968  -1234  -1331  -1290  -1146  -927  -765  -747  -791  -783  -744  -736  -745  -745  -753  -814  -929  -1023  -1006  -896  -836  -875  -868  -732  -596  -589  -666  -729  -742  -684  -555  -478  -596  -834  -955  -896  -802  -760  -752  -764  -824  -922  -942  -799  -608  -586  -714  -753  -630  -514  -513  -566  -626  -727  -781  -614  -340  -238  -320  -419  -460  -475  -518  -593  -657  -700  -756  -810  -834  -845  -849  -854  -819  -687  -510  -379  -351  -462  -677  -872  -917  -825  -733  -671  -581  -484  -432  -420  -413  -418  -484  -614  -693  -630  -473  -359  -356  -392  -383  -306  -189  -113  -157  -305  -421  -394  -296  -252  -260  -273  -274  -249  -202  -203  -338  -551  -690  -700  -667  -667  -718  -906  -1381  -1928  -1950  -1362  -658  -98  409  1032  1833  2684  3391  3794  3637  2687  1163  -387  -1658  -2562  -2973  -2902  -2516  -1783  -823  -265  -308  -450  -409  -304  -254  -236  -174  -38  175  454  686  763  731  687  677  695  690  580  358  146  38  33  150  414  704  882  991  1107  1226  1351  1512  1661  1748  1904  2246  2600  2746  2728  2693  2656  2500  2174  1869  1854  2173  2635  3044  3345  3557  3690  3759  3822  3890  3846  3649  3459  3362  3213  2906  2588  2434  2410  2409  2373  2258  2036  1733  1415  1147  973  853  724  576  366  0  -458  -799  -965  -1018  -898  -550  -186  -97  -280  -494  -581  -573  -544  -521  -515  -566  -656  -673  -610  -605  -687  -732  -653  -504  -404  -404  -434  -406  -344  -316  -330  -400  -518  -604  -628  -618  -609  -632  -705  -756  -671  -507  -477  -671  -965  -1197  -1271  -1127  -832  -654  -755  -942  -955  -779  -581  -454  -426  -583  -924  -1255  -1408  -1428  -1427  -1416  -1296  -1040  -833  -823  -913  -941  -895  -845  -823  -838  -881  -876  -777  -685  -714  -804  -866  -927  -989  -1001  -987  -986  -973  -893  -752  -628  -555  -516  -527  -596  -698  -822  -945  -982  -843  -571  -335  -249  -333  -570  -844  -994  -1004  -969  -940  -927  -930  -927  -898  -853  -809  -776  -806  -884  -862  -686  -493  -410  -422  -493  -629  -783  -841  -808  -787  -767  -650  -470  -361  -350  -372  -361  -276  -147  -118  -302  -560  -688  -646  -438  -140  -1  -119  -298  -381  -436  -580  -745  -794  -733  -581  -328  -83  24  16  -16  -51  -120  -205  -205  -174  -302  -521  -625  -536  -211  363  1190  2223  3192  3676  3444  2519  1072  -638  -2247  -3367  -3880  -3935  -3679  -3346  -3175  -3088  -2879  -2501  -2030  -1591  -1332  -1276  -1213  -967  -682  -559  -557  -558  -523  -402  -191  -11  64  92  104  104  101  79  28  0  96  323  538  576  447  291  206  267  527  899  1244  1534  1781  2006  2311  2736  3108  3258  3251  3219  3198  3160  3092  3043  3085  3222  3389  3498  3466  3322  3208  3194  3253  3303  3218  2982  2733  2562  2405  2143  1720  1231  902  833  890  952  1001  1009  852  466  18  -311  -555  -753  -812  -732  -639  -578  -515  -473  -468  -414  -316  -304  -375  -378  -254  -75  65  124  130  138  147  88  -80  -295  -501  -680  -760  -705  -608  -552  -498  -426  -448  -624  -803  -848  -779  -620  -453  -460  -631  -771  -811  -805  -778  -710  -618  -553  -474  -334  -241  -319  -509  -662  -707  -654  -590  -631  -770  -838  -707  -467  -287  -190  -137  -162  -251  -325  -351  -368  -418  -492  -505  -434  -440  -596  -720  -655  -460  -269  -160  -168  -270  -370  -398  -376  -413  -598  -834  -955  -968  -958  -943  -873  -721  -540  -378  -250  -185  -213  -313  -409  -412  -331  -296  -342  -389  -418  -421  -314  -129  -47  -121  -216  -236  -216  -193  -157  -110  -148  -370  -669  -793  -628  -315  -48  134  299  439  472  402  312  206  92  25  -37  -195  -430  -624  -699  -692  -697  -777  -879  -849  -618  -303  -97  -122  -347  -574  -497  74  740  702  -19  -619  -646  -133  736  1761  2772  3602  4037  3820  2817  1203  -590  -2077  -2840  -2735  -2160  -1845  -2170  -2701  -2660  -2019  -1386  -1004  -680  -300  18  134  58  -108  -317  -513  -615  -631  -630  -623  -558  -388  -131  163  388  445  415  455  551  622  687  735  697  597  562  681  936  1280  1626  1824  1825  1759  1724  1716  1710  1703  1717  1810  2032  2287  2447  2549  2681  2848  3005  3126  3179  3086  2852  2653  2619  2651  2614  2550  2531  2537  2547  2568  2579  2511  2295  1927  1464  1011  640  327  44  -202  -450  -717  -901  -951  -938  -898  -853  -879  -1006  -1140  -1171  -1105  -1041  -1025  -1027  -1010  -971  -938  -941  -957  -929  -890  -867  -789  -636  -516  -505  -545  -580  -645  -722  -710  -616  -588  -713  -911  -1069  -1154  -1176  -1171  -1184  -1234  -1259  -1185  -1073  -1014  -1017  -1067  -1082  -963  -800  -738  -776  -859  -966  -1075  -1097  -965  -762  -621  -584  -599  -619  -641  -667  -649  -559  -497  -583  -775  -928  -984  -981  -913  -802  -798  -931  -1013  -929  -761  -617  -530  -509  -556  -607  -619  -606  -604  -653  -778  -890  -837  -641  -508  -542  -666  -787  -871  -892  -869  -849  -816  -713  -569  -488  -487  -472  -419  -400  -414  -423  -435  -471  -518  -528  -496  -500  -592  -702  -733  -663  -577  -572  -621  -652  -641  -593  -539  -535  -582  -607  -550  -476  -470  -500  -520  -537  -564  -563  -471  -292  -142  -122  -179  -250  -356  -481  -546  -542  -573  -715  -919  -1049  -1035  -919  -734  -488  -300  -284  -371  -464  -587  -768  -949  -1044  -975  -685  -197  449  1252  2158  2923  3205  2860  1976  723  -616  -1760  -2628  -3198  -3316  -2910  -2225  -1581  -1084  -757  -631  -632  -664  -718  -772  -735  -643  -594  -512  -282  35  323  547  679  678  596  549  594  683  748  801  874  927  945  954  952  888  750  640  719  1044  1443  1691  1815  1957  2131  2303  2480  2623  2705  2828  3086  3377  3525  3487  3362  3279  3262  3259  3239  3231  3287  3402  3536  3653  3717  3702  3605  3414  3067  2532  1939  1504  1282  1113  888  635  354  72  -119  -195  -199  -180  -188  -260  -373  -466  -523  -538  -513  -499  -518  -524  -445  -268  -105  -64  -139  -311  -589  -844  -860  -622  -323  -119  -48  -54  -65  -58  -58  -113  -260  -506  -741  -762  -515  -198  -25  -25  -168  -422  -618  -575  -384  -279  -340  -484  -655  -811  -890  -900  -891  -878  -844  -794  -737  -644  -557  -558  -558  -400  -171  -70  -99  -166  -262  -404  -537  -601  -596  -505  -323  -196  -224  -302  -339  -338  -314  -275  -279  -379  -514  -625  -708  -725  -646  -521  -401  -294  -221  -273  -479  -661  -667  -581  -498  -423  -386  -410  -441  -446  -453  -509  -611  -679  -638  -528  -471  -488  -479  -379  -258  -192  -169  -197  -311  -459  -505  -409  -298  -271  -289  -317  -362  -391  -389  -389  -441  -558  -676  -688  -543  -362  -331  -405  -400  -310  -244  -206  -188  -229  -242  -97  106  184  131  1  -184  -350  -422  -425  -429  -462  -476  -422  -382  -429  -521  -625  -672  -571  -438  -458  -574  -624  -540  -246  165  230  -178  -528  -511  -270  143  864  1889  2937  3698  3932  3389  2060  408  -1089  -2250  -2870  -2898  -2768  -2868  -2855  -2176  -1199  -675  -566  -464  -261  -62  34  55  60  31  -118  -381  -593  -690  -759  -804  -768  -694  -638  -553  -394  -261  -254  -284  -242  -173  -146  -104  40  275  490  591  605  600  577  478  349  382  591  794  981  1239  1479  1595  1706  2030  2582  3158  3570  3707  3487  3036  2730  2733  2844  2898  2897  2891  2925  3017  3116  3101  2907  2574  2227  1973  1785  1503  1059  590  225  -83  -354  -459  -395  -371  -535  -870  -1273  -1585  -1711  -1723  -1722  -1693  -1526  -1203  -893  -725  -693  -777  -873  -832  -671  -489  -286  -101  -56  -156  -286  -408  -578  -779  -905  -917  -888  -878  -874  -820  -697  -563  -484  -439  -396  -418  -507  -527  -425  -310  -273  -285  -303  -366  -473  -495  -417  -398  -483  -555  -554  -529  -517  -505  -473  -439  -426  -395  -332  -295  -339  -425  -437  -346  -268  -300  -412  -517  -584  -586  -431  -140  113  233  250  237  239  237  171  6  -226  -475  -635  -572  -312  -90  -132  -402  -650  -693  -538  -298  -133  -161  -332  -474  -459  -288  -84  23  41  31  10  -50  -140  -197  -246  -379  -559  -653  -624  -534  -439  -363  -311  -326  -392  -422  -409  -384  -301  -188  -139  -144  -150  -162  -223  -343  -456  -490  -449  -426  -489  -535  -409  -169  4  79  120  105  11  -59  -53  -65  -121  -125  -57  8  38  43  46  60  48  -59  -268  -482  -636  -690  -631  -572  -625  -701  -536  55  726  754  159  -350  -441  -152  453  1306  2327  3310  3902  3765  2817  1362  -193  -1578  -2484  -2733  -2603  -2467  -2444  -2400  -1975  -1226  -699  -573  -613  -640  -620  -552  -427  -253  -87  -6  -1  -11  -7  3  18  63  127  181  197  171  205  390  617  734  755  743  700  686  799  1014  1241  1428  1537  1575  1578  1573  1580  1600  1598  1569  1614  1812  2098  2349  2526  2703  2918  3035  2967  2869  2886  2987  3139  3284  3300  3220  3192  3217  3194  3054  2809  2521  2236  1993  1782  1493  1071  654  386  244  128  -112  -602  -1187  -1575  -1698  -1654  -1451  -1132  -950  -1013  -1132  -1171  -1163  -1179  -1272  -1459  -1710  -1928  -2030  -2046  -1990  -1809  -1573  -1408  -1295  -1187  -1185  -1359  -1576  -1695  -1730  -1727  -1740  -1889  -2130  -2270  -2277  -2250  -2226  -2154  -1995  -1808  -1687  -1672  -1769  -1897  -1874  -1677  -1471  -1370  -1421  -1671  -2079  -2452  -2626  -2609  -2425  -2083  -1765  -1641  -1655  -1686  -1698  -1713  -1757  -1858  -2039  -2246  -2411  -2496  -2473  -2365  -2284  -2311  -2380  -2399  -2397  -2436  -2453  -2411  -2396  -2425  -2426  -2413  -2431  -2459  -2472  -2484  -2500  -2484  -2424  -2416  -2531  -2725  -2912  -2989  -2901  -2741  -2588  -2404  -2251  -2289  -2519  -2755  -2864  -2929  -3087  -3279  -3354  -3324  -3290  -3256  -3115  -2824  -2540  -2425  -2424  -2430  -2466  -2527  -2497  -2366  -2274  -2255  -2224  -2215  -2331  -2530  -2646  -2588  -2404  -2172  -1977  -1915  -1975  -2039  -2059  -2079  -2141  -2195  -2152  -2074  -2101  -2253  -2392  -2337  -2057  -1738  -1529  -1424  -1451  -1663  -1988  -2274  -2385  -2289  -2110  -2002  -1989  -2008  -2011  -1974  -1870  -1668  -1406  -1244  -1355  -1765  -2418  -2912  -2589  -1731  -1305  -1405  -1415  -958  -30  1191  2407  3252  3461  2989  1960  638  -634  -1629  -2294  -2615  -2522  -1982  -1308  -1021  -1090  -1078  -870  -526  -54  430  842  1230  1586  1850  2065  2325  2566  2667  2660  2640  2632  2607  2533  2398  2231  2136  2197  2402  2718  3146  3623  4065  4516  4993  5381  5665  5917  6088  6134  6236  6596  7072  7370  7446  7450  7530  7727  7968  8183  8409  8731  9137  9521  9749  9818  9951  10360  10919  11270  11289  11298  11719  12480  12998  12684  11213  8632  5363  1859]
