reading_id,reading_time,wire_id,result_classification,heart_rate,heart_rate_alert,firmware_version,device_app_version,hardware_version,waveform_samples
43e62920-655b-11ed-8080-808080808080,Wed Nov 16 03:03:37 UTC 2022,2101e3d81839,NSR,70,NONE,20001.171.50,2.10.0,Charge 5,[0  -1  41  150  301  436  511  531  526  519  525  553  594  619  597  518  383  207  20  -158  -322  -473  -643  -856  -1073  -1214  -1254  -1239  -1212  -1177  -1124  -1064  -1006  -942  -874  -824  -800  -779  -723  -593  -400  -216  -93  -10  81  190  291  375  437  481  518  552  601  680  760  846  1020  1321  1670  1970  2191  2324  2371  2371  2367  2376  2390  2395  2395  2413  2472  2561  2634  2667  2670  2658  2652  2688  2769  2851  2877  2857  2852  2897  2977  3057  3111  3139  3146  3102  2958  2736  2541  2447  2434  2448  2462  2477  2485  2451  2350  2217  2110  2039  1989  1954  1916  1847  1756  1689  1681  1712  1722  1688  1648  1630  1612  1556  1443  1304  1180  1066  957  880  853  858  874  888  902  916  927  931  927  913  888  853  812  778  763  766  779  786  763  689  574  444  315  209  128  51  -14  -62  -128  -228  -312  -321  -262  -203  -219  -351  -567  -768  -874  -885  -835  -747  -600  -385  -118  280  982  1986  3050  3857  4023  3249  1686  -174  -1828  -2853  -3149  -2993  -2660  -2291  -1976  -1709  -1432  -1108  -758  -478  -319  -256  -257  -287  -300  -265  -174  -65  0  18  36  82  146  200  227  239  261  312  400  499  575  635  709  794  874  973  1121  1291  1438  1551  1649  1764  1914  2063  2153  2185  2229  2353  2552  2760  2911  2968  2935  2847  2736  2600  2415  2175  1925  1705  1503  1291  1045  722  321  -67  -335  -479  -588  -711  -827  -936  -1055  -1171  -1274  -1376  -1473  -1541  -1568  -1574  -1580  -1588  -1589  -1577  -1559  -1533  -1488  -1429  -1391  -1400  -1440  -1483  -1509  -1516  -1517  -1519  -1521  -1512  -1486  -1450  -1413  -1389  -1376  -1360  -1337  -1326  -1329  -1319  -1276  -1219  -1157  -1092  -1042  -1042  -1092  -1155  -1204  -1219  -1196  -1164  -1147  -1143  -1142  -1144  -1165  -1211  -1257  -1283  -1329  -1426  -1523  -1571  -1580  -1576  -1569  -1559  -1545  -1519  -1486  -1459  -1442  -1432  -1428  -1419  -1390  -1336  -1294  -1307  -1338  -1297  -1184  -1076  -1016  -991  -976  -945  -896  -849  -820  -789  -708  -560  -402  -306  -283  -283  -262  -206  -133  -68  -29  -12  -7  -3  3  11  12  -13  -84  -178  -252  -293  -320  -346  -364  -365  -353  -336  -318  -306  -311  -323  -334  -363  -436  -575  -732  -775  -580  -73  751  1753  2723  3476  3771  3387  2352  886  -714  -2051  -2823  -3058  -2937  -2607  -2201  -1759  -1264  -796  -459  -265  -165  -119  -100  -84  -64  -40  -9  31  73  105  124  146  190  244  281  318  390  475  533  568  582  584  615  727  908  1083  1189  1229  1247  1306  1450  1663  1884  2062  2189  2279  2358  2449  2550  2632  2673  2679  2673  2668  2664  2636  2558  2427  2239  1970  1657  1392  1200  1025  830  606  354  102  -119  -303  -448  -548  -612  -656  -686  -702  -708  -707  -705  -707  -720  -746  -774  -790  -781  -748  -702  -671  -693  -760  -817  -828  -796  -748  -714  -699  -693  -689  -691  -714  -775  -869  -933  -886  -748  -620  -555  -527  -509  -498  -511  -571  -676  -786  -868  -916  -938  -940  -935  -932  -938  -960  -992  -1018  -1023  -999  -953  -913  -889  -857  -814  -791  -821  -912  -1028  -1108  -1138  -1145  -1153  -1164  -1155  -1095  -983  -874  -827  -838  -859  -856  -846  -843  -824  -781  -742  -724  -712  -695  -682  -673  -651  -614  -574  -537  -523  -521  -484  -385  -252  -123  -22  51  113  177  260  364  481  591  667  689  654  553  390  207  60  -13  -1  68  135  166  170  166  156  130  94  66  54  35  -39  -180  -262  -122  245  725  1241  1805  2439  3079  3523  3457  2710  1463  72  -1179  -2071  -2488  -2506  -2242  -1737  -1100  -512  -97  129  229  275  315  371  433  472  473  452  434  424  421  421  438  483  546  605  663  738  835  953  1078  1180  1235  1247  1235  1221  1233  1286  1357  1412  1460  1557  1744  2003  2250  2403  2475  2552  2703  2896  3040  3094  3096  3086  3075  3049  2975  2842  2711  2648  2612  2439  2009  1441  983  720  564  438  313  151  -49  -222  -311  -341  -376  -452  -564  -679  -765  -810  -823  -823  -830  -848  -855  -824  -763  -713  -696  -699  -706  -703  -680  -639  -604  -589  -585  -571  -550  -547  -570  -592  -595  -586  -574  -567  -566  -558  -527  -488  -516  -661  -836  -896  -828  -738  -697  -694  -700  -707  -723  -742  -751  -746  -745  -779  -870  -991  -1078  -1089  -1030  -938  -843  -752  -682  -679  -737  -795  -818  -817  -812  -809  -796  -760  -702  -639  -587  -554  -538  -532  -531  -533  -540  -555  -570  -563  -519  -459  -431  -453  -484  -481  -445  -395  -345  -301  -269  -258  -280  -325  -364  -363  -305  -209  -107  -4  96  163  168  106  3  -98  -169  -218  -264  -295  -299  -293  -298  -323  -380  -462  -545  -614  -666  -699  -720  -721  -679  -580  -431  -195  253  968  1819  2636  3232  3305  2681  1545  196  -1171  -2286  -2881  -2972  -2710  -2204  -1634  -1212  -977  -841  -734  -642  -574  -509  -396  -228  -62  49  113  163  211  243  255  257  258  265  294  349  404  421  399  380  405  485  587  678  780  944  1147  1305  1376  1399  1452  1605  1852  2090  2228  2278  2314  2401  2550  2721  2871  2969  2966  2828  2605  2413  2287  2174  2053  1960  1892  1764  1494  1112  759  529  379  197  -80  -396  -633  -758  -835  -907  -966  -994  -993  -982  -972  -946  -887  -807  -749  -751  -821  -929  -1014  -1043  -1028  -991  -940  -883  -836  -823  -838  -860  -887  -918  -940  -938  -910  -873  -837  -796  -762  -749  -749  -748  -731  -694  -648  -604  -558  -521  -509  -528  -581  -656  -722  -759  -770  -769  -766  -761  -744  -705  -640  -568  -520  -505  -508  -512  -515  -521  -533  -550  -564  -562  -529  -464  -393  -350  -343  -361  -389  -416  -439  -459  -473  -480  -486  -498  -516  -532  -535  -514  -459  -371  -265  -162  -78  -23  -8  -68  -240  -473  -646  -700  -660  -556  -396  -210  -45  85  194  280  335  349  313  228  113  0  -84  -130  -150  -165  -195  -251  -341  -463  -580  -650  -674  -685  -710  -742  -722  -601  -417  -220  52  461  1002  1715  2511  3106  3277  2906  1948  628  -699  -1813  -2534  -2746  -2560  -2148  -1567  -900  -346  -54  13  -25  -117  -229  -283  -213  -46  134  280  383  439  460  475  503  537  563  580  605  654  719  800  905  1011  1098  1179  1268  1354  1433  1507  1584  1679  1805  1951  2105  2269  2434  2566  2646  2695  2746  2799  2832  2861  2919  2996  3057  3098  3137  3149  3038  2716  2265  1889  1669  1521  1373  1224  1054  794  438  81  -172  -307  -402  -550  -749  -910  -981  -990  -983  -979  -969  -939  -886  -826  -785  -802  -910  -1079  -1226  -1298  -1310  -1285  -1220  -1115  -987  -868  -808  -859  -1023  -1179  -1163  -975  -783  -703  -716  -750  -762  -755  -756  -798  -882  -953  -939  -852  -781  -784  -839  -876  -850  -789  -739  -715  -694  -651  -595  -572  -617  -717  -824  -903  -949  -965  -947  -890  -807  -733  -692  -695  -751  -848  -943  -989  -980  -957  -948  -950  -952  -949  -945  -944  -945  -938  -903  -832  -749  -695  -680  -695  -729  -772  -820  -867  -884  -859  -811  -748  -674  -605  -553  -496  -403  -282  -189  -162  -198  -267  -335  -395  -461  -530  -575  -576  -537  -489  -450  -438  -473  -552  -638  -687  -694  -690  -703  -720  -674  -567  -459  -267  149  821  1704  2664  3394  3524  2887  1630  71  -1401  -2434  -2890  -2891  -2620  -2168  -1582  -981  -515  -247  -126  -74  -36  17  83  138  170  186  179  127  37  -38  -51  37  234  486  696  812  869  918  971  1010  1018  1008  1042  1179  1405  1641  1830  1966  2058  2120  2177  2276  2449  2667  2848  2940  2962  2955  2955  2975  3009  3043  3068  3087  3095  3067  2963  2771  2540  2333  2147  1913  1607  1291  1047  894  763  568  307  55  -137  -283  -414  -532  -607  -616  -568  -499  -443  -405  -378  -358  -348  -351  -363  -373  -368  -349  -344  -360  -361  -345  -348  -372  -390  -392  -384  -361  -311  -240  -209  -248  -297  -301  -306  -358  -426  -463  -471  -469  -455  -419  -363  -311  -278  -267  -276  -311  -395  -539  -695  -793  -820  -813  -802  -794  -782  -763  -739  -713  -689  -686  -716  -760  -789  -798  -803  -821  -851  -884  -909  -921  -924  -923  -922  -922  -919  -914  -917  -951  -1034  -1157  -1262  -1284  -1224  -1138  -1068  -1022  -1000  -996  -1006  -1030  -1062  -1080  -1061  -1001  -926  -861  -786  -677  -556  -460  -396  -349  -323  -336  -419  -592  -804  -969  -1046  -1055  -1038  -1049  -1102  -1157  -1187  -1194  -1167  -1079  -957  -888  -888  -824  -567  -102  534  1310  2193  3036  3533  3364  2395  795  -970  -2386  -3176  -3379  -3213  -2859  -2387  -1840  -1326  -971  -788  -681  -570  -455  -370  -328  -303  -271  -230  -200  -187  -178  -146  -64  70  216  310  337  340  390  524  698  825  887  943  1024  1108  1188  1294  1450  1629  1791  1951  2139  2339  2521  2683  2829  2947  3018  3044  3055  3087  3150  3222  3270  3277  3240  3151  3002  2802  2596  2409  2217  2001  1757  1434  996  542  220  51  -52  -142  -208  -245  -280  -322  -339  -325  -339  -425  -543  -630  -667  -671  -666  -651  -608  -516  -396  -310  -275  -268  -276  -313  -389  -490  -576  -616  -619  -613  -615  -616  -576  -458  -297  -186  -185  -269  -379  -470  -515  -524  -520  -518  -513  -488  -446  -427  -457  -500  -516  -505  -494  -514  -584  -673  -733  -745  -727  -698  -658  -613  -579  -560  -544  -511  -464  -425  -423  -470  -553  -625  -649  -626  -580  -554  -578  -631  -678  -713  -746  -783  -802  -783  -740  -683  -601  -505  -428  -373  -309  -219  -117  -36  -6  -42  -139  -268  -383  -452  -470  -469  -484  -509  -521  -514  -507  -512  -520  -520  -536  -623  -793  -942  -941  -742  -352  167  762  1440  2211  3008  3599  3594  2772  1331  -312  -1764  -2701  -3039  -2958  -2667  -2292  -1847  -1308  -761  -353  -124  -16  32  60  90  121  156  198  239  271  293  311  328  342  349  351  346  340  347  388  456  489  469  481  591  769  953  1104  1215  1312  1429  1574  1728  1855  1932  1978  2054  2194  2375  2555  2712  2840  2931  2964  2914  2783  2627  2506  2405  2267  2077  1882  1725  1561  1295  914  521  216  -23  -279  -562  -819  -1000  -1096  -1124  -1115  -1092  -1079  -1096  -1152  -1233  -1305  -1342  -1342  -1314  -1268  -1214  -1165  -1131  -1111  -1093  -1057  -999  -933  -866  -796  -759  -800  -890  -956  -963  -937  -912  -899  -892  -883  -866  -839  -816  -825  -882  -959  -985  -922  -818  -744  -711  -694  -686  -683  -681  -673  -660  -659  -688  -736  -776  -789  -781  -768  -756  -739  -712  -689  -680  -681  -681  -675  -665  -656  -652  -660  -681  -707  -712  -680  -625  -582  -568  -568  -546  -480  -382  -280  -183  -90  -13  33  54  62  65  43  -35  -189  -391  -577  -682  -686  -612  -507  -423  -384  -377  -380  -398  -445  -514  -572  -592  -556  -474  -371  -231  3  415  1129  2146  3202  3862  3717  2630  900  -875  -2166  -2759  -2814  -2636  -2399  -2133  -1789  -1315  -797  -408  -219  -169  -166  -168  -175  -190  -204  -208  -188  -114  37  219  344  382  382  400  445  497  573  735  981  1218  1371  1436  1466  1524  1631  1764  1883  1975  2061  2184  2379  2609  2798  2923  3013  3080  3120  3126  3110  3103  3102  3081  3047  3020  3003  2965  2861  2666  2401  2119  1848  1533  1116  663  296  32  -169  -299  -352  -371  -396  -430  -453  -456  -453  -471  -535  -641  -742  -800  -813  -805  -797  -788  -768  -733  -687  -635  -584  -551  -533  -513  -485  -458  -437  -416  -402  -410  -441  -475  -497  -504  -506  -507  -504  -496  -503  -547  -612  -663  -696  -731  -782  -827  -841  -821  -769  -676  -568  -520  -590  -747  -898  -973  -983  -981  -1012  -1094  -1205  -1310  -1385  -1422  -1432  -1431  -1422  -1392  -1331  -1263  -1202  -1136  -1076  -1047  -1040  -1013  -931  -817  -732  -706  -715  -728  -720  -669  -574  -457  -346  -275  -267  -306  -353  -390  -429  -492  -568  -626  -674  -754  -861  -943  -973  -970  -958  -953  -979  -1056  -1165  -1253  -1289  -1293  -1291  -1253  -1109  -816  -367  264  1060  1879  2579  3006  2846  1928  514  -1013  -2347  -3159  -3327  -3101  -2722  -2224  -1663  -1195  -884  -662  -482  -372  -343  -345  -310  -201  -46  83  149  159  149  180  318  557  791  921  947  929  908  897  891  888  907  972  1095  1265  1444  1584  1677  1770  1931  2161  2387  2556  2682  2792  2883  2939  2966  2985  3014  3066  3132  3182  3199  3184  3134  3055  2963  2863  2754  2599  2311  1888  1477  1195  1010  850  706  577  431  253  70  -82  -186  -235  -249  -255  -266  -291  -344  -414  -473  -503  -516  -537  -585  -651  -705  -730  -740  -755  -771  -766  -714  -610  -468  -328  -241  -217  -224  -230  -226  -217  -214  -217  -207  -165  -100  -46  -23  -23  -40  -85  -166  -261  -329  -351  -348  -339  -338  -350  -368  -383  -387  -384  -380  -387  -415  -457  -490  -501  -499  -500  -518  -544  -542  -496  -436  -383  -325  -267  -240  -258  -314  -369  -395  -401  -402  -399  -407  -453  -532  -571  -514  -416  -359  -350  -352  -340  -319  -325  -399  -526  -642  -715  -773  -840  -910  -974  -1027  -1058  -1066  -1063  -1056  -1051  -1059  -1098  -1168  -1243  -1293  -1318  -1357  -1427  -1489  -1518  -1503  -1330  -891  -182  733  1695  2480  2886  2711  1867  551  -906  -2243  -3253  -3811  -3899  -3563  -2946  -2292  -1816  -1585  -1526  -1527  -1521  -1486  -1411  -1294  -1164  -1058  -1012  -1033  -1059  -1033  -976  -936  -917  -897  -861  -807  -747  -690  -626  -520  -361  -193  -64  23  79  108  125  177  317  547  831  1140  1426  1619  1702  1738  1786  1854  1923  1976  2013  2055  2110  2141  2120  2063  1994  1893  1730  1507  1266  1053  877  706  493  225  -51  -302  -548  -790  -977  -1082  -1125  -1125  -1090  -1038  -1000  -983  -962  -914  -837  -750  -679  -619  -541  -449  -384  -365  -367  -355  -308  -245  -226  -280  -347  -350  -266  -121  25  112  126  104  81  67  55  42  39  52  80  103  106  93  76  71  85  104  104  76  30  -15  -46  -63  -83  -104  -97  -54  -7  20  28  27  29  41  59  77  90  106  159  288  457  584  635  638  611  553  483  438  428  419  371  297  239  207  174  132  93  72  71  88  123  173  226  272  306  337  380  434  491  563  639  698  737  774  821  881  939  976  988  986  977  950  885  769  622  501  433  395  359  330  329  357  387  400  401  398  383  324  232  169  156  189  313  598  1187  2140  3206  3980  4089  3324  1865  171  -1365  -2463  -2961  -2940  -2616  -2160  -1686  -1253  -852  -502  -265  -151  -105  -76  -38  20  93  184  299  409  477  501  505  508  511  503  472  424  400  455  585  731  846  925  992  1076  1203  1371  1536  1656  1739  1814  1874  1913  1961  2046  2177  2332  2457  2529  2587  2670  2782  2893  2962  2967  2905  2791  2630  2412  2139  1876  1690  1545  1335  1014  645  336  141  18  -109  -286  -527  -797  -1020  -1148  -1205  -1242  -1276  -1299  -1306  -1305  -1303  -1300  -1296  -1290  -1275  -1243  -1190  -1134  -1111  -1133  -1176  -1208  -1218  -1221  -1233  -1247  -1255  -1260  -1262  -1230  -1125  -962  -804  -697  -655  -668  -719  -785  -849  -921  -1012  -1107  -1171  -1170  -1108  -1023  -955  -919  -908  -897  -872  -836  -796  -756  -726  -730  -765  -795  -798  -793  -828  -926  -1040  -1105  -1103  -1049  -962  -859  -747  -637  -548  -504  -520  -585  -667  -728  -754  -758  -754  -744  -723  -700  -702  -744  -802  -830  -811  -770  -739  -727  -725  -724  -732  -769  -838  -910  -944  -930  -892  -866  -865  -866  -845  -809  -783  -775  -777  -779  -782  -791  -807  -821  -802  -711  -555  -403  -317  -293  -295  -297  -295  -288  -281  -287  -325  -406  -505  -555  -496  -335  -167  -92  -113  -167  -212  -235  -234  -231  -269  -379  -521  -599  -558  -344  106  746  1462  2229  3016  3567  3500  2675  1314  -218  -1583  -2511  -2896  -2826  -2406  -1691  -875  -263  8  64  87  137  165  149  142  194  269  296  254  183  145  165  208  242  279  347  448  567  692  803  873  920  1000  1118  1233  1325  1419  1548  1728  1934  2107  2229  2338  2449  2534  2573  2584  2594  2619  2658  2697  2728  2750  2763  2767  2766  2753  2697  2583  2428  2282  2178  2091  1909  1528  1018  565  264  74  -73  -199  -304  -415  -567  -738  -862  -905  -893  -859  -817  -773  -743  -728  -720  -714  -713  -720  -733  -740  -733  -718  -705  -696  -682  -671  -701  -782  -883  -968  -1005  -972  -887  -779  -667  -571  -504  -464  -444  -433  -427  -431  -453  -501  -569  -640  -690  -709  -735  -798  -866  -898  -890  -861  -828  -794  -744  -677  -610  -550  -494  -451  -422  -398  -372  -351  -328  -295  -259  -214  -137  -37  44  83  88  76  54  30  4  -38  -125  -267  -442  -600  -707  -763  -783  -775  -739  -685  -637  -620  -635  -667  -695  -715  -748  -797  -841  -864  -874  -888  -911  -945  -986  -1005  -979  -921  -866  -820  -764  -687  -605  -552  -549  -579  -623  -677  -717  -697  -592  -453  -366  -356  -380  -399  -411  -418  -396  -310  -158  0  94  100  51  7  -9  -24  -65  -128  -185  -218  -227  -220  -212  -236  -317  -432  -520  -539  -481  -378  -306  -275  -224  -157  -69  181  726  1565  2581  3512  3957  3610  2518  1035  -451  -1646  -2371  -2657  -2645  -2373  -1887  -1351  -902  -554  -279  -69  67  149  198  222  241  298  418  560  654  684  679  664  637  611  625  691  756  771  749  730  739  775  829  886  948  1034  1176  1378  1590  1738  1795  1802  1828  1934  2125  2350  2540  2656  2713  2752  2801  2878  2991  3112  3195  3222  3194  3100  2942  2765  2602  2431  2182  1809  1357  936  635  482  409  297  90  -157  -365  -497  -564  -597  -630  -677  -732  -789  -846  -894  -928  -944  -946  -944  -956  -1002  -1082  -1173  -1248  -1292  -1301  -1285  -1261  -1249  -1254  -1258  -1246  -1224  -1202  -1172  -1110  -1013  -917  -856  -835  -832  -834  -849  -890  -951  -999  -995  -909  -747  -571  -441  -367  -328  -318  -331  -351  -366  -384  -414  -447  -478  -510  -546  -575  -592  -619  -675  -746  -796  -811  -810  -807  -801  -783  -731  -636  -515  -408  -345  -326  -333  -345  -345  -316  -259  -207  -185  -197  -253  -367  -510  -616  -657  -646  -597  -536  -509  -544  -621  -696  -741  -753  -740  -733  -773  -868  -958  -992  -987  -976  -968  -957  -928  -865  -769  -661  -573  -525  -515  -512  -486  -437  -382  -336  -293  -245  -190  -137  -87  -25  55  132  179  197  203  205  194  160  107  43  -14  -48  -57  -54  -50  -47  -46  -51  -69  -97  -127  -169  -255  -385  -498  -498  -333  0  541  1323  2259  3145  3755  3853  3264  2081  641  -751  -1894  -2624  -2897  -2812  -2459  -1914  -1331  -863  -509  -203  33  148  155  108  52  10  18  134  353  565  678  698  685  670  655  637  625  633  657  689  727  798  937  1138  1343  1496  1593  1683  1815  1983  2143  2285  2433  2595  2732  2818  2876  2941  3022  3117  3209  3266  3278  3264  3247  3238  3241  3256  3251  3147  2872  2449  1978  1550  1203  917  646  355  45  -256  -532  -771  -935  -1001  -1009  -1038  -1144  -1295  -1406  -1441  -1437  -1438  -1465  -1515  -1557  -1557  -1518  -1475  -1454  -1453  -1461  -1465  -1446  -1388  -1310  -1251  -1224  -1208  -1193  -1192  -1213  -1237  -1226  -1166  -1099  -1068  -1069  -1080  -1091  -1096  -1079  -1025  -949  -884  -839  -804  -774  -743  -707  -686  -684  -671  -635  -607  -617  -662  -694  -669  -604  -548  -517  -498  -492  -497  -490  -457  -419  -399  -396  -398  -403  -430  -518  -662  -800  -864  -840  -769  -706  -671  -650  -628  -602  -572  -547  -543  -566  -602  -627  -633  -633  -649  -676  -683  -663  -637  -623  -614  -587  -538  -487  -444  -403  -356  -293  -215  -156  -136  -140  -150  -152  -132  -72  33  161  260  314  351  388  399  358  296  251  219  166  65  -62  -166  -231  -271  -290  -293  -297  -310  -325  -333  -350  -408  -459  -389  -148  296  1014  1977  2976  3752  4091  3773  2707  1200  -312  -1591  -2452  -2790  -2745  -2497  -2085  -1556  -1041  -656  -425  -300  -212  -136  -88  -68  -37  41  148  226  247  235  222  225  239  258  287  347  451  576  684  763  817  845  859  895  986  1134  1314  1491  1642  1762  1856  1955  2080  2221  2382  2584  2805  2987  3112  3197  3246  3260  3256  3246  3228  3170  3032  2824  2613  2440  2278  2097  1893  1660  1383  1050  680  328  56  -120  -275  -510  -820  -1090  -1231  -1269  -1274  -1280  -1284  -1285  -1280  -1267  -1246  -1224  -1209  -1198  -1188  -1178  -1181  -1216  -1280  -1327  -1320  -1270  -1193  -1100  -1020  -985  -996  -1034  -1085  -1134  -1169  -1185  -1175  -1131  -1052  -951  -856  -789  -751  -730  -730  -750  -779  -820  -887  -965  -1019  -1040  -1048  -1059  -1072  -1085  -1090  -1062  -975  -852  -754  -711  -708  -722  -731  -729  -722  -718  -722  -732  -757  -813  -882  -914  -868  -756  -642  -578  -564  -576  -597  -617  -620  -599  -567  -549  -556  -573  -589  -607  -625  -640  -653  -659  -627  -525  -378  -263  -217  -216  -227  -232  -218  -171  -98  -31  6  19  20  11  -4  -29  -70  -129  -194  -260  -334  -406  -452  -466  -459  -440  -419  -402  -386  -372  -359  -326  -271  -245  -238  -157  50  391  888  1574  2424  3307  4001  4185  3555  2177  474  -1128  -2281  -2747  -2641  -2304  -1920  -1501  -1089  -763  -501  -221  71  302  429  482  506  532  571  610  632  650  695  774  851  877  865  874  916  968  1019  1064  1099  1132  1165  1193  1218  1253  1316  1412  1525  1645  1766  1867  1948  2029  2128  2258  2429  2611  2750  2822  2844  2843  2839  2842  2847  2840  2803  2718  2584  2424  2264  2108  1915  1633  1297  1003  777  564  350  172  36  -104  -279  -446  -557  -621  -665  -694  -711  -731  -762  -794  -813  -819  -819  -814  -801  -778  -751  -722  -691  -678  -705  -768  -837  -889  -920  -938  -947  -957  -972  -983  -958  -883  -791  -710  -645  -617  -656  -727  -763  -735  -685  -662  -653  -625  -602  -650  -793  -969  -1089  -1124  -1103  -1050  -981  -924  -901  -920  -977  -1029  -1041  -1022  -1006  -1003  -1005  -999  -978  -953  -953  -990  -1031  -1033  -996  -952  -926  -919  -918  -914  -918  -948  -1020  -1129  -1235  -1277  -1228  -1129  -1050  -1025  -1032  -1028  -989  -918  -835  -745  -650  -560  -495  -457  -442  -442  -448  -447  -428  -386  -330  -290  -308  -407  -558  -688  -753  -766  -760  -754  -754  -759  -763  -763  -761  -767  -790  -831  -887  -956  -1004  -949  -705  -239  371  1013  1659  2344  2998  3356  3091  2128  739  -718  -1924  -2622  -2770  -2523  -2016  -1327  -659  -261  -148  -151  -149  -126  -92  -26  102  272  418  508  557  597  639  670  697  746  820  892  946  996  1066  1147  1199  1220  1236  1248  1250  1268  1339  1471  1643  1838  2043  2229  2363  2434  2462  2482  2514  2590  2740  2936  3115  3240  3307  3323  3309  3277  3231  3167  3089  3007  2895  2689  2358  1943  1503  1084  731  463  240  35  -118  -190  -215  -256  -347  -464  -558  -622  -679  -725  -744  -746  -757  -796  -851  -895  -918  -921  -902  -866  -830  -813  -810  -810  -822  -853  -883  -877  -809  -704  -616  -576  -572  -591  -630  -675  -695  -670  -618  -578  -568  -585  -618  -658  -689  -699  -679  -617  -525  -443  -408  -428  -478  -533  -583  -617  -634  -641  -645  -651  -655  -654  -651  -649  -652  -658  -661  -659  -651  -634  -616  -609  -616  -640  -688  -766  -858  -919  -922  -886  -853  -841  -842  -844  -845  -851  -868  -885  -880  -836  -757  -691  -697  -766  -833  -861  -865  -867  -859  -807  -690  -546  -447  -415  -419  -427  -430  -448  -519  -671  -864  -1018  -1108  -1174  -1240  -1290  -1287  -1220  -1123  -1025  -946  -908  -918  -969  -1044  -1082  -1046  -978  -883  -620  -90  644  1510  2377  2949  2960  2328  1172  -250  -1674  -2779  -3292  -3243  -2830  -2226  -1619  -1160  -883  -743  -674  -631  -598  -570  -534  -479  -416  -363  -317  -253  -161  -66  10  86  172  271  369  428  442  460  542  700  898  1085  1234  1359  1491  1624  1722  1781  1850  1970  2133  2290  2395  2459  2533  2652  2804  2949  3056  3148  3270  3417  3540  3607  3608  3549  3474  3410  3296  3037  2639  2235  1934  1706  1456  1173  931  781  690  585  431  259  118  27  -31  -81  -110  -103  -68  -33  -13  -5  4  23  29  -11  -93  -164  -190  -183  -169  -167  -202  -282  -351  -335  -241  -146  -94  -92  -122  -160  -194  -222  -245  -266  -283  -305  -347  -409  -470  -511  -527  -523  -510  -495  -489  -502  -535  -574  -602  -609  -584  -517  -428  -359  -334  -354  -419  -504  -566  -586  -576  -554  -535  -533  -557  -601  -649  -681  -681  -642  -589  -561  -569  -593  -617  -642  -670  -688  -683  -647  -594  -557  -563  -619  -700  -756  -741  -642  -506  -408  -377  -387  -410  -437  -484  -556  -626  -651  -632  -598  -576  -587  -621  -633  -606  -539  -457  -426  -481  -567  -640  -701  -749  -781  -802  -817  -827  -843  -880  -935  -985  -1009  -999  -957  -885  -801  -744  -732  -770  -867  -989  -1024  -863  -488  100  915  1909  2911  3603  3631  2861  1458  -228  -1743  -2707  -3043  -2899  -2444  -1855  -1332  -1006  -852  -768  -687  -609  -556  -532  -523  -514  -501  -476  -436  -392  -359  -341  -324  -295  -232  -110  66  240  339  357  342  330  345  423  569  740  874  963  1036  1101  1160  1245  1400  1633  1899  2123  2265  2338  2373  2413  2490  2601  2706  2788  2857  2918  2944  2919  2862  2798  2718  2594  2403  2143  1827  1480  1130  792  469  185  -18  -151  -255  -343  -406  -457  -543  -686  -839  -935  -963  -954  -924  -874  -812  -761  -739  -737  -742  -756  -792  -838  -855  -801  -670  -513  -398  -350  -335  -326  -326  -365  -447  -540  -601  -620  -616  -594  -541  -447  -335  -251  -226  -248  -286  -313  -323  -317  -307  -313  -346  -392  -427  -450  -486  -541  -589  -607  -599  -582  -569  -568  -589  -647  -736  -818  -850  -801  -674  -509  -363  -278  -258  -270  -280  -266  -220  -166  -144  -175  -238  -301  -339  -350  -347  -343  -339  -335  -342  -372  -417  -447  -448  -431  -410  -398  -406  -438  -489  -529  -518  -465  -419  -399  -372  -311  -249  -240  -267  -274  -262  -272  -302  -316  -285  -198  -83  33  162  301  393  375  233  36  -122  -228  -333  -449  -545  -601  -624  -628  -630  -649  -702  -773  -840  -903  -948  -948  -903  -836  -750  -639  -537  -467  -314  117  897  1935  3016  3764  3760  2878  1417  -187  -1579  -2487  -2847  -2773  -2400  -1856  -1279  -826  -593  -521  -498  -476  -433  -346  -233  -149  -113  -98  -85  -84  -95  -87  -37  32  89  117  123  131  175  270  395  518  632  731  796  822  840  919  1128  1430  1683  1800  1818  1814  1827  1874  1979  2154  2366  2567  2732  2843  2906  2945  2983  3029  3069  3067  2987  2815  2568  2296  2047  1812  1572  1360  1201  1025  750  423  147  -64  -281  -534  -763  -893  -922  -906  -890  -883  -882  -882  -882  -884  -893  -918  -960  -1006  -1026  -1004  -949  -892  -856  -843  -834  -793  -720  -695  -779  -906  -981  -968  -869  -719  -575  -486  -471  -511  -561  -585  -580  -563  -542  -498  -418  -328  -278  -285  -314  -342  -379  -432  -505  -593  -664  -702  -717  -716  -711  -713  -716  -706  -680  -644  -609  -586  -573  -554  -510  -447  -393  -362  -335  -297  -252  -215  -209  -226  -238  -219  -174  -131  -113  -112  -126  -162  -218  -289  -364  -429  -469  -481  -480  -501  -559  -620  -639  -596  -502  -408  -356  -340  -335  -332  -331  -334  -339  -360  -422  -521  -619  -684  -705  -708  -723  -764  -822  -849  -815  -752  -695  -632  -559  -482  -386  -251  -99  22  93  133  155  149  107  37  -56  -158  -236  -296  -383  -513  -641  -697  -659  -577  -513  -478  -449  -440  -482  -562  -647  -700  -687  -627  -529  -301  182  990  2052  3120  3884  4020  3327  1972  351  -1202  -2382  -2959  -3038  -2846  -2411  -1782  -1203  -838  -644  -525  -452  -428  -440  -463  -473  -454  -400  -323  -234  -120  15  142  231  276  289  286  287  307  356  427  493  535  568  631  748  908  1068  1198  1322  1480  1650  1770  1823  1843  1877  1967  2139  2359  2543  2663  2766  2887  3008  3091  3112  3080  3031  2967  2845  2647  2434  2271  2144  1974  1706  1381  1100  922  831  754  575  233  -168  -454  -584  -649  -715  -771  -787  -766  -736  -720  -720  -729  -752  -792  -841  -876  -879  -834  -740  -631  -555  -531  -547  -582  -620  -644  -642  -606  -535  -436  -328  -239  -184  -160  -162  -191  -245  -305  -348  -359  -339  -293  -242  -219  -255  -346  -450  -520  -549  -553  -535  -495  -457  -462  -501  -520  -487  -418  -341  -277  -236  -216  -214  -214  -199  -183  -202  -285  -407  -505  -545  -546  -534  -514  -481  -438  -396  -376  -399  -454  -490  -470  -417  -383  -389  -426  -464  -481  -478  -466  -454  -446  -434  -407  -369  -338  -325  -320  -318  -330  -367  -418  -452  -453  -428  -391  -350  -309  -261  -203  -149  -129  -156  -203  -244  -270  -274  -260  -239  -216  -193  -167  -122  -60  2  51  80  88  89  91  90  62  -33  -218  -436  -599  -675  -692  -685  -670  -656  -655  -695  -802  -944  -1043  -1072  -1066  -1066  -1085  -1104  -1089  -1023  -866  -540  -9  729  1672  2692  3572  4033  3735  2603  965  -736  -2090  -2812  -2960  -2811  -2553  -2215  -1774  -1266  -815  -551  -481  -510  -557  -594  -605  -576  -506  -412  -305  -176  -42  48  76  69  60  65  96  163  264  381  479  534  558  598  683  811  954  1060  1099  1106  1166  1336  1574  1783  1935  2085  2279  2493  2662  2757  2792  2803  2813  2819  2808  2766  2695  2614  2543  2479  2379  2195  1941  1690  1499  1344  1156  917  667  411  132  -135  -334  -443  -484  -509  -572  -687  -820  -924  -981  -1000  -993  -961  -919  -890  -881  -880  -878  -871  -854  -807  -709  -563  -421  -337  -313  -318  -348  -418  -505  -543  -494  -398  -318  -276  -261  -267  -290  -319  -338  -340  -331  -307  -263  -207  -159  -132  -129  -159  -228  -324  -408  -454  -467  -465  -457  -446  -432  -416  -398  -374  -347  -328  -325  -334  -350  -375  -424  -494  -555  -589  -599  -600  -606  -618  -625  -619  -597  -570  -551  -542  -542  -555  -585  -622  -649  -659  -663  -674  -682  -673  -652  -627  -596  -564  -543  -542  -570  -633  -726  -827  -899  -923  -893  -813  -712  -638  -605  -597  -598  -607  -618  -599  -507  -347  -168  -13  90  122  76  -30  -147  -218  -242  -259  -309  -392  -456  -440  -354  -273  -237  -234  -255  -308  -388  -448  -428  -338  -266  -211  -40  332  933  1778  2744  3611  4153  4059  3126  1567  -174  -1704  -2682  -2947  -2696  -2271  -1833  -1419  -1092  -895  -798  -728  -619  -477  -369  -329  -322  -314  -305  -300  -294  -276  -242  -203  -166  -122  -50  38  106  146  192  264  363  493  665  850  1000  1110  1211  1311  1414  1545  1699  1824  1904  1977  2082  2201  2305  2422  2592  2788  2942  3016  3011  2964  2912  2860  2812  2766  2695  2558  2345  2090  1811  1500  1196  978  830  658  419  139  -152  -417  -591  -658  -665  -665  -691  -762  -858  -948  -1035  -1120  -1161  -1125  -1039  -959  -917  -905  -901  -883  -845  -801  -771  -766  -775  -780  -776  -775  -788  -815  -833  -821  -787  -751  -713  -658  -581  -513  -472  -446  -423  -408  -403  -404  -411  -425  -450  -482  -519  -554  -576  -584  -589  -595  -584  -516  -399  -334  -397  -513  -582  -606  -626  -651  -670  -678  -679  -674  -656  -628  -612  -626  -661  -694  -711  -715  -714  -713  -711  -709  -711  -713  -707  -689  -668  -638  -581  -507  -445  -403  -385  -395  -430  -482  -532  -563  -571  -564  -550  -534  -521  -500  -456  -400  -364  -345  -294  -176  -20  119  222  293  336  355  332  209  -41  -339  -558  -654  -669  -627  -520  -370  -242  -180  -173  -197  -252  -332  -417  -494  -544  -534  -460  -314  -3  581  1438  2426  3337  3920  3904  3210  2048  684  -686  -1823  -2518  -2766  -2644  -2252  -1789  -1405  -1081  -773  -524  -390  -349  -324  -263  -169  -53  120  364  597  729  758  722  645  552  493  509  599  728  843  908  930  930  927  939  992  1106  1276  1472  1665  1823  1918  1953  1973  2035  2163  2330  2482  2583  2636  2659  2666  2670  2672  2671  2668  2656  2616  2537  2436  2338  2255  2172  2038  1799  1460  1079  739  509  368  195  -95  -437  -696  -836  -919  -993  -1042  -1043  -992  -920  -869  -864  -899  -952  -1006  -1064  -1121  -1159  -1170  -1168  -1167  -1167  -1156  -1122  -1076  -1040  -1024  -1020  -1021  -1021  -1018  -1018  -1029  -1057  -1082  -1088  -1077  -1047  -978  -884  -823  -825  -859  -881  -881  -877  -885  -909  -946  -979  -969  -882  -734  -595  -516  -492  -492  -494  -498  -507  -519  -528  -536  -550  -573  -589  -579  -546  -511  -481  -454  -431  -406  -369  -327  -302  -303  -311  -301  -275  -253  -250  -257  -260  -252  -250  -262  -281  -309  -368  -455  -534  -580  -594  -591  -584  -574  -562  -553  -549  -557  -581  -615  -643  -657  -662  -660  -633  -563  -471  -412  -405  -415  -410  -401  -418  -464  -522  -570  -599  -611  -617  -634  -671  -707  -706  -663  -608  -556  -512  -497  -537  -581  -474  -41  742  1710  2643  3367  3683  3391  2474  1153  -271  -1532  -2392  -2755  -2737  -2480  -2024  -1451  -936  -591  -391  -279  -226  -205  -178  -128  -64  -14  -4  -31  -64  -78  -59  9  147  331  499  597  627  626  629  652  703  771  830  869  913  993  1088  1151  1169  1178  1244  1435  1767  2152  2453  2596  2618  2595  2575  2593  2670  2799  2940  3046  3081  3052  3009  2990  2958  2816  2493  2034  1593  1269  1015  765  540  352  165  -29  -196  -315  -406  -501  -605  -695  -755  -803  -865  -932  -975  -991  -995  -987  -961  -923  -884  -855  -833  -798  -746  -692  -647  -612  -566  -487  -386  -296  -238  -219  -228  -241  -255  -295  -379  -482  -560  -590  -587  -572  -563  -554  -524  -463  -404  -391  -418  -439  -437  -428  -429  -439  -456  -488  -537  -586  -626  -667  -704  -723  -719  -697  -657  -603  -546  -498  -467  -453  -449  -448  -446  -449  -466  -493  -519  -534  -539  -539  -542  -551  -558  -553  -532  -499  -460  -426  -403  -385  -360  -340  -356  -420  -492  -523  -512  -490  -472  -456  -447  -445  -449  -451  -441  -402  -315  -167  3  134  211  262  283  253  184  107  27  -87  -236  -362  -423  -434  -442  -484  -579  -701  -792  -823  -820  -811  -809  -812  -804  -752  -627  -435  -181  192  752  1496  2359  3153  3550  3284  2355  1036  -331  -1527  -2372  -2704  -2549  -2102  -1516  -924  -489  -279  -217  -198  -194  -233  -309  -361  -338  -240  -96  49  153  198  204  188  155  114  81  60  50  71  171  355  549  669  730  806  923  1042  1138  1238  1374  1512  1598  1637  1686  1780  1922  2107  2311  2485  2601  2680  2748  2795  2809  2808  2810  2812  2787  2707  2561  2362  2095  1721  1279  879  579  350  130  -131  -420  -659  -794  -854  -898  -952  -1003  -1027  -1018  -989  -965  -954  -945  -933  -920  -912  -909  -907  -906  -908  -916  -927  -934  -924  -882  -806  -703  -588  -485  -427  -436  -502  -588  -653  -688  -716  -750  -783  -808  -816  -797  -754  -709  -675  -637  -594  -547  -490  -433  -384  -359  -402  -510  -608  -651  -657  -652  -645  -636  -626  -617  -605  -582  -557  -539  -530  -527  -525  -516  -496  -473  -457  -440  -417  -401  -395  -388  -384  -393  -417  -453  -493  -529  -555  -575  -585  -589  -591  -590  -582  -559  -528  -504  -489  -474  -451  -428  -430  -468  -500  -484  -442  -417  -412  -408  -394  -360  -291  -197  -111  -41  21  74  104  102  61  -7  -86  -173  -260  -323  -349  -350  -356  -396  -482  -588  -654  -657  -622  -583  -560  -576  -667  -797  -817  -613  -245  180  716  1481  2426  3306  3809  3642  2741  1384  -26  -1199  -1966  -2364  -2489  -2305  -1835  -1263  -756  -419  -281  -263  -265  -243  -207  -170  -111  -1  134  232  266  263  261  290  362  452  523  572  622  688  765  851  940  1026  1109  1179  1236  1299  1366  1413  1443  1513  1672  1896  2114  2286  2412  2498  2542  2551  2550  2581  2670  2804  2939  3039  3079  3052  2988  2911  2801  2646  2465  2285  2090  1846  1542  1198  852  526  221  -29  -176  -227  -264  -357  -500  -622  -682  -702  -696  -660  -623  -651  -781  -965  -1108  -1169  -1173  -1145  -1099  -1042  -982  -939  -915  -889  -840  -770  -690  -613  -539  -478  -451  -475  -553  -662  -756  -793  -779  -747  -714  -681  -651  -623  -598  -573  -540  -510  -492  -481  -476  -483  -493  -494  -494  -518  -580  -655  -693  -669  -577  -439  -309  -233  -206  -206  -230  -295  -391  -481  -544  -607  -704  -820  -907  -946  -953  -942  -925  -893  -826  -733  -656  -630  -644  -656  -634  -588  -545  -514  -492  -484  -502  -546  -597  -625  -602  -525  -412  -321  -312  -384  -476  -551  -616  -694  -763  -777  -740  -714  -740  -781  -759  -629  -442  -305  -259  -265  -275  -274  -265  -266  -306  -393  -495  -566  -593  -588  -549  -469  -384  -348  -358  -378  -410  -466  -549  -680  -858  -1022  -1096  -1040  -829  -436  161  983  1992  2993  3676  3732  3010  1688  158  -1246  -2301  -2876  -3016  -2823  -2344  -1692  -1075  -633  -361  -189  -73  -1  44  76  96  107  112  112  111  106  88  48  -1  -21  25  147  315  489  627  689  674  631  630  735  928  1102  1186  1206  1240  1342  1502  1669  1820  1954  2064  2148  2214  2288  2394  2515  2611  2671  2710  2739  2749  2724  2665  2571  2438  2281  2135  2021  1912  1768  1579  1329  1000  635  318  80  -82  -176  -223  -262  -322  -419  -555  -704  -814  -860  -856  -833  -814  -805  -800  -789  -776  -770  -769  -753  -706  -641  -586  -548  -519  -500  -492  -485  -461  -421  -384  -369  -371  -376  -374  -366  -364  -380  -422  -479  -527  -555  -576  -594  -606  -599  -564  -507  -456  -431  -430  -436  -439  -447  -474  -522  -574  -608  -621  -625  -631  -636  -609  -523  -404  -312  -279  -287  -323  -402  -529  -663  -743  -746  -685  -599  -535  -510  -511  -518  -521  -525  -537  -558  -577  -592  -616  -643  -659  -663  -659  -640  -598  -544  -502  -480  -471  -466  -461  -449  -421  -367  -299  -259  -276  -339  -405  -437  -409  -321  -198  -86  -25  -30  -104  -240  -390  -494  -543  -583  -641  -702  -739  -736  -707  -678  -664  -662  -678  -717  -766  -778  -714  -598  -512  -485  -451  -330  -73  377  1083  2024  3041  3838  4008  3283  1824  49  -1614  -2734  -3125  -3008  -2649  -2142  -1564  -1032  -614  -326  -176  -136  -146  -161  -165  -159  -150  -146  -147  -136  -84  17  142  257  356  462  582  679  724  725  708  695  704  751  832  922  1000  1076  1165  1269  1409  1597  1801  1968  2075  2137  2188  2255  2354  2478  2588  2670  2770  2930  3108  3225  3243  3161  3001  2813  2657  2542  2411  2174  1778  1299  902  669  536  409  258  90  -92  -273  -429  -570  -706  -798  -829  -827  -825  -836  -855  -873  -885  -900  -922  -933  -910  -849  -776  -722  -690  -664  -645  -641  -647  -654  -645  -592  -494  -398  -357  -383  -435  -489  -555  -619  -636  -585  -503  -441  -414  -407  -410  -440  -522  -635  -723  -759  -758  -729  -666  -580  -507  -464  -431  -395  -369  -378  -430  -502  -555  -571  -566  -560  -564  -585  -626  -683  -745  -801  -841  -856  -847  -822  -794  -773  -770  -787  -812  -833  -846  -848  -834  -802  -757  -709  -666  -630  -601  -579  -564  -555  -552  -553  -550  -540  -525  -509  -489  -453  -392  -306  -224  -181  -174  -171  -171  -193  -255  -362  -510  -672  -806  -885  -918  -923  -913  -884  -830  -755  -673  -604  -565  -547  -553  -619  -754  -861  -729  -167  823  2034  3206  4131  4580  4247  3016  1227  -590  -2007  -2734  -2818  -2636  -2422  -2104  -1632  -1092  -588  -199  33  143  194  225  252  291  339  369  361  322  292  308  362  413  436  441  454  494  550  600  633  650  651  642  629  636  679  760  860  961  1059  1188  1387  1626  1844  2043  2244  2409  2508  2571  2630  2686  2723  2737  2736  2725  2708  2682  2648  2608  2560  2458  2203  1777  1326  1008  814  646  443  187  -89  -299  -387  -386  -366  -384  -474  -610  -736  -835  -931  -1026  -1091  -1113  -1111  -1105  -1092  -1063  -1025  -997  -988  -989  -993  -997  -1006  -1019  -1027  -1024  -1004  -975  -951  -943  -956  -996  -1051  -1091  -1089  -1039  -963  -901  -873  -872  -879  -885  -886  -871  -833  -785  -746  -724  -713  -703  -686  -671  -684  -752  -863  -976  -1062  -1119  -1139  -1115  -1055  -970  -866  -762  -694  -667  -653  -629  -588  -532  -474  -428  -394  -378  -383  -403  -440  -497  -529  -491  -411  -334  -272  -214  -140  -41  46  74  36  -40  -141  -249  -283  -168  46  233  327  351  334  270  152  24  -58  -94  -148  -274  -453  -602  -668  -671  -655  -643  -638  -638  -656  -719  -823  -906  -875  -686  -393  -28  531  1388  2434  3430  4060  3978  3046  1505  -187  -1622  -2550  -2923  -2884  -2610  -2167  -1597  -1043  -650  -428  -287  -144  21  176  277  326  348  347  322  314  374  496  619  701  745  773  798  825  863  923  1006  1091  1173  1247  1298  1313  1306  1313  1378  1515  1683  1835  1960  2074  2193  2321  2465  2630  2803  2969  3130  3273  3368  3400  3355  3204  2963  2710  2509  2361  2223  2047  1784  1429  1038  686  417  206  9  -172  -334  -508  -706  -896  -1045  -1149  -1218  -1239  -1188  -1087  -1008  -998  -1041  -1099  -1152  -1203  -1217  -1155  -1044  -958  -925  -915  -893  -855  -819  -788  -762  -736  -704  -666  -624  -586  -572  -590  -616  -618  -598  -576  -570  -584  -613  -661  -720  -769  -794  -781  -706  -587  -492  -482  -562  -686  -783  -814  -797  -770  -753  -750  -756  -773  -812  -859  -881  -862  -828  -806  -791  -773  -761  -775  -820  -880  -921  -930  -922  -916  -917  -930  -942  -924  -872  -821  -797  -788  -754  -673  -570  -473  -379  -301  -247  -200  -164  -148  -144  -158  -189  -216  -242  -291  -375  -469  -542  -584  -609  -624  -634  -639  -647  -658  -661  -648  -633  -647  -706  -796  -888  -941  -914  -790  -537  -96  568  1452  2476  3428  3966  3793  2855  1387  -225  -1645  -2655  -3190  -3308  -3026  -2384  -1647  -1093  -773  -593  -476  -406  -369  -324  -253  -166  -64  47  136  171  164  149  148  177  238  319  403  490  588  682  749  783  798  818  862  940  1047  1157  1247  1318  1404  1539  1732  1962  2212  2465  2680  2821  2884  2891  2876  2864  2884  2957  3060  3130  3141  3117  3069  2955  2732  2409  2034  1653  1281  922  593  314  88  -77  -189  -275  -389  -560  -749  -879  -931  -945  -954  -967  -989  -1014  -1027  -1008  -948  -875  -833  -815  -776  -716  -678  -690  -730  -766  -800  -855  -925  -977  -990  -957  -880  -786  -717  -688  -686  -696  -718  -756  -804  -847  -868  -865  -845  -813  -781  -762  -759  -755  -731  -671  -596  -544  -536  -564  -596  -612  -613  -609  -606  -604  -601  -599  -607  -634  -672  -692  -661  -563  -424  -301  -234  -217  -223  -229  -223  -213  -214  -229  -246  -254  -257  -258  -260  -265  -272  -280  -283  -273  -253  -237  -222  -190  -131  -59  6  60  99  104  58  -18  -101  -174  -219  -231  -236  -260  -307  -365  -424  -475  -505  -513  -509  -503  -495  -485  -478  -490  -544  -641  -726  -703  -470  55  856  1803  2730  3455  3761  3451  2501  1117  -378  -1676  -2538  -2872  -2753  -2323  -1716  -1091  -591  -259  -74  9  52  99  152  205  266  337  397  431  447  456  462  473  503  573  692  831  940  989  995  988  987  996  1010  1036  1084  1170  1302  1463  1614  1736  1819  1870  1937  2090  2341  2627  2862  3005  3073  3105  3115  3099  3075  3070  3086  3104  3095  3029  2898  2729  2547  2367  2189  1969  1662  1324  1049  808  520  217  11  -74  -106  -133  -163  -218  -308  -395  -444  -463  -475  -485  -486  -479  -473  -477  -498  -544  -600  -637  -648  -653  -672  -703  -732  -756  -776  -791  -797  -788  -755  -677  -546  -391  -268  -204  -182  -176  -176  -188  -217  -256  -284  -293  -294  -302  -319  -331  -324  -304  -280  -253  -219  -183  -147  -109  -76  -68  -100  -159  -211  -238  -259  -310  -402  -505  -576  -603  -603  -603  -618  -643  -668  -694  -722  -750  -775  -806  -832  -830  -789  -728  -673  -631  -600  -587  -603  -638  -667  -670  -666  -677  -690  -680  -639  -569  -474  -378  -301  -229  -144  -57  0  22  22  16  9  1  -10  -51  -158  -331  -505  -612  -638  -607  -547  -491  -466  -467  -466  -435  -360  -262  -188  -155  -141  -117  -84  -34  107  498  1209  2019  2581  2798  2781  2519  1854  738  -586  -1674  -2233  -2347  -2252  -2060  -1783  -1466  -1173  -941  -776  -674  -620  -595  -584  -580  -581  -582  -563  -505  -424  -363  -339  -339  -362  -416  -484  -529  -531  -508  -494  -494  -486  -453  -408  -367  -323  -258  -164  -68  -7  9  5  0  0]
