reading_id,reading_time,wire_id,result_classification,heart_rate,heart_rate_alert,firmware_version,device_app_version,hardware_version,waveform_samples
27b84cf0-586e-11ed-8080-808080808080,Sun Oct 30 16:16:05 UTC 2022,2101e3d81839,NSR,64,NONE,20001.171.50,2.10.0,Charge 5,[0  612  1129  1463  1626  1708  1769  1822  1887  1987  2106  2212  2302  2393  2474  2487  2400  2282  2222  2234  2286  2340  2366  2354  2291  2176  2020  1828  1591  1322  1066  846  651  458  239  -10  -237  -374  -411  -377  -288  -169  -91  -140  -360  -668  -892  -938  -834  -654  -477  -363  -343  -411  -536  -653  -663  -543  -361  -191  -120  -215  -433  -674  -858  -943  -936  -876  -793  -704  -619  -548  -505  -493  -509  -557  -628  -690  -720  -725  -723  -723  -714  -672  -586  -490  -425  -420  -489  -585  -639  -637  -605  -545  -441  -291  -144  -81  -151  -331  -534  -672  -719  -704  -663  -630  -632  -663  -686  -665  -606  -545  -479  -381  -286  -261  -314  -395  -453  -474  -473  -453  -406  -340  -279  -230  -196  -190  -233  -315  -378  -377  -342  -318  -312  -307  -303  -331  -425  -557  -655  -691  -692  -677  -629  -517  -354  -199  -90  -30  -13  -33  -83  -151  -221  -282  -305  -267  -186  -103  -47  -28  -44  -78  -114  -154  -204  -257  -294  -329  -409  -543  -680  -765  -787  -764  -716  -666  -642  -671  -757  -866  -1000  -1159  -1129  -611  395  1731  3199  4352  4782  4426  3374  1794  19  -1552  -2683  -3290  -3297  -2772  -2046  -1491  -1221  -1125  -1085  -1050  -977  -826  -629  -474  -386  -321  -254  -211  -200  -180  -94  57  210  320  378  339  190  7  -121  -141  -53  108  334  577  751  830  869  915  964  1003  1058  1185  1401  1632  1785  1859  1922  2008  2101  2205  2332  2461  2578  2682  2741  2735  2682  2610  2554  2543  2553  2503  2336  2082  1806  1507  1165  842  616  499  451  384  208  -58  -291  -413  -448  -449  -453  -487  -553  -609  -628  -629  -645  -695  -766  -822  -826  -756  -623  -484  -404  -411  -492  -601  -680  -705  -692  -660  -628  -626  -673  -748  -806  -831  -834  -821  -779  -720  -708  -791  -926  -1045  -1100  -1049  -891  -676  -477  -355  -344  -457  -668  -881  -973  -906  -753  -606  -497  -435  -446  -519  -586  -605  -581  -540  -503  -490  -529  -647  -810  -937  -996  -1016  -1022  -1009  -975  -946  -958  -1008  -1039  -1011  -964  -947  -933  -849  -735  -750  -929  -1113  -1179  -1133  -1022  -863  -663  -475  -369  -363  -401  -399  -345  -317  -339  -328  -247  -145  -71  -37  -30  -31  -30  -46  -94  -169  -237  -267  -262  -242  -224  -219  -220  -206  -159  -86  7  135  285  391  402  320  192  75  -8  -64  -92  -110  -144  -185  -209  -220  -232  -254  -289  -336  -391  -463  -552  -622  -590  -424  -299  -387  -498  -228  625  1968  3467  4604  4957  4487  3418  1985  386  -1145  -2343  -3003  -3111  -2794  -2194  -1492  -916  -584  -437  -359  -295  -252  -242  -269  -322  -377  -413  -415  -386  -337  -276  -218  -186  -185  -197  -190  -125  4  144  235  289  360  471  592  706  830  962  1056  1066  1008  973  1071  1289  1509  1670  1814  1984  2163  2299  2370  2411  2461  2515  2545  2531  2480  2437  2459  2558  2666  2677  2563  2374  2140  1889  1674  1522  1382  1181  879  484  64  -280  -494  -600  -640  -643  -629  -613  -602  -585  -556  -541  -573  -635  -687  -722  -756  -795  -843  -908  -961  -947  -851  -717  -627  -618  -650  -677  -697  -723  -751  -751  -702  -628  -579  -580  -609  -634  -645  -648  -649  -649  -645  -635  -623  -610  -599  -588  -558  -483  -373  -269  -197  -176  -224  -319  -408  -448  -435  -401  -369  -338  -310  -299  -309  -341  -389  -444  -488  -472  -339  -132  20  55  15  -18  -6  24  43  50  63  89  118  135  129  105  85  80  87  98  103  96  75  55  52  67  115  201  282  316  286  191  67  -20  -51  -54  -71  -127  -210  -282  -302  -230  -41  214  428  535  553  527  484  435  390  359  347  355  389  458  554  657  741  784  792  785  775  752  697  591  427  239  86  2  -20  -9  6  -4  -59  -138  -199  -229  -241  -231  -167  -45  15  -127  -353  -270  370  1454  2732  3924  4689  4846  4401  3359  1805  28  -1584  -2712  -3187  -3005  -2372  -1675  -1211  -984  -867  -801  -777  -766  -711  -582  -423  -315  -287  -295  -285  -227  -145  -90  -74  -61  -15  54  109  133  157  212  292  367  427  478  544  646  766  855  904  976  1137  1345  1504  1578  1589  1582  1617  1737  1913  2078  2217  2371  2540  2674  2745  2763  2749  2711  2638  2528  2400  2267  2117  1935  1727  1531  1394  1308  1202  985  633  247  -32  -179  -262  -342  -437  -534  -621  -725  -880  -1057  -1182  -1234  -1254  -1284  -1329  -1393  -1490  -1605  -1704  -1757  -1757  -1753  -1772  -1758  -1686  -1615  -1601  -1657  -1769  -1912  -2043  -2124  -2147  -2141  -2141  -2162  -2194  -2222  -2238  -2245  -2226  -2149  -2013  -1871  -1772  -1722  -1703  -1678  -1610  -1502  -1401  -1365  -1410  -1469  -1475  -1458  -1458  -1456  -1421  -1355  -1288  -1226  -1154  -1084  -1038  -1002  -965  -939  -929  -929  -921  -890  -843  -820  -845  -875  -865  -828  -788  -706  -522  -294  -178  -246  -434  -630  -745  -747  -671  -573  -471  -353  -251  -209  -231  -287  -319  -294  -248  -227  -225  -205  -147  -67  14  91  123  68  -40  -122  -137  -92  -6  94  181  235  252  216  120  18  0  83  222  361  451  478  475  482  511  532  510  441  334  207  91  12  -34  -82  -162  -266  -342  -361  -348  -326  -304  -308  -399  -575  -669  -546  -271  112  662  1408  2412  3648  4769  5260  4785  3423  1571  -364  -1939  -2783  -2941  -2700  -2239  -1663  -1118  -735  -509  -343  -190  -62  16  41  19  -28  -48  -19  13  17  17  55  146  257  336  376  420  506  617  691  708  695  679  665  659  697  815  985  1132  1218  1285  1395  1556  1721  1863  1983  2096  2228  2366  2454  2468  2438  2417  2440  2512  2600  2684  2779  2887  2962  2932  2766  2518  2303  2153  2010  1839  1657  1464  1203  846  471  184  1  -147  -304  -431  -503  -548  -580  -588  -578  -560  -540  -517  -494  -508  -605  -774  -936  -1015  -972  -800  -568  -396  -353  -431  -590  -753  -824  -765  -624  -489  -407  -376  -372  -377  -392  -434  -511  -601  -664  -682  -667  -643  -630  -629  -626  -618  -611  -611  -621  -634  -616  -545  -448  -371  -332  -325  -361  -460  -596  -693  -707  -650  -569  -512  -501  -522  -556  -585  -606  -617  -609  -564  -476  -398  -410  -511  -624  -704  -771  -832  -864  -847  -789  -705  -602  -499  -431  -412  -424  -456  -509  -579  -651  -699  -713  -713  -717  -717  -691  -640  -589  -558  -547  -547  -569  -628  -709  -769  -773  -719  -626  -525  -432  -361  -326  -324  -343  -371  -402  -439  -466  -443  -352  -237  -159  -134  -139  -150  -159  -167  -176  -181  -191  -227  -286  -338  -388  -467  -565  -635  -651  -631  -605  -590  -580  -553  -487  -354  -178  -113  -253  -447  -470  -194  452  1490  2808  4055  4786  4727  3905  2533  839  -882  -2239  -2973  -3054  -2591  -1889  -1333  -1060  -910  -729  -530  -397  -353  -363  -389  -419  -446  -450  -386  -222  -13  140  210  245  284  328  371  413  439  425  370  310  297  363  512  701  854  936  978  1034  1153  1323  1476  1569  1613  1639  1679  1753  1869  2023  2208  2403  2569  2676  2726  2749  2772  2795  2813  2823  2799  2698  2509  2273  2028  1786  1568  1403  1282  1161  1010  817  590  356  165  47  -12  -62  -125  -192  -258  -317  -356  -379  -407  -444  -472  -480  -482  -495  -521  -534  -512  -476  -455  -451  -449  -440  -436  -441  -432  -388  -329  -304  -334  -383  -401  -383  -371  -383  -398  -389  -367  -359  -376  -412  -457  -513  -582  -652  -699  -715  -711  -688  -643  -587  -543  -522  -520  -536  -577  -640  -705  -747  -765  -774  -787  -800  -804  -802  -805  -820  -844  -865  -873  -870  -840  -762  -656  -570  -534  -547  -615  -737  -853  -877  -821  -766  -744  -719  -669  -637  -672  -751  -811  -828  -821  -812  -808  -808  -808  -807  -806  -808  -813  -816  -798  -738  -637  -540  -500  -535  -605  -660  -688  -705  -716  -710  -684  -649  -627  -630  -624  -543  -376  -194  -81  -47  -52  -82  -146  -237  -319  -368  -382  -379  -385  -428  -509  -593  -637  -649  -673  -725  -785  -832  -866  -920  -989  -985  -831  -478  182  1216  2477  3683  4538  4679  3866  2353  658  -861  -1960  -2548  -2763  -2728  -2467  -2022  -1488  -1019  -723  -570  -490  -432  -360  -264  -146  -20  75  115  121  116  96  56  36  98  230  344  387  384  377  377  385  419  502  623  731  807  862  902  945  1028  1160  1323  1506  1693  1864  1999  2079  2122  2170  2234  2297  2377  2514  2686  2811  2841  2796  2715  2625  2504  2309  2074  1899  1819  1761  1638  1429  1179  927  668  395  125  -104  -257  -324  -332  -336  -387  -507  -653  -747  -765  -744  -727  -722  -707  -654  -571  -501  -493  -560  -659  -727  -750  -753  -763  -788  -820  -836  -814  -752  -674  -612  -586  -600  -639  -688  -716  -687  -612  -545  -519  -521  -533  -536  -515  -457  -382  -328  -325  -372  -447  -512  -544  -550  -547  -542  -544  -562  -590  -596  -555  -512  -516  -536  -529  -492  -449  -420  -412  -409  -397  -376  -355  -335  -295  -207  -91  -5  11  -31  -110  -207  -321  -440  -524  -547  -520  -470  -425  -399  -391  -386  -382  -384  -398  -424  -449  -461  -463  -474  -514  -577  -630  -643  -614  -562  -494  -393  -270  -182  -161  -196  -258  -320  -351  -309  -171  9  137  179  174  164  155  137  97  30  -53  -137  -204  -250  -279  -295  -285  -231  -149  -84  -65  -91  -153  -219  -257  -240  -90  295  967  1977  3321  4678  5425  5105  3776  1877  -26  -1399  -2052  -2218  -2102  -1702  -1126  -617  -308  -169  -127  -125  -129  -117  -74  -9  45  70  75  91  148  244  346  436  501  531  536  555  611  685  742  773  802  844  891  924  934  945  1015  1187  1412  1579  1653  1698  1770  1868  1955  2001  2019  2042  2093  2193  2341  2500  2620  2674  2678  2652  2609  2561  2532  2528  2532  2501  2391  2208  2000  1785  1535  1244  954  697  438  122  -208  -457  -630  -804  -990  -1134  -1217  -1273  -1349  -1446  -1521  -1548  -1535  -1502  -1474  -1482  -1556  -1697  -1863  -1993  -2055  -2064  -2062  -2083  -2126  -2168  -2189  -2197  -2198  -2185  -2143  -2070  -1986  -1910  -1855  -1825  -1807  -1770  -1697  -1612  -1553  -1504  -1407  -1254  -1109  -1023  -990  -986  -995  -1001  -977  -905  -807  -735  -709  -707  -702  -687  -662  -627  -576  -499  -411  -358  -348  -330  -267  -180  -107  -68  -60  -68  -85  -103  -112  -107  -100  -125  -211  -345  -480  -585  -653  -682  -684  -672  -655  -632  -598  -544  -460  -364  -300  -308  -393  -510  -593  -620  -613  -598  -584  -569  -569  -626  -766  -913  -949  -881  -802  -747  -705  -674  -648  -626  -604  -557  -449  -278  -98  19  60  58  48  64  123  207  274  301  291  239  145  46  -11  -32  -56  -101  -124  -79  23  153  288  388  380  218  -11  -134  6  503  1348  2466  3749  4919  5555  5315  4198  2550  798  -632  -1453  -1758  -1778  -1542  -1076  -542  -116  102  140  102  61  41  46  79  133  184  211  213  204  194  190  203  245  303  354  388  408  411  392  361  336  330  336  336  328  342  409  512  592  633  682  779  896  984  1061  1195  1373  1505  1545  1535  1541  1597  1690  1786  1874  1955  2006  1996  1915  1799  1691  1596  1509  1439  1347  1151  867  601  384  149  -98  -270  -327  -336  -394  -554  -762  -912  -961  -947  -916  -892  -895  -937  -994  -1027  -1028  -1019  -1020  -1021  -989  -881  -699  -544  -527  -623  -714  -741  -725  -699  -682  -664  -619  -548  -479  -446  -488  -596  -697  -745  -757  -759  -751  -717  -650  -576  -526  -504  -496  -496  -506  -518  -515  -484  -425  -360  -316  -312  -351  -411  -456  -472  -465  -437  -386  -306  -207  -161  -231  -377  -501  -542  -510  -471  -478  -525  -581  -630  -660  -667  -650  -606  -548  -507  -498  -514  -540  -558  -537  -460  -349  -258  -212  -193  -191  -207  -228  -239  -237  -235  -258  -324  -417  -494  -513  -459  -366  -295  -262  -243  -222  -217  -251  -313  -357  -356  -330  -316  -314  -304  -287  -276  -272  -250  -180  -54  107  279  410  440  374  263  136  -5  -149  -278  -374  -425  -436  -411  -349  -267  -190  -129  -106  -171  -344  -554  -680  -692  -672  -615  -321  409  1552  2910  4190  4988  4976  4154  2770  1120  -484  -1732  -2470  -2750  -2638  -2126  -1384  -801  -555  -498  -462  -407  -340  -269  -203  -153  -125  -115  -112  -108  -104  -97  -69  0  91  173  235  276  293  285  263  253  307  461  670  824  877  866  841  844  923  1101  1329  1521  1645  1727  1783  1827  1884  1980  2125  2304  2467  2564  2587  2551  2466  2365  2294  2267  2250  2214  2154  2067  1939  1772  1579  1356  1113  885  692  535  405  269  96  -120  -366  -595  -750  -811  -807  -783  -760  -735  -703  -669  -649  -646  -647  -643  -643  -668  -738  -837  -908  -916  -893  -874  -843  -766  -652  -545  -455  -370  -310  -310  -351  -388  -404  -412  -422  -437  -458  -477  -481  -477  -483  -515  -568  -600  -581  -545  -532  -547  -577  -609  -634  -642  -623  -568  -490  -426  -402  -434  -534  -677  -796  -833  -783  -686  -607  -582  -595  -607  -588  -543  -508  -500  -500  -476  -414  -342  -289  -265  -279  -331  -404  -496  -607  -707  -777  -818  -835  -817  -753  -664  -599  -578  -579  -584  -586  -584  -566  -518  -442  -385  -402  -485  -560  -584  -573  -556  -532  -470  -366  -262  -201  -187  -193  -204  -216  -217  -177  -72  73  199  267  268  211  105  -30  -166  -283  -394  -499  -568  -589  -586  -586  -600  -633  -686  -745  -784  -783  -742  -698  -715  -772  -748  -509  39  880  1856  2801  3634  4198  4201  3505  2224  591  -1032  -2250  -2923  -3138  -2980  -2560  -2046  -1563  -1155  -817  -562  -421  -377  -372  -373  -369  -350  -298  -219  -152  -115  -102  -111  -142  -189  -231  -209  -71  138  296  352  347  329  311  302  337  460  691  985  1245  1395  1443  1453  1473  1526  1622  1759  1925  2085  2184  2205  2180  2142  2110  2084  2070  2104  2222  2377  2460  2411  2286  2162  2048  1919  1784  1642  1447  1206  984  816  684  552  381  185  18  -153  -409  -720  -973  -1112  -1134  -1051  -906  -776  -708  -690  -687  -686  -701  -752  -833  -916  -972  -991  -951  -835  -681  -569  -527  -513  -484  -439  -399  -371  -365  -421  -583  -803  -965  -1020  -1002  -954  -888  -818  -765  -745  -753  -769  -790  -825  -863  -866  -803  -697  -610  -574  -581  -616  -676  -747  -801  -832  -850  -845  -808  -743  -659  -572  -514  -496  -498  -499  -493  -485  -487  -525  -606  -685  -722  -728  -719  -704  -693  -688  -670  -620  -527  -409  -295  -208  -179  -246  -408  -595  -719  -761  -765  -771  -775  -747  -677  -593  -534  -489  -415  -309  -220  -176  -165  -178  -214  -268  -329  -386  -425  -442  -437  -418  -386  -329  -229  -101  11  84  117  123  115  101  82  36  -65  -196  -280  -279  -223  -180  -189  -225  -257  -314  -435  -605  -747  -790  -692  -457  -142  245  835  1753  2918  4051  4800  4858  4116  2764  1160  -369  -1562  -2235  -2388  -2171  -1750  -1251  -764  -370  -98  78  185  226  204  157  148  204  303  414  503  545  555  585  675  806  909  950  951  941  934  936  955  1003  1092  1233  1403  1549  1638  1705  1815  1987  2176  2325  2399  2409  2409  2459  2578  2721  2833  2898  2933  2957  3006  3118  3288  3449  3544  3580  3582  3527  3355  3087  2841  2689  2565  2358  2057  1751  1519  1368  1273  1184  1008  672  261  -27  -122  -99  -39  26  72  85  77  59  11  -103  -265  -413  -520  -598  -643  -653  -643  -631  -623  -627  -662  -743  -864  -989  -1068  -1092  -1097  -1118  -1163  -1228  -1296  -1333  -1327  -1325  -1349  -1361  -1336  -1302  -1325  -1439  -1601  -1726  -1767  -1764  -1781  -1819  -1847  -1858  -1867  -1888  -1916  -1928  -1901  -1828  -1736  -1678  -1681  -1715  -1749  -1777  -1796  -1802  -1803  -1806  -1812  -1811  -1796  -1783  -1797  -1833  -1840  -1796  -1733  -1685  -1638  -1546  -1405  -1261  -1138  -1010  -865  -741  -668  -650  -681  -750  -842  -927  -958  -896  -753  -604  -519  -505  -518  -517  -475  -395  -309  -248  -211  -197  -199  -199  -186  -165  -136  -101  -68  -45  -34  -39  -50  -30  41  131  209  279  341  395  446  477  453  356  187  -4  -142  -198  -200  -167  -112  -60  -54  -125  -254  -386  -476  -519  -533  -543  -545  -536  -583  -747  -919  -865  -403  515  1793  3177  4295  4740  4226  2774  776  -1225  -2805  -3741  -4067  -3980  -3643  -3188  -2761  -2443  -2241  -2131  -2075  -2038  -1997  -1914  -1760  -1553  -1368  -1274  -1271  -1287  -1220  -998  -678  -417  -308  -306  -306  -234  -96  41  139  222  305  361  376  389  455  608  818  1022  1182  1305  1443  1640  1872  2097  2329  2574  2761  2844  2865  2890  2937  2990  3041  3092  3133  3160  3176  3181  3169  3140  3093  3024  2925  2778  2588  2382  2149  1839  1466  1139  934  822  722  585  425  286  169  62  -16  -46  -22  56  164  251  292  274  159  -59  -285  -393  -374  -316  -285  -279  -280  -284  -297  -320  -332  -293  -183  -38  71  117  123  122  129  142  153  153  143  134  130  127  107  61  5  -42  -79  -109  -121  -115  -118  -177  -317  -485  -598  -631  -622  -604  -591  -585  -585  -587  -590  -588  -571  -535  -487  -452  -454  -490  -524  -528  -496  -445  -383  -302  -211  -149  -130  -125  -92  -8  102  186  217  198  140  67  13  -8  -6  8  23  -1  -111  -277  -406  -456  -470  -501  -585  -744  -934  -1050  -1043  -983  -947  -944  -947  -936  -918  -907  -899  -883  -856  -848  -889  -955  -994  -978  -917  -836  -756  -694  -649  -604  -551  -501  -471  -462  -466  -478  -497  -518  -528  -527  -523  -519  -518  -531  -576  -649  -713  -737  -720  -708  -780  -933  -1046  -986  -643  62  1129  2437  3721  4559  4538  3587  1998  147  -1564  -2801  -3524  -3819  -3700  -3253  -2680  -2193  -1901  -1765  -1671  -1564  -1464  -1378  -1283  -1168  -1045  -939  -858  -795  -740  -693  -668  -652  -608  -533  -467  -422  -366  -279  -183  -84  52  228  385  505  640  799  921  987  1045  1113  1182  1299  1530  1833  2081  2220  2289  2329  2368  2428  2513  2636  2817  3015  3155  3208  3198  3160  3103  3014  2866  2636  2339  2036  1786  1605  1463  1326  1193  1075  968  854  711  518  270  28  -122  -169  -166  -163  -171  -188  -212  -233  -237  -220  -184  -142  -102  -62  -35  -33  -45  -53  -49  -39  -37  -45  -79  -143  -207  -235  -198  -100  -5  20  -8  -33  -33  -20  -4  14  40  52  -1  -159  -372  -532  -593  -596  -586  -570  -539  -513  -546  -652  -767  -837  -875  -940  -1087  -1295  -1465  -1532  -1488  -1359  -1222  -1161  -1202  -1322  -1446  -1503  -1482  -1402  -1303  -1237  -1218  -1220  -1210  -1174  -1127  -1099  -1090  -1054  -946  -785  -643  -568  -571  -641  -735  -816  -889  -942  -935  -855  -742  -662  -640  -647  -639  -592  -521  -462  -430  -422  -446  -521  -635  -739  -803  -824  -776  -633  -432  -256  -155  -130  -145  -159  -150  -118  -76  -44  -51  -134  -277  -403  -460  -458  -422  -369  -319  -288  -294  -337  -399  -454  -493  -515  -507  -465  -410  -382  -447  -640  -828  -728  -180  721  1833  3025  4078  4702  4638  3773  2206  232  -1611  -2773  -3132  -2930  -2376  -1669  -1115  -874  -801  -703  -524  -327  -212  -202  -241  -269  -265  -223  -152  -65  32  130  186  178  143  132  171  249  344  423  468  503  574  693  812  896  960  1028  1102  1179  1253  1323  1395  1468  1527  1602  1743  1924  2049  2088  2126  2258  2476  2683  2805  2846  2832  2794  2764  2749  2720  2644  2523  2400  2277  2071  1722  1326  1047  916  819  654  409  163  9  -36  -36  -51  -111  -217  -343  -446  -500  -517  -514  -493  -466  -454  -475  -530  -578  -545  -427  -316  -277  -288  -297  -274  -208  -118  -48  -23  -57  -157  -289  -393  -451  -484  -509  -523  -526  -520  -508  -493  -470  -441  -412  -384  -363  -356  -353  -342  -343  -382  -449  -504  -517  -500  -481  -482  -516  -584  -672  -750  -788  -777  -741  -701  -650  -573  -490  -432  -405  -402  -417  -441  -459  -466  -469  -475  -489  -509  -529  -546  -569  -605  -644  -666  -658  -629  -581  -518  -488  -524  -593  -650  -703  -756  -771  -714  -612  -530  -498  -496  -490  -474  -478  -541  -646  -731  -767  -773  -771  -750  -690  -606  -525  -457  -401  -365  -354  -366  -398  -435  -443  -399  -320  -252  -228  -242  -260  -248  -202  -133  -60  -5  23  23  -6  -79  -195  -335  -456  -521  -536  -531  -541  -581  -639  -683  -698  -693  -680  -671  -693  -775  -892  -954  -899  -697  -241  573  1675  2870  3898  4420  4233  3386  2065  517  -981  -2149  -2791  -2874  -2502  -1874  -1251  -861  -732  -707  -644  -534  -446  -416  -425  -438  -428  -365  -239  -81  52  149  214  237  222  193  158  130  116  114  117  133  175  247  341  443  544  648  753  854  969  1103  1239  1372  1517  1672  1834  1978  2072  2114  2132  2159  2221  2320  2441  2555  2630  2657  2636  2563  2451  2352  2309  2300  2245  2070  1782  1481  1248  1062  873  656  386  68  -209  -372  -425  -420  -402  -388  -392  -441  -549  -680  -770  -800  -799  -790  -768  -720  -674  -673  -723  -783  -820  -832  -821  -790  -749  -720  -710  -701  -655  -540  -382  -263  -228  -256  -302  -344  -390  -430  -450  -458  -482  -542  -629  -707  -745  -747  -733  -721  -724  -743  -777  -820  -849  -841  -787  -712  -658  -652  -692  -758  -818  -857  -871  -859  -820  -762  -714  -714  -751  -777  -766  -725  -682  -653  -626  -595  -579  -594  -634  -676  -711  -740  -760  -755  -724  -688  -666  -661  -673  -701  -741  -781  -799  -766  -695  -631  -597  -582  -575  -575  -578  -577  -570  -569  -583  -602  -612  -628  -672  -731  -767  -763  -754  -793  -872  -916  -888  -833  -789  -747  -683  -609  -557  -531  -513  -497  -489  -495  -516  -549  -585  -599  -565  -466  -305  -119  35  133  163  83  -134  -395  -543  -573  -591  -635  -677  -708  -728  -727  -693  -622  -542  -491  -482  -500  -525  -550  -580  -625  -682  -675  -394  394  1653  3057  4281  5026  4942  3954  2380  583  -1081  -2218  -2704  -2730  -2462  -1987  -1457  -999  -644  -413  -313  -300  -309  -290  -220  -108  0  58  66  55  61  108  195  300  402  500  607  720  818  889  953  1038  1137  1206  1228  1238  1283  1385  1512  1618  1688  1746  1818  1902  2002  2154  2387  2661  2886  3013  3068  3125  3228  3367  3507  3623  3685  3687  3661  3628  3591  3560  3515  3410  3229  3008  2792  2582  2350  2092  1856  1698  1604  1475  1228  916  678  563  514  482  467  475  498  517  520  508  482  439  393  365  378  437  517  575  595  592  584  574  569  582  614  645  660  668  673  678  681  686  688  672  620  535  451  399  383  392  420  456  457  397  318  273  264  277  314  389  489  577  634  678  704  654  478  229  32  -38  -6  51  80  72  34  -22  -108  -220  -317  -359  -357  -343  -344  -383  -473  -606  -745  -840  -876  -879  -872  -860  -844  -834  -837  -847  -864  -889  -911  -919  -907  -889  -916  -1023  -1179  -1317  -1392  -1405  -1372  -1297  -1183  -1077  -1031  -1026  -1007  -973  -958  -971  -1003  -1062  -1171  -1317  -1431  -1476  -1474  -1467  -1481  -1527  -1594  -1661  -1709  -1739  -1758  -1775  -1789  -1786  -1743  -1664  -1584  -1542  -1540  -1540  -1527  -1521  -1548  -1608  -1672  -1718  -1786  -1931  -2135  -2325  -2444  -2482  -2463  -2424  -2361  -2234  -2047  -1856  -1695  -1562  -1469  -1405  -1299  -1119  -1012  -1080  -1161  -1051  -660  80  1115  2193  3066  3495  3163  1952  121  -1929  -3777  -5009  -5489  -5407  -5052  -4660  -4338  -4031  -3639  -3139  -2601  -2144  -1862  -1744  -1686  -1592  -1444  -1273  -1092  -917  -787  -696  -587  -449  -323  -210  -87  34  137  249  418  658  906  1085  1174  1204  1231  1307  1436  1578  1709  1820  1894  1927  1933  1930  1947  2010  2119  2234  2324  2403  2504  2619  2700  2715  2654  2530  2386  2274  2190  2084  1911  1630  1194  675  248  -11  -160  -288  -461  -678  -876  -1019  -1127  -1225  -1318  -1392  -1434  -1447  -1447  -1444  -1427  -1377  -1273  -1114  -957  -887  -902  -929  -924  -888  -822  -720  -588  -466  -398  -386  -396  -392  -350  -275  -192  -119  -40  62  164  218  211  162  99  44  21  33  63  101  140  156  124  57  -2  -36  -46  -26  54  207  396  539  567  511  470  502  570  616  630  630  624  613  599  590  579  562  560  584  626  683  740  768  755  716  689  699  722  724  708  696  706  744  800  847  871  877  875  864  836  799  770  760  761  757  744  731  743  813  948  1105  1206  1197  1071  885  734  655  623  620  651  708  763  797  806  804  813  860  953  1051  1106  1112  1100  1089  1082  1089  1116  1165  1221  1269  1296  1279  1181  1003  799  622  481  372  303  244  147  12  -109  -184  -210  -210  -229  -293  -396  -539  -766  -1094  -1357  -1301  -838  -63  875  1826  2681  3346  3625  3301  2328  828  -887  -2339  -3201  -3490  -3412  -3170  -2896  -2632  -2351  -2051  -1814  -1699  -1667  -1657  -1643  -1621  -1595  -1584  -1619  -1718  -1849  -1945  -1973  -1941  -1860  -1740  -1623  -1552  -1531  -1520  -1463  -1322  -1129  -978  -920  -920  -904  -804  -617  -415  -258  -140  -21  150  425  775  1078  1239  1293  1334  1416  1530  1643  1723  1784  1863  1958  2024  2027  1969  1885  1817  1780  1761  1742  1683  1514  1206  849  568  388  256  139  24  -112  -286  -461  -590  -678  -753  -822  -865  -873  -866  -870  -885  -900  -914  -927  -938  -943  -943  -948  -963  -967  -919  -775  -556  -337  -160  -32  10  -63  -216  -360  -432  -444  -429  -406  -385  -376  -385  -402  -409  -398  -375  -355  -347  -357  -390  -436  -469  -465  -415  -332  -246  -176  -132  -120  -143  -186  -230  -269  -283  -255  -214  -197  -200  -199  -190  -197  -237  -293  -324  -289  -191  -86  -16  13  16  -6  -50  -97  -126  -133  -130  -125  -123  -124  -123  -110  -94  -92  -103  -111  -105  -86  -65  -47  -28  -13  -6  1  29  71  95  76  38  9  -10  -26  -42  -71  -116  -154  -139  -34  123  268  387  490  563  601  616  618  612  604  595  584  578  580  598  638  696  752  778  763  701  577  423  307  260  254  254  247  238  233  231  229  228  237  273  337  387  328  84  -223  -291  63  788  1776  2928  4060  4968  5431  5198  4196  2656  936  -573  -1500  -1758  -1597  -1257  -836  -429  -126  55  160  244  337  442  548  640  724  822  930  1005  1029  1022  1009  1003  1002  999  993  996  1015  1045  1077  1124  1210  1321  1406  1442  1454  1480  1547  1646  1733  1778  1800  1842  1922  2009  2064  2090  2124  2182  2254  2313  2347  2366  2398  2439  2456  2416  2324  2219  2144  2096  2053  2013  1969  1849  1554  1086  599  256  44  -170  -471  -817  -1114  -1310  -1432  -1549  -1699  -1865  -2029  -2182  -2303  -2384  -2436  -2464  -2472  -2458  -2420  -2368  -2321  -2292  -2301  -2379  -2532  -2699  -2802  -2829  -2820  -2810  -2808  -2813  -2822  -2831  -2838  -2843  -2841  -2826  -2795  -2757  -2723  -2710  -2719  -2724  -2711  -2685  -2647  -2596  -2540  -2490  -2452  -2422  -2391  -2348  -2297  -2263  -2264  -2264  -2205  -2061  -1847  -1601  -1378  -1234  -1177  -1171  -1187  -1232  -1317  -1420  -1491  -1494  -1410  -1252  -1084  -975  -932  -912  -874  -817  -770  -753  -762  -777  -779  -749  -674  -576  -501  -472  -470  -475  -486  -512  -553  -588  -595  -569  -546  -554  -565  -509  -347  -134  19  74  69  30  -41  -124  -171  -168  -148  -134  -119  -102  -104  -148  -218  -254  -226  -161  -84  22  152  253  295  298  293  296  309  343  396  447  480  512  566  663  798  920  974  952  871  743  591  455  369  335  333  349  381  419  446  455  455  454  452  445  422  377  316  281  384  721  1270  2017  3036  4262  5365  5904  5572  4383  2642  802  -647  -1429  -1614  -1380  -909  -448  -90  241  509  628  654  696  782  866  910  925  957  1043  1159  1245  1282  1308  1354  1422  1499  1573  1651  1744  1833  1889  1906  1907  1907  1905  1892  1887  1949  2115  2367  2621  2784  2836  2824  2782  2727  2720  2855  3136  3439  3649  3751  3781  3780  3780  3800  3844  3895  3930  3946  3958  3968  3945  3838  3623  3337  3026  2701  2371  2077  1858  1708  1582  1429  1230  1007  797  637  524  407  235  31  -128  -200  -234  -300  -410  -521  -602  -656  -695  -747  -843  -966  -1062  -1120  -1176  -1249  -1326  -1408  -1505  -1612  -1719  -1848  -2005  -2156  -2263  -2313  -2318  -2301  -2291  -2323  -2424  -2563  -2653  -2635  -2514  -2330  -2150  -2058  -2085  -2172  -2241  -2264  -2262  -2258  -2256  -2253  -2249  -2249  -2266  -2305  -2354  -2384  -2380  -2355  -2334  -2325  -2323  -2308  -2273  -2231  -2219  -2254  -2317  -2363  -2377  -2376  -2379  -2394  -2407  -2400  -2382  -2383  -2423  -2482  -2513  -2479  -2402  -2337  -2309  -2304  -2306  -2324  -2373  -2446  -2515  -2552  -2527  -2397  -2173  -1940  -1780  -1701  -1661  -1630  -1611  -1610  -1616  -1593  -1513  -1400  -1314  -1276  -1255  -1230  -1201  -1158  -1080  -968  -854  -773  -728  -702  -683  -672  -669  -673  -687  -697  -663  -534  -331  -149  -59  -45  -56  -59  -50  -35  -12  22  58  49  -45  -198  -328  -378  -358  -320  -298  -288  -268  -226  -176  -141  -146  -224  -357  -468  -519  -522  -464  -291  67  668  1513  2540  3616  4509  4902  4548  3488  1952  180  -1424  -2380  -2560  -2222  -1654  -1067  -691  -601  -604  -497  -254  23  215  287  289  269  259  281  331  381  420  452  469  456  413  374  387  452  523  574  620  681  762  858  949  1006  1018  1008  1010  1062  1192  1399  1619  1776  1883  2016  2184  2317  2372  2376  2375  2403  2466  2541  2602  2646  2678  2700  2712  2710  2693  2663  2616  2521  2331  2028  1669  1348  1094  895  738  582  382  136  -139  -399  -568  -638  -673  -726  -781  -798  -775  -746  -727  -704  -660  -591  -501  -398  -324  -314  -326  -314  -317  -367  -424  -451  -454  -450  -444  -428  -396  -364  -344  -340  -340  -327  -291  -241  -205  -205  -239  -283  -313  -324  -320  -294  -235  -155  -85  -46  -35  -18  48  146  210  211  164  97  63  97  166  220  264  332  431  520  540  452  299  203  219  309  438  573  663  695  713  754  813  860  885  913  961  1010  1040  1065  1104  1163  1235  1301  1337  1334  1307  1306  1365  1440  1477  1475  1435  1359  1285  1245  1248  1284  1346  1438  1546  1616  1611  1545  1472  1435  1426  1437  1473  1515  1541  1559  1572  1576  1565  1539  1517  1508  1505  1506  1525  1554  1565  1510  1354  1124  909  767  691  655  648  685  788  923  1022  1055  1048  1014  914  701  416  165  17  -11  78  278  584  1051  1764  2690  3631  4342  4519  3893  2532  783  -972  -2343  -3082  -3248  -3028  -2628  -2240  -1901  -1580  -1324  -1185  -1141  -1136  -1139  -1144  -1147  -1129  -1070  -988  -930  -918  -934  -954  -965  -970  -980  -994  -1000  -990  -972  -960  -948  -883  -724  -523  -380  -329  -322  -310  -271  -197  -92  29  157  295  452  634  824  970  1036  1044  1033  1022  1012  1008  1031  1100  1191  1255  1277  1277  1272  1251  1197  1095  934  711  437  137  -155  -427  -681  -909  -1091  -1226  -1363  -1550  -1767  -1947  -2056  -2113  -2150  -2181  -2206  -2215  -2203  -2166  -2104  -2026  -1941  -1859  -1798  -1777  -1795  -1825  -1833  -1803  -1746  -1711  -1731  -1773  -1797  -1806  -1819  -1834  -1844  -1857  -1882  -1906  -1916  -1914  -1911  -1916  -1935  -1960  -1983  -2013  -2065  -2150  -2246  -2315  -2337  -2327  -2302  -2278  -2266  -2294  -2405  -2581  -2716  -2731  -2643  -2507  -2376  -2294  -2266  -2268  -2279  -2285  -2283  -2282  -2289  -2302  -2308  -2300  -2296  -2298  -2262  -2180  -2116  -2097  -2101  -2109  -2132  -2182  -2227  -2207  -2109  -1980  -1878  -1829  -1820  -1816  -1787  -1724  -1635  -1537  -1454  -1397  -1347  -1267  -1135  -960  -775  -624  -534  -514  -557  -632  -693  -709  -647  -470  -200  45  173  196  180  162  148  146  191  286  385  456  498  491  426  338  257  191  150  134  124  111  101  97  98  100  99  92  80  69  52  22  19  123  444  1097  2089  3275  4408  5213  5432  4920  3758  2207  618  -653  -1417  -1684  -1600  -1334  -960  -532  -148  149  378  538  635  682  708  757  853  978  1076  1081  1004  912  838  777  739  750  827  954  1080  1179  1260  1326  1377  1421  1453  1460  1463  1525  1698  1928  2093  2141  2133  2167  2301  2495  2652  2730  2769  2814  2873  2934  2995  3058  3128  3198  3243  3253  3252  3282  3353  3425  3456  3439  3347  3132  2792  2379  1979  1684  1507  1346  1106  807  544  389  332  305  274  248  242  250  256  231  150  36  -62  -132  -186  -219  -230  -230  -232  -236  -240  -240  -236  -236  -244  -253  -241  -210  -192  -204  -205  -161  -96  -62  -76  -117  -168  -238  -324  -379  -376  -342  -313  -294  -270  -227  -173  -137  -122  -101  -53  8  41  20  -44  -114  -151  -149  -125  -113  -131  -165  -190  -218  -268  -321  -360  -396  -433  -452  -449  -436  -426  -423  -422  -419  -408  -383  -349  -320  -300  -291  -294  -322  -389  -481  -557  -595  -605  -602  -591  -582  -608  -707  -863  -997  -1048  -1033  -1004  -988  -983  -986  -1002  -1035  -1072  -1094  -1118  -1156  -1186  -1174  -1107  -995  -866  -740  -630  -551  -510  -495  -489  -485  -474  -441  -382  -318  -281  -309  -426  -598  -735  -784  -780  -800  -871  -950  -993  -1005  -1016  -1030  -1004  -871  -677  -621  -771  -912  -776  -195  852  2138  3325  4160  4407  3899  2745  1214  -430  -1872  -2820  -3188  -3012  -2437  -1757  -1243  -976  -872  -829  -809  -806  -797  -755  -665  -538  -414  -336  -309  -302  -272  -182  -38  92  137  95  29  -7  0  48  135  247  344  406  455  517  596  699  827  960  1087  1204  1301  1362  1392  1459  1638  1899  2114  2218  2263  2305  2350  2393  2435  2478  2524  2567  2580  2550  2478  2358  2190  2004  1846  1742  1653  1510  1297  1055  811  543  243  -24  -201  -321  -442  -552  -613  -633  -650  -682  -722  -747  -744  -727  -712  -701  -687  -667  -652  -663  -719  -817  -926  -993  -959  -805  -596  -437  -382  -408  -447  -452  -434  -434  -474  -526  -550  -544  -519  -474  -446  -478  -537  -572  -576  -563  -553  -563  -596  -628  -638  -641  -665  -694  -678  -595  -480  -391  -361  -382  -421  -452  -465  -464  -456  -450  -467  -528  -623  -707  -742  -723  -681  -641  -608  -577  -545  -511  -474  -436  -407  -403  -438  -513  -602  -670  -707  -717  -691  -599  -450  -306  -216  -186  -202  -251  -313  -371  -432  -498  -529  -497  -433  -392  -407  -477  -554  -583  -558  -497  -429  -384  -367  -358  -346  -338  -339  -330  -282  -196  -120  -97  -133  -223  -341  -439  -490  -504  -504  -511  -510  -480  -442  -440  -486  -557  -626  -696  -781  -875  -951  -957  -884  -806  -679  -268  580  1818  3231  4404  4922  4598  3498  1929  279  -1200  -2319  -2927  -3038  -2769  -2256  -1701  -1281  -1018  -847  -703  -553  -410  -312  -265  -242  -227  -206  -171  -122  -73  -37  -17  -13  -27  -33  17  123  229  298  334  376  463  597  724  783  772  769  847  982  1106  1189  1239  1282  1358  1499  1698  1908  2104  2291  2464  2592  2663  2695  2716  2752  2805  2842  2814  2687  2502  2342  2242  2167  2041  1814  1545  1343  1237  1165  1032  786  477  212  46  -57  -169  -317  -474  -610  -721  -803  -848  -864  -871  -870  -833  -728  -595  -527  -552  -574  -521  -478  -560  -733  -872  -920  -914  -906  -912  -922  -896  -810  -680  -540  -422  -352  -332  -342  -364  -392  -417  -453  -535  -679  -839  -937  -937  -858  -719  -537  -364  -263  -246  -271  -307  -362  -455  -576  -688  -759  -774  -735  -673  -627  -609  -602  -594  -587  -586  -591  -591  -571  -523  -478  -470  -478  -462  -431  -414  -424  -446  -459  -455  -456  -460  -444  -401  -340  -277  -236  -228  -245  -278  -334  -435  -559  -650  -682  -679  -660  -621  -555  -479  -424  -404  -408  -431  -473  -501  -457  -316  -111  88  213  246  227  201  173  126  61  6  -21  -49  -127  -264  -424  -553  -608  -596  -554  -502  -451  -413  -392  -382  -378  -396  -469  -587  -683  -674  -420  197  1170  2415  3703  4583  4668  3921  2539  782  -965  -2258  -2905  -3030  -2809  -2402  -1972  -1564  -1135  -735  -462  -338  -321  -361  -421  -474  -495  -454  -351  -229  -134  -86  -83  -92  -71  10  134  247  323  368  387  390  388  391  418  492  615  744  825  855  885  972  1142  1360  1556  1696  1787  1839  1853  1851  1884  1990  2137  2251  2307  2354  2453  2629  2831  2977  3028  2965  2751  2417  2103  1926  1868  1810  1620  1272  889  617  476  378  268  152  26  -144  -348  -524  -659  -772  -848  -872  -857  -840  -840  -835  -809  -773  -735  -700  -675  -650  -602  -542  -510  -530  -576  -599  -581  -546  -512  -476  -442  -418  -386  -332  -270  -256  -342  -519  -707  -828  -861  -850  -853  -889  -924  -911  -833  -722  -640  -609  -609  -613  -614  -613  -610  -606  -598  -589  -594  -639  -729  -829  -894  -911  -887  -827  -751  -688  -654  -638  -636  -653  -689  -729  -753  -760  -763  -775  -787  -767  -709  -653  -640  -665  -683  -633  -522  -433  -400  -383  -359  -341  -347  -390  -463  -543  -611  -640  -619  -567  -494  -383  -259  -178  -163  -189  -214  -218  -209  -202  -201  -196  -182  -162  -146  -129  -93  -39  -2  -31  -157  -354  -534  -630  -653  -646  -623  -561  -446  -319  -239  -236  -310  -436  -567  -667  -739  -830  -942  -951  -712  -162  763  2020  3334  4389  4877  4522  3389  1816  83  -1507  -2577  -2993  -2871  -2386  -1827  -1460  -1255  -1048  -819  -659  -606  -606  -577  -476  -335  -231  -204  -231  -273  -305  -319  -308  -258  -163  -46  53  84  37  -7  44  200  380  504  569  620  692  781  876  973  1067  1141  1191  1265  1419  1623  1777  1844  1883  1963  2098  2256  2391  2469  2493  2495  2496  2491  2463  2421  2392  2385  2364  2277  2105  1881  1654  1460  1316  1175  941  592  243  9  -124  -253  -424  -597  -701  -725  -707  -672  -622  -566  -523  -499  -498  -532  -603  -658  -619  -497  -387  -342  -342  -365  -407  -462  -517  -560  -581  -580  -568  -538  -482  -429  -408  -409  -411  -399  -376  -353  -344  -372  -458  -577  -675  -730  -752  -740  -699  -645  -591  -549  -520  -490  -461  -450  -456  -469  -478  -481  -480  -474  -468  -476  -514  -576  -634  -670  -683  -675  -658  -634  -600  -553  -485  -404  -353  -360  -402  -438  -452  -454  -450  -433  -398  -372  -402  -494  -600  -660  -666  -658  -664  -675  -680  -684  -700  -735  -784  -826  -836  -813  -772  -721  -660  -602  -560  -538  -525  -502  -465  -416  -352  -280  -225  -202  -199  -203  -223  -265  -305  -321  -319  -317  -336  -391  -465  -517  -540  -567  -627  -695  -724  -715  -702  -702  -701  -675  -626  -621  -693  -643  -192  666  1779  3054  4263  5030  5033  4141  2539  612  -1150  -2271  -2646  -2539  -2207  -1806  -1437  -1130  -880  -679  -518  -419  -431  -511  -528  -412  -198  44  235  327  340  328  325  335  356  386  418  441  448  440  423  412  454  599  829  1051  1195  1262  1287  1296  1306  1333  1406  1556  1777  2020  2230  2365  2424  2457  2519  2609  2685  2733  2783  2866  2978  3072  3101  3063  2996  2920  2818  2690  2550  2390  2216  2040  1804  1451  1042  685  405  182  29  -35  -42  -58  -144  -331  -577  -797  -939  -1017  -1061  -1083  -1095  -1114  -1155  -1216  -1276  -1312  -1329  -1355  -1404  -1471  -1558  -1665  -1765  -1824  -1845  -1844  -1831  -1817  -1809  -1808  -1813  -1799  -1699  -1459  -1146  -917  -841  -874  -961  -1061  -1128  -1147  -1132  -1104  -1082  -1077  -1081  -1071  -1024  -945  -858  -782  -722  -675  -637  -606  -573  -532  -481  -426  -380  -349  -333  -323  -321  -336  -363  -390  -409  -414  -405  -394  -386  -381  -376  -362  -335  -290  -226  -158  -103  -70  -53  -36  -7  30  70  114  158  178  164  139  119  94  58  28  19  17  0  -20  10  95  183  259  353  485  633  745  791  789  765  742  738  788  926  1116  1257  1261  1111  863  621  455  368  331  321  318  316  329  383  475  565  614  624  618  603  563  488  419  448  703  1284  2096  2951  3831  4757  5498  5716  5234  4064  2389  592  -911  -1827  -2061  -1765  -1154  -377  318  665  675  563  489  477  486  487  483  482  483  479  461  427  371  259  60  -181  -378  -476  -472  -390  -261  -125  -44  -42  -70  -85  -88  -99  -118  -141  -172  -207  -216  -162  -30  162  390  630  863  1070  1237  1362  1447  1475  1448  1395  1355  1352  1378  1397  1354  1210  988  744  490  241  37  -128  -320  -588  -952  -1400  -1859  -2239  -2522  -2718  -2820  -2846  -2838  -2822  -2799  -2766  -2733  -2713  -2707  -2708  -2711  -2710  -2691  -2634  -2533  -2404  -2281  -2191  -2139  -2102  -2057  -1980  -1866  -1737  -1621  -1530  -1459  -1405  -1369  -1354  -1340  -1300  -1227  -1131  -1028  -945  -902  -895  -903  -912  -920  -919  -889  -822  -760  -759  -801  -834  -840  -805  -737  -676  -650  -650  -664  -683  -690  -643  -510  -335  -208  -173  -206  -269  -337  -400  -453  -485  -474  -413  -333  -285  -278  -271  -221  -128  -21  71  128  123  67  15  -12  -35  -77  -147  -226  -252  -186  -92  -45  -49  -68  -65  -36  0  25  42  54  55  43  35  40  52  57  45  45  99  193  276  334  375  405  433  456  461  420  309  140  -28  -143  -191  -182  -131  -62  -11  -11  -56  -112  -153  -185  -220  -257  -295  -332  -370  -470  -642  -656  -214  745  2036  3382  4506  5096  4882  3857  2251  409  -1201  -2212  -2605  -2559  -2239  -1794  -1391  -1131  -964  -780  -538  -264  -23  130  201  230  256  299  344  369  376  383  412  467  525  559  567  563  561  574  612  660  693  710  754  882  1127  1437  1684  1795  1806  1782  1754  1744  1809  2001  2259  2445  2508  2531  2600  2708  2795  2863  2967  3105  3214  3263  3258  3219  3183  3165  3127  3008  2786  2491  2195  1978  1839  1712  1542  1346  1164  971  705  392  133  -5  -32  -5  18  13  -10  -32  -36  -23  -3  5  -7  -33  -51  -55  -52  -49  -46  -36  -19  0  7  -8  -53  -116  -196  -287  -326  -255  -104  50  173  221  122  -102  -333  -482  -541  -544  -529  -514  -503  -496  -493  -491  -490  -495  -507  -519  -518  -529  -571  -609  -615  -618  -646  -710  -809  -926  -1030  -1091  -1104  -1079  -1053  -1065  -1117  -1167  -1188  -1180  -1144  -1077  -1002  -967  -1007  -1108  -1217  -1295  -1334  -1351  -1363  -1376  -1387  -1402  -1442  -1525  -1641  -1771  -1904  -2017  -2078  -2090  -2085  -2081  -2077  -2056  -1996  -1893  -1768  -1653  -1573  -1533  -1531  -1569  -1618  -1637  -1628  -1613  -1584  -1519  -1418  -1290  -1118  -932  -822  -818  -843  -796  -647  -460  -326  -272  -258  -248  -255  -319  -459  -625  -737  -769  -762  -761  -784  -817  -839  -838  -803  -730  -636  -560  -531  -562  -646  -714  -657  -389  175  1092  2254  3439  4395  4826  4519  3536  2134  602  -770  -1779  -2345  -2477  -2259  -1788  -1204  -727  -479  -397  -382  -387  -392  -377  -308  -155  41  195  274  308  321  323  322  323  336  373  444  544  649  730  780  823  882  956  1024  1065  1076  1070  1064  1088  1164  1280  1412  1573  1771  1954  2068  2136  2232  2379  2532  2650  2727  2794  2881  2963  2984  2944  2885  2834  2806  2796  2745  2568  2255  1899  1608  1411  1295  1250  1251  1231  1096  802  445  187  41  -110  -305  -480  -609  -700  -751  -767  -767  -768  -771  -761  -720  -641  -545  -462  -414  -403  -411  -419  -420  -420  -416  -397  -355  -315  -296  -286  -286  -319  -397  -487  -539  -534  -498  -465  -450  -446  -447  -446  -434  -420  -422  -431  -429  -433  -457  -490  -533  -577  -616  -636  -611  -537  -454  -389  -353  -340  -334  -349  -416  -517  -588  -598  -574  -552  -543  -542  -544  -551  -566  -580  -557  -468  -345  -256  -230  -238  -249  -253  -251  -242  -235  -259  -346  -476  -586  -633  -611  -529  -420  -330  -278  -253  -255  -299  -376  -432  -439  -438  -465  -504  -525  -517  -479  -413  -325  -223  -98  72  268  420  489  477  387  231  45  -128  -266  -389  -513  -614  -684  -736  -769  -781  -784  -788  -779  -727  -642  -599  -588  -489  -290  -32  448  1336  2567  3904  4947  5189  4391  2742  659  -1320  -2653  -3151  -3067  -2687  -2171  -1671  -1250  -910  -701  -637  -649  -680  -722  -766  -774  -696  -533  -367  -283  -282  -315  -350  -370  -358  -309  -243  -197  -184  -180  -147  -60  59  179  309  462  600  687  736  767  788  819  891  1014  1159  1283  1369  1425  1482  1580  1727  1881  1987  2034  2057  2098  2189  2330  2454  2471  2349  2150  1961  1782  1531  1192  872  662  525  356  110  -170  -424  -625  -792  -956  -1116  -1237  -1304  -1342  -1373  -1404  -1440  -1480  -1522  -1572  -1641  -1729  -1814  -1865  -1874  -1865  -1862  -1872  -1882  -1868  -1792  -1611  -1301  -903]
