reading_id,reading_time,wire_id,result_classification,heart_rate,heart_rate_alert,firmware_version,device_app_version,hardware_version,waveform_samples
7d0d8000-5d35-11ed-8080-808080808080,Sat Nov 05 18:13:03 UTC 2022,2101e3d81839,NSR,69,NONE,20001.171.50,2.10.0,Charge 5,[-9412  -9668  -9857  -9851  -9617  -9266  -8924  -8652  -8478  -8460  -8607  -8734  -8567  -7987  -7009  -5664  -4122  -2798  -2095  -2204  -3184  -4833  -6612  -8011  -8706  -8544  -7757  -6885  -6346  -6135  -5895  -5205  -3762  -1665  491  2205  3447  4433  5351  6185  6738  6918  6807  6486  6071  5744  5630  5822  6385  7134  7682  7875  7891  7951  8164  8542  8994  9393  9703  9999  10380  10857  11316  11635  11802  11866  11848  11732  11521  11284  11106  11027  11055  11165  11285  11319  11195  10915  10540  10061  9369  8440  7438  6577  5978  5640  5474  5395  5354  5291  5122  4831  4522  4303  4141  3920  3637  3405  3289  3251  3228  3191  3145  3106  3092  3115  3155  3193  3272  3459  3718  3911  3981  4022  4110  4245  4437  4654  4806  4863  4878  4905  4947  4983  5006  5019  4993  4869  4621  4277  3852  3362  2912  2632  2509  2416  2289  2158  2029  1881  1751  1689  1673  1614  1457  1279  1212  1269  1350  1368  1325  1271  1220  1154  1082  1033  1017  1019  1028  1043  1063  1076  1071  1043  1003  968  941  924  915  877  717  395  33  -188  -233  -197  -163  -149  -146  -151  -167  -192  -192  -161  -218  -458  -774  -1038  -1164  -937  -155  1065  2426  3573  3994  3436  2200  649  -1013  -2566  -3799  -4592  -4865  -4539  -3682  -2644  -1804  -1282  -959  -659  -331  -72  42  43  -16  -128  -298  -497  -649  -700  -669  -631  -652  -746  -889  -1038  -1131  -1131  -1054  -963  -921  -914  -835  -566  -117  315  500  397  174  14  -38  19  278  806  1480  2058  2416  2630  2805  2950  3042  3085  3093  3059  2966  2833  2721  2671  2672  2655  2454  1927  1214  671  468  489  563  584  485  224  -126  -401  -524  -562  -608  -696  -780  -797  -739  -643  -539  -445  -370  -289  -158  4  127  180  198  245  359  512  625  667  671  667  659  644  616  579  541  514  519  576  667  731  731  698  673  645  595  551  548  597  678  754  796  779  696  583  504  482  487  472  396  273  207  267  367  405  387  353  294  188  48  -76  -146  -171  -189  -222  -265  -294  -282  -213  -110  -40  -75  -246  -486  -668  -741  -743  -720  -696  -686  -713  -810  -985  -1187  -1335  -1404  -1416  -1360  -1181  -901  -655  -548  -512  -374  -6  635  1473  2184  2339  1723  340  -1622  -3689  -5280  -6044  -5961  -5325  -4571  -3928  -3386  -2916  -2522  -2221  -2020  -1890  -1799  -1735  -1689  -1637  -1543  -1380  -1143  -863  -606  -414  -268  -127  14  147  279  416  532  615  672  704  712  718  741  775  805  836  901  1037  1251  1483  1640  1707  1766  1893  2077  2259  2411  2545  2656  2723  2734  2691  2605  2485  2340  2190  2038  1869  1677  1469  1230  932  601  326  155  45  -60  -172  -288  -423  -586  -759  -914  -1018  -1053  -1067  -1126  -1222  -1292  -1318  -1351  -1451  -1587  -1676  -1698  -1686  -1668  -1653  -1640  -1626  -1609  -1585  -1549  -1500  -1459  -1443  -1437  -1412  -1372  -1367  -1424  -1498  -1528  -1500  -1438  -1406  -1441  -1510  -1579  -1647  -1708  -1736  -1718  -1645  -1531  -1414  -1326  -1279  -1267  -1282  -1326  -1393  -1454  -1487  -1493  -1483  -1465  -1447  -1431  -1409  -1377  -1327  -1269  -1229  -1216  -1220  -1226  -1222  -1203  -1169  -1131  -1100  -1081  -1065  -1035  -993  -975  -1008  -1062  -1113  -1173  -1249  -1315  -1354  -1377  -1392  -1398  -1389  -1368  -1347  -1331  -1319  -1311  -1319  -1362  -1432  -1451  -1337  -1104  -849  -587  -169  551  1540  2571  3243  3082  1857  -161  -2338  -4094  -5084  -5216  -4688  -3856  -3000  -2213  -1498  -958  -686  -592  -530  -441  -345  -275  -235  -200  -148  -91  -56  -49  -53  -36  28  155  316  453  535  574  601  634  680  730  786  865  976  1105  1248  1419  1621  1803  1923  2008  2115  2260  2421  2585  2754  2905  3002  3041  3045  3038  3024  2982  2886  2723  2527  2370  2292  2241  2134  1949  1746  1571  1393  1143  817  495  247  66  -108  -295  -470  -631  -781  -880  -901  -868  -819  -787  -782  -792  -797  -767  -682  -568  -486  -470  -507  -571  -635  -679  -690  -666  -623  -584  -563  -549  -520  -478  -437  -398  -381  -398  -434  -473  -510  -535  -541  -544  -553  -569  -583  -588  -596  -620  -652  -660  -632  -590  -565  -559  -559  -569  -596  -629  -645  -620  -550  -471  -419  -401  -400  -400  -395  -397  -411  -430  -438  -427  -401  -357  -280  -191  -130  -114  -125  -138  -123  -48  79  204  279  309  324  327  282  181  82  33  12  -19  -90  -196  -294  -343  -351  -347  -352  -367  -373  -370  -376  -359  -231  50  442  927  1565  2339  3090  3580  3523  2615  833  -1322  -3232  -4525  -4943  -4494  -3610  -2680  -1834  -1186  -793  -575  -441  -350  -262  -162  -71  -3  62  146  239  308  336  335  334  370  460  592  729  829  894  957  1014  1056  1106  1191  1317  1479  1635  1743  1805  1841  1872  1968  2207  2539  2802  2926  2989  3079  3207  3328  3412  3457  3474  3455  3389  3290  3190  3106  3024  2933  2834  2732  2601  2405  2146  1875  1643  1426  1138  774  443  234  143  111  86  64  74  112  137  118  49  -53  -162  -239  -239  -172  -82  5  89  161  210  232  226  188  120  42  -10  -34  -65  -141  -273  -418  -517  -564  -610  -685  -787  -910  -1036  -1127  -1162  -1154  -1123  -1084  -1047  -1017  -995  -980  -974  -988  -1020  -1047  -1058  -1058  -1056  -1051  -1045  -1041  -1054  -1089  -1133  -1162  -1170  -1169  -1170  -1175  -1174  -1156  -1122  -1080  -1037  -1002  -989  -999  -1008  -997  -978  -981  -1011  -1023  -983  -934  -924  -947  -981  -1014  -1037  -1042  -1023  -975  -898  -798  -693  -591  -504  -448  -433  -468  -562  -698  -845  -991  -1125  -1210  -1232  -1218  -1197  -1180  -1166  -1161  -1200  -1317  -1465  -1505  -1337  -992  -547  -24  645  1501  2386  3020  3093  2295  627  -1436  -3310  -4623  -5170  -4899  -4049  -3034  -2171  -1588  -1247  -1037  -857  -639  -403  -239  -182  -176  -156  -97  -24  29  66  118  198  283  345  375  398  449  544  661  770  845  892  928  965  1027  1149  1333  1534  1707  1835  1928  2017  2121  2233  2330  2403  2480  2586  2700  2780  2814  2819  2816  2808  2782  2732  2669  2605  2554  2520  2479  2362  2126  1846  1651  1536  1363  1059  703  426  284  239  207  115  -47  -227  -354  -400  -394  -380  -380  -393  -407  -420  -437  -459  -478  -487  -475  -427  -348  -271  -227  -216  -222  -230  -232  -235  -271  -363  -491  -599  -661  -679  -634  -503  -322  -180  -129  -171  -304  -486  -635  -715  -749  -762  -763  -758  -749  -740  -733  -727  -724  -725  -731  -746  -762  -764  -739  -692  -642  -608  -596  -597  -610  -633  -663  -691  -712  -728  -747  -777  -806  -808  -757  -658  -554  -491  -476  -477  -447  -357  -252  -230  -322  -432  -462  -408  -315  -242  -227  -247  -259  -254  -229  -179  -112  -52  -8  38  69  17  -119  -245  -297  -312  -360  -443  -501  -509  -490  -463  -433  -399  -367  -356  -373  -374  -255  82  643  1378  2239  3077  3654  3697  2916  1304  -672  -2445  -3674  -4167  -3942  -3310  -2594  -1921  -1328  -837  -459  -207  -71  -3  35  60  87  139  205  241  231  216  241  303  362  391  422  513  672  832  925  946  935  918  902  893  935  1098  1366  1629  1805  1880  1887  1865  1843  1845  1905  2046  2232  2403  2546  2680  2792  2852  2862  2850  2834  2803  2732  2615  2472  2324  2184  2048  1896  1699  1449  1184  969  816  659  447  219  51  -43  -96  -130  -162  -204  -259  -329  -429  -551  -647  -684  -670  -634  -607  -602  -616  -634  -645  -648  -650  -654  -661  -667  -673  -662  -615  -542  -499  -523  -594  -667  -724  -777  -840  -906  -944  -935  -897  -863  -846  -839  -837  -839  -841  -841  -842  -848  -865  -885  -901  -898  -858  -795  -758  -777  -837  -901  -949  -974  -953  -885  -816  -775  -758  -758  -778  -830  -911  -985  -1000  -954  -891  -836  -790  -760  -743  -729  -723  -741  -790  -857  -921  -960  -949  -867  -740  -622  -534  -471  -449  -493  -601  -720  -771  -705  -561  -419  -300  -198  -127  -98  -99  -141  -250  -426  -600  -698  -720  -724  -749  -801  -862  -904  -914  -898  -861  -804  -718  -597  -470  -356  -148  326  1152  2264  3364  3963  3637  2225  36  -2182  -3785  -4548  -4497  -3912  -3202  -2566  -1983  -1419  -900  -509  -309  -256  -261  -274  -279  -258  -191  -95  -10  40  70  92  96  82  83  136  244  392  555  687  753  786  845  938  1035  1135  1255  1380  1486  1590  1725  1896  2060  2171  2249  2358  2504  2622  2673  2683  2709  2801  2968  3142  3211  3116  2901  2660  2465  2349  2306  2289  2232  2083  1838  1531  1190  837  520  294  166  83  8  -54  -135  -289  -495  -667  -749  -731  -655  -590  -561  -554  -553  -553  -559  -584  -622  -635  -585  -490  -389  -309  -261  -236  -218  -218  -259  -332  -390  -396  -367  -351  -363  -385  -401  -408  -415  -434  -471  -517  -551  -559  -556  -567  -591  -610  -615  -609  -597  -585  -581  -582  -585  -586  -578  -551  -508  -466  -423  -364  -313  -342  -511  -769  -973  -1020  -891  -626  -337  -154  -129  -230  -390  -537  -634  -681  -705  -735  -768  -768  -716  -638  -571  -522  -490  -493  -538  -605  -664  -695  -705  -704  -690  -654  -608  -577  -572  -581  -575  -523  -410  -263  -135  -62  -39  -40  -74  -168  -307  -435  -510  -541  -553  -560  -570  -583  -601  -624  -648  -667  -684  -698  -696  -653  -574  -484  -344  -57  475  1302  2340  3278  3703  3338  2096  187  -1832  -3428  -4352  -4552  -4132  -3382  -2602  -1954  -1469  -1103  -816  -597  -426  -283  -176  -115  -91  -85  -80  -63  -8  107  280  463  588  633  630  618  622  657  719  790  850  883  884  877  915  1061  1314  1590  1820  2014  2188  2313  2372  2382  2384  2447  2630  2877  3064  3137  3146  3143  3147  3154  3148  3090  2943  2726  2512  2359  2290  2277  2234  2057  1714  1308  1003  839  716  544  328  114  -82  -283  -482  -620  -667  -654  -628  -603  -581  -566  -562  -558  -538  -504  -480  -484  -497  -508  -525  -549  -570  -583  -590  -596  -602  -592  -577  -587  -617  -634  -627  -607  -580  -553  -532  -521  -518  -523  -542  -582  -635  -674  -689  -690  -689  -690  -699  -722  -751  -747  -691  -619  -588  -606  -637  -640  -621  -616  -637  -674  -724  -790  -851  -878  -866  -824  -761  -685  -624  -614  -650  -689  -690  -643  -559  -472  -420  -406  -410  -425  -454  -493  -530  -554  -573  -598  -629  -654  -663  -657  -628  -567  -486  -421  -392  -390  -397  -402  -399  -383  -357  -336  -336  -347  -356  -368  -390  -422  -466  -524  -578  -601  -597  -608  -653  -695  -701  -699  -756  -883  -952  -809  -449  43  640  1356  2168  2961  3510  3527  2770  1216  -800  -2776  -4258  -4902  -4665  -3884  -2972  -2174  -1566  -1101  -723  -431  -231  -111  -48  -31  -43  -56  -42  -11  13  36  94  215  363  470  517  547  597  669  742  798  837  878  950  1053  1157  1239  1293  1338  1421  1584  1811  2031  2182  2260  2312  2380  2475  2600  2739  2848  2900  2907  2894  2875  2856  2840  2812  2755  2671  2584  2483  2310  2007  1592  1173  861  678  575  480  340  142  -82  -275  -392  -452  -515  -608  -712  -800  -861  -894  -905  -894  -856  -793  -727  -677  -636  -591  -546  -498  -456  -452  -507  -593  -667  -707  -720  -727  -736  -737  -720  -691  -671  -666  -669  -668  -667  -670  -671  -664  -654  -653  -671  -701  -729  -750  -763  -766  -752  -727  -706  -705  -728  -766  -797  -809  -804  -785  -759  -733  -713  -707  -727  -767  -797  -790  -753  -719  -708  -714  -721  -705  -647  -556  -474  -437  -451  -494  -551  -620  -687  -734  -750  -711  -621  -533  -480  -469  -490  -520  -529  -491  -391  -241  -96  -22  -35  -89  -132  -151  -164  -184  -200  -202  -198  -208  -264  -393  -568  -709  -761  -726  -634  -530  -455  -428  -435  -430  -329  -12  592  1440  2376  3129  3398  3018  1954  339  -1429  -2938  -3910  -4132  -3658  -2893  -2166  -1577  -1177  -906  -612  -291  -79  -17  -27  -25  13  66  111  149  187  222  262  328  405  458  493  548  637  733  798  819  811  802  826  923  1110  1338  1517  1617  1676  1725  1775  1844  1960  2122  2278  2381  2440  2506  2618  2769  2905  2979  2985  2941  2857  2745  2639  2571  2537  2474  2285  1919  1461  1088  891  808  732  592  371  124  -46  -104  -117  -170  -293  -462  -628  -743  -781  -761  -723  -693  -669  -642  -616  -598  -582  -555  -519  -492  -481  -480  -480  -481  -485  -495  -514  -546  -584  -612  -624  -626  -622  -613  -604  -609  -647  -723  -812  -872  -877  -816  -700  -572  -475  -425  -418  -447  -495  -544  -594  -651  -706  -736  -737  -722  -703  -672  -605  -514  -440  -398  -376  -368  -398  -482  -598  -697  -760  -795  -804  -794  -774  -744  -712  -683  -655  -633  -632  -652  -674  -671  -643  -608  -584  -569  -562  -569  -611  -679  -724  -697  -574  -365  -136  -1  -27  -179  -356  -465  -494  -484  -470  -473  -500  -555  -627  -694  -740  -761  -755  -700  -605  -545  -568  -613  -589  -383  166  1081  2148  3056  3485  3230  2287  762  -1022  -2634  -3815  -4393  -4273  -3647  -2829  -2025  -1379  -970  -755  -640  -553  -455  -318  -157  -23  47  66  70  74  79  83  91  118  191  308  430  518  560  570  579  630  749  919  1094  1239  1347  1436  1531  1644  1764  1871  1965  2056  2146  2241  2367  2522  2659  2748  2812  2874  2934  2984  3015  3027  3016  2960  2840  2655  2423  2185  1975  1781  1551  1280  1021  796  581  362  140  -59  -194  -251  -267  -299  -393  -539  -675  -761  -804  -827  -842  -855  -872  -898  -918  -886  -771  -615  -499  -452  -433  -413  -400  -399  -402  -405  -403  -389  -361  -342  -378  -470  -559  -594  -581  -551  -535  -541  -564  -598  -633  -666  -709  -749  -755  -710  -628  -555  -519  -514  -523  -537  -557  -591  -641  -700  -751  -777  -759  -705  -649  -625  -628  -622  -589  -543  -496  -450  -409  -369  -336  -346  -439  -591  -713  -744  -696  -624  -565  -530  -515  -511  -514  -526  -552  -573  -559  -524  -508  -528  -556  -539  -462  -372  -310  -285  -283  -292  -307  -327  -356  -386  -409  -425  -462  -552  -685  -802  -872  -907  -921  -916  -904  -891  -857  -799  -758  -739  -673  -470  -39  658  1588  2620  3475  3798  3302  1921  -34  -1963  -3397  -4178  -4283  -3848  -3154  -2402  -1671  -1067  -698  -547  -496  -449  -356  -225  -116  -65  -52  -35  15  103  205  292  347  381  423  486  556  605  642  696  768  822  841  850  903  1047  1259  1454  1588  1694  1811  1929  2023  2101  2196  2334  2511  2695  2846  2950  3034  3102  3115  3059  2958  2837  2732  2649  2567  2509  2486  2445  2295  1980  1563  1188  928  728  527  314  106  -55  -150  -226  -340  -478  -569  -594  -602  -631  -677  -706  -697  -671  -665  -668  -643  -592  -545  -518  -498  -470  -443  -431  -439  -463  -475  -455  -422  -405  -406  -413  -416  -418  -426  -451  -481  -493  -475  -442  -424  -447  -523  -645  -765  -816  -789  -746  -725  -720  -711  -686  -652  -618  -594  -577  -547  -495  -444  -435  -488  -572  -640  -674  -696  -739  -790  -819  -811  -768  -704  -641  -604  -604  -635  -676  -715  -751  -779  -799  -809  -809  -788  -735  -674  -648  -664  -690  -706  -720  -730  -714  -670  -642  -660  -701  -728  -732  -730  -739  -743  -707  -611  -474  -355  -309  -345  -433  -521  -573  -565  -487  -351  -209  -107  -50  -30  -69  -190  -357  -490  -559  -596  -619  -626  -625  -630  -648  -676  -702  -713  -696  -666  -649  -592  -411  -148  175  704  1526  2476  3251  3511  2971  1584  -356  -2395  -4085  -4999  -4906  -4050  -2956  -2005  -1307  -832  -538  -373  -255  -127  -1  83  132  168  204  252  330  438  556  655  723  765  788  801  817  850  910  1010  1143  1272  1354  1382  1380  1378  1416  1533  1723  1932  2102  2210  2288  2392  2531  2681  2842  3029  3210  3325  3357  3342  3312  3275  3236  3201  3161  3104  3036  2947  2793  2550  2271  2015  1763  1478  1191  962  810  698  562  351  86  -139  -256  -283  -278  -299  -385  -516  -628  -680  -685  -672  -658  -651  -646  -614  -525  -406  -341  -354  -395  -438  -487  -524  -533  -524  -511  -497  -480  -461  -447  -451  -476  -508  -524  -520  -502  -475  -456  -481  -578  -720  -838  -898  -904  -869  -818  -783  -778  -791  -793  -761  -708  -660  -630  -614  -609  -627  -673  -743  -820  -884  -907  -872  -796  -724  -680  -658  -644  -638  -648  -676  -691  -676  -668  -691  -728  -749  -738  -722  -742  -784  -810  -816  -812  -800  -778  -759  -744  -725  -698  -668  -637  -609  -592  -593  -607  -627  -644  -658  -670  -676  -675  -669  -658  -647  -641  -638  -632  -609  -549  -439  -305  -188  -120  -113  -174  -296  -427  -511  -535  -527  -517  -524  -545  -565  -570  -564  -563  -576  -605  -659  -749  -854  -865  -622  -83  645  1458  2294  3061  3544  3433  2472  715  -1348  -3141  -4306  -4638  -4175  -3300  -2394  -1609  -1010  -642  -482  -436  -365  -191  31  187  240  231  189  119  59  87  225  395  513  567  596  619  643  672  705  730  755  810  917  1078  1262  1411  1492  1542  1636  1793  1950  2041  2077  2120  2225  2400  2597  2759  2880  2977  3038  3050  3022  2974  2926  2885  2840  2783  2727  2679  2571  2295  1867  1463  1218  1072  889  639  387  180  15  -117  -226  -308  -354  -371  -391  -451  -579  -742  -855  -865  -781  -661  -567  -519  -496  -479  -471  -480  -505  -539  -571  -593  -605  -611  -607  -589  -562  -542  -536  -537  -538  -535  -530  -525  -526  -545  -591  -660  -735  -789  -810  -806  -788  -768  -753  -746  -747  -747  -727  -690  -662  -661  -674  -685  -690  -692  -690  -683  -672  -657  -644  -644  -655  -676  -705  -733  -751  -766  -783  -792  -769  -695  -593  -518  -493  -498  -505  -505  -493  -476  -460  -451  -448  -452  -458  -464  -469  -482  -504  -529  -551  -562  -548  -509  -468  -436  -411  -394  -394  -412  -438  -439  -403  -360  -320  -258  -194  -172  -199  -245  -279  -290  -286  -273  -254  -222  -169  -97  -40  -34  -78  -134  -191  -252  -306  -332  -316  -281  -261  -266  -285  -309  -334  -354  -361  -346  -342  -405  -499  -477  -262  108  623  1309  2122  2970  3663  3822  3088  1462  -590  -2444  -3693  -4166  -3941  -3392  -2812  -2184  -1482  -833  -374  -135  -49  -32  -35  -39  -35  -21  -4  13  48  120  211  282  321  351  392  446  510  585  661  715  753  823  964  1141  1277  1345  1387  1437  1516  1653  1841  2015  2133  2209  2276  2338  2390  2450  2566  2759  2967  3090  3099  3054  3021  3010  2993  2947  2863  2730  2522  2233  1917  1655  1474  1317  1106  821  514  270  138  85  20  -114  -300  -473  -590  -653  -696  -753  -827  -889  -910  -872  -765  -627  -525  -486  -496  -523  -542  -550  -550  -542  -528  -510  -491  -479  -486  -515  -564  -616  -641  -627  -590  -551  -526  -514  -508  -508  -529  -581  -645  -689  -702  -701  -700  -699  -688  -655  -601  -543  -498  -469  -455  -449  -455  -486  -547  -610  -653  -685  -721  -732  -693  -639  -602  -577  -556  -549  -557  -563  -547  -518  -515  -548  -583  -601  -624  -676  -742  -775  -761  -734  -715  -678  -614  -562  -555  -587  -626  -659  -694  -732  -758  -752  -704  -639  -588  -557  -534  -520  -522  -543  -572  -595  -605  -604  -588  -554  -521  -521  -553  -585  -591  -572  -546  -519  -489  -464  -459  -476  -507  -535  -555  -572  -591  -597  -540  -380  -164  -9  30  -12  -85  -161  -242  -336  -437  -536  -618  -668  -682  -676  -665  -654  -636  -599  -556  -545  -600  -669  -631  -456  -242  40  561  1387  2419  3417  3962  3629  2305  320  -1760  -3430  -4365  -4473  -3915  -3040  -2212  -1606  -1214  -953  -715  -461  -254  -141  -87  -44  0  51  119  189  244  296  353  399  426  443  454  472  528  647  795  906  953  973  1034  1188  1419  1638  1766  1801  1797  1804  1860  2018  2281  2546  2705  2756  2770  2815  2932  3107  3267  3358  3390  3391  3342  3206  3012  2837  2716  2613  2479  2303  2131  2010  1913  1762  1505  1151  781  486  296  181  106  43  -34  -138  -253  -352  -417  -455  -489  -532  -573  -605  -628  -655  -698  -745  -775  -767  -702  -599  -514  -474  -465  -476  -516  -596  -696  -767  -780  -740  -670  -609  -576  -547  -507  -473  -458  -456  -458  -470  -503  -548  -582  -599  -611  -621  -625  -619  -614  -622  -645  -666  -678  -686  -696  -706  -716  -730  -746  -751  -730  -697  -676  -673  -679  -680  -662  -612  -542  -508  -575  -748  -937  -1009  -896  -668  -458  -337  -290  -279  -287  -338  -460  -617  -730  -769  -767  -758  -752  -743  -725  -698  -668  -638  -613  -593  -581  -598  -634  -648  -633  -623  -632  -643  -638  -618  -596  -580  -566  -557  -565  -592  -615  -600  -554  -510  -491  -491  -506  -539  -573  -558  -453  -291  -159  -101  -94  -105  -129  -166  -215  -275  -349  -432  -507  -547  -554  -551  -564  -605  -659  -699  -709  -698  -663  -603  -537  -485  -411  -216  216  938  1874  2815  3489  3667  3147  1841  -15  -1937  -3505  -4439  -4584  -4078  -3274  -2436  -1681  -1098  -739  -569  -488  -424  -364  -276  -103  121  287  349  356  367  395  418  424  426  444  486  534  572  632  775  1005  1236  1383  1434  1433  1428  1458  1547  1683  1833  1982  2124  2245  2338  2418  2512  2647  2836  3038  3181  3233  3231  3222  3218  3211  3195  3176  3166  3170  3158  3050  2779  2382  1972  1619  1339  1144  1011  880  697  455  202  13  -102  -207  -348  -495  -598  -648  -664  -661  -652  -664  -712  -764  -769  -729  -685  -652  -615  -569  -527  -501  -483  -456  -422  -411  -458  -554  -651  -708  -722  -715  -708  -706  -709  -715  -721  -725  -727  -727  -727  -730  -739  -756  -781  -825  -891  -953  -973  -960  -947  -936  -914  -885  -864  -854  -853  -854  -849  -837  -825  -835  -877  -935  -959  -918  -835  -762  -723  -712  -714  -717  -700  -638  -548  -481  -468  -502  -556  -619  -692  -767  -817  -826  -807  -777  -742  -695  -645  -610  -594  -584  -578  -579  -593  -619  -646  -663  -665  -635  -590  -569  -579  -592  -597  -597  -597  -598  -597  -593  -586  -561  -495  -377  -227  -87  0  27  10  -46  -140  -237  -297  -332  -392  -486  -579  -640  -670  -685  -693  -694  -681  -653  -609  -527  -391  -197  67  384  790  1428  2307  3182  3671  3377  2142  258  -1717  -3274  -4094  -4121  -3603  -2947  -2430  -2034  -1590  -1062  -604  -350  -264  -228  -167  -85  -18  26  57  78  97  137  196  249  282  315  379  473  571  660  738  796  834  867  909  971  1062  1171  1271  1371  1498  1643  1785  1913  2040  2195  2371  2518  2607  2675  2766  2868  2917  2879  2793  2725  2695  2681  2666  2634  2556  2427  2260  2065  1853  1666  1522  1358  1083  693  298  32  -82  -132  -204  -322  -447  -538  -594  -654  -742  -838  -898  -902  -865  -815  -777  -744  -696  -635  -590  -567  -545  -507  -441  -352  -276  -243  -257  -314  -400  -483  -544  -576  -583  -566  -524  -474  -448  -452  -464  -483  -543  -657  -789  -883  -911  -889  -850  -821  -798  -763  -731  -734  -782  -840  -870  -868  -840  -780  -711  -674  -688  -740  -771  -734  -667  -627  -619  -616  -600  -569  -541  -527  -522  -530  -559  -588  -604  -636  -719  -816  -835  -760  -675  -640  -639  -638  -616  -572  -519  -481  -469  -480  -511  -551  -587  -619  -653  -679  -671  -603  -482  -357  -278  -247  -219  -150  -58  5  13  -24  -80  -134  -198  -298  -415  -493  -490  -418  -343  -328  -369  -433  -507  -564  -560  -490  -419  -377  -254  125  854  1862  2884  3587  3742  3188  1869  28  -1867  -3380  -4163  -4087  -3402  -2572  -1934  -1534  -1234  -925  -621  -388  -232  -113  -12  58  93  111  136  176  222  261  278  283  327  447  611  748  843  921  986  1027  1062  1127  1233  1356  1468  1565  1654  1741  1847  1980  2110  2215  2305  2417  2592  2810  3010  3168  3292  3381  3433  3459  3458  3425  3357  3274  3186  3076  2935  2783  2629  2434  2160  1848  1579  1376  1209  1060  909  711  447  171  -48  -198  -303  -368  -406  -449  -504  -562  -618  -668  -704  -718  -710  -673  -594  -476  -345  -246  -212  -273  -433  -632  -775  -822  -796  -726  -644  -582  -552  -536  -524  -510  -481  -433  -381  -342  -326  -349  -435  -572  -698  -762  -772  -763  -760  -767  -778  -776  -754  -719  -693  -684  -681  -679  -688  -725  -782  -831  -855  -856  -850  -847  -860  -896  -948  -986  -980  -911  -798  -689  -624  -601  -601  -606  -616  -642  -687  -738  -777  -801  -817  -825  -823  -813  -800  -787  -763  -716  -659  -618  -601  -604  -635  -707  -818  -902  -871  -709  -484  -270  -111  -39  -91  -276  -519  -706  -798  -831  -833  -810  -774  -739  -706  -673  -651  -644  -645  -650  -689  -814  -1013  -1145  -1090  -872  -543  -50  712  1742  2818  3561  3569  2570  709  -1380  -3072  -4144  -4558  -4347  -3778  -3119  -2423  -1755  -1281  -1031  -886  -758  -652  -585  -528  -446  -347  -254  -181  -116  -40  44  118  176  213  220  207  195  220  321  494  668  772  829  907  1017  1116  1189  1280  1426  1607  1763  1877  2001  2161  2316  2439  2555  2693  2843  2985  3107  3203  3275  3325  3348  3323  3242  3113  2935  2711  2480  2262  2039  1776  1471  1173  902  614  311  77  -33  -77  -158  -355  -632  -850  -924  -898  -850  -820  -809  -810  -821  -851  -903  -946  -939  -857  -723  -602  -535  -520  -532  -551  -575  -613  -659  -696  -714  -703  -667  -626  -580  -517  -448  -402  -390  -407  -442  -495  -560  -606  -613  -591  -571  -578  -611  -643  -664  -696  -752  -804  -803  -745  -676  -630  -613  -613  -619  -622  -617  -597  -567  -543  -530  -523  -517  -515  -516  -519  -527  -538  -548  -551  -552  -553  -559  -570  -595  -638  -679  -693  -677  -650  -646  -658  -657  -651  -669  -698  -697  -649  -577  -522  -493  -473  -456  -441  -418  -388  -359  -337  -324  -323  -333  -353  -383  -425  -482  -544  -588  -607  -607  -579  -512  -431  -394  -420  -475  -511  -522  -531  -537  -509  -424  -266  20  528  1300  2250  3160  3709  3582  2644  1024  -879  -2569  -3686  -4044  -3717  -3085  -2474  -1947  -1493  -1129  -819  -502  -207  -20  34  22  20  64  152  261  352  404  424  429  430  433  443  465  505  566  657  789  948  1095  1200  1276  1359  1455  1557  1681  1844  2009  2121  2174  2239  2386  2589  2756  2870  2990  3125  3224  3264  3272  3282  3298  3305  3286  3231  3150  3050  2908  2680  2351  1961  1596  1343  1206  1099  923  637  307  38  -132  -240  -337  -451  -562  -643  -713  -821  -962  -1072  -1109  -1075  -981  -856  -751  -690  -665  -652  -644  -670  -757  -875  -952  -956  -911  -862  -826  -786  -741  -701  -672  -648  -619  -592  -592  -627  -678  -713  -712  -681  -646  -614  -579  -549  -543  -566  -609  -663  -716  -742  -735  -732  -748  -763  -765  -736  -673  -614  -585  -580  -579  -579  -600  -657  -734  -787  -798  -788  -775  -770  -773  -784  -800  -811  -799  -760  -703  -644  -593  -562  -549  -547  -547  -546  -548  -565  -601  -631  -615  -558  -508  -504  -547  -614  -683  -715  -648  -493  -345  -261  -215  -174  -138  -123  -140  -215  -343  -461  -514  -518  -515  -538  -586  -635  -667  -685  -680  -655  -623  -588  -549  -501  -465  -447  -369  -109  430  1268  2304  3310  3933  3798  2705  814  -1319  -3113  -4267  -4655  -4299  -3503  -2643  -1887  -1265  -819  -555  -399  -292  -229  -211  -215  -222  -229  -237  -235  -197  -105  15  124  216  307  411  518  606  669  739  850  983  1099  1178  1233  1273  1316  1403  1565  1762  1926  2041  2148  2293  2468  2621  2734  2847  2981  3106  3196  3256  3297  3312  3293  3262  3254  3266  3271  3242  3117  2811  2337  1878  1601  1470  1335  1131  899  682  453  173  -104  -280  -335  -343  -382  -478  -591  -664  -686  -683  -665  -628  -574  -522  -487  -469  -465  -482  -539  -636  -713  -689  -576  -481  -478  -545  -590  -556  -480  -426  -409  -408  -405  -398  -408  -458  -532  -589  -622  -656  -706  -757  -793  -811  -810  -789  -752  -714  -698  -709  -738  -770  -794  -808  -810  -798  -769  -724  -672  -624  -604  -629  -697  -770  -797  -771  -718  -669  -660  -709  -774  -811  -819  -815  -807  -787  -752  -720  -708  -727  -790  -903  -1034  -1119  -1123  -1067  -999  -943  -881  -812  -770  -783  -832  -867  -861  -828  -806  -806  -805  -792  -781  -780  -780  -756  -690  -599  -516  -450  -399  -370  -358  -355  -368  -414  -486  -550  -576  -571  -553  -546  -584  -662  -725  -752  -765  -785  -784  -736  -706  -735  -710  -499  -33  729  1741  2838  3733  4039  3454  1968  -40  -1950  -3317  -4038  -4161  -3841  -3325  -2709  -1970  -1228  -688  -413  -297  -206  -98  -10  35  57  79  118  190  271  286  211  152  213  362  494  579  658  747  817  868  936  1025  1104  1162  1227  1324  1452  1606  1763  1880  1940  1981  2066  2215  2390  2549  2683  2800  2903  2993  3077  3170  3263  3315  3311  3258  3158  3031  2882  2653  2319  1989  1779  1646  1440  1119  802  594  470  354  225  110  18  -71  -168  -258  -339  -429  -525  -599  -641  -656  -659  -659  -657  -651  -636  -615  -593  -582  -577  -571  -556  -529  -494  -470  -476  -505  -549  -597  -626  -610  -545  -446  -344  -276  -248  -250  -283  -341  -405  -453  -479  -506  -565  -649  -713  -724  -678  -598  -532  -501  -499  -523  -572  -624  -660  -687  -719  -754  -773  -771  -759  -744  -735  -737  -741  -722  -662  -599  -606  -685  -761  -776  -732  -670  -626  -611  -606  -600  -594  -597  -613  -631  -638  -632  -620  -604  -589  -583  -586  -595  -601  -593  -564  -517  -470  -447  -453  -468  -478  -487  -488  -478  -460  -435  -404  -375  -350  -324  -279  -216  -164  -148  -163  -202  -264  -342  -421  -491  -542  -568  -571  -556  -535  -523  -522  -515  -495  -476  -483  -527  -578  -569  -484  -341  -44  573  1513  2518  3262  3497  3036  1839  157  -1582  -3073  -4076  -4310  -3802  -2980  -2198  -1566  -1135  -858  -588  -300  -102  -30  -16  -9  -22  -65  -98  -78  -4  109  235  329  376  396  406  407  399  388  400  478  636  827  980  1074  1137  1216  1324  1429  1505  1549  1592  1668  1784  1942  2168  2451  2710  2878  2962  3002  3021  3045  3087  3095  2998  2816  2644  2543  2492  2435  2348  2227  2042  1765  1417  1078  840  700  573  396  175  -46  -215  -320  -415  -538  -668  -773  -849  -897  -905  -866  -801  -741  -697  -659  -621  -591  -574  -563  -551  -537  -531  -543  -569  -580  -561  -536  -539  -571  -604  -609  -584  -539  -481  -420  -377  -361  -369  -413  -502  -590  -606  -570  -575  -654  -745  -799  -816  -817  -814  -804  -773  -722  -670  -637  -634  -649  -654  -642  -625  -615  -614  -624  -651  -693  -737  -771  -787  -777  -739  -690  -659  -650  -646  -636  -622  -611  -602  -595  -593  -612  -667  -739  -777  -754  -697  -652  -637  -640  -645  -646  -638  -621  -602  -583  -558  -526  -504  -500  -487  -451  -415  -411  -454  -533  -611  -650  -633  -563  -472  -408  -386  -378  -340  -253  -146  -71  -38  -14  14  32  25  6  -16  -59  -155  -307  -465  -558  -557  -483  -397  -360  -378  -411  -436  -453  -480  -536  -603  -574  -344  47  512  1046  1686  2449  3221  3686  3476  2382  569  -1446  -3080  -3949  -3996  -3487  -2792  -2133  -1574  -1138  -846  -671  -534  -400  -294  -216  -130  -24  73  131  150  173  239  350  463  537  563  559  549  564  625  735  872  998  1076  1110  1138  1188  1258  1347  1487  1690  1904  2063  2155  2220  2297  2404  2522  2622  2711  2819  2951  3099  3254  3369  3382  3308  3216  3110  2947  2751  2598  2499  2376  2176  1919  1642  1367  1100  833  562  302  90  -42  -124  -219  -341  -458  -562  -661  -739  -785  -810  -833  -861  -881  -885  -865  -818  -732  -619  -538  -549  -650  -760  -774  -692  -605  -572  -575  -572  -531  -461  -417  -439  -502  -555  -563  -526  -483  -463  -462  -462  -451  -435  -437  -485  -584  -693  -741  -699  -617  -563  -541  -528  -515  -517  -542  -580  -608  -612  -594  -569  -576  -642  -731  -786  -794  -780  -759  -728  -684  -630  -584  -559  -557  -567  -578  -586  -594  -597  -589  -573  -572  -602  -633  -627  -598  -579  -580  -587  -583  -545  -479  -447  -491  -562  -604  -619  -616  -585  -522  -444  -380  -352  -367  -411  -472  -524  -533  -506  -474  -465  -488  -506  -476  -421  -382  -356  -330  -309  -309  -342  -401  -464  -527  -593  -632  -605  -512  -401  -323  -264  -171  -51  12  -28  -135  -251  -349  -417  -466  -518  -555  -548  -514  -495  -505  -531  -554  -566  -574  -551  -439  -226  47  376  844  1546  2461  3345  3827  3571  2349  356  -1733  -3371  -4341  -4506  -3970  -3141  -2303  -1547  -975  -647  -512  -473  -458  -446  -431  -363  -184  62  257  353  390  413  444  476  469  421  387  400  437  480  555  696  887  1058  1171  1252  1322  1371  1417  1508  1650  1785  1880  1969  2099  2290  2538  2795  2994  3107  3144  3139  3125  3112  3102  3093  3073  3031  2978  2939  2916  2876  2781  2627  2432  2179  1838  1435  1041  722  499  362  287  238  191  104  -65  -290  -474  -571  -605  -622  -653  -685  -697  -708  -735  -763  -765  -718  -654  -608  -567  -538  -550  -593  -639  -694  -778  -878  -918  -838  -686  -554  -480  -457  -479  -521  -532  -498  -476  -511  -574  -623  -649  -654  -638  -615  -622  -670  -726  -775  -839  -912  -947  -912  -831  -755  -698  -651  -619  -610  -614  -633  -678  -724  -741  -728  -706  -697  -704  -714  -719  -713  -687  -635  -573  -528  -509  -502  -507  -552  -653  -753  -764  -671  -549  -472  -452  -461  -476  -502  -552  -616  -662  -673  -660  -642  -630  -628  -629  -626  -616  -601  -585  -569  -551  -529  -484  -407  -322  -275  -291  -356  -425  -476  -523  -560  -568  -560  -555  -551  -527  -463  -371  -279  -199  -153  -185  -292  -423  -536  -610  -627  -564  -388  -105  186  373  426  368  216  15  -153  -249  -290  -308  -324  -348  -370  -375  -368  -362  -361  -365  -375  -381  -362  -287  -128  90  349  723  1305  2118  3003  3601  3582  2755  1174  -722  -2395  -3549  -4061  -3948  -3442  -2797  -2125  -1543  -1148  -898  -711  -571  -478  -404  -334  -272  -215  -151  -84  -27  15  43  72  122  188  248  298  345  389  438  507  590  664  719  779  885  1044  1222  1366  1445  1492  1580  1728  1890  2036  2188  2339  2441  2474  2474  2501  2615  2834  3083  3253  3303  3256  3133  2965  2814  2715  2635  2512  2293  1964  1592  1297  1137  1057  956  765  502  257  90  -25  -147  -294  -452  -587  -670  -706  -718  -723  -726  -729  -730  -727  -710  -670  -617  -578  -565  -566  -568  -575  -595  -625  -652  -662  -650  -622  -593  -563  -520  -470  -435  -418  -410  -405  -400  -393  -394  -423  -487  -537  -514  -449  -422  -446  -472  -477  -478  -491  -524  -579  -638  -658  -615  -539  -481  -459  -459  -473  -508  -558  -599  -624  -642  -656  -647  -603  -536  -472  -429  -417  -443  -484  -504  -483  -437  -400  -385  -380  -374  -367  -363  -376  -407  -440  -466  -489  -498  -484  -466  -458  -456  -456  -457  -457  -450  -431  -409  -403  -445  -531  -585  -545  -467  -449  -506  -564  -548  -466  -384  -345  -338  -343  -351  -366  -391  -424  -464  -482  -436  -331  -229  -178  -169  -176  -181  -182  -175  -163  -159  -198  -304  -433  -498  -478  -430  -404  -401  -407  -412  -415  -419  -428  -430  -374  -238  -80  113  526  1326  2420  3456  4004  3707  2426  427  -1698  -3378  -4288  -4361  -3780  -2937  -2173  -1594  -1167  -837  -570  -362  -221  -146  -109  -73  -23  30  63  70  79  125  244  430  611  714  738  728  719  724  746  782  826  879  941  1000  1044  1095  1189  1328  1495  1689  1910  2126  2287  2371  2415  2479  2573  2664  2720  2743  2761  2799  2866  2943  3004  3043  3060  3042  2975  2871  2754  2600  2350  2020  1676  1326  972  669  445  274  134  3  -143  -286  -387  -449  -519  -617  -705  -747  -747  -739  -763  -838  -935  -993  -986  -934  -855  -737  -590  -462  -373  -308  -266  -259  -295  -351  -399  -436  -465  -488  -508  -530  -561  -597  -624  -634  -634  -633  -638  -645  -649  -647  -644  -641  -636  -635  -655  -710  -778  -811  -792  -742  -694  -665  -651  -644  -643  -655  -677  -699  -716  -723  -721  -725  -741  -763  -793  -830  -853  -811  -665  -457  -309  -316  -483  -717  -891  -961  -973  -967  -939  -867  -773  -701  -661  -627  -578  -525  -485  -464  -461  -487  -551  -627  -656  -604  -505  -422  -384  -383  -415  -465  -504  -518  -507  -469  -400  -320  -272  -273  -305  -342  -382  -430  -483  -518  -481  -333  -127  24  78  79  72  46  -39  -189  -356  -495  -593  -644  -650  -628  -588  -541  -505  -496  -530  -595  -626  -575  -460  -244  167  775  1526  2367  3157  3659  3632  2851  1277  -741  -2668  -4075  -4649  -4347  -3537  -2656  -1887  -1253  -773  -470  -320  -256  -215  -161  -95  -49  -39  -45  -32  30  128  213  262  305  370  447  516  587  664  727  765  799  854  934  1018  1082  1122  1164  1254  1424  1661  1919  2157  2342  2461  2524  2557  2596  2674  2775  2853  2897  2941  3003  3073  3142  3181  3145  3038  2909  2782  2633  2442  2243  2070  1861  1524  1097  730  526  446  373  232  47  -110  -213  -299  -425  -591  -740  -838  -887  -892  -860  -808  -748  -695  -649  -595  -533  -486  -471  -486  -519  -551  -564  -558  -540  -523  -509  -494  -478  -465  -452  -445  -461  -521  -614  -706  -773  -808  -804  -744  -624  -484  -396  -419  -562  -758  -900  -944  -927  -888  -836  -779  -749  -765  -806  -836  -839  -817  -780  -743  -714  -698  -698  -717  -754  -800  -842  -869  -875  -842  -742  -587  -461  -449  -533  -619  -656  -666  -680  -698  -701  -678  -641  -624  -645  -675  -681  -656  -607  -545  -499  -480  -468  -467  -497  -552  -599  -620  -623  -619  -604  -568  -510  -441  -384  -361  -361  -354  -338  -323  -308  -292  -280  -270  -257  -242  -236  -240  -242  -219  -152  -48  46  76  24  -71  -168  -263  -367  -471  -563  -624  -643  -643  -666  -719  -769  -786  -787  -782  -728  -570  -341  -110  125  461  1053  1982  3040  3812  3916  3051  1200  -1078  -3045  -4340  -4815  -4421  -3511  -2630  -1947  -1335  -818  -519  -417  -388  -344  -271  -207  -181  -187  -196  -164  -39  186  426  575  618  621  633  658  680  687  678  656  637  669  808  1056  1328  1534  1661  1750  1824  1880  1914  1955  2044  2179  2315  2419  2512  2626  2775  2960  3164  3343  3457  3511  3531  3505  3371  3098  2770  2522  2393  2325  2268  2210  2140  2009  1742  1323  859  496  283  178  108  0  -186  -422  -642  -795  -871  -890  -866  -793  -680  -568  -500  -476  -471  -475  -484  -493  -503  -519  -548  -596  -642  -656  -638  -611  -590  -583  -574  -532  -458  -383  -340  -328  -327  -333  -358  -414  -492  -587  -703  -814  -862  -829  -746  -666  -634  -641  -654  -659  -663  -678  -701  -717  -722  -721  -719  -712  -704  -699  -696  -688  -672  -665  -681  -714  -748  -772  -786  -802  -816  -798  -721  -617  -544  -521  -518  -512  -508  -516  -536  -559  -582  -611  -656  -709  -748  -762  -762  -761  -762  -755  -718  -644  -558  -492  -459  -452  -434  -369  -279  -227  -263  -400  -566  -640  -580  -463  -376  -337  -322  -306  -277  -238  -204  -183  -183  -222  -295  -365  -428  -507  -576  -588  -545  -484  -437  -420  -415  -405  -413  -484  -634  -806  -881  -774  -481  -36  568  1422  2512  3521  3993  3615  2254  123  -2124  -3857  -4778  -4808  -4132  -3204  -2400  -1824  -1432  -1132  -825  -501  -249  -125  -99  -112  -126  -120  -84  -22  44  108  159  188  216  271  347  434  524  609  684  748  807  880  953  1018  1094  1175  1222  1214  1198  1282  1563  1981  2340  2518  2561  2562  2573  2608  2671  2767  2904  3054  3160  3195  3168  3101  3052  3060  3083  3036  2843  2487  2047  1642  1337  1092  855  649  506  390  269  160  73  -17  -111  -178  -229  -328  -490  -647  -732  -748  -738  -728  -725  -729  -738  -739  -701  -594  -448  -342  -320  -366  -436  -491  -519  -528  -532  -536  -538  -532  -519  -512  -513  -507  -483  -453  -424  -395  -364  -344  -360  -416  -487  -562  -638  -659  -575  -455  -392  -394  -430  -484  -551  -612  -639  -635  -626  -627  -633  -637  -645  -671  -698  -692  -631  -532  -445  -403  -407  -443  -485  -522  -561  -598  -625  -639  -632  -610  -592  -585  -585  -589  -595  -602  -615  -634  -651  -648  -613  -557  -513  -498  -500  -501  -493  -480  -467  -462  -470  -476  -466  -438  -402  -347  -249  -125  -31  4  0  -23  -49  -73  -95  -124  -167  -217  -256  -275  -273  -248  -214  -225  -331  -483  -587  -622  -641  -668  -680  -647  -554  -414  -249  0  414  1013  1812  2737  3476  3631  2978  1540  -355  -2171  -3493  -4173  -4239  -3846  -3236  -2589  -1947  -1353  -896  -597  -401  -252  -118  -6  57  76  79  83  83  69  60  97  186  286  357  388  397  420  481  573  670  734  760  789  888  1098  1378  1615  1724  1726  1702  1717  1797  1940  2133  2363  2588  2758  2875  2959  3004  3005  2986  2965  2957  2967  2980  2966  2900  2788  2657  2503  2286  2025  1796  1613  1402  1118  820  589  416  243  54  -142  -316  -425  -476  -516  -566  -604  -605  -563  -495  -432  -397  -403  -447  -509  -559  -572  -559  -537  -516  -503  -516  -579  -693  -802  -847  -813  -723  -618  -531  -480  -471  -492  -522  -546  -572  -602  -626  -640  -657  -686  -724  -758  -780  -790  -789  -771  -724  -663  -626  -635  -671  -703  -725  -747  -765  -770  -768  -769  -773  -774  -773  -775  -777  -769  -748  -726  -714  -707  -698  -692  -696  -718  -759  -798  -807  -773  -710  -644  -590  -555  -548  -566  -606  -673  -755  -812  -818  -783  -748  -747  -774  -795  -787  -740  -659  -572  -503  -461  -420  -347  -257  -200  -191  -213  -256  -317  -383  -428  -445  -447  -441  -411  -333  -213  -120  -140  -259  -373  -427  -445  -460  -479  -497  -506  -510  -525  -565  -635  -715  -782  -820  -828  -810  -737  -553  -265  56  414  909  1616  2488  3310  3739  3401  2083  49  -2045  -3690  -4596  -4615  -3975  -3107  -2259  -1558  -1101  -854  -695  -540  -374  -239  -162  -112  -48  29  99  133  127  114  115  116  117  139  207  320  438  520  572  626  704  801  903  1007  1146  1352  1577  1727  1780  1795  1843  1963  2154  2357  2491  2551  2612  2725  2876  3023  3122  3160  3169  3177  3182  3166  3137  3126  3114  3004  2699  2257  1862  1613  1462  1327  1166  1007  887  757  534  208  -154  -458  -622  -659  -660  -702  -792  -893  -973  -1030  -1072  -1110  -1128  -1060  -849  -558  -342  -270  -292  -348  -403  -435  -439  -436  -460  -538  -675  -821  -884  -814  -667  -547  -500  -501  -514  -527  -547  -582  -617  -631  -611  -560  -512  -492  -500  -526  -559  -598  -651  -718  -788  -840  -843  -778  -670  -588  -575  -619  -681  -731  -757  -762  -760  -758  -754  -730  -671  -596  -544  -527  -528  -532  -534  -549  -602  -689  -768  -797  -773  -720  -663  -614  -566  -520  -490  -482  -489  -514  -561  -619  -660  -676  -677  -670  -649  -616  -588  -576  -574  -556  -502  -426  -366  -342  -354  -411  -511  -618  -667  -635  -572  -526  -489  -446  -406  -374  -334  -270  -182  -87  -7  36  32  -20  -103  -193  -277  -357  -455  -566  -646  -658  -605  -522  -460  -449  -494  -607  -743  -738  -515  -208  48  266  575  1183  2164  3234  3872  3672  2530  661  -1394  -3077  -4127  -4461  -4125  -3367  -2502  -1773  -1254  -851  -504  -267  -161  -115  -58  0  9  -38  -73  -45  16  77  154  250  337  407  465  512  553  614  722  878  1044  1176  1255  1291  1299  1287  1274  1311  1450  1688  1957  2193  2365  2477  2554  2625  2714  2855  3062  3282  3438  3518  3549  3542  3506  3453  3363  3212  3038  2919  2869  2808  2639  2351  2044  1814  1645  1470  1268  1053  835  611  382  139  -102  -284  -369  -403  -446  -512  -568  -601  -625  -641  -618  -526  -385  -255  -182  -177  -228  -294  -334  -346  -347  -349  -357  -365  -358  -308  -212  -109  -42  -19  -20  -23  -22  -29  -62  -133  -224  -295  -331  -346  -356  -368  -376  -368  -330  -273  -234  -232  -249  -262  -269  -271  -261  -235  -194  -148  -108  -92  -127  -224  -328  -369  -347  -287  -199  -124  -85  -68  -91  -164  -234  -263  -266  -275  -295  -319  -346  -382  -400  -362  -263  -141  -42  16  32  -4  -106  -251  -377  -442  -453  -445  -443  -450  -454  -435  -375  -273  -171  -129  -153  -192  -208  -206  -207  -237  -300  -360  -376  -352  -317  -249  -95  117  280  330  270  125  -44  -164  -228  -279  -337  -393  -441  -472  -471  -436  -386  -337  -302  -286  -289  -317  -361  -372  -233  162  778  1448  2033  2483  2742  2620  1815  283  -1472  -2786  -3403  -3533  -3470  -3308  -2988  -2506  -1983  -1529  -1179  -946  -819  -747  -691  -646  -603  -548  -490  -451  -419  -367  -299  -261  -280  -333  -374  -381  -354  -302  -244  -198  -149  -68  27  84  82  43  0]
