reading_id,reading_time,wire_id,result_classification,heart_rate,heart_rate_alert,firmware_version,device_app_version,hardware_version,waveform_samples
89a0d5a0-530e-11ed-8080-808080808080,Sun Oct 23 20:09:02 UTC 2022,2101e3d81839,NSR,65,NONE,20001.171.50,2.10.0,Charge 5,[0  9  21  31  26  -17  -113  -231  -319  -355  -361  -356  -333  -274  -194  -134  -110  -108  -124  -172  -252  -333  -387  -423  -466  -510  -523  -489  -441  -460  -595  -786  -921  -957  -936  -899  -857  -790  -678  -546  -456  -437  -466  -508  -550  -622  -767  -961  -1121  -1212  -1265  -1304  -1330  -1319  -1256  -1173  -1109  -1079  -1090  -1135  -1177  -1192  -1185  -1169  -1149  -1121  -1070  -987  -911  -906  -974  -1058  -1147  -1269  -1379  -1353  -1153  -898  -724  -668  -712  -843  -1019  -1160  -1232  -1250  -1214  -1086  -879  -685  -587  -574  -580  -551  -475  -386  -323  -301  -305  -316  -344  -418  -526  -608  -633  -625  -623  -655  -735  -856  -979  -1044  -1031  -979  -940  -928  -927  -927  -943  -1004  -1103  -1199  -1283  -1408  -1556  -1506  -1016  -70  1203  2702  4268  5571  6156  5689  4166  1941  -370  -2221  -3414  -3932  -3823  -3289  -2576  -1902  -1461  -1277  -1191  -1061  -898  -775  -692  -595  -483  -394  -339  -305  -283  -265  -224  -149  -83  -62  -46  14  109  194  242  249  237  233  271  389  587  807  1019  1264  1528  1715  1802  1854  1913  1973  2039  2126  2223  2298  2340  2375  2437  2520  2585  2606  2587  2558  2547  2548  2503  2335  2033  1708  1498  1411  1330  1165  924  650  370  120  -38  -93  -90  -72  -56  -49  -65  -108  -162  -204  -234  -270  -312  -341  -349  -351  -366  -391  -395  -359  -311  -287  -281  -269  -212  -86  66  175  210  193  155  117  89  79  82  93  113  142  159  140  92  49  29  0  -97  -254  -384  -436  -436  -427  -421  -408  -385  -394  -476  -611  -736  -789  -754  -663  -565  -483  -412  -344  -284  -235  -200  -208  -266  -333  -376  -392  -391  -385  -395  -436  -497  -533  -521  -487  -465  -461  -469  -485  -500  -506  -508  -510  -512  -504  -470  -393  -291  -238  -293  -421  -560  -692  -800  -840  -777  -641  -506  -421  -388  -389  -400  -405  -399  -374  -327  -273  -227  -190  -149  -73  63  250  430  525  502  392  241  63  -131  -304  -407  -433  -417  -406  -415  -436  -459  -469  -462  -464  -497  -572  -693  -847  -996  -1093  -1108  -1042  -841  -364  491  1788  3510  5335  6652  6911  5866  3695  1024  -1317  -2751  -3211  -2997  -2511  -2054  -1727  -1487  -1265  -1040  -848  -732  -684  -674  -662  -587  -416  -213  -91  -89  -146  -209  -268  -297  -257  -150  -19  90  162  217  276  337  415  541  685  780  826  876  961  1073  1182  1270  1347  1443  1553  1643  1700  1741  1771  1782  1764  1718  1668  1645  1670  1737  1802  1818  1783  1714  1620  1512  1396  1270  1145  1022  844  564  228  -69  -329  -601  -855  -1007  -1049  -1039  -1025  -1009  -975  -928  -889  -868  -867  -906  -1005  -1121  -1151  -1056  -908  -806  -779  -811  -890  -991  -1069  -1096  -1063  -966  -830  -701  -586  -483  -415  -392  -389  -391  -414  -472  -536  -566  -576  -612  -696  -787  -846  -879  -901  -904  -877  -828  -800  -806  -800  -749  -677  -604  -535  -487  -471  -493  -555  -639  -703  -721  -694  -633  -574  -547  -550  -571  -603  -631  -646  -643  -605  -516  -395  -299  -265  -319  -477  -681  -806  -778  -643  -506  -438  -439  -466  -467  -420  -343  -278  -282  -400  -595  -769  -848  -814  -698  -542  -394  -299  -269  -273  -283  -288  -288  -280  -254  -206  -145  -95  -70  -65  -69  -69  -65  -60  -50  -33  -15  -4  -18  -50  -67  -54  6  145  333  478  531  522  503  496  468  352  129  -118  -297  -409  -529  -684  -827  -897  -861  -716  -504  -307  -186  -153  -246  -556  -1023  -1332  -1156  -342  1112  3010  4987  6629  7421  6964  5411  3269  969  -1062  -2472  -3221  -3369  -2935  -2146  -1410  -978  -828  -807  -794  -736  -618  -470  -352  -292  -264  -230  -176  -115  -64  -39  -35  -9  81  221  336  386  395  405  427  454  488  536  615  724  845  980  1172  1428  1673  1834  1905  1922  1914  1894  1887  1924  2006  2100  2190  2288  2393  2489  2554  2591  2610  2611  2554  2390  2132  1852  1588  1323  1055  833  695  612  525  424  339  275  159  -94  -424  -651  -694  -633  -572  -547  -548  -563  -593  -641  -704  -780  -851  -902  -928  -936  -927  -898  -862  -835  -818  -798  -772  -763  -777  -787  -747  -647  -512  -376  -306  -351  -460  -549  -585  -576  -547  -520  -504  -493  -489  -505  -562  -661  -763  -830  -862  -892  -934  -978  -999  -964  -850  -687  -544  -476  -477  -503  -514  -502  -482  -469  -466  -466  -475  -499  -533  -562  -580  -587  -582  -562  -526  -479  -441  -423  -442  -520  -648  -766  -806  -747  -629  -513  -418  -351  -342  -398  -479  -546  -575  -549  -477  -380  -297  -276  -315  -395  -523  -673  -779  -798  -740  -653  -588  -560  -545  -518  -469  -422  -409  -411  -383  -326  -285  -313  -438  -605  -668  -541  -313  -169  -186  -269  -287  -218  -135  -84  -51  -8  52  112  137  101  18  -69  -133  -185  -239  -279  -296  -296  -291  -284  -279  -293  -339  -399  -433  -438  -452  -536  -740  -1027  -1254  -1321  -1234  -960  -378  657  2233  4199  6057  7149  7035  5679  3398  825  -1308  -2649  -3291  -3415  -3182  -2778  -2249  -1597  -1023  -731  -681  -719  -761  -777  -728  -575  -353  -164  -68  -46  -52  -50  -31  -6  8  6  1  12  77  242  495  753  927  1006  1034  1040  1025  996  998  1086  1271  1492  1675  1795  1873  1930  1980  2035  2121  2258  2413  2512  2539  2536  2537  2550  2561  2520  2371  2133  1901  1751  1668  1582  1455  1307  1162  994  776  504  187  -118  -317  -377  -360  -335  -338  -387  -475  -567  -639  -694  -733  -759  -776  -778  -770  -771  -800  -840  -840  -761  -640  -550  -517  -514  -515  -509  -484  -430  -362  -309  -283  -280  -313  -402  -525  -615  -632  -601  -556  -516  -489  -467  -430  -376  -335  -330  -352  -371  -380  -388  -393  -382  -351  -319  -309  -320  -334  -342  -354  -394  -482  -594  -674  -684  -638  -572  -523  -496  -468  -420  -361  -321  -308  -308  -318  -343  -386  -437  -483  -506  -499  -455  -365  -255  -174  -148  -170  -221  -275  -320  -367  -422  -467  -486  -488  -488  -486  -481  -483  -505  -540  -567  -576  -567  -539  -494  -443  -406  -405  -443  -503  -560  -593  -589  -548  -487  -427  -374  -312  -248  -210  -196  -186  -177  -163  -129  -67  9  82  138  173  193  202  198  183  149  75  -36  -163  -275  -352  -394  -429  -501  -615  -721  -777  -804  -823  -826  -822  -859  -939  -973  -918  -830  -716  -508  -7  1067  2763  4725  6343  6984  6334  4603  2306  -13  -1930  -3184  -3683  -3441  -2607  -1636  -1047  -891  -893  -884  -854  -843  -831  -751  -617  -500  -430  -397  -387  -386  -389  -397  -412  -419  -366  -211  2  160  222  268  386  554  676  714  707  700  727  828  1022  1264  1486  1655  1765  1834  1886  1928  1958  1977  1996  2041  2134  2284  2434  2486  2413  2288  2190  2147  2132  2094  2003  1876  1729  1538  1310  1102  941  775  552  280  18  -182  -299  -351  -404  -515  -663  -778  -825  -816  -763  -702  -681  -702  -729  -746  -754  -752  -742  -719  -683  -651  -636  -636  -641  -639  -632  -622  -601  -547  -444  -314  -217  -183  -207  -282  -397  -525  -647  -728  -723  -638  -540  -478  -454  -459  -489  -541  -602  -658  -697  -723  -744  -742  -696  -623  -565  -531  -492  -448  -443  -509  -617  -704  -742  -737  -675  -541  -378  -269  -247  -290  -355  -423  -499  -577  -616  -591  -512  -418  -358  -359  -408  -476  -543  -606  -660  -696  -710  -712  -704  -678  -637  -595  -570  -562  -568  -594  -651  -733  -805  -847  -868  -871  -855  -821  -762  -690  -622  -559  -503  -467  -453  -450  -458  -498  -567  -611  -608  -607  -622  -603  -553  -505  -464  -420  -372  -326  -292  -276  -276  -280  -262  -192  -57  104  199  174  93  36  4  -37  -127  -302  -529  -703  -756  -719  -638  -524  -391  -274  -195  -178  -254  -405  -556  -643  -684  -768  -923  -1000  -736  53  1377  3086  4935  6551  7379  6960  5304  2834  173  -1937  -2967  -2984  -2403  -1632  -1050  -825  -795  -769  -726  -688  -645  -577  -477  -358  -247  -165  -114  -83  -58  -26  18  79  152  242  355  492  621  676  620  511  435  454  611  887  1167  1342  1406  1438  1528  1706  1905  2033  2074  2071  2062  2071  2116  2202  2321  2445  2544  2600  2613  2593  2545  2485  2438  2389  2284  2104  1905  1747  1599  1368  1032  697  464  328  234  164  106  27  -100  -267  -427  -540  -577  -552  -534  -557  -594  -635  -682  -724  -748  -758  -760  -761  -762  -761  -761  -775  -814  -862  -863  -779  -640  -520  -457  -439  -441  -444  -444  -437  -426  -422  -457  -555  -689  -789  -824  -823  -815  -806  -789  -758  -721  -691  -666  -627  -576  -533  -509  -501  -501  -505  -511  -519  -524  -529  -553  -608  -676  -732  -776  -816  -844  -837  -773  -659  -548  -487  -474  -479  -486  -498  -507  -477  -391  -306  -294  -373  -495  -589  -629  -644  -660  -680  -698  -709  -709  -685  -625  -546  -491  -475  -473  -463  -449  -439  -431  -420  -407  -394  -383  -380  -400  -438  -464  -495  -567  -644  -672  -656  -625  -600  -586  -580  -573  -538  -421  -223  -51  -13  -89  -181  -228  -221  -173  -103  -10  100  188  199  126  -5  -186  -382  -512  -540  -506  -480  -514  -597  -673  -712  -722  -722  -719  -687  -582  -420  -319  -431  -758  -1046  -926  -181  1199  3056  5086  6793  7550  6990  5248  2744  109  -1908  -2974  -3288  -3154  -2762  -2210  -1622  -1189  -995  -924  -824  -677  -564  -527  -534  -536  -502  -414  -279  -136  -39  -5  0  18  81  190  312  398  433  448  488  557  629  698  786  887  966  1005  1015  1028  1114  1343  1661  1920  2053  2104  2126  2147  2184  2233  2286  2360  2489  2655  2768  2720  2469  2123  1874  1797  1819  1833  1769  1605  1371  1147  1000  911  773  505  153  -163  -391  -557  -684  -763  -786  -755  -683  -599  -536  -510  -519  -553  -616  -693  -752  -784  -809  -834  -830  -780  -724  -709  -713  -689  -645  -617  -611  -612  -612  -605  -585  -555  -523  -485  -444  -414  -402  -401  -400  -397  -400  -426  -484  -568  -666  -761  -829  -859  -852  -825  -791  -758  -734  -725  -723  -714  -697  -688  -686  -665  -612  -551  -507  -478  -444  -414  -418  -482  -613  -757  -819  -750  -608  -496  -454  -453  -457  -451  -442  -454  -520  -654  -793  -837  -766  -643  -526  -441  -393  -375  -370  -370  -360  -331  -287  -255  -273  -361  -485  -570  -580  -554  -537  -536  -532  -505  -450  -377  -319  -326  -429  -588  -713  -758  -719  -595  -419  -257  -142  -63  0  58  97  102  59  -35  -166  -295  -393  -470  -542  -594  -618  -625  -627  -632  -657  -713  -784  -836  -851  -862  -956  -1193  -1424  -1339  -787  139  1378  2920  4593  5988  6589  6055  4408  2059  -303  -2080  -3075  -3399  -3199  -2646  -1986  -1467  -1205  -1104  -999  -853  -728  -637  -531  -393  -246  -111  16  132  206  224  199  157  143  188  289  405  484  515  537  567  574  546  521  567  730  970  1196  1370  1506  1614  1719  1854  2030  2219  2379  2468  2484  2455  2417  2390  2379  2376  2376  2377  2376  2372  2369  2377  2377  2290  2038  1667  1332  1100  888  646  437  300  197  88  -62  -266  -479  -630  -692  -701  -698  -695  -687  -701  -780  -897  -965  -948  -881  -811  -772  -756  -720  -628  -506  -417  -394  -415  -448  -484  -525  -573  -626  -674  -699  -694  -672  -637  -578  -493  -401  -323  -269  -242  -267  -361  -490  -599  -683  -745  -769  -739  -645  -522  -430  -391  -379  -376  -397  -452  -535  -624  -707  -778  -818  -806  -737  -641  -567  -536  -529  -521  -496  -458  -418  -374  -329  -299  -288  -286  -276  -257  -244  -262  -340  -489  -653  -754  -780  -765  -720  -636  -529  -443  -397  -368  -350  -374  -454  -553  -620  -642  -636  -606  -546  -465  -393  -366  -387  -419  -427  -421  -425  -431  -416  -385  -355  -335  -325  -328  -334  -301  -184  -7  149  232  247  209  116  -9  -124  -215  -301  -390  -497  -657  -846  -966  -957  -852  -714  -588  -507  -494  -554  -691  -901  -1137  -1302  -1235  -701  441  2081  3957  5737  6937  7048  5901  3795  1288  -971  -2449  -3068  -3093  -2738  -2167  -1617  -1242  -1008  -832  -696  -615  -583  -575  -573  -565  -535  -472  -396  -329  -247  -110  52  159  190  206  269  374  463  507  523  530  536  558  625  778  1012  1251  1423  1522  1576  1608  1638  1688  1758  1833  1897  1954  2035  2173  2347  2486  2555  2574  2579  2591  2605  2585  2486  2327  2177  2055  1929  1770  1527  1167  781  511  368  246  90  -62  -185  -319  -486  -639  -720  -733  -722  -714  -724  -757  -804  -838  -843  -817  -783  -776  -783  -759  -710  -683  -685  -693  -689  -675  -667  -683  -711  -711  -672  -628  -605  -595  -572  -512  -429  -368  -350  -361  -379  -400  -444  -522  -625  -725  -790  -798  -748  -655  -556  -487  -455  -443  -442  -460  -514  -591  -653  -676  -672  -665  -667  -680  -706  -739  -778  -825  -870  -887  -844  -727  -583  -492  -480  -511  -539  -548  -554  -581  -629  -674  -680  -653  -622  -587  -542  -501  -465  -418  -376  -379  -430  -484  -512  -516  -496  -447  -383  -337  -322  -328  -340  -359  -389  -420  -435  -436  -427  -392  -331  -280  -259  -254  -249  -235  -206  -167  -127  -93  -67  -57  -70  -96  -124  -145  -161  -173  -185  -207  -244  -292  -336  -365  -389  -427  -474  -512  -538  -556  -574  -613  -725  -958  -1255  -1429  -1284  -742  170  1436  3009  4751  6378  7312  7016  5511  3207  663  -1447  -2701  -3163  -3087  -2645  -1993  -1361  -945  -759  -694  -657  -613  -554  -473  -388  -320  -258  -197  -149  -120  -100  -85  -78  -69  -26  76  213  329  399  428  430  423  429  471  564  731  979  1246  1433  1518  1557  1586  1604  1623  1683  1827  2055  2299  2456  2507  2524  2572  2643  2693  2706  2699  2683  2644  2553  2392  2195  2032  1919  1795  1597  1325  1011  691  396  168  24  -96  -275  -486  -632  -671  -636  -564  -478  -409  -405  -503  -712  -995  -1248  -1342  -1240  -1033  -855  -756  -699  -651  -605  -571  -555  -552  -540  -503  -463  -457  -477  -476  -418  -327  -287  -366  -538  -722  -867  -951  -961  -903  -798  -680  -587  -534  -514  -516  -535  -564  -580  -577  -577  -592  -613  -627  -634  -660  -723  -779  -783  -739  -684  -646  -631  -630  -635  -645  -658  -666  -657  -622  -574  -535  -517  -520  -556  -632  -717  -756  -733  -683  -649  -640  -643  -657  -682  -706  -717  -717  -714  -712  -717  -727  -740  -752  -760  -760  -750  -734  -730  -748  -772  -780  -777  -778  -787  -796  -798  -790  -757  -701  -691  -771  -844  -788  -631  -496  -445  -450  -458  -446  -424  -396  -353  -255  -55  187  308  201  -60  -312  -461  -523  -552  -584  -631  -677  -700  -701  -696  -683  -647  -590  -537  -507  -491  -465  -432  -475  -708  -1070  -1287  -1121  -454  718  2276  4068  5824  6972  7012  5883  3802  1210  -1199  -2833  -3527  -3432  -2814  -2040  -1468  -1177  -993  -762  -498  -306  -230  -228  -267  -360  -499  -618  -611  -425  -154  37  91  74  74  140  274  442  592  673  670  617  576  582  629  728  905  1116  1268  1341  1410  1536  1689  1797  1859  1940  2098  2302  2465  2563  2632  2664  2637  2575  2523  2495  2482  2470  2431  2328  2153  1951  1797  1732  1731  1707  1547  1216  832  519  246  -85  -445  -697  -791  -794  -782  -775  -768  -763  -773  -800  -817  -806  -780  -765  -763  -764  -757  -736  -698  -636  -555  -508  -540  -598  -586  -495  -395  -337  -322  -328  -351  -398  -457  -500  -512  -501  -483  -464  -446  -442  -488  -602  -722  -742  -642  -517  -454  -463  -507  -554  -591  -618  -632  -629  -604  -561  -518  -490  -475  -463  -455  -462  -490  -530  -565  -597  -631  -663  -682  -688  -688  -681  -661  -621  -569  -528  -493  -435  -355  -292  -267  -267  -272  -279  -307  -373  -461  -526  -553  -563  -562  -542  -498  -448  -407  -365  -303  -234  -198  -220  -309  -417  -480  -490  -483  -479  -482  -491  -498  -492  -458  -395  -325  -258  -187  -98  12  134  252  369  453  416  222  -54  -301  -460  -532  -560  -582  -599  -596  -570  -541  -533  -534  -518  -489  -471  -481  -517  -549  -574  -664  -856  -981  -745  -8  1152  2568  4060  5383  6131  5869  4442  2154  -326  -2271  -3267  -3390  -3032  -2582  -2178  -1753  -1337  -1071  -955  -855  -680  -469  -324  -272  -244  -175  -75  -14  -29  -78  -111  -125  -132  -117  -46  89  260  439  605  727  782  780  752  736  800  1001  1284  1507  1597  1595  1572  1572  1623  1730  1866  1993  2098  2190  2268  2330  2383  2438  2512  2603  2669  2668  2583  2440  2307  2219  2112  1905  1608  1306  1046  827  654  516  369  173  -80  -334  -500  -564  -594  -629  -660  -677  -683  -685  -681  -665  -632  -588  -552  -533  -528  -528  -538  -563  -602  -640  -668  -680  -670  -634  -581  -528  -472  -416  -376  -365  -371  -376  -363  -328  -297  -310  -369  -435  -481  -518  -564  -600  -580  -491  -407  -426  -519  -585  -593  -560  -502  -451  -423  -418  -442  -502  -586  -671  -756  -835  -868  -838  -776  -724  -688  -664  -652  -651  -652  -625  -544  -442  -399  -457  -561  -622  -609  -555  -505  -478  -469  -468  -469  -475  -492  -526  -568  -595  -592  -557  -512  -477  -459  -475  -534  -596  -632  -656  -680  -692  -687  -679  -680  -686  -683  -672  -652  -603  -525  -436  -354  -286  -237  -214  -228  -265  -272  -213  -118  -41  4  28  36  33  25  7  -31  -107  -211  -317  -409  -482  -530  -557  -572  -592  -633  -682  -712  -725  -754  -819  -868  -843  -832  -946  -1021  -698  227  1697  3503  5295  6586  6981  6327  4649  2253  -190  -1998  -2885  -2971  -2580  -2063  -1625  -1278  -993  -800  -707  -674  -663  -657  -654  -652  -642  -589  -457  -280  -129  -23  62  130  183  241  307  359  392  414  436  463  501  558  650  763  863  984  1193  1455  1646  1723  1740  1767  1836  1932  2014  2080  2160  2267  2372  2443  2485  2544  2609  2604  2530  2443  2359  2285  2213  2090  1867  1578  1322  1172  1108  1040  891  628  298  23  -118  -178  -261  -422  -621  -773  -835  -838  -826  -822  -824  -807  -753  -664  -552  -447  -401  -442  -543  -662  -767  -831  -843  -821  -774  -691  -581  -477  -397  -340  -303  -292  -318  -370  -419  -446  -449  -441  -435  -450  -504  -585  -655  -694  -715  -740  -774  -783  -712  -561  -426  -393  -440  -489  -499  -481  -462  -467  -492  -520  -544  -575  -614  -645  -662  -667  -667  -668  -670  -664  -643  -605  -556  -512  -489  -494  -522  -565  -611  -643  -658  -661  -659  -643  -601  -541  -489  -468  -478  -492  -494  -489  -486  -487  -488  -480  -453  -412  -387  -399  -440  -511  -635  -790  -903  -945  -944  -924  -883  -814  -706  -566  -462  -451  -477  -474  -441  -393  -332  -239  -94  74  212  295  329  323  259  109  -96  -276  -381  -426  -437  -440  -458  -501  -563  -620  -650  -652  -639  -619  -588  -530  -446  -398  -500  -784  -1093  -1257  -1210  -747  450  2368  4578  6543  7652  7401  5818  3395  775  -1395  -2695  -3115  -2952  -2520  -2015  -1618  -1394  -1215  -978  -751  -641  -641  -670  -670  -626  -549  -465  -380  -285  -188  -115  -58  20  119  192  217  225  258  346  488  640  743  784  800  814  828  870  991  1193  1405  1575  1709  1815  1885  1928  1988  2102  2261  2403  2476  2486  2474  2468  2468  2471  2473  2472  2463  2436  2370  2230  1999  1710  1425  1192  1022  904  816  687  417  22  -330  -516  -576  -608  -641  -665  -680  -698  -735  -792  -840  -848  -823  -783  -730  -653  -567  -504  -478  -469  -468  -496  -581  -700  -793  -831  -831  -819  -797  -762  -723  -693  -652  -565  -449  -362  -324  -308  -292  -284  -308  -377  -466  -531  -566  -587  -593  -568  -526  -495  -484  -478  -476  -502  -586  -707  -804  -824  -765  -665  -582  -537  -505  -472  -441  -421  -425  -460  -523  -604  -685  -748  -783  -795  -802  -804  -773  -683  -562  -473  -443  -447  -453  -452  -445  -438  -446  -487  -554  -621  -667  -687  -680  -633  -527  -388  -289  -288  -388  -536  -653  -704  -707  -672  -593  -497  -455  -514  -640  -745  -774  -739  -680  -615  -547  -484  -449  -447  -466  -496  -520  -516  -461  -347  -209  -110  -68  -47  -6  41  19  -97  -221  -281  -298  -306  -311  -318  -356  -447  -561  -644  -684  -703  -724  -752  -772  -777  -791  -858  -997  -1165  -1307  -1360  -1197  -669  348  1904  3823  5701  7022  7297  6318  4267  1681  -685  -2275  -3027  -3203  -3073  -2761  -2297  -1709  -1128  -753  -643  -672  -722  -744  -709  -586  -401  -238  -153  -125  -105  -75  -50  -44  -58  -85  -101  -67  45  206  344  419  459  512  620  799  1005  1166  1273  1364  1449  1504  1533  1577  1683  1852  2045  2225  2364  2446  2484  2505  2525  2567  2653  2756  2802  2742  2605  2466  2366  2298  2233  2104  1820  1377  916  575  348  172  43  -29  -61  -82  -126  -210  -329  -459  -562  -610  -615  -611  -637  -722  -854  -975  -1037  -1049  -1047  -1048  -1042  -1003  -916  -800  -675  -555  -457  -392  -357  -342  -336  -335  -337  -341  -345  -348  -353  -380  -447  -534  -594  -610  -605  -603  -606  -595  -550  -472  -391  -349  -373  -466  -586  -671  -701  -704  -699  -677  -625  -548  -468  -398  -335  -277  -246  -291  -445  -659  -812  -827  -718  -565  -458  -428  -444  -470  -487  -494  -497  -488  -457  -409  -384  -406  -452  -489  -521  -553  -573  -568  -544  -529  -558  -642  -751  -840  -881  -877  -823  -693  -510  -364  -310  -331  -388  -440  -461  -447  -402  -334  -255  -186  -139  -113  -111  -143  -200  -235  -194  -90  2  37  23  -4  -28  -50  -73  -101  -141  -194  -268  -383  -521  -625  -665  -667  -663  -672  -691  -711  -718  -715  -717  -754  -821  -838  -723  -411  148  1015  2257  3790  5233  6017  5705  4294  2172  -52  -1796  -2821  -3196  -3103  -2756  -2285  -1747  -1274  -979  -843  -780  -747  -730  -711  -666  -565  -395  -206  -64  13  54  91  142  215  309  406  478  525  569  603  611  599  604  679  851  1073  1248  1327  1338  1338  1357  1394  1452  1582  1820  2089  2272  2358  2433  2551  2681  2757  2761  2724  2667  2588  2495  2415  2375  2382  2403  2362  2192  1922  1653  1431  1216  937  555  143  -151  -282  -322  -331  -332  -338  -360  -400  -459  -529  -576  -576  -558  -550  -552  -571  -643  -781  -921  -961  -887  -784  -714  -660  -583  -491  -444  -469  -509  -507  -474  -452  -449  -447  -432  -412  -421  -473  -531  -566  -587  -613  -639  -643  -594  -480  -347  -268  -279  -380  -538  -691  -795  -850  -842  -749  -605  -477  -396  -352  -306  -233  -197  -299  -532  -770  -890  -880  -807  -739  -698  -672  -633  -565  -475  -404  -402  -464  -539  -602  -653  -684  -693  -690  -687  -684  -668  -637  -602  -570  -538  -526  -547  -577  -586  -579  -576  -580  -578  -566  -557  -555  -548  -516  -448  -353  -274  -260  -316  -405  -500  -587  -645  -663  -638  -563  -455  -353  -265  -164  -43  73  159  209  224  187  68  -121  -324  -477  -543  -538  -523  -522  -514  -491  -472  -463  -456  -448  -450  -504  -654  -900  -1207  -1503  -1607  -1311  -547  687  2344  4162  5745  6719  6790  5834  3949  1511  -848  -2534  -3285  -3208  -2648  -2007  -1563  -1316  -1091  -829  -628  -548  -534  -510  -461  -414  -381  -344  -286  -213  -136  -47  51  129  166  168  156  147  166  233  340  452  556  661  764  850  909  949  986  1018  1050  1145  1402  1799  2161  2350  2394  2388  2378  2373  2371  2383  2418  2464  2498  2509  2509  2511  2520  2532  2537  2523  2459  2287  1949  1449  910  513  340  316  312  256  124  -84  -340  -570  -709  -757  -760  -760  -779  -828  -895  -951  -992  -1027  -1048  -1037  -982  -896  -801  -714  -639  -582  -551  -544  -551  -566  -580  -594  -618  -648  -680  -712  -728  -718  -687  -637  -568  -527  -557  -622  -665  -679  -674  -643  -578  -500  -449  -434  -430  -426  -426  -437  -453  -475  -516  -575  -625  -642  -613  -536  -434  -367  -387  -473  -570  -651  -715  -744  -730  -686  -619  -537  -471  -446  -458  -493  -522  -504  -425  -342  -349  -450  -546  -580  -572  -562  -576  -625  -699  -775  -836  -865  -846  -766  -656  -576  -557  -581  -621  -659  -695  -735  -754  -710  -605  -453  -262  -108  -119  -289  -463  -546  -555  -533  -501  -463  -407  -340  -285  -249  -206  -127  -19  80  144  161  138  105  63  -29  -194  -372  -493  -541  -544  -530  -520  -558  -672  -816  -902  -903  -874  -882  -966  -1152  -1405  -1592  -1482  -890  168  1563  3178  4891  6461  7377  7145  5662  3210  458  -1738  -2939  -3288  -3125  -2725  -2271  -1834  -1444  -1163  -994  -862  -722  -595  -514  -466  -414  -350  -281  -207  -146  -100  -49  4  32  31  32  59  126  228  317  347  349  368  441  597  810  1014  1182  1310  1395  1461  1527  1591  1679  1846  2106  2385  2587  2690  2739  2784  2805  2738  2594  2470  2416  2398  2381  2376  2393  2375  2260  2073  1884  1701  1439  1048  630  338  217  185  133  17  -153  -332  -466  -544  -595  -637  -663  -674  -693  -739  -801  -847  -864  -858  -829  -760  -646  -523  -445  -427  -445  -471  -486  -491  -491  -490  -484  -470  -450  -435  -430  -433  -442  -461  -494  -537  -570  -576  -555  -514  -468  -441  -437  -453  -507  -599  -682  -711  -697  -670  -651  -642  -640  -652  -693  -755  -797  -794  -762  -723  -687  -665  -662  -670  -674  -652  -586  -495  -429  -416  -452  -518  -584  -630  -669  -724  -794  -847  -843  -793  -744  -727  -730  -740  -749  -752  -740  -704  -652  -605  -570  -548  -547  -565  -590  -623  -672  -717  -713  -663  -614  -594  -595  -600  -600  -591  -579  -567  -554  -533  -504  -473  -442  -402  -349  -295  -257  -243  -246  -254  -255  -249  -243  -254  -300  -382  -467  -527  -562  -594  -651  -731  -800  -837  -861  -885  -913  -945  -954  -911  -855  -885  -1047  -1287  -1388  -1019  -45  1414  3194  5012  6343  6709  5981  4257  1867  -521  -2294  -3238  -3411  -3020  -2425  -1938  -1630  -1434  -1274  -1103  -952  -866  -826  -780  -695  -574  -441  -303  -155  -19  59  67  31  -17  -55  -80  -100  -114  -88  16  180  341  474  623  843  1113  1346  1499  1593  1641  1646  1629  1604  1573  1548  1572  1705  1953  2238  2486  2665  2749  2739  2694  2678  2706  2738  2728  2652  2478  2199  1874  1577  1342  1185  1104  1075  1036  894  615  256  -91  -346  -477  -534  -587  -648  -680  -679  -703  -766  -812  -811  -791  -778  -768  -744  -707  -679  -675  -687  -707  -728  -730  -679  -573  -464  -398  -372  -378  -416  -479  -532  -535  -472  -369  -265  -200  -189  -232  -315  -404  -461  -476  -465  -437  -400  -370  -373  -436  -564  -703  -778  -762  -690  -613  -565  -552  -563  -582  -585  -566  -555  -594  -687  -790  -843  -826  -763  -686  -603  -519  -454  -432  -466  -548  -644  -706  -716  -678  -609  -536  -489  -470  -468  -468  -467  -472  -496  -546  -610  -659  -688  -701  -685  -628  -549  -498  -494  -515  -542  -567  -569  -521  -430  -338  -280  -248  -220  -194  -180  -178  -173  -154  -124  -94  -78  -78  -90  -100  -108  -129  -184  -284  -396  -453  -421  -336  -265  -250  -310  -422  -513  -570  -671  -820  -929  -977  -1028  -1127  -1167  -906  -217  814  2149  3767  5371  6425  6463  5335  3297  867  -1351  -2885  -3605  -3616  -3100  -2330  -1616  -1113  -809  -650  -583  -560  -546  -522  -478  -437  -419  -403  -357  -273  -172  -89  -24  59  167  272  356  405  417  418  440  487  538  595  689  809  904  964  1044  1193  1401  1611  1774  1877  1940  2003  2085  2165  2224  2287  2399  2558  2696  2761  2774  2778  2783  2755  2640  2428  2189  1976  1744  1458  1188  992  833  653  458  283  122  -40  -186  -283  -325  -344  -390  -492  -618  -716  -775  -822  -878  -934  -969  -980  -983  -983  -971  -923  -827  -719  -641  -606  -612  -622  -592  -540  -509  -501  -484  -444  -414  -413  -411  -404  -426  -486  -568  -638  -672  -672  -656  -641  -637  -636  -615  -566  -511  -472  -455  -464  -493  -536  -599  -675  -755  -834  -877  -851  -768  -661  -582  -579  -616  -610  -560  -518  -496  -488  -498  -538  -598  -630  -612  -602  -613  -570  -464  -377  -352  -360  -361  -343  -312  -288  -302  -387  -523  -637  -691  -696  -673  -644  -629  -645  -687  -728  -747  -752  -754  -752  -730  -673  -579  -467  -371  -318  -307  -311  -305  -272  -215  -163  -129  -102  -76  -62  -67  -83  -95  -103  -123  -170  -237  -318  -432  -578  -707  -777  -792  -781  -751  -697  -627  -559  -514  -503  -553  -708  -947  -1156  -1178  -856  -62  1301  3189  5217  6732  7151  6277  4337  1856  -481  -2108  -2892  -3035  -2799  -2406  -1997  -1634  -1333  -1082  -863  -682  -548  -463  -413  -377  -370  -407  -462  -502  -501  -414  -207  55  247  314  306  285  282  309  366  454  561  661  740  819  942  1123  1331  1512  1620  1648  1643  1677  1799  1969  2096  2155  2204  2277  2330  2316  2266  2233  2227  2234  2244  2249  2240  2203  2132  2024  1879  1693  1466  1214  980  781  561  296  67  -48  -78  -103  -200  -408  -673  -883  -986  -1003  -964  -889  -812  -775  -800  -865  -938  -986  -967  -886  -792  -735  -727  -746  -761  -763  -768  -777  -763  -702  -607  -523  -488  -507  -551  -593  -633  -671  -697  -696  -673  -643  -604  -551  -478  -381  -268  -175  -163  -282  -509  -739  -875  -907  -866  -780  -684  -621  -603  -607  -613  -616  -618  -625  -636  -642  -636  -622  -607  -600  -601  -587  -558  -550  -586  -638  -672  -676  -654  -614  -566  -516  -485  -488  -507  -529  -561  -606  -654  -686  -687  -652  -593  -531  -489  -474  -491  -551  -645  -734  -771  -731  -631  -522  -450  -425  -426  -432  -436  -435  -430  -417  -393  -363  -333  -305  -280  -255  -190  -40  158  294  288  146  -71  -296  -473  -571  -599  -596  -588  -577  -563  -548  -535  -516  -496  -487  -500  -540  -648  -872  -1173  -1411  -1327  -633  769  2677  4681  6304  7103  6801  5459  3411  1112  -915  -2309  -3019  -3145  -2779  -2097  -1385  -892  -665  -600  -600  -614  -620  -594  -517  -412  -329  -281  -234  -164  -78  -5  34  48  51  47  36  33  82  218  397  532  610  695  823  974  1112  1230  1343  1455  1555  1652  1764  1875  1957  2017  2082  2165  2260  2351  2434  2522  2639  2780  2898  2932  2869  2763  2657  2512  2270  1951  1626  1347  1129  970  850  723  563  397  265  156  20  -164  -367  -541  -664  -734  -761  -762  -755  -761  -788  -821  -845  -858  -864  -867  -853  -815  -768  -743  -744  -752  -741  -706  -664  -632  -606  -568  -516  -473  -449  -435  -423  -418  -423  -435  -449  -460  -471  -482  -491  -503  -517  -520  -494  -443  -390  -359  -359  -383  -418  -453  -480  -499  -509  -513  -513  -512  -511  -512  -513  -518  -525  -532  -536  -542  -549  -558  -564  -565  -581  -634  -696  -724  -715  -697  -687  -683  -683  -690  -711  -740  -755  -741  -698  -618  -483  -318  -192  -146  -162  -228  -353  -529  -712  -838  -882  -862  -810  -741  -656  -557  -462  -398  -371  -362  -357  -354  -343  -313  -280  -281  -339  -416  -448  -424  -381  -336  -260  -103  145  362  378  207  19  -105  -209  -320  -419  -494  -550  -592  -629  -676  -724  -741  -708  -641  -609  -684  -836  -965  -1026  -1044  -1055  -1114  -1233  -1236  -786  364  2218  4482  6510  7513  7091  5418  2975  403  -1666  -2957  -3507  -3407  -2813  -2030  -1396  -1047  -892  -799  -709  -629  -557  -471  -368  -271  -204  -175  -176  -185  -164  -87  24  119  174  206  231  261  297  329  354  380  454  634  888  1096  1186  1196  1203  1258  1370  1528  1707  1854  1940  2006  2118  2263  2370  2416  2447  2498  2530  2503  2448  2410  2397  2397  2405  2408  2368  2214  1922  1594  1363  1254  1201  1128  962  679  361  122  -28  -169  -338  -499  -622  -704  -747  -751  -732  -710  -692  -680  -686  -719  -776  -846  -906  -940  -954  -962  -954  -885  -724  -504  -301  -189  -194  -265  -348  -445  -538  -589  -601  -602  -615  -636  -654  -657  -641  -602  -530  -439  -370  -348  -361  -391  -444  -539  -660  -751  -783  -763  -703  -621  -551  -522  -533  -565  -607  -635  -600  -495  -391  -345  -339  -336  -338  -381  -488  -621  -703  -710  -679  -652  -633  -617  -588  -542  -505  -516  -590  -703  -771  -747  -689  -671  -676  -638  -544  -440  -365  -322  -297  -262  -197  -126  -128  -251  -432  -562  -604  -601  -589  -565  -493  -346  -161  -28  14  6  -3  1  15  18  -3  -40  -84  -136  -194  -241  -263  -263  -265  -316  -455  -655  -837  -945  -958  -877  -750  -646  -592  -555  -534  -622  -891  -1185  -1159  -580  546  2110  3909  5577  6625  6617  5421  3285  765  -1406  -2714  -3170  -3089  -2756  -2349  -1909  -1384  -843  -476  -341  -329  -348  -389  -452  -485  -433  -313  -178  -73  -10  30  68  86  83  103  160  207  224  265  391  577  723  776  781  823  955  1156  1347  1465  1508  1519  1559  1676  1879  2108  2267  2329  2343  2358  2394  2444  2498  2560  2631  2687  2696  2626  2465  2266  2108  2011  1912  1731  1456  1147  852  589  382  227  89  -55  -206  -350  -472  -572  -662  -731  -761  -764  -797  -915  -1088  -1203  -1182  -1054  -892  -743  -630  -559  -529  -529  -539  -546  -574  -646  -745  -850  -944  -984  -920  -744  -525  -374  -339  -385  -453  -505  -538  -563  -574  -550  -491  -453  -499  -606  -691  -727  -742  -754  -762  -756  -734  -697  -642  -576  -525  -497  -487  -506  -553  -594  -601  -585  -567  -558  -561  -582  -624  -678  -721  -739  -741  -749  -766  -775  -766  -748  -740  -733  -698  -622  -535  -467  -431  -428  -444  -462  -473  -476  -489  -524  -557  -562  -534  -483  -435  -410  -401  -401  -425  -497  -604  -697  -733  -693  -583  -451  -360  -331  -338  -351  -357  -356  -349  -328  -267  -137  23  119  105  34  -24  -63  -105  -178  -291  -416  -511  -564  -594  -621  -648  -661  -636  -559  -448  -364  -369  -464  -630  -890  -1245  -1588  -1713  -1340  -300  1282  3127  4976  6496  7205  6776  5303  3072  524  -1612  -2834  -3210  -3011  -2506  -1926  -1396  -1009  -822  -770  -745  -703  -636  -529  -398  -297  -254  -255  -270  -277  -253  -177  -63  43  117  166  206  253  314  379  432  482  553  645  749  873  1018  1151  1258  1379  1515  1610  1632  1606  1592  1666  1872  2148  2370  2483  2523  2532  2521  2492  2471  2482  2512  2530  2514  2456  2373  2277  2135  1902  1608  1319  1034  740  499  367  296  177  -41  -298  -486  -571  -594  -592  -590  -629  -745  -901  -1012  -1026  -968  -896  -837  -794  -788  -827  -860  -825  -724  -635  -608  -597  -567  -544  -544  -551  -543  -516  -478  -437  -399  -374  -377  -418  -476  -514  -522  -523  -539  -560  -556  -522  -500  -523  -566  -585  -561  -494  -407  -339  -310  -312  -333  -371  -428  -497  -576  -649  -674  -633  -579  -584  -643  -704  -738  -745  -730  -700  -680  -685  -696  -680  -625  -557  -509  -495  -492  -483  -466  -458  -472  -494  -485  -431  -377  -379  -443  -520  -550  -540  -530  -524  -496  -440  -400  -418  -477  -527  -547  -552  -555  -538  -466  -341  -216  -146  -131  -136  -134  -120  -89  -33  38  94  114  91  26  -60  -123  -144  -139  -129  -122  -133  -175  -249  -331  -391  -424  -448  -472  -507  -566  -634  -690  -736  -779  -809  -822  -813  -796  -840  -978  -1081  -908  -196  1175  3018  4915  6407  7090  6777  5510  3445  972  -1298  -2928  -3727  -3651  -2941  -2072  -1399  -1003  -810  -733  -694  -651  -604  -573  -557  -532  -474  -392  -314  -240  -146  -54  -21  -48  -74  -48  38  149  250  332  382  413  479  615  790  941  1034  1098  1181  1315  1496  1691  1874  2045  2183  2260  2282  2285  2293  2308  2318  2329  2369  2451  2530  2541  2485  2429  2416  2438  2457  2407  2219  1896  1522  1190  960  828  710  537  339  168  3  -195  -388  -512  -556  -566  -609  -736  -936  -1106  -1131  -1036  -950  -933  -932  -856  -701  -551  -472  -453  -457  -468  -491  -531  -583  -626  -644  -628  -576  -513  -472  -460  -468  -491  -528  -567  -595  -610  -610  -575  -485  -384  -348  -397  -483  -559  -608  -635  -658  -707  -783  -822  -748  -587  -446  -380  -366  -374  -419  -529  -685  -814  -862  -826  -735  -635  -569  -550  -566  -610  -666  -706  -720  -723  -736  -747  -708  -610  -519  -481  -482  -495  -511  -533  -556  -574  -580  -565  -532  -480  -405  -345  -347  -415  -525  -634  -713  -774  -836  -886  -903  -885  -862  -854  -832  -744  -604  -491  -449  -440  -409  -351  -302  -293  -315  -339  -333  -291  -232  -177  -126  -76  -37  -21  -36  -84  -147  -205  -268  -366  -497  -618  -692  -711  -696  -668  -637  -590  -517  -436  -383  -378  -410  -467  -569  -777  -1094  -1386  -1437  -1040  -90  1353  3141  5016  6538  7192  6650  4944  2459  -156  -2215  -3330  -3567  -3252  -2696  -2095  -1536  -1047  -676  -474  -413  -423  -465  -516  -539  -471  -286  -55  99  133  102  71  55  42  25  33  97  201  300  376  455  580  736  860  926  960  980  997  1043  1156  1331  1500  1612  1670  1716  1790  1898  2032  2192  2365  2509  2605  2657  2680  2676  2641  2569  2475  2388  2341  2326  2274  2099  1807  1484  1184  903  641  400  164  -58  -236  -376  -522  -676  -781  -814  -817  -825  -830  -812  -770  -726  -697  -681  -679  -715  -812  -936  -989  -904  -726  -561  -475  -466  -498  -534  -532  -491  -454  -445  -455  -467  -462  -406  -278  -149  -140  -265  -441  -626  -802  -910  -906  -815  -701  -615  -557  -514  -496  -507  -525  -528  -507  -462  -414  -391  -406  -464  -552  -640  -707  -749  -771  -779  -776  -770  -768  -765  -741  -687  -611  -525  -457  -436  -476  -561  -642  -670  -632  -559  -511  -509  -504  -484  -477  -485  -513  -555  -570  -550  -527  -517  -512  -480  -403  -303  -222  -194  -217  -271  -347  -428  -492  -547  -621  -697  -698  -597  -494  -497  -581  -637  -601  -503  -414  -366  -344  -325  -311  -321  -375  -454  -503  -472  -357  -166  79  311  443  444  323  132  -38  -128  -158  -184  -223  -257  -272  -276  -275  -284  -334  -454  -608  -718  -753  -742  -718  -691  -648  -576  -531  -654  -951  -1174  -1054  -410  863  2668  4687  6467  7432  7187  5762  3468  873  -1314  -2728  -3394  -3435  -3058  -2481  -1819  -1221  -857  -701  -596  -468  -356  -299  -278  -264  -243  -221  -215  -226  -242  -248  -222  -136  14  182  292  320  311  326  396  494  566  592  612  688  846  1038  1188  1266  1301  1355  1482  1701  1963  2177  2286  2314  2325  2371  2473  2599  2695  2741  2754  2745  2705  2618  2494  2380  2306  2225  2048  1746  1403  1146  1024  983  937  819  621  364  48  -294  -577  -744  -807  -810  -800  -808  -837  -862  -848  -800  -760  -744  -730  -690  -632  -589  -575  -570  -555  -533  -532  -575  -640  -676  -660  -619  -591  -577  -555  -512  -464  -439  -435  -439  -459  -513  -589  -651  -677  -663  -617  -557  -509  -488  -493  -504  -506  -504  -503  -504  -506  -512  -515  -491  -417  -307  -212  -173  -198  -277  -387  -501  -597  -664  -708  -735  -752  -762  -758  -726  -640  -503  -368  -305  -326  -391  -458  -506  -528  -514  -472  -433  -412  -399  -376  -353  -362  -430  -539  -627  -647  -610  -560  -517  -479  -443  -400  -348  -314  -321  -366  -426  -484  -524  -533  -512  -492  -500  -537  -594  -661  -705  -687  -588  -442  -323  -272  -271  -283  -280  -248  -196  -149  -121  -110  -109  -132  -189  -259  -291  -261  -208  -176  -167  -154  -133  -118  -121  -158  -259  -452  -652  -700  -593  -472  -398  -353  -332  -327  -341  -402  -552  -773  -972  -1051  -1025  -1035  -1094  -917  -237  1011  2814  4879  6533  7142  6475  4713  2305  -159  -2096  -3179  -3462  -3176  -2578  -1961  -1509  -1197  -951  -775  -689  -667  -656  -608  -498  -363  -275  -249  -245  -223  -186  -156  -135  -104  -42  39  106  139  142  147  202  333  508  670  799  911  1033  1165  1280  1358  1407  1458  1533  1636  1757  1888  2033  2199  2350  2436  2456  2439  2407  2372  2350  2339  2328  2308  2271  2209  2126  2043  1978  1926  1839  1638  1304  919  595  359  183  40  -90  -236  -399  -559  -687  -758  -776  -779  -795  -818  -825  -818  -812  -810  -798  -768  -732  -701  -670  -630  -582  -544  -548  -604  -669  -708  -726  -728  -673  -518  -305  -146  -91  -111  -171  -246  -311  -348  -371  -413  -480  -535  -553  -550  -549  -559  -575  -600  -637  -671  -662  -581  -461  -379  -376  -427  -484  -521  -536  -537  -516  -458  -376  -308  -284  -325  -443  -596  -686  -659  -556  -459  -412  -410  -430  -464  -518  -584  -626  -624  -596  -578  -583  -597  -600  -583  -529  -426  -308  -230  -210  -219  -233  -250  -296  -396  -529  -646  -727  -794  -849  -845  -759  -650  -568  -492  -427  -410  -444  -498  -537  -552  -556  -552  -522  -456  -376  -309  -258  -230  -237  -263  -269  -231  -164  -99  -41  25  97  136  119  58  -38  -179  -339  -462  -522  -539  -547  -565  -595  -627  -655  -675  -683  -672  -643  -606  -566  -556  -669  -899  -1028  -807  -117  1047  2618  4403  6007  6892  6635  5164  2809  203  -1943  -3212  -3606  -3371  -2800  -2149  -1609  -1228  -924  -657  -459  -343  -301  -326  -384  -452  -519  -563  -560  -490  -356  -186  -28  69  95  79  64  94  203  363  503  594  658  716  787  884  986  1071  1152  1235  1309  1380  1480  1614  1745  1839  1926  2050  2195  2313  2403  2493  2591  2688  2766  2785  2732  2650  2589  2509  2316  2004  1666  1377  1173  1064  990  844  597  324  104  -43  -135  -187  -207  -217  -279  -441  -671  -872  -967  -956  -888  -807  -739  -704  -700  -708  -720  -741  -772  -800  -814  -806  -757  -644  -488  -361  -301  -276  -263  -270  -307  -356  -393  -426  -487  -577  -660  -710  -733  -743  -746  -720  -643  -537  -460  -438  -452  -472  -483  -481  -467  -456  -468  -506  -554  -594  -606  -596  -581  -572  -572  -578  -597  -642  -703  -751  -773  -767  -719  -615  -475  -375  -368  -413  -445  -446  -439  -456  -520  -617  -715  -790  -824  -812  -774  -741  -722  -712  -699  -671  -620  -540  -459  -410  -398  -400  -409  -440  -505  -570  -598  -600  -617  -651  -680  -694  -705  -723  -723  -668  -571  -489  -463  -481  -512  -507  -427  -293  -176  -123  -117  -125  -128  -120  -89  -26  49  104  114  84  25  -50  -141  -246  -349  -428  -470  -479  -482  -509  -572  -644  -680  -670  -644  -623  -616  -648  -783  -1050  -1347  -1485  -1331  -828  32  1213  2684  4373  5957  6851  6632  5344  3313  1002  -1063  -2546  -3347  -3462  -2985  -2152  -1329  -828  -645  -588  -588  -675  -798  -868  -842  -729  -583  -455  -333  -199  -93  -50  -57  -83  -79  6  164  321  408  429  427  428  441  480  561  688  828  936  1013  1106  1243  1418  1608  1780  1898  1945  1956  1996  2120  2340  2589  2752  2778  2717  2641  2593  2571  2556  2532  2480  2385  2249  2090  1916  1741  1581  1411  1161  821  486  246  101  -15  -165  -354  -550  -719  -826  -864  -865  -869  -884  -877  -804  -676  -554  -488  -471  -471  -476  -496  -538  -586  -631  -671  -687  -657  -604  -570  -569  -580  -582  -583  -610  -664  -703  -686  -616  -534  -460  -398  -347  -315  -311  -320  -319  -309  -301  -296  -305  -348  -434  -535  -600  -606  -577  -549  -548  -562  -572  -572  -572  -581  -602  -620  -618  -601  -593  -600  -597  -573  -558  -568  -575  -545  -493  -463  -466  -481  -493  -507  -526  -542  -545  -536  -527  -526  -534  -545  -557  -567  -578  -586  -567  -515  -464  -459  -489  -530  -575  -607  -610  -595  -575  -556  -540  -526  -514  -510  -510  -496  -457  -400  -338  -283  -241  -205  -176  -157  -122  -55  18  79  139  211  284  333  354  361  356  324  227  41  -180  -343  -423  -473  -528  -571  -575  -523  -409  -246  -89  -19  -64  -193  -364  -518  -606  -677  -776  -742  -212  1042  2853  4809  6420  7144  6649  5059  2797  391  -1560  -2685  -3078  -2997  -2609  -2114  -1637  -1124  -628  -331  -267  -311  -349  -305  -143  79  243  298  285  249  210  190  222  335  509  667  748  760  746  739  760  827  941  1064  1145  1174  1182  1210  1305  1506  1779  2026  2183  2267  2314  2351  2398  2456  2526  2622  2734  2817  2851  2857  2866  2891  2929  2970  2972  2886  2711  2494  2272  2062  1882  1717  1503  1207  875  571  338  201  149  141  139  120  80  18  -87  -256  -448  -579  -620  -615  -604  -598  -581  -547  -507  -458  -383  -300  -243  -220  -217  -229  -254  -290  -329  -350  -336  -302  -264  -220  -173  -129  -105  -104  -112  -143  -217  -307  -376  -422  -453  -478  -515  -588  -680  -746  -767  -765  -760  -761  -764  -768  -773  -778  -775  -753  -707  -644  -581  -538  -526  -547  -601  -667  -714  -752  -823  -938  -1058  -1138  -1161  -1135  -1079  -1010  -944  -888  -834  -805  -819  -865  -929  -995  -1038  -1059  -1085  -1133  -1189  -1237  -1280  -1319  -1344  -1347  -1332  -1312  -1291  -1279  -1303  -1390  -1526  -1675  -1795  -1846  -1813  -1717  -1550  -1262  -857]
