reading_id,reading_time,wire_id,result_classification,heart_rate,heart_rate_alert,firmware_version,device_app_version,hardware_version,waveform_samples
051fd9a0-4f1e-11ed-8080-808080808080,Tue Oct 18 19:49:47 UTC 2022,2101e3d81839,NSR,61,NONE,20001.171.50,2.10.0,Charge 5,[-14657  -17108  -18206  -17713  -16462  -15388  -14637  -13611  -11775  -9130  -6004  -2898  -468  894  1338  1269  997  686  465  520  1064  2140  3483  4744  5774  6680  7645  8662  9591  10406  11160  11823  12370  12878  13420  13940  14299  14455  14489  14507  14624  14971  15566  16315  17166  18003  18606  18926  19128  19362  19652  19949  20243  20565  20900  21164  21296  21322  21311  21304  21304  21303  21301  21310  21349  21422  21473  21450  21398  21374  21353  21336  21378  21461  21491  21343  20938  20332  19656  18988  18392  17966  17750  17665  17590  17467  17271  16949  16485  15966  15521  15179  14777  14150  13404  12792  12421  12238  12160  12106  12009  11851  11618  11292  10924  10636  10501  10488  10527  10547  10486  10342  10167  9963  9713  9447  9204  8998  8775  8435  8015  7698  7579  7597  7662  7730  7784  7795  7709  7509  7204  6778  6247  5743  5413  5271  5223  5195  5181  5179  5160  5087  4970  4855  4757  4623  4374  3998  3598  3297  3110  2964  2818  2693  2561  2338  2039  1795  1674  1635  1619  1592  1547  1502  1482  1466  1341  990  500  87  -184  -383  -518  -576  -606  -661  -753  -849  -907  -952  -1081  -1347  -1659  -1858  -1867  -1741  -1639  -1674  -1826  -2086  -2483  -2917  -3208  -3306  -3293  -3239  -3153  -3040  -2948  -2940  -3018  -3136  -3244  -3317  -3344  -3339  -3318  -3298  -3285  -3258  -3178  -3058  -2964  -2948  -2984  -3031  -3073  -3097  -3106  -3157  -3311  -3529  -3698  -3767  -3774  -3761  -3738  -3714  -3722  -3815  -4047  -4436  -4876  -5144  -5004  -4383  -3539  -2924  -2886  -3459  -4231  -4591  -4208  -3131  -1555  226  1542  1608  310  -1779  -3909  -5439  -6111  -6112  -5855  -5685  -5590  -5377  -5080  -4863  -4739  -4640  -4555  -4502  -4462  -4383  -4199  -3881  -3496  -3188  -3043  -3023  -3047  -3066  -3057  -3009  -2935  -2874  -2849  -2852  -2859  -2846  -2799  -2736  -2696  -2682  -2644  -2533  -2364  -2196  -2027  -1791  -1428  -924  -315  268  636  729  648  508  360  220  104  60  174  490  903  1205  1290  1208  1055  902  803  764  763  781  792  751  619  419  235  85  -117  -423  -775  -1089  -1334  -1521  -1660  -1746  -1779  -1779  -1774  -1756  -1739  -1766  -1798  -1761  -1667  -1513  -1235  -889  -672  -694  -869  -1051  -1190  -1334  -1512  -1674  -1746  -1704  -1565  -1368  -1172  -1049  -1017  -1042  -1089  -1141  -1162  -1053  -723  -272  44  78  -130  -466  -786  -982  -1046  -1035  -1017  -1025  -1016  -942  -808  -667  -580  -539  -489  -425  -396  -422  -463  -479  -474  -480  -506  -534  -554  -577  -607  -614  -518  -239  160  497  666  705  678  597  449  271  143  97  107  160  254  355  394  334  218  140  146  192  225  238  236  212  148  56  -29  -93  -144  -182  -196  -195  -212  -252  -253  -157  0  128  185  181  98  -95  -361  -598  -736  -779  -757  -683  -536  -299  8  303  473  454  251  -33  -251  -335  -331  -287  -209  -99  16  91  96  56  27  30  48  70  96  97  -11  -274  -564  -707  -731  -778  -851  -834  -701  -555  -447  -265  84  392  301  -175  -567  -335  792  2534  4153  5081  5097  4184  2641  892  -823  -2206  -2976  -3236  -3098  -2490  -1638  -984  -641  -444  -304  -221  -189  -190  -216  -251  -267  -250  -233  -220  -157  4  225  394  441  401  347  315  304  331  438  624  812  922  952  955  973  1009  1055  1149  1355  1649  1906  2032  2031  1958  1889  1887  1950  2023  2052  2023  1965  1924  1943  2082  2363  2717  3022  3190  3224  3155  2970  2654  2285  1990  1784  1603  1433  1260  1005  638  276  45  -101  -304  -604  -922  -1169  -1289  -1235  -998  -679  -447  -364  -378  -445  -550  -627  -605  -533  -510  -581  -720  -847  -908  -924  -926  -927  -943  -981  -1031  -1073  -1084  -1023  -894  -762  -677  -640  -634  -661  -750  -916  -1066  -1040  -827  -597  -474  -442  -459  -537  -702  -864  -876  -749  -641  -629  -687  -789  -930  -1081  -1174  -1129  -917  -626  -414  -343  -351  -380  -420  -456  -435  -348  -296  -385  -588  -780  -880  -901  -883  -830  -728  -595  -478  -397  -349  -366  -458  -571  -656  -689  -660  -582  -471  -349  -260  -229  -260  -356  -489  -596  -636  -631  -634  -666  -699  -718  -739  -778  -829  -859  -827  -707  -523  -357  -281  -272  -267  -250  -241  -247  -259  -273  -293  -328  -392  -472  -504  -433  -294  -150  -38  23  35  28  34  67  94  38  -120  -305  -440  -512  -534  -530  -536  -579  -657  -738  -805  -880  -970  -1028  -992  -854  -676  -523  -392  -251  -69  185  555  1145  2093  3328  4477  5054  4720  3488  1713  -187  -1899  -3108  -3558  -3303  -2698  -2070  -1511  -1048  -760  -641  -596  -562  -524  -442  -279  -77  67  121  135  155  179  200  224  249  246  189  99  23  -7  20  126  291  438  514  549  635  831  1133  1480  1741  1779  1627  1464  1388  1382  1458  1660  1947  2187  2306  2332  2321  2327  2423  2649  2933  3139  3201  3129  2966  2794  2687  2630  2554  2387  2091  1700  1316  1052  925  845  725  538  300  39  -214  -424  -545  -571  -543  -514  -534  -629  -779  -946  -1105  -1257  -1385  -1407  -1260  -1042  -902  -867  -879  -892  -900  -913  -937  -966  -989  -995  -980  -956  -942  -937  -915  -853  -781  -779  -887  -1030  -1104  -1103  -1086  -1079  -1050  -967  -845  -743  -691  -694  -747  -814  -855  -862  -866  -899  -949  -944  -834  -685  -590  -573  -596  -627  -649  -663  -666  -635  -544  -420  -323  -280  -277  -319  -426  -577  -700  -747  -712  -605  -455  -307  -190  -97  4  114  171  133  32  -68  -154  -248  -347  -437  -503  -485  -357  -193  -81  -74  -186  -401  -644  -817  -881  -859  -755  -560  -318  -138  -114  -225  -389  -570  -746  -875  -953  -1011  -1042  -983  -783  -507  -307  -257  -314  -399  -458  -481  -479  -449  -380  -297  -248  -226  -142  62  267  260  33  -205  -314  -322  -303  -282  -253  -219  -194  -187  -189  -188  -174  -148  -119  -93  -97  -176  -336  -485  -489  -304  88  831  2057  3593  4903  5394  4755  3161  1241  -410  -1663  -2624  -3249  -3410  -3155  -2585  -1801  -1078  -655  -493  -466  -497  -518  -450  -267  -28  180  307  368  435  528  557  444  260  130  101  141  225  359  523  662  761  831  864  857  824  799  840  1003  1273  1574  1822  1962  2007  2038  2126  2261  2377  2435  2457  2473  2476  2438  2357  2291  2324  2467  2636  2742  2780  2793  2798  2747  2559  2220  1818  1464  1198  992  827  717  659  603  436  75  -383  -745  -911  -881  -733  -613  -589  -609  -619  -610  -608  -663  -808  -993  -1124  -1169  -1167  -1144  -1094  -1004  -886  -771  -697  -669  -665  -665  -663  -661  -664  -683  -715  -728  -699  -654  -634  -656  -693  -696  -638  -531  -412  -356  -398  -463  -468  -419  -373  -360  -367  -365  -324  -233  -136  -127  -248  -414  -511  -509  -446  -384  -385  -450  -523  -574  -619  -670  -713  -738  -740  -725  -703  -690  -693  -708  -718  -677  -542  -345  -189  -132  -133  -148  -193  -292  -439  -609  -794  -1006  -1227  -1367  -1335  -1111  -801  -564  -428  -297  -160  -98  -128  -203  -295  -374  -408  -388  -322  -242  -205  -240  -312  -367  -390  -409  -440  -455  -420  -353  -291  -252  -238  -240  -239  -212  -163  -125  -103  -75  -36  1  18  0  -31  -55  -106  -234  -413  -560  -629  -633  -606  -584  -569  -539  -505  -483  -460  -422  -403  -458  -583  -734  -892  -999  -943  -676  -178  566  1490  2591  3868  4857  4860  3732  1865  -188  -1803  -2615  -2816  -2784  -2639  -2344  -1928  -1490  -1125  -852  -645  -496  -380  -237  -73  27  20  -47  -105  -130  -134  -126  -86  -12  40  17  -17  35  166  285  337  340  381  538  790  1014  1123  1139  1124  1115  1111  1098  1093  1163  1377  1692  1972  2127  2150  2067  1979  2030  2241  2490  2673  2779  2842  2881  2871  2782  2647  2529  2435  2322  2154  1970  1841  1743  1556  1190  683  201  -79  -146  -127  -140  -197  -233  -255  -375  -601  -788  -863  -870  -857  -836  -810  -807  -844  -871  -831  -754  -702  -687  -679  -641  -554  -446  -369  -338  -326  -314  -299  -264  -187  -89  -17  20  67  132  146  15  -266  -614  -919  -1102  -1168  -1163  -1092  -925  -711  -554  -494  -487  -493  -504  -526  -552  -572  -599  -662  -753  -817  -798  -677  -505  -362  -274  -231  -243  -323  -446  -561  -648  -722  -767  -739  -640  -523  -435  -386  -375  -409  -466  -518  -562  -607  -649  -650  -573  -429  -286  -191  -141  -131  -190  -343  -543  -681  -688  -566  -380  -219  -144  -168  -265  -372  -430  -434  -421  -428  -465  -518  -567  -602  -612  -570  -461  -324  -228  -192  -180  -170  -179  -230  -305  -354  -354  -331  -312  -301  -300  -336  -431  -550  -634  -671  -684  -676  -640  -589  -562  -603  -689  -734  -685  -515  -276  -211  -458  -729  -700  -378  152  930  1960  3141  4159  4531  4024  2771  1082  -541  -1745  -2572  -3040  -3046  -2701  -2203  -1653  -1179  -880  -724  -635  -580  -529  -448  -342  -275  -295  -349  -335  -217  -78  -25  -25  17  110  228  389  576  709  756  743  696  622  534  470  485  594  745  878  979  1067  1141  1184  1207  1264  1401  1586  1769  2016  2414  2852  3095  3044  2791  2482  2223  2088  2106  2243  2395  2463  2435  2347  2233  2121  1991  1810  1596  1371  1117  814  476  161  -62  -207  -323  -426  -505  -550  -574  -584  -567  -525  -523  -626  -813  -999  -1113  -1111  -983  -795  -653  -601  -605  -645  -724  -822  -880  -856  -751  -598  -450  -339  -273  -253  -274  -325  -388  -449  -492  -505  -481  -431  -393  -407  -471  -565  -656  -715  -733  -733  -732  -736  -740  -720  -654  -547  -434  -348  -297  -272  -268  -324  -504  -775  -1002  -1108  -1116  -1044  -866  -591  -320  -169  -190  -376  -649  -871  -952  -896  -759  -616  -536  -543  -628  -740  -822  -853  -851  -823  -763  -689  -652  -678  -712  -652  -491  -354  -309  -317  -355  -417  -469  -486  -479  -468  -457  -436  -400  -375  -396  -482  -617  -738  -774  -745  -717  -694  -632  -524  -426  -386  -393  -405  -386  -317  -227  -182  -225  -330  -453  -588  -738  -872  -947  -946  -862  -711  -555  -454  -418  -418  -419  -402  -381  -405  -469  -456  -410  -489  -479  48  1190  2719  4231  5130  4898  3569  1645  -346  -1890  -2588  -2541  -2212  -1946  -1813  -1720  -1569  -1305  -977  -714  -570  -486  -398  -299  -212  -137  -48  60  172  243  236  177  145  170  219  251  262  279  313  344  352  344  375  507  735  984  1221  1470  1699  1840  1881  1876  1880  1921  1989  2051  2088  2122  2186  2280  2386  2486  2522  2469  2417  2450  2530  2608  2695  2786  2839  2797  2640  2420  2209  2019  1817  1574  1261  861  448  159  48  41  10  -114  -286  -409  -476  -560  -675  -766  -809  -834  -857  -864  -843  -808  -784  -773  -763  -739  -698  -638  -571  -526  -546  -657  -831  -984  -1068  -1093  -1061  -913  -602  -237  -44  -127  -364  -557  -630  -630  -616  -606  -598  -597  -598  -594  -582  -567  -544  -505  -452  -412  -399  -391  -377  -367  -364  -366  -373  -388  -409  -431  -441  -439  -439  -468  -542  -633  -676  -640  -562  -491  -420  -338  -295  -335  -439  -561  -689  -807  -853  -805  -733  -706  -697  -652  -584  -513  -433  -357  -316  -320  -359  -414  -460  -483  -485  -476  -468  -471  -519  -652  -848  -1018  -1102  -1111  -1065  -966  -845  -761  -742  -762  -776  -734  -609  -444  -325  -287  -293  -300  -290  -272  -261  -258  -244  -201  -129  -26  131  328  483  527  421  146  -210  -490  -622  -658  -658  -655  -662  -673  -672  -656  -633  -600  -553  -483  -399  -380  -532  -774  -830  -507  205  1153  2144  3184  4188  4668  4268  3106  1383  -621  -2351  -3356  -3621  -3289  -2530  -1687  -1085  -792  -689  -640  -594  -569  -553  -463  -246  -33  -44  -282  -514  -560  -415  -189  4  150  296  441  538  568  542  470  375  310  324  436  601  742  816  842  862  908  968  1006  1013  1022  1077  1197  1392  1662  1948  2177  2352  2521  2683  2785  2810  2789  2757  2740  2743  2744  2719  2655  2523  2284  1950  1630  1445  1384  1346  1270  1185  1130  1080  932  557  -11  -520  -768  -804  -773  -755  -760  -767  -751  -698  -610  -516  -449  -418  -404  -397  -399  -411  -426  -437  -440  -440  -442  -448  -452  -428  -355  -253  -177  -155  -180  -240  -337  -451  -516  -492  -420  -354  -305  -254  -172  -59  37  75  49  -16  -104  -244  -439  -594  -602  -451  -218  -21  73  87  76  70  70  64  33  -24  -73  -91  -103  -116  -120  -125  -128  -99  -18  96  194  238  232  206  188  192  214  237  256  281  308  317  310  306  306  298  284  275  272  273  272  267  263  275  322  406  501  570  586  544  437  237  -12  -194  -249  -204  -95  57  204  281  282  277  329  433  531  577  552  458  334  244  217  238  286  337  358  322  230  121  47  18  20  52  120  205  266  286  280  274  296  364  443  443  295  63  -117  -204  -265  -352  -438  -473  -438  -356  -272  -208  -170  -186  -291  -482  -730  -981  -1153  -1139  -949  -839  -913  -873  -483  266  1341  2502  3411  3857  3664  2824  1527  -96  -1845  -3262  -3957  -3861  -3196  -2405  -1886  -1655  -1519  -1421  -1368  -1316  -1221  -1072  -894  -745  -663  -639  -619  -553  -444  -337  -264  -232  -235  -267  -318  -366  -386  -364  -307  -233  -144  -18  134  266  347  383  378  318  211  155  273  576  927  1156  1236  1300  1474  1765  2061  2250  2336  2392  2453  2504  2521  2501  2457  2417  2397  2390  2381  2370  2349  2274  2068  1685  1164  662  353  270  285  241  60  -214  -461  -605  -667  -681  -655  -614  -588  -585  -600  -623  -652  -682  -711  -745  -799  -870  -940  -987  -1009  -1023  -1033  -1019  -949  -810  -651  -556  -554  -620  -721  -809  -853  -868  -867  -808  -647  -431  -289  -285  -358  -419  -435  -434  -469  -577  -730  -839  -820  -658  -432  -271  -227  -263  -319  -359  -370  -348  -281  -164  -19  102  157  138  64  -43  -155  -238  -267  -240  -191  -159  -166  -220  -296  -350  -368  -367  -360  -354  -344  -320  -284  -245  -200  -134  -48  46  140  214  238  174  -35  -358  -633  -730  -672  -566  -469  -374  -297  -277  -305  -330  -306  -240  -177  -121  -42  30  16  -117  -303  -431  -478  -527  -646  -779  -832  -806  -767  -753  -757  -743  -661  -501  -319  -193  -147  -163  -230  -349  -493  -596  -632  -626  -604  -564  -492  -391  -296  -242  -225  -221  -211  -179  -130  -105  -138  -202  -238  -234  -262  -393  -580  -698  -703  -680  -711  -779  -809  -785  -761  -769  -769  -727  -652  -574  -528  -553  -678  -875  -1087  -1256  -1282  -1092  -739  -249  532  1673  2880  3755  4045  3652  2710  1448  -7  -1463  -2585  -3209  -3307  -2800  -1900  -1158  -867  -853  -881  -892  -889  -811  -586  -263  7  147  182  137  18  -135  -246  -283  -267  -225  -174  -136  -127  -144  -156  -96  85  336  530  631  721  855  1012  1178  1344  1462  1507  1497  1446  1370  1307  1308  1424  1664  1960  2195  2311  2333  2314  2292  2290  2340  2469  2645  2780  2810  2759  2675  2552  2353  2094  1841  1644  1502  1372  1209  1021  837  630  362  88  -76  -104  -81  -132  -337  -633  -864  -954  -937  -858  -740  -617  -504  -394  -306  -269  -249  -203  -171  -205  -270  -319  -349  -357  -331  -294  -288  -328  -390  -440  -465  -466  -424  -319  -193  -119  -101  -104  -132  -188  -237  -261  -273  -289  -301  -289  -238  -160  -91  -64  -128  -321  -584  -778  -828  -770  -687  -641  -647  -660  -597  -400  -128  77  168  193  174  51  -225  -571  -825  -924  -918  -833  -659  -441  -282  -211  -175  -133  -96  -90  -129  -214  -335  -458  -535  -523  -412  -242  -79  42  123  150  125  83  50  11  -50  -124  -189  -227  -241  -244  -239  -206  -133  -73  -104  -219  -328  -374  -369  -336  -288  -248  -240  -242  -219  -186  -194  -262  -358  -427  -468  -529  -630  -722  -739  -654  -502  -328  -135  69  202  150  -135  -538  -824  -826  -548  -160  118  210  184  111  13  -109  -251  -360  -372  -306  -234  -163  -42  113  185  61  -243  -569  -761  -806  -791  -782  -787  -781  -752  -714  -661  -516  -226  65  116  -81  -158  326  1454  2949  4347  5001  4456  2904  935  -890  -2097  -2498  -2403  -2276  -2273  -2258  -2069  -1720  -1362  -1085  -857  -638  -433  -242  -56  101  193  187  84  -64  -179  -195  -129  -51  15  109  257  445  620  723  739  722  748  853  1015  1169  1263  1284  1252  1209  1200  1262  1402  1567  1678  1698  1664  1655  1780  2102  2527  2861  3018  3056  3065  3082  3099  3106  3105  3064  2931  2737  2586  2521  2472  2350  2106  1737  1320  1006  906  979  1046  956  732  494  321  217  162  142  152  184  201  102  -200  -617  -921  -1004  -933  -819  -736  -707  -713  -737  -765  -773  -714  -568  -428  -405  -430  -360  -220  -103  -29  2  -53  -235  -485  -675  -739  -694  -568  -421  -358  -435  -595  -723  -771  -773  -759  -702  -566  -390  -281  -294  -355  -366  -328  -341  -466  -639  -782  -880  -942  -975  -976  -897  -688  -407  -208  -186  -317  -502  -634  -679  -672  -638  -582  -536  -559  -680  -858  -996  -998  -851  -637  -463  -396  -432  -537  -707  -917  -1090  -1161  -1078  -802  -417  -128  -47  -106  -189  -270  -379  -504  -581  -589  -581  -593  -606  -597  -566  -536  -528  -536  -538  -501  -405  -288  -258  -385  -609  -796  -880  -882  -825  -719  -620  -601  -645  -645  -507  -255  -65  -63  -165  -240  -259  -257  -258  -272  -285  -278  -234  -165  -148  -233  -358  -461  -562  -670  -740  -746  -706  -657  -612  -517  -309  -45  115  96  -64  -294  -535  -754  -833  -604  -123  303  462  480  770  1653  2963  4073  4346  3565  2011  221  -1311  -2296  -2756  -2858  -2614  -2005  -1272  -763  -556  -482  -421  -367  -338  -329  -329  -324  -297  -229  -122  -5  96  194  297  383  401  325  196  94  97  234  419  521  521  486  454  441  492  661  920  1159  1297  1339  1331  1322  1333  1350  1356  1380  1482  1685  1916  2083  2197  2352  2574  2781  2903  2941  2903  2759  2500  2231  2111  2181  2299  2288  2129  1923  1716  1523  1383  1277  1097  767  342  -41  -295  -436  -515  -551  -557  -552  -553  -566  -583  -585  -559  -517  -486  -476  -464  -421  -357  -333  -414  -566  -616  -460  -225  -79  -40  -48  -53  -38  -19  -31  -102  -238  -377  -407  -316  -210  -162  -155  -164  -209  -342  -542  -648  -552  -382  -292  -282  -288  -292  -326  -422  -563  -694  -781  -824  -839  -830  -771  -640  -474  -344  -270  -230  -228  -279  -359  -413  -417  -397  -418  -563  -838  -1116  -1239  -1161  -979  -804  -664  -561  -525  -546  -573  -587  -597  -608  -603  -548  -432  -307  -244  -242  -260  -270  -259  -222  -175  -152  -210  -395  -652  -835  -851  -712  -518  -379  -328  -317  -307  -303  -305  -272  -186  -119  -156  -317  -585  -893  -1097  -1104  -939  -703  -471  -233  13  188  246  240  230  237  241  176  -21  -315  -565  -662  -617  -530  -480  -476  -506  -553  -593  -610  -599  -573  -558  -558  -527  -450  -425  -477  -431  -279  -284  -459  -398  240  1435  2922  4151  4396  3460  1937  489  -595  -1255  -1717  -2262  -2761  -2877  -2550  -2054  -1657  -1360  -1026  -655  -373  -227  -177  -192  -210  -186  -170  -191  -207  -182  -109  -16  50  62  23  -27  -5  147  357  499  544  534  503  481  510  617  759  856  885  917  1022  1187  1358  1541  1790  2067  2256  2316  2316  2325  2351  2373  2396  2459  2577  2707  2779  2748  2642  2524  2425  2345  2289  2241  2140  1927  1644  1377  1123  815  471  179  -9  -109  -145  -143  -131  -135  -178  -281  -473  -761  -1040  -1169  -1127  -995  -878  -845  -856  -831  -768  -692  -602  -510  -432  -346  -240  -170  -195  -296  -386  -417  -411  -400  -396  -391  -377  -364  -377  -430  -487  -486  -442  -436  -495  -570  -618  -642  -663  -676  -662  -622  -581  -562  -568  -601  -668  -742  -751  -652  -491  -364  -310  -288  -253  -212  -222  -318  -456  -557  -591  -590  -588  -594  -598  -573  -498  -404  -361  -402  -470  -497  -492  -510  -565  -641  -725  -804  -879  -939  -914  -741  -476  -266  -184  -190  -229  -276  -327  -386  -447  -489  -496  -464  -408  -370  -369  -375  -374  -375  -387  -421  -466  -497  -505  -498  -485  -490  -491  -440  -356  -302  -298  -322  -342  -347  -348  -333  -260  -136  -26  22  29  38  26  -85  -322  -590  -747  -727  -579  -404  -272  -204  -185  -190  -208  -250  -329  -438  -529  -560  -564  -581  -555  -405  -148  267  1068  2313  3712  4811  5138  4427  2856  907  -924  -2262  -2974  -3187  -2991  -2421  -1739  -1246  -975  -796  -630  -488  -401  -351  -294  -227  -184  -174  -160  -99  11  132  220  262  267  253  237  239  271  319  356  383  419  469  520  573  623  652  661  696  797  958  1138  1320  1489  1618  1717  1819  1942  2095  2245  2333  2371  2397  2394  2362  2354  2417  2543  2635  2595  2464  2344  2255  2157  2025  1858  1686  1546  1402  1119  634  110  -218  -308  -285  -260  -269  -318  -406  -504  -566  -581  -586  -626  -713  -817  -898  -938  -949  -959  -970  -942  -817  -591  -357  -220  -223  -359  -577  -762  -801  -693  -540  -403  -261  -141  -89  -85  -71  -29  7  -3  -79  -236  -457  -657  -760  -768  -725  -668  -617  -583  -565  -565  -584  -626  -690  -762  -799  -773  -698  -604  -511  -450  -433  -441  -450  -443  -403  -340  -298  -359  -577  -879  -1097  -1145  -1062  -934  -817  -709  -605  -533  -496  -461  -415  -378  -363  -362  -367  -385  -423  -490  -598  -750  -902  -969  -911  -784  -665  -589  -567  -591  -626  -640  -629  -615  -616  -611  -575  -536  -503  -472  -468  -474  -432  -353  -276  -204  -145  -119  -165  -326  -569  -776  -854  -803  -690  -584  -512  -456  -369  -220  -38  107  184  209  202  156  49  -99  -224  -280  -277  -253  -254  -289  -336  -388  -474  -610  -775  -928  -1041  -1118  -1144  -1081  -951  -773  -422  257  1229  2331  3467  4469  4919  4448  3146  1469  -203  -1605  -2428  -2639  -2584  -2467  -2175  -1682  -1187  -855  -703  -671  -683  -656  -528  -328  -159  -81  -53  -2  85  174  238  293  364  428  425  337  208  95  33  38  120  276  485  702  860  938  999  1087  1165  1196  1197  1198  1219  1284  1424  1623  1813  1978  2162  2359  2513  2613  2680  2704  2680  2649  2647  2681  2714  2678  2530  2312  2121  1990  1862  1714  1588  1503  1433  1328  1123  800  433  117  -122  -310  -461  -568  -645  -722  -806  -882  -920  -876  -727  -545  -455  -511  -644  -748  -785  -785  -777  -761  -739  -735  -792  -915  -1032  -1050  -947  -772  -593  -467  -415  -412  -422  -428  -432  -436  -440  -452  -503  -620  -768  -883  -942  -944  -834  -559  -238  -94  -170  -302  -365  -365  -345  -327  -313  -311  -352  -462  -609  -716  -739  -696  -623  -542  -450  -361  -333  -392  -440  -362  -195  -102  -169  -312  -412  -449  -471  -489  -454  -349  -233  -162  -141  -163  -236  -355  -478  -548  -545  -497  -452  -452  -481  -496  -517  -602  -736  -816  -776  -654  -538  -486  -484  -486  -462  -416  -382  -398  -486  -615  -715  -720  -612  -432  -268  -184  -171  -193  -233  -278  -306  -308  -295  -280  -269  -270  -295  -357  -442  -498  -492  -428  -321  -180  -41  41  47  -7  -86  -161  -235  -308  -359  -376  -374  -374  -389  -428  -494  -575  -650  -695  -686  -616  -518  -483  -547  -601  -560  -508  -538  -559  -280  547  1891  3367  4388  4524  3719  2247  522  -1087  -2293  -2918  -2976  -2701  -2387  -2071  -1606  -1043  -622  -437  -387  -357  -318  -284  -273  -291  -321  -331  -293  -208  -112  -46  -13  25  107  214  291  314  306  292  283  286  317  392  502  615  706  773  816  859  954  1125  1349  1588  1786  1888  1909  1944  2066  2246  2393  2483  2554  2614  2630  2589  2540  2555  2652  2764  2802  2741  2639  2562  2487  2302  1924  1456  1114  982  956  907  786  594  352  120  -35  -152  -306  -483  -606  -640  -596  -497  -380  -304  -310  -399  -530  -640  -691  -691  -676  -681  -720  -793  -876  -934  -955  -944  -900  -812  -684  -539  -430  -401  -418  -433  -456  -487  -489  -463  -440  -424  -400  -369  -346  -344  -370  -417  -479  -551  -616  -649  -644  -604  -519  -402  -292  -211  -169  -185  -280  -452  -659  -838  -921  -892  -802  -724  -694  -703  -717  -684  -548  -302  -28  168  231  137  -115  -452  -744  -918  -974  -939  -846  -741  -669  -640  -628  -595  -519  -403  -284  -206  -182  -188  -204  -230  -281  -370  -499  -651  -772  -806  -731  -594  -508  -516  -526  -476  -417  -392  -380  -361  -338  -331  -368  -451  -540  -598  -616  -597  -526  -390  -205  -27  62  21  -130  -321  -478  -560  -590  -618  -660  -678  -623  -482  -317  -211  -190  -227  -288  -341  -373  -382  -351  -250  -78  113  269  377  425  350  83  -311  -635  -760  -721  -623  -534  -457  -386  -330  -287  -239  -197  -170  -144  -149  -271  -523  -766  -858  -802  -628  -333  48  562  1413  2584  3668  4264  4129  3111  1410  -352  -1618  -2299  -2565  -2522  -2270  -1943  -1578  -1195  -887  -709  -632  -579  -486  -363  -252  -165  -105  -74  -35  39  108  136  138  135  113  51  -42  -126  -159  -88  127  419  635  716  735  775  847  916  970  1035  1141  1283  1422  1519  1558  1545  1513  1509  1560  1664  1837  2125  2507  2842  3019  3060  3047  3025  2991  2937  2871  2780  2633  2453  2301  2158  1932  1618  1326  1122  955  774  583  399  231  84  -43  -143  -213  -284  -383  -501  -597  -626  -590  -543  -527  -550  -597  -645  -675  -683  -681  -685  -697  -701  -670  -590  -484  -398  -364  -370  -381  -386  -393  -398  -391  -371  -354  -358  -413  -551  -736  -874  -895  -812  -685  -568  -481  -428  -393  -338  -264  -214  -204  -230  -290  -380  -483  -561  -594  -591  -572  -549  -532  -524  -522  -524  -532  -549  -562  -552  -517  -480  -457  -457  -506  -627  -776  -867  -862  -809  -772  -760  -728  -632  -499  -402  -362  -339  -307  -280  -300  -394  -532  -626  -633  -595  -567  -566  -588  -622  -643  -610  -492  -329  -208  -168  -173  -203  -277  -407  -567  -705  -778  -773  -693  -559  -419  -305  -214  -148  -91  1  130  249  341  411  419  287  8  -274  -392  -341  -255  -227  -251  -273  -264  -250  -256  -258  -238  -239  -312  -424  -470  -380  -202  -48  17  -1  -79  -180  -256  -286  -287  -274  -245  -203  -162  -136  -127  -125  -121  -130  -197  -336  -484  -548  -498  -391  -308  -279  -280  -289  -299  -311  -317  -291  -227  -171  -141  14  570  1629  2923  3935  4192  3627  2571  1268  -228  -1664  -2652  -3053  -2896  -2249  -1443  -921  -774  -762  -714  -645  -579  -485  -368  -286  -259  -244  -196  -122  -59  -27  -13  -10  -19  -26  7  115  268  391  446  456  456  469  495  517  514  498  543  731  1037  1320  1474  1521  1555  1647  1789  1909  1950  1925  1903  1958  2128  2388  2646  2803  2846  2813  2731  2631  2562  2555  2611  2703  2800  2872  2883  2768  2428  1797  1023  436  192  150  133  116  114  69  -60  -228  -379  -500  -580  -609  -614  -624  -627  -609  -595  -623  -681  -731  -756  -762  -741  -669  -556  -460  -422  -446  -519  -621  -727  -821  -886  -910  -880  -766  -568  -360  -237  -230  -311  -436  -597  -783  -894  -835  -643  -425  -262  -183  -172  -205  -274  -357  -413  -425  -419  -434  -494  -578  -641  -671  -688  -699  -689  -660  -632  -621  -616  -583  -510  -449  -460  -543  -647  -722  -763  -787  -794  -769  -718  -688  -714  -764  -796  -810  -811  -770  -654  -491  -349  -246  -176  -176  -293  -484  -640  -704  -703  -688  -679  -639  -511  -323  -186  -163  -213  -256  -266  -293  -355  -401  -406  -397  -399  -417  -435  -441  -440  -447  -467  -491  -513  -533  -547  -548  -548  -556  -562  -524  -399  -208  -38  43  19  -107  -305  -501  -619  -601  -460  -268  -95  24  88  110  109  62  -62  -230  -354  -401  -401  -383  -353  -332  -366  -475  -616  -720  -756  -717  -591  -406  -235  -139  -175  -393  -679  -782  -537  49  859  1802  2846  3851  4518  4467  3496  1884  101  -1541  -2758  -3355  -3412  -3078  -2471  -1801  -1291  -1011  -859  -714  -563  -442  -334  -170  74  316  435  399  280  169  99  39  -36  -109  -153  -173  -189  -199  -151  22  298  553  717  843  980  1093  1139  1127  1099  1079  1065  1059  1096  1218  1411  1606  1760  1874  1963  2039  2142  2317  2524  2670  2733  2760  2788  2834  2907  2996  3037  2941  2694  2405  2201  2075  1908  1645  1365  1138  901  571  212  -48  -156  -130  -38  14  -53  -250  -495  -661  -713  -719  -745  -791  -815  -797  -764  -730  -642  -497  -391  -376  -401  -432  -471  -518  -563  -593  -602  -578  -505  -407  -333  -308  -331  -399  -504  -609  -665  -653  -589  -513  -461  -436  -433  -458  -527  -617  -683  -703  -702  -706  -718  -728  -746  -789  -837  -852  -817  -747  -685  -668  -679  -682  -658  -618  -582  -552  -521  -506  -527  -573  -618  -656  -723  -855  -1011  -1059  -880  -515  -153  48  77  -15  -190  -379  -502  -550  -573  -590  -583  -562  -568  -603  -613  -554  -455  -395  -423  -512  -597  -631  -600  -512  -406  -330  -297  -297  -343  -461  -610  -682  -615  -470  -351  -297  -294  -356  -521  -746  -922  -985  -923  -731  -464  -236  -111  -70  -68  -73  -78  -93  -115  -131  -135  -138  -154  -192  -249  -306  -333  -311  -270  -270  -335  -425  -487  -517  -556  -613  -666  -748  -853  -835  -565  2  981  2378  3790  4700  4816  3993  2415  652  -815  -1797  -2279  -2473  -2650  -2835  -2785  -2357  -1757  -1258  -871  -515  -228  -80  -49  -65  -77  -58  -7  45  69  32  -86  -250  -382  -432  -385  -217  37  266  385  408  402  459  643  888  1073  1166  1205  1232  1266  1295  1299  1293  1334  1460  1613  1713  1768  1846  1992  2198  2417  2594  2699  2761  2846  2991  3154  3228  3127  2875  2600  2428  2386  2397  2330  2090  1729  1395  1140  890  594  293  54  -129  -335  -573  -743  -772  -683  -552  -458  -428  -449  -514  -617  -701  -700  -633  -595  -613  -637  -640  -635  -636  -642  -649  -655  -659  -661  -658  -650  -627  -575  -492  -393  -301  -236  -198  -177  -170  -201  -304  -460  -595  -658  -662  -645  -631  -628  -621  -582  -515  -451  -416  -411  -412  -385  -330  -306  -374  -487  -561  -641  -802  -965  -1010  -912  -735  -584  -517  -511  -498  -430  -329  -265  -267  -290  -294  -300  -343  -446  -598  -741  -793  -726  -599  -503  -469  -470  -475  -475  -468  -441  -377  -291  -221  -196  -233  -339  -479  -579  -615  -621  -625  -613  -551  -441  -348  -328  -357  -390  -412  -427  -440  -457  -472  -474  -451  -407  -361  -318  -265  -206  -152  -94  -15  90  208  310  361  316  141  -121  -363  -517  -589  -621  -657  -701  -729  -739  -739  -727  -692  -638  -585  -560  -564  -533  -471  -493  -542  -320  437  1704  3158  4356  4829  4287  2957  1417  -54  -1520  -2801  -3562  -3751  -3389  -2529  -1557  -928  -699  -646  -608  -568  -528  -447  -298  -116  16  48  46  103  179  182  109  13  -61  -99  -107  -109  -110  -90  -22  80  171  237  343  543  777  938  990  975  959  1019  1205  1459  1648  1712  1705  1706  1768  1919  2143  2359  2477  2500  2502  2505  2471  2400  2367  2441  2586  2654  2531  2277  2050  1918  1823  1686  1496  1280  1041  758  443  153  -55  -190  -320  -474  -618  -710  -753  -763  -744  -678  -561  -437  -362  -370  -472  -641  -800  -890  -908  -875  -797  -691  -587  -495  -432  -445  -534  -626  -634  -547  -453  -434  -444  -402  -345  -355  -437  -525  -565  -561  -544  -529  -517  -511  -524  -582  -687  -788  -813  -755  -666  -580  -512  -475  -466  -470  -474  -475  -473  -470  -470  -481  -511  -564  -626  -672  -682  -653  -612  -590  -585  -571  -541  -556  -649  -739  -750  -702  -642  -604  -605  -626  -640  -630  -584  -492  -367  -248  -176  -177  -265  -424  -587  -676  -678  -637  -597  -573  -553  -529  -511  -510  -524  -524  -492  -440  -392  -363  -353  -359  -378  -404  -432  -456  -465  -431  -330  -193  -140  -236  -372  -407  -327  -209  -136  -133  -159  -176  -187  -234  -342  -453  -468  -380  -284  -238  -237  -276  -380  -545  -719  -847  -906  -864  -676  -321  206  931  1898  3025  3968  4270  3685  2373  715  -927  -2178  -2754  -2714  -2335  -1868  -1480  -1202  -970  -771  -641  -583  -557  -531  -492  -438  -380  -346  -336  -304  -205  -70  31  85  141  216  274  283  244  179  135  172  331  564  751  829  826  796  774  807  951  1191  1427  1565  1591  1556  1536  1599  1766  1988  2186  2336  2479  2642  2801  2912  2960  2964  2946  2911  2851  2748  2572  2317  2038  1810  1669  1594  1534  1450  1346  1220  1014  674  264  -68  -257  -343  -369  -369  -396  -499  -655  -790  -860  -874  -868  -878  -902  -887  -782  -613  -495  -542  -733  -952  -1142  -1305  -1413  -1385  -1143  -714  -289  -66  -68  -190  -324  -413  -468  -539  -637  -731  -797  -830  -839  -831  -791  -712  -641  -643  -722  -811  -860  -872  -863  -824  -743  -647  -587  -579  -599  -618  -640  -672  -708  -730  -734  -729  -723  -701  -642  -560  -505  -524  -619  -713  -697  -555  -385  -279  -242  -232  -238  -306  -483  -712  -859  -835  -665  -450  -282  -192  -168  -202  -299  -455  -625  -738  -754  -679  -527  -337  -185  -109  -86  -84  -85  -87  -95  -116  -149  -195  -261  -373  -523  -655  -716  -704  -652  -603  -583  -570  -538  -491  -443  -399  -365  -330  -272  -176  -52  39  22  -99  -250  -362  -414  -423  -416  -411  -412  -417  -423  -426  -419  -393  -353  -318  -319  -395  -555  -737  -848  -843  -745  -636  -609  -684  -818  -871  -565  273  1481  2734  3782  4388  4305  3463  2024  270  -1416  -2625  -3104  -2865  -2208  -1582  -1238  -1121  -1088  -1049  -947  -783  -615  -484  -383  -280  -131  59  233  338  372  346  260  135  33  -17  -40  -31  25  140  342  585  765  834  825  796  791  821  882  959  1024  1074  1146  1296  1506  1664  1705  1681  1674  1747  1938  2221  2514  2749  2909  2997  3029  3038  3048  3040  2947  2727  2451  2253  2179  2165  2103  1909  1635  1422  1282  1097  823  532  261  -10  -259  -428  -513  -548  -564  -589  -648  -730  -793  -817  -810  -778  -720  -642  -562  -510  -505  -553  -650  -772  -863  -868  -798  -714  -650  -617  -610  -604  -586  -561  -540  -523  -492  -436  -381  -364  -401  -473  -536  -565  -577  -592  -607  -616  -619  -623  -622  -602  -551  -483  -422  -365  -304  -274  -312  -400  -500  -585  -632  -642  -637  -645  -674  -714  -744  -764  -780  -775  -720  -613  -498  -423  -425  -497  -568  -597  -618  -652  -696  -750  -798  -815  -778  -686  -576  -489  -427  -390  -402  -465  -533  -551  -524  -486  -440  -381  -335  -330  -373  -453  -554  -655  -704  -693  -682  -674  -618  -533  -468  -409  -341  -296  -303  -356  -416  -470  -533  -601  -651  -675  -674  -635  -563  -504  -491  -497  -493  -496  -535  -608  -676  -662  -489  -179  127  311  360  296  128  -84  -242  -325  -399  -520  -666  -750  -729  -656  -599  -572  -549  -506  -465  -463  -501  -552  -570  -510  -389  -289  -287  -369  -332  141  1214  2677  3985  4518  4046  2928  1636  428  -523  -1338  -2258  -2988  -3090  -2618  -1866  -1155  -741  -628  -657  -708  -725  -667  -498  -243  9  192  290  303  231  124  73  127  250  363  428  474  534  595  628  620  600  611  661  718  762  801  853  934  1080  1325  1643  1922  2071  2101  2084  2058  2031  2009  2002  2010  2035  2122  2313  2557  2733  2795  2791  2778  2781  2806  2826  2756  2504  2101  1707  1419  1191  952  711  540  474  470  448  340  143  -91  -318  -518  -674  -765  -798  -799  -789  -784  -804  -868  -964  -1042  -1052  -981  -877  -803  -777  -777  -801  -865  -956  -995  -866  -520  -89  216  327  295  130  -178  -540  -802  -909  -918  -894  -863  -815  -728  -614  -514  -458  -446  -465  -495  -508  -494  -463  -436  -417  -398  -378  -366  -395  -510  -704  -890  -966  -889  -704  -512  -398  -374  -417  -529  -704  -881  -945  -824  -567  -317  -181  -148  -154  -163  -199  -313  -509  -725  -896  -996  -1033  -1026  -988  -899  -735  -543  -413  -375  -385  -401  -408  -409  -408  -407  -406  -402  -403  -420  -461  -502  -515  -501  -486  -495  -543  -626  -721  -799  -834  -805  -701  -526  -312  -126  -11  49  88  103  45  -132  -388  -596  -681  -670  -622  -580  -549  -509  -456  -411  -372  -284  -92  160  349  411  360  221  39  -138  -319  -510  -679  -824  -957  -1045  -1058  -1003  -913  -826  -762  -737  -783  -905  -1023  -984  -638  20  801  1523  2203  2951  3795  4449  4342  3198  1395  -478  -1982  -2842  -3127  -3098  -2825  -2289  -1679  -1235  -951  -697  -465  -327  -321  -419  -520  -536  -489  -435  -370  -251  -52  149  225  202  205  254  297  307  288  279  308  355  398  442  502  578  636  651  646  676  801  1039  1309  1499  1614  1756  1946  2101  2167  2173  2164  2138  2077  1987  1921  1953  2134  2421  2687  2851  2920  2890  2718  2400  2054  1834  1763  1711  1547  1259  954  731  577  427  278  183  157  136  35  -186  -486  -768  -965  -1065  -1108  -1126  -1114  -1049  -924  -774  -661  -614  -612  -614  -594  -557  -508  -430  -305  -162  -97  -186  -397  -609  -698  -631  -490  -395  -381  -396  -392  -384  -405  -452  -492  -516  -530  -533  -518  -499  -503  -525  -530  -498  -445  -394  -352  -328  -317  -310  -312  -356  -470  -623  -731  -749  -695  -621  -573  -553  -514  -417  -284  -178  -142  -190  -331  -515  -647  -688  -676  -660  -671  -726  -811  -886  -915  -872  -742  -569  -440  -393  -402  -426  -440  -441  -436  -424  -396  -356  -332  -367  -495  -714  -945  -1042  -903  -568  -214  -4  34  -48  -210  -391  -524  -590  -601  -565  -504  -457  -472  -552  -632  -634  -536  -385  -272  -264  -370  -537  -678  -734  -669  -465  -194  7  79  58  -30  -172  -317  -390  -352  -241  -182  -270  -461  -639  -721  -704  -660  -644  -656  -681  -706  -720  -715  -677  -601  -483  -310  -64  295  851  1574  2309  2972  3519  3741  3394  2437  991  -639  -1958  -2661  -2856  -2787  -2565  -2150  -1567  -1009  -648  -494  -447  -408  -371  -389  -455  -503  -477  -361  -179  17  167  230  263  381  534  526  329  134  84  162  279  355  385  416  489  628  833  1025  1104  1115  1173  1265  1329  1391  1517  1705  1878  2010  2170  2399  2625  2760  2800  2800  2807  2826  2842  2836  2782  2663  2517  2416  2375  2354  2306  2211  2077  1919  1728  1478  1150  771  417  141  -63  -206  -290  -353  -451  -596  -741  -827  -850  -858  -896  -958  -1005  -997  -920  -807  -708  -624  -530  -444  -417  -469  -582  -692  -734  -712  -675  -664  -678  -669  -556  -302  1  198  204  36  -216  -439  -575  -625  -605  -524  -413  -324  -290  -326  -439  -581  -671  -672  -618  -562  -525  -508  -501  -500  -523  -587  -674  -735  -751  -750  -767  -820  -890  -947  -966  -921  -785  -603  -478  -472  -557  -639  -643  -617  -631  -661  -691  -751  -821  -833  -753  -623  -510  -430  -374  -375  -481  -663  -837  -938  -951  -882  -743  -566  -416  -333  -296  -283  -300  -344  -391  -421  -430  -432  -443  -469  -495  -506  -508  -517  -534  -536  -499  -411  -306  -229  -185  -154  -126  -109  -103  -102  -109  -135  -181  -229  -260  -279  -265  -164  -35  -45  -214  -388  -463  -469  -458  -438  -395  -339  -313  -347  -430  -524  -598  -625  -582  -485  -432  -493  -524  -265  435  1564  2866  3963  4556  4400  3475  2042  372  -1247  -2468  -3115  -3217  -2897  -2315  -1649  -1097  -753  -554  -415  -307  -250  -259  -294  -308  -286  -232  -173  -121  -69  -26  -16  -52  -115  -162  -150  -54  128  339  475  505  508  594  803  1053  1217  1262  1249  1231  1231  1251  1287  1337  1417  1535  1670  1790  1875  1929  1989  2093  2255  2462  2670  2815  2863  2840  2790  2738  2678  2616  2579  2579  2581  2500  2249  1855  1469  1199  1006  812  628  518  486  446  320  125  -62  -196  -292  -402  -554  -707  -808  -854  -884  -916  -942  -951  -948  -945  -944  -944  -945  -949  -960  -967  -934  -822  -647  -468  -321  -204  -131  -115  -123  -114  -102  -107  -120  -136  -176  -263  -380  -480  -535  -543  -518  -494  -507  -549  -585  -594  -588  -586  -594  -594  -558  -472  -373  -311  -297  -306  -312  -312  -312  -322  -348  -390  -459  -566  -677  -736  -702  -565  -378  -240  -194  -209  -244  -290  -357  -447  -539  -597  -615  -621  -641  -671  -667  -586  -458  -364  -333  -330  -329  -334  -348  -360  -359  -350  -321  -247  -156  -101  -111  -184  -276  -326  -331  -334  -381  -484  -599  -644  -580  -469  -390  -358  -354  -360  -359  -329  -262  -199  -213  -321  -472  -605  -688  -723  -728  -697  -614  -504  -417  -370  -337  -274  -146  18  144  188  157  65  -61  -186  -295  -387  -442  -463  -494  -573  -665  -699  -646  -521  -363  -240  -178  -128  -86  -137  -304  -443  -361  88  928  2019  3181  4144  4493  3987  2731  988  -845  -2269  -2997  -3082  -2684  -1964  -1195  -693  -506  -448  -405  -392  -435  -515  -585  -618  -583  -438  -197  33  157  178  154  127  114  120  147  184  212  225  232  257  332  468  619  734  799  839  891  976  1068  1125  1148  1177  1245  1351  1456  1548  1645  1744  1827  1893  1964  2113  2393  2717  2934  3006  3003  2984  2956  2904  2823  2671  2383  2006  1717  1597  1520  1307  949  614  443  419  455  500  541  561  496  256  -141  -531  -750  -798  -776  -756  -752  -752  -736  -701  -669  -684  -791  -991  -1152  -1090  -828  -595  -524  -559  -607  -630  -634  -616  -563  -478  -380  -289  -221  -203  -264  -403  -538  -580  -551  -534  -555  -570  -542  -493  -462  -457  -463  -465  -458  -447  -446  -456  -456  -423  -367  -363  -466  -618  -707  -687  -592  -493  -426  -363  -296  -295  -431  -678  -938  -1133  -1219  -1128  -812  -376  -62  -35  -291  -687  -1016  -1151  -1062  -754  -348  -63  -33  -231  -514  -720  -786  -745  -637  -510  -419  -381  -381  -428  -550  -717  -850  -898  -843  -674  -441  -258  -194  -220  -254  -248  -239  -297  -449  -629  -735  -729  -665  -611  -594  -594  -593  -586  -586  -596  -596  -571  -527  -488  -474  -484  -502  -519  -533  -524  -441  -241  58  360  542  543  375  110  -166  -435  -682  -839  -858  -766  -634  -536  -497  -494  -498  -504  -522  -548  -561  -548  -516  -487  -482  -494  -472  -386  -255  -66  338  1224  2598  3929  4477  3927  2609  1126  -121  -1093  -1967  -2789  -3225  -2966  -2214  -1416  -847  -563  -484  -504  -545  -543  -461  -336  -245  -212  -204  -187  -149  -101  -83  -92  -53  91  316  540  684  725  697  655  654  707  760  790  831  876  894  897  925  1016  1158  1289  1356  1374  1411  1555  1826  2119  2297  2329  2270  2187  2134  2154  2269  2453  2634  2761  2834  2879  2871  2769  2593  2384  2160  1948  1748  1516  1260  1054  929  823  633  333  6  -260  -433  -518  -543  -542  -537  -533  -535  -547  -567  -591  -616  -643  -647  -596  -493  -393  -370  -465  -630  -766  -826  -836  -828  -811  -765  -683  -603  -560  -551  -560  -566  -547  -506  -467  -449  -437  -410  -365  -319  -289  -274  -267  -265  -277  -319  -401  -516  -633  -729  -802  -832  -770  -622  -465  -366  -329  -325  -334  -360  -423  -532  -654  -709  -651  -524  -410  -343  -307  -292  -304  -355  -460  -592  -666  -629  -539  -490  -513  -564  -590  -613  -677  -752  -755  -639  -444  -262  -163  -158  -222  -304  -357  -385  -419  -463  -492  -494  -484  -480  -487  -501  -518  -533  -541  -533  -507  -472  -453  -465  -471  -442  -419  -435  -464  -468  -443  -410  -398  -405  -416  -416  -368  -230  -52  66  93  64  23  -26  -103  -198  -265  -269  -220  -161  -120  -95  -77  -69  -84  -135  -221  -301  -310  -220  -82  16  46  49  73  129  187  190  99  -50  -178  -260  -329  -409  -474  -452  -303  -38  435  1245  2250  3102  3604  3700  3303  2456  1341  28  -1396  -2527  -2948  -2732  -2234  -1712  -1324  -1064  -771  -427  -186  -128  -195  -293  -366  -397  -375  -268  -73  131  250  273  265  298  403  559  700  746  664  503  327  215  259  431  602  722  816  901  967  1024  1097  1199  1364  1630  1929  2131  2195  2180  2156  2150  2149  2135  2117  2146  2270  2461  2638  2749  2785  2756  2697  2641  2594  2538  2432  2224  1937  1690  1553  1449  1263  996  738  524  316  108  -57  -163  -239  -316  -405  -507  -615  -712  -773  -792  -791  -782  -750  -680  -601  -562  -572  -611  -664  -713  -750  -788  -825  -847  -853  -860  -876  -894  -898  -864  -776  -641  -504  -411  -373  -389  -484  -667  -878  -1017  -1037  -981  -925  -916  -951  -1003  -1040  -1057  -1072  -1082  -1051  -952  -832  -768  -785  -886  -1055  -1208  -1276  -1268  -1229  -1197  -1184  -1183  -1181  -1141  -1020  -837  -685  -683  -892  -1214  -1455  -1526  -1483  -1409  -1333  -1245  -1160  -1161  -1311  -1540  -1689  -1664  -1485  -1208  -864  -459  0]
