reading_id,reading_time,wire_id,result_classification,heart_rate,heart_rate_alert,firmware_version,device_app_version,hardware_version,waveform_samples
60becd40-597b-11ed-8080-808080808080,Tue Nov 01 00:23:15 UTC 2022,2101e3d81839,NSR,54,NONE,20001.171.50,2.10.0,Charge 5,[-3176  -8637  -10928  -9449  -6250  -3788  -2692  -1812  -55  2190  3642  3881  3865  4632  5955  6938  7549  8377  9293  9603  9162  8614  8474  8466  8225  7973  8093  8733  9473  9382  8395  7495  7175  7132  7052  6880  6548  5919  5138  4491  4010  3659  3498  3560  3865  4433  5259  6312  7517  8785  10015  11127  12150  13126  14094  15094  15945  16410  16551  16512  16206  15554  14807  14261  13931  13706  13522  13371  13300  13425  13838  14393  14823  15134  15533  16044  16491  16657  16337  15535  14635  14040  13760  13656  13768  14143  14686  15242  15633  15762  15726  15654  15616  15702  16009  16476  16906  17220  17507  17819  18076  18265  18653  19520  20728  21933  23023  23904  24400  24695  25167  25776  26294  26769  27270  27725  28151  28581  28906  29017  28948  28890  29064  29448  29797  29858  29465  28716  28002  27656  27608  27425  26720  25513  24122  22967  22368  22277  22386  22448  22419  22366  22300  22159  21837  21223  20423  19759  19396  19238  19119  18920  18655  18445  18213  17785  17285  16857  16405  16058  16148  16557  16845  16809  16504  16117  15871  15790  15651  15255  14630  13956  13469  13297  13336  13422  13433  13242  12758  12045  11332  10870  10713  10671  10558  10387  10241  10119  9998  9903  9813  9641  9355  9036  8765  8535  8238  7738  7122  6755  6777  6882  6775  6406  5852  5253  4804  4558  4292  3865  3443  3205  3134  3109  2999  2737  2424  2259  2284  2328  2241  2020  1735  1507  1425  1361  1142  837  525  119  -382  -751  -853  -822  -809  -848  -931  -1012  -1031  -992  -994  -1208  -1678  -2156  -2392  -2484  -2730  -3183  -3595  -3809  -3943  -4145  -4382  -4606  -4850  -4977  -4763  -4393  -4260  -4411  -4639  -4794  -4866  -4967  -5265  -5793  -6226  -6249  -6150  -6307  -6473  -6226  -5483  -4404  -3294  -2540  -2386  -2901  -3945  -5215  -6566  -7841  -8709  -9057  -8932  -8354  -7555  -6970  -6817  -6966  -7189  -7328  -7350  -7255  -6990  -6593  -6244  -6075  -6042  -6065  -6163  -6329  -6419  -6317  -6056  -5686  -5301  -5093  -5127  -5244  -5305  -5318  -5361  -5488  -5628  -5617  -5418  -5160  -4914  -4710  -4620  -4581  -4431  -4105  -3691  -3341  -3125  -3019  -2993  -2973  -2758  -2262  -1742  -1483  -1470  -1536  -1572  -1569  -1582  -1670  -1808  -1876  -1787  -1529  -1217  -1054  -1134  -1398  -1734  -2067  -2424  -2835  -3180  -3352  -3465  -3620  -3698  -3628  -3540  -3510  -3498  -3461  -3422  -3472  -3656  -3902  -4087  -4185  -4202  -4049  -3732  -3481  -3432  -3467  -3511  -3592  -3668  -3663  -3603  -3622  -3783  -3940  -3973  -3947  -3938  -3917  -3806  -3607  -3468  -3467  -3458  -3302  -3071  -2883  -2793  -2889  -3180  -3451  -3475  -3297  -3139  -3126  -3186  -3235  -3255  -3204  -3074  -2945  -2892  -2895  -2882  -2798  -2701  -2719  -2834  -2868  -2703  -2437  -2266  -2315  -2646  -3148  -3470  -3413  -3175  -3007  -2955  -2969  -2983  -2922  -2800  -2717  -2702  -2695  -2654  -2610  -2666  -2882  -3143  -3234  -3109  -2937  -2868  -2948  -3086  -3054  -2753  -2401  -2225  -2202  -2226  -2275  -2398  -2570  -2681  -2727  -2772  -2808  -2825  -2858  -2906  -2863  -2625  -2302  -2091  -2056  -2133  -2254  -2413  -2579  -2642  -2558  -2419  -2339  -2372  -2544  -2743  -2732  -2496  -2260  -2148  -2129  -2141  -2146  -2143  -2162  -2193  -2188  -2211  -2340  -2463  -2410  -2206  -1932  -1572  -1172  -824  -563  -425  -427  -532  -644  -642  -550  -494  -495  -506  -509  -517  -544  -609  -641  -468  -136  125  269  322  205  -62  -272  -293  -218  -132  37  250  271  42  -223  -351  -376  -391  -378  -197  229  592  477  137  169  619  1220  1961  2850  3678  4273  4502  4117  3062  1661  238  -1012  -1850  -2123  -1940  -1518  -1105  -908  -866  -738  -424  -102  37  64  150  310  479  707  1048  1358  1473  1432  1327  1151  987  1036  1276  1487  1569  1560  1527  1502  1492  1524  1634  1760  1725  1515  1368  1475  1723  1895  1977  2047  2100  2198  2472  2816  3002  3052  3136  3352  3660  3891  3953  3926  3903  3889  3847  3771  3684  3576  3450  3374  3389  3365  3142  2771  2399  2067  1761  1528  1352  1040  572  256  224  260  225  168  129  71  -28  -101  -70  -6  -49  -210  -409  -541  -528  -397  -225  -128  -247  -557  -832  -929  -909  -822  -675  -552  -527  -551  -558  -559  -621  -800  -1007  -1005  -713  -376  -197  -139  -190  -364  -526  -547  -472  -409  -388  -396  -478  -651  -819  -873  -820  -757  -732  -728  -740  -787  -860  -912  -919  -886  -848  -817  -713  -511  -313  -160  13  147  70  -216  -523  -718  -769  -635  -350  -89  22  28  12  -17  -101  -213  -280  -320  -363  -385  -409  -432  -392  -285  -117  133  345  295  -57  -470  -650  -527  -283  -135  -112  -127  -130  -132  -127  -68  2  -60  -265  -412  -396  -316  -275  -312  -407  -405  -197  51  104  -34  -224  -394  -489  -473  -414  -380  -380  -433  -545  -586  -366  26  300  331  213  86  38  102  197  112  -214  -510  -539  -368  -132  108  308  400  354  240  167  152  152  142  142  151  73  -132  -333  -348  -201  -65  -14  -45  -175  -325  -319  -157  2  148  332  458  450  400  385  383  330  197  20  -143  -234  -198  -50  90  112  -1  -212  -428  -562  -566  -315  79  77  -348  -524  -249  98  380  805  1497  2343  3078  3329  2825  1658  268  -948  -1912  -2608  -2981  -3178  -3421  -3490  -2853  -1679  -696  -166  5  -130  -419  -575  -515  -411  -369  -361  -349  -348  -366  -362  -359  -442  -604  -725  -621  -236  195  476  675  814  792  673  651  735  820  881  913  920  928  940  913  812  691  656  750  948  1216  1486  1691  1874  2087  2279  2405  2497  2564  2559  2509  2497  2509  2508  2519  2538  2542  2537  2535  2548  2582  2575  2394  1986  1447  969  674  505  329  54  -315  -630  -683  -526  -407  -399  -437  -523  -640  -707  -712  -720  -791  -896  -899  -712  -443  -294  -310  -389  -448  -435  -321  -136  -4  -121  -493  -809  -866  -753  -564  -373  -333  -453  -566  -598  -604  -632  -659  -652  -662  -704  -705  -718  -857  -1038  -1103  -1033  -882  -729  -694  -829  -1021  -1127  -1140  -1108  -1030  -942  -910  -924  -939  -942  -934  -919  -940  -1033  -1135  -1189  -1181  -1057  -810  -571  -432  -329  -200  -116  -161  -265  -341  -428  -488  -385  -169  -25  7  2  -15  -78  -176  -223  -228  -261  -317  -396  -500  -588  -672  -773  -843  -855  -860  -849  -710  -472  -339  -415  -587  -697  -716  -702  -690  -682  -704  -803  -950  -1031  -970  -840  -745  -633  -467  -412  -584  -848  -994  -923  -663  -374  -208  -150  -112  -82  -68  -60  -66  -127  -242  -360  -480  -645  -809  -862  -764  -567  -325  -102  -24  -143  -305  -334  -241  -161  -195  -345  -493  -533  -508  -493  -498  -486  -407  -225  13  157  105  -84  -259  -310  -247  -84  123  181  -16  -278  -408  -417  -305  -71  95  78  1  -27  -35  -84  -190  -312  -450  -612  -664  -363  143  290  19  -154  146  943  1952  2915  3716  4125  3930  3163  1961  450  -1102  -2327  -2991  -3059  -2639  -2060  -1800  -1929  -1948  -1599  -1107  -623  -156  157  200  106  72  140  281  434  466  344  274  420  665  812  842  838  827  757  623  536  524  506  476  471  521  669  882  1092  1310  1534  1712  1828  1921  1975  1949  1906  1955  2072  2146  2152  2156  2223  2342  2428  2464  2499  2532  2523  2507  2566  2656  2606  2377  2146  2029  1904  1672  1401  1152  924  734  603  548  547  562  582  604  552  300  -132  -541  -739  -756  -756  -793  -826  -829  -791  -717  -656  -662  -676  -536  -285  -132  -111  -130  -148  -176  -227  -303  -401  -498  -587  -671  -669  -526  -339  -220  -126  -6  32  -110  -351  -518  -543  -477  -401  -336  -252  -156  -96  -73  -65  -100  -247  -455  -536  -470  -461  -563  -609  -552  -510  -532  -581  -609  -561  -402  -219  -193  -367  -581  -720  -825  -927  -997  -1030  -1080  -1195  -1296  -1191  -844  -474  -235  -128  -201  -498  -885  -1102  -1072  -916  -702  -458  -293  -310  -456  -588  -663  -715  -744  -751  -769  -807  -803  -711  -625  -622  -661  -698  -646  -452  -267  -271  -402  -521  -592  -577  -438  -289  -287  -417  -514  -495  -444  -426  -414  -360  -275  -214  -176  -151  -170  -251  -375  -444  -377  -284  -303  -348  -286  -170  -88  -34  -25  -95  -182  -227  -238  -249  -274  -274  -176  2  123  113  36  -44  -131  -202  -171  -30  120  212  245  222  132  -7  -97  -93  -118  -247  -394  -465  -473  -475  -496  -491  -448  -474  -589  -663  -648  -496  45  820  1039  567  79  -106  -65  186  772  1743  2812  3546  3640  2959  1675  170  -1225  -2234  -2731  -2824  -2704  -2677  -2756  -2424  -1676  -1092  -758  -448  -200  -128  -130  -81  -34  -43  -31  18  36  26  23  16  -30  -126  -196  -108  146  351  337  245  339  652  971  1129  1137  1102  1126  1245  1386  1417  1335  1252  1245  1333  1458  1521  1515  1522  1644  1865  2025  2024  1926  1869  1963  2189  2412  2557  2678  2780  2774  2627  2358  1968  1549  1281  1242  1336  1416  1440  1450  1470  1459  1345  1100  742  291  -184  -531  -652  -696  -839  -991  -979  -835  -722  -692  -671  -684  -863  -1199  -1500  -1631  -1648  -1659  -1688  -1688  -1634  -1536  -1405  -1302  -1269  -1261  -1212  -1022  -678  -411  -424  -604  -753  -806  -694  -393  -122  -97  -239  -364  -418  -493  -685  -915  -972  -818  -639  -513  -367  -254  -300  -468  -597  -577  -344  84  517  690  515  200  53  123  239  310  339  338  339  409  592  784  773  547  329  202  172  325  608  860  999  1035  1028  1021  1001  927  819  753  721  684  649  624  611  608  617  657  719  688  472  222  123  173  302  456  582  609  443  92  -293  -572  -689  -618  -431  -308  -318  -369  -398  -421  -449  -426  -294  -157  -226  -548  -920  -1078  -952  -791  -867  -1080  -1170  -1060  -818  -561  -471  -666  -1045  -1370  -1509  -1540  -1582  -1616  -1492  -1152  -776  -544  -424  -379  -465  -634  -742  -768  -804  -817  -699  -499  -346  -275  -306  -418  -482  -462  -449  -453  -447  -462  -570  -767  -921  -951  -954  -1010  -1027  -930  -788  -698  -827  -1399  -2124  -2264  -1880  -1660  -1550  -1037  -157  700  1370  1798  1873  1545  783  -426  -1942  -3410  -4355  -4593  -4314  -3554  -2339  -1353  -1281  -1652  -1714  -1576  -1532  -1510  -1373  -1080  -665  -239  78  214  195  133  95  69  70  178  412  613  623  443  206  64  74  241  510  684  628  463  354  373  658  1246  1826  2078  2043  1941  1901  1920  1914  1765  1467  1209  1177  1390  1704  1951  2090  2184  2292  2383  2383  2339  2365  2411  2401  2442  2629  2835  2913  2862  2724  2536  2309  2010  1633  1219  851  601  483  432  298  4  -325  -597  -875  -1159  -1306  -1197  -879  -550  -397  -424  -494  -526  -536  -543  -527  -485  -476  -498  -447  -288  -127  -122  -302  -489  -538  -487  -377  -184  58  214  198  100  77  149  220  259  296  373  538  790  1027  1107  948  688  631  813  1003  1118  1185  1188  1188  1225  1189  999  730  569  634  831  996  1061  1062  1051  1038  1034  1089  1195  1195  1053  974  1089  1285  1423  1521  1603  1538  1253  962  900  1083  1438  1849  2104  2116  2027  1973  1972  1968  1886  1679  1396  1150  1015  1030  1155  1281  1359  1425  1504  1479  1121  463  -94  -286  -260  -225  -197  -167  -168  -187  -195  -211  -255  -294  -293  -315  -391  -460  -522  -581  -592  -570  -552  -520  -465  -397  -287  -112  54  158  316  588  784  784  716  692  692  636  476  252  64  8  75  207  362  419  224  -164  -498  -709  -1028  -1566  -2098  -2426  -2551  -2469  -2217  -1958  -1820  -1772  -1784  -1952  -2279  -2518  -2477  -2262  -2060  -1895  -1710  -1491  -1187  -798  -513  -532  -974  -1826  -2809  -3592  -4066  -4277  -4296  -4230  -4154  -4087  -4056  -4021  -3857  -3527  -3166  -2894  -2698  -2533  -2381  -2211  -1961  -1624  -1365  -1337  -1447  -1536  -1570  -1494  -1255  -1008  -907  -897  -905  -915  -921  -902  -842  -710  -509  -344  -303  -355  -403  -369  -249  -20  331  655  884  1178  1594  1992  2223  2226  2083  1982  2001  2055  2078  2077  2075  2086  2142  2274  2426  2472  2361  2215  2177  2198  2115  1847  1485  1187  1014  903  723  453  238  166  179  213  237  251  272  281  201  -11  -284  -551  -781  -856  -710  -559  -608  -720  -729  -671  -598  -543  -585  -761  -951  -958  -795  -658  -623  -634  -638  -616  -582  -547  -438  -194  28  103  111  103  52  -33  -129  -203  -240  -318  -475  -603  -637  -665  -740  -804  -831  -845  -831  -721  -504  -332  -382  -654  -972  -1176  -1213  -1064  -768  -533  -496  -534  -547  -553  -451  -123  229  343  265  169  125  103  63  41  148  409  644  678  539  337  129  -14  64  438  893  1109  1046  863  608  349  299  461  590  577  508  463  451  446  451  501  580  610  629  714  771  667  462  311  253  238  256  293  271  117  -81  -127  -26  45  47  31  16  2  5  51  162  291  307  187  82  148  394  645  745  704  599  516  535  620  676  710  741  686  546  449  433  434  388  305  257  270  299  284  230  275  482  616  498  260  7  -297  -645  -890  -881  -676  -469  -306  -127  38  137  190  232  207  -54  -554  -959  -1020  -847  -669  -537  -312  116  779  1650  2527  2981  2688  1750  483  -871  -2040  -2757  -3029  -2972  -2556  -1935  -1494  -1297  -1161  -1002  -747  -404  -166  -127  -165  -230  -356  -414  -242  74  350  515  545  424  215  9  -135  -192  -191  -196  -238  -266  -183  22  243  393  519  652  752  861  1017  1093  988  823  761  802  905  1102  1330  1423  1346  1218  1144  1123  1104  1087  1168  1425  1741  1889  1815  1695  1674  1738  1850  1903  1658  1081  517  228  102  8  -18  -28  -205  -591  -967  -1143  -1179  -1204  -1220  -1147  -1034  -1047  -1148  -1123  -928  -738  -688  -770  -928  -1088  -1160  -1103  -965  -837  -755  -694  -662  -660  -648  -631  -626  -614  -578  -545  -559  -631  -789  -1000  -1102  -993  -794  -674  -643  -631  -622  -612  -561  -485  -497  -608  -630  -502  -377  -334  -328  -339  -405  -547  -690  -725  -635  -557  -597  -663  -648  -588  -552  -526  -485  -431  -346  -255  -277  -458  -660  -716  -633  -554  -537  -529  -461  -341  -266  -284  -324  -285  -169  -70  1  85  149  151  129  131  144  94  -133  -561  -945  -1008  -791  -548  -437  -422  -407  -349  -254  -134  -73  -214  -526  -824  -991  -1037  -1044  -1042  -932  -650  -347  -212  -267  -475  -773  -974  -978  -907  -868  -852  -833  -831  -892  -1012  -1119  -1103  -899  -576  -292  -140  -87  -153  -446  -851  -1053  -989  -851  -685  -459  -248  -114  -38  -9  -6  -4  -15  -81  -197  -335  -529  -768  -919  -928  -887  -848  -733  -480  -204  -44  50  134  122  24  -16  36  119  182  207  214  225  219  123  -84  -340  -589  -759  -713  -458  -259  -328  -552  -713  -671  -297  208  253  -160  -356  -152  126  418  873  1469  2083  2588  2742  2276  1225  -22  -1146  -2003  -2435  -2448  -2407  -2621  -2717  -2046  -960  -366  -346  -455  -455  -257  130  522  736  789  782  779  795  797  703  532  480  610  753  778  625  295  -35  -153  29  419  793  1048  1205  1230  1134  1026  972  931  844  752  774  933  1103  1229  1372  1512  1542  1492  1529  1723  1988  2216  2382  2496  2532  2527  2572  2623  2547  2370  2231  2191  2199  2212  2251  2355  2443  2351  2075  1762  1443  1055  653  385  275  220  161  107  33  -62  -113  -148  -250  -353  -375  -376  -404  -432  -454  -514  -631  -730  -715  -612  -500  -385  -304  -300  -273  -154  -34  34  104  164  159  166  235  259  188  108  67  59  63  43  -24  -74  -21  63  76  53  48  24  -39  -82  -55  9  53  94  150  179  202  252  236  127  36  9  5  -3  11  77  145  144  74  -12  -104  -212  -311  -317  -155  76  189  143  40  -64  -187  -301  -313  -224  -145  -124  -131  -136  -130  -105  -82  -125  -251  -427  -598  -641  -511  -362  -301  -230  -139  -187  -392  -545  -543  -534  -642  -803  -896  -914  -921  -942  -921  -797  -640  -573  -638  -777  -909  -973  -922  -795  -711  -682  -605  -467  -388  -433  -511  -584  -707  -836  -898  -910  -941  -1043  -1175  -1227  -1172  -1078  -969  -830  -666  -526  -469  -449  -404  -427  -559  -623  -553  -493  -502  -557  -690  -859  -948  -958  -953  -938  -863  -711  -526  -322  -138  -92  -191  -280  -267  -211  -169  -157  -198  -263  -256  -141  -53  -153  -394  -618  -741  -766  -756  -762  -757  -654  -413  -201  -150  -76  70  140  220  417  770  1450  2366  3034  3104  2526  1421  113  -1029  -1805  -2195  -2313  -2269  -2117  -1919  -1766  -1701  -1668  -1510  -1098  -578  -211  -3  179  360  501  594  639  577  379  205  245  443  605  711  854  1006  1094  1124  1161  1237  1286  1219  1089  1055  1156  1323  1568  1861  2042  2089  2156  2285  2417  2587  2865  3135  3182  3008  2853  2838  2880  2909  2925  2898  2776  2595  2508  2536  2489  2237  1899  1688  1651  1618  1458  1263  1121  917  580  242  -22  -273  -508  -661  -711  -707  -700  -689  -631  -522  -413  -380  -501  -744  -989  -1205  -1397  -1499  -1531  -1625  -1773  -1799  -1612  -1283  -981  -875  -934  -997  -1009  -996  -981  -998  -1092  -1225  -1290  -1304  -1356  -1409  -1379  -1275  -1130  -972  -872  -899  -1011  -1068  -1029  -999  -1027  -1031  -968  -875  -789  -745  -737  -737  -754  -816  -909  -982  -1040  -1089  -1113  -1116  -1105  -1081  -1007  -861  -712  -606  -504  -423  -419  -447  -424  -329  -195  -76  -21  -13  -15  -40  -140  -284  -373  -429  -494  -403  -45  300  330  156  24  -17  -10  5  -41  -180  -299  -271  -173  -143  -170  -199  -227  -241  -172  15  225  346  338  199  -8  -217  -380  -389  -158  166  347  329  188  14  -114  -135  -21  146  246  268  272  273  212  34  -215  -412  -464  -411  -311  -126  75  66  -142  -268  -242  -254  -399  -597  -696  -612  -462  -403  -416  -434  -459  -524  -597  -583  -497  -516  -740  -1034  -1223  -1252  -1094  -784  -511  -399  -391  -470  -722  -1057  -1156  -972  -793  -748  -736  -702  -680  -679  -650  -545  -433  -482  -704  -934  -1080  -1191  -1284  -1268  -1130  -1021  -1066  -1190  -1354  -1695  -2067  -2014  -1603  -1243  -938  -572  -99  559  1268  1804  2100  2036  1444  396  -865  -2055  -2892  -3253  -3117  -2500  -1493  -419  125  11  -208  -145  125  337  358  298  261  251  248  251  266  316  433  562  620  604  546  478  476  575  688  718  727  841  1066  1296  1458  1562  1601  1572  1534  1526  1527  1493  1407  1317  1353  1628  2037  2350  2465  2410  2281  2254  2474  2868  3191  3272  3170  3035  2917  2866  2961  3141  3256  3286  3303  3321  3245  2983  2617  2325  2178  2098  1954  1703  1398  1111  915  846  816  653  316  2  -152  -274  -457  -596  -618  -589  -569  -549  -503  -464  -485  -514  -442  -299  -240  -317  -373  -282  -163  -165  -208  -200  -225  -358  -551  -772  -1005  -1176  -1244  -1241  -1235  -1254  -1230  -1037  -679  -407  -393  -499  -557  -571  -582  -572  -567  -656  -840  -986  -1037  -1098  -1180  -1138  -964  -800  -715  -695  -704  -707  -688  -661  -651  -701  -874  -1097  -1153  -959  -678  -508  -478  -523  -583  -558  -363  -104  7  -80  -261  -457  -611  -656  -622  -591  -585  -558  -453  -256  -58  -17  -194  -478  -681  -716  -639  -484  -286  -159  -154  -235  -390  -574  -701  -739  -685  -553  -419  -359  -358  -348  -283  -211  -215  -243  -247  -296  -360  -308  -206  -199  -231  -214  -189  -171  -90  15  38  1  -59  -181  -331  -411  -413  -407  -459  -570  -655  -606  -389  -99  104  140  48  -70  -104  22  239  333  221  79  41  -7  -161  -306  -335  -305  -280  -245  -178  -150  -270  -468  -551  -445  -260  -132  -81  -109  -260  -470  -602  -621  -568  -502  -505  -603  -779  -1047  -1327  -1484  -1518  -1483  -1350  -1117  -880  -715  -643  -595  -387  24  522  1152  1997  2768  3079  2796  1891  513  -840  -1775  -2303  -2520  -2462  -2271  -2086  -1956  -1903  -1859  -1652  -1222  -768  -528  -476  -420  -300  -201  -139  -95  -121  -225  -280  -192  12  317  673  892  859  711  613  590  578  519  413  336  335  381  451  525  603  725  885  1097  1401  1679  1740  1622  1515  1512  1669  1988  2333  2590  2745  2804  2809  2812  2809  2735  2551  2309  2105  2059  2187  2337  2377  2272  2029  1703  1374  1050  774  611  479  337  313  417  502  515  510  493  385  138  -134  -227  -73  135  193  153  154  177  171  181  224  212  90  -37  -62  -36  -9  40  72  37  -12  -41  -66  -68  38  280  496  533  435  376  499  767  961  925  772  724  794  802  674  488  288  89  -42  -70  -56  -58  -39  94  344  531  477  199  -121  -336  -451  -502  -505  -570  -774  -983  -1043  -976  -837  -643  -493  -515  -685  -861  -937  -931  -931  -1010  -1143  -1210  -1185  -1215  -1396  -1627  -1776  -1808  -1694  -1479  -1372  -1513  -1753  -1883  -1874  -1746  -1528  -1383  -1410  -1490  -1527  -1531  -1528  -1523  -1494  -1412  -1314  -1330  -1499  -1699  -1813  -1803  -1688  -1536  -1403  -1281  -1143  -984  -867  -861  -867  -739  -574  -528  -561  -587  -602  -634  -674  -682  -650  -621  -670  -828  -1029  -1166  -1192  -1139  -1004  -801  -692  -743  -757  -662  -620  -650  -617  -519  -446  -415  -413  -426  -418  -343  -210  -111  -149  -366  -633  -753  -681  -493  -257  -14  161  193  119  17  -105  -233  -305  -299  -248  -211  -208  -213  -188  -114  -44  -116  -365  -594  -685  -663  -382  307  910  685  -15  -310  -88  408  1020  1576  2081  2587  2867  2578  1671  383  -1001  -2164  -2768  -2712  -2290  -1940  -1955  -2196  -2117  -1551  -920  -541  -360  -193  15  192  301  381  461  551  648  704  716  717  711  666  564  450  423  510  569  507  397  334  430  780  1276  1665  1834  1835  1735  1658  1757  1984  2183  2298  2334  2323  2319  2361  2440  2500  2490  2400  2265  2182  2239  2386  2498  2570  2667  2745  2745  2712  2696  2622  2419  2181  2024  1945  1921  1933  1947  1921  1829  1668  1471  1260  1002  695  410  188  -1  -172  -285  -363  -487  -595  -507  -261  -113  -160  -294  -427  -533  -584  -588  -592  -620  -634  -577  -463  -370  -391  -547  -723  -768  -665  -531  -434  -393  -424  -454  -402  -366  -519  -866  -1206  -1363  -1375  -1357  -1327  -1234  -1074  -947  -878  -776  -656  -663  -776  -814  -751  -711  -711  -663  -557  -453  -353  -246  -241  -438  -740  -954  -1010  -990  -975  -962  -898  -771  -626  -496  -436  -550  -838  -1116  -1184  -1032  -830  -709  -649  -599  -598  -701  -855  -1003  -1186  -1411  -1592  -1670  -1686  -1699  -1682  -1537  -1249  -997  -934  -990  -999  -917  -817  -729  -701  -834  -1053  -1137  -1050  -936  -826  -678  -595  -664  -777  -829  -837  -863  -946  -1062  -1143  -1159  -1129  -1051  -922  -807  -764  -759  -681  -507  -392  -390  -321  -117  109  368  687  915  938  859  804  787  732  585  393  288  349  456  434  328  330  481  710  961  1140  1140  967  786  760  873  1025  1181  1315  1376  1376  1359  1338  1320  1340  1397  1387  1265  1113  993  937  954  974  931  896  916  881  656  190  -325  -425  -16  451  732  945  1246  1701  2229  2707  3001  2820  1978  743  -484  -1497  -2064  -2048  -1701  -1174  -202  952  1309  759  204  48  44  -32  -175  -267  -282  -271  -272  -292  -354  -521  -791  -1012  -1012  -815  -586  -430  -416  -639  -1042  -1370  -1432  -1254  -942  -586  -360  -428  -724  -1009  -1132  -1141  -1145  -1173  -1135  -930  -593  -206  179  507  727  871  1100  1489  1841  1993  2091  2294  2520  2619  2591  2559  2610  2702  2758  2773  2781  2770  2680  2493  2261  1981  1615  1244  1026  970  931  841  672  357  -2  -179  -187  -255  -442  -582  -573  -467  -357  -303  -298  -299  -289  -293  -336  -438  -661  -954  -1095  -965  -693  -465  -335  -305  -407  -632  -885  -1084  -1161  -1045  -767  -489  -357  -354  -385  -395  -357  -255  -119  -27  0  -20  -43  -4  1  -265  -794  -1249  -1416  -1375  -1223  -1022  -922  -1022  -1211  -1328  -1349  -1342  -1340  -1346  -1365  -1390  -1360  -1230  -1057  -953  -1000  -1161  -1263  -1197  -1102  -1147  -1251  -1228  -1042  -795  -584  -447  -391  -433  -520  -557  -542  -533  -518  -400  -128  181  346  317  188  48  -29  45  222  242  -34  -384  -540  -489  -321  -102  42  10  -144  -292  -358  -363  -364  -373  -345  -264  -219  -236  -221  -114  25  130  226  303  237  52  -23  48  56  -104  -347  -588  -758  -810  -801  -797  -784  -690  -493  -296  -216  -258  -355  -444  -431  -273  -61  181  515  797  828  721  701  784  887  951  946  918  909  909  922  954  936  732  332  -24  -154  -105  64  259  266  69  -128  -268  -459  -675  -736  -654  -631  -729  -878  -989  -996  -916  -833  -793  -847  -1080  -1397  -1492  -1285  -1002  -782  -473  146  1010  1900  2675  3116  2949  2176  1099  -31  -1090  -1897  -2364  -2609  -2657  -2400  -1993  -1742  -1644  -1490  -1192  -819  -535  -491  -637  -727  -606  -368  -175  -47  65  171  300  485  642  636  488  358  330  349  349  346  419  627  963  1379  1758  1959  1964  1896  1902  2006  2104  2156  2231  2314  2331  2341  2441  2561  2614  2624  2619  2617  2628  2617  2523  2352  2208  2149  2104  1990  1827  1712  1681  1698  1680  1535  1270  1000  771  513  209  -83  -362  -595  -706  -715  -692  -659  -620  -628  -734  -879  -1007  -1131  -1171  -1013  -746  -558  -470  -430  -501  -723  -937  -974  -892  -824  -748  -641  -567  -541  -539  -548  -546  -514  -458  -400  -376  -458  -602  -629  -488  -358  -396  -529  -642  -773  -953  -1057  -954  -649  -240  134  326  316  246  218  222  212  150  26  -74  -29  82  110  73  -11  -204  -472  -685  -775  -780  -710  -597  -619  -861  -1168  -1362  -1406  -1380  -1357  -1351  -1348  -1342  -1286  -1097  -801  -545  -459  -562  -738  -832  -791  -691  -598  -507  -414  -319  -226  -188  -230  -315  -397  -433  -427  -433  -513  -648  -723  -695  -679  -755  -854  -944  -1008  -920  -638  -359  -258  -249  -214  -190  -175  -89  4  -25  -145  -246  -287  -292  -292  -286  -233  -154  -149  -231  -298  -306  -311  -318  -212  54  379  685  980  1202  1260  1210  1139  1002  818  715  700  705  720  793  945  1100  1156  1106  1014  904  795  756  781  777  629  312  -6  -196  -336  -516  -695  -815  -907  -1006  -1068  -1081  -1084  -1097  -1089  -1032  -884  -478  45  93  -388  -828  -931  -686  -30  929  1833  2430  2628  2295  1433  270  -992  -2223  -3127  -3396  -3086  -2564  -2223  -2172  -2127  -1867  -1519  -1283  -1160  -976  -649  -344  -189  -82  25  45  -6  -17  24  65  140  309  501  599  608  608  642  671  637  566  507  460  415  392  518  938  1532  2021  2309  2459  2522  2552  2564  2534  2469  2396  2340  2326  2327  2318  2334  2452  2672  2829  2768  2564  2407  2339  2314  2351  2414  2359  2154  1935  1747  1446  993  559  247  -6  -258  -460  -546  -548  -545  -567  -573  -537  -568  -758  -1005  -1141  -1155  -1132  -1076  -994  -976  -1039  -1059  -972  -831  -652  -465  -374  -367  -347  -313  -291  -277  -285  -366  -523  -654  -700  -729  -820  -925  -958  -922  -835  -716  -661  -711  -750  -691  -600  -549  -505  -463  -457  -465  -464  -456  -437  -422  -467  -581  -656  -659  -670  -661  -566  -456  -372  -259  -170  -159  -134  1  213  377  415  403  434  477  498  515  529  487  309  -34  -448  -715  -726  -565  -337  -159  -189  -416  -629  -706  -735  -793  -807  -757  -744  -759  -720  -666  -670  -701  -721  -735  -747  -723  -660  -633  -648  -661  -715  -807  -825  -745  -631  -496  -360  -250  -121  15  28  -155  -444  -669  -741  -728  -712  -689  -609  -483  -404  -403  -436  -505  -652  -806  -765  -462  -151  -110  -271  -422  -491  -427  -170  104  108  -181  -506  -660  -669  -654  -670  -685  -672  -711  -794  -712  -372  0  179  204  202  213  235  259  286  290  215  104  28  -26  -61  -67  -62  -65  -85  -112  -111  -84  -85  -107  -142  -173  27  771  1724  1917  1222  581  532  876  1385  2017  2697  3295  3676  3609  2868  1572  155  -1027  -1795  -2084  -2076  -2144  -2567  -3085  -3020  -2365  -1759  -1401  -1106  -846  -691  -573  -429  -324  -274  -219  -189  -226  -271  -282  -285  -320  -389  -448  -417  -240  -26  38  -47  -158  -231  -249  -131  192  619  1005  1352  1610  1673  1592  1503  1448  1418  1414  1420  1424  1444  1501  1546  1524  1497  1508  1545  1667  1896  2115  2220  2236  2241  2226  2139  2034  1961  1851  1732  1752  1898  2013  2048  2052  2040  1967  1801  1582  1341  1067  760  498  322  146  -96  -298  -345  -275  -157  -29  93  190  219  173  97  51  39  30  16  43  130  163  45  -135  -241  -267  -255  -193  -103  -64  -110  -183  -222  -231  -196  -97  -27  -56  -140  -220  -261  -271  -278  -283  -242  -144  -92  -181  -382  -599  -774  -878  -870  -756  -565  -268  118  440  529  376  149  -37  -174  -238  -240  -238  -265  -300  -277  -176  -117  -264  -585  -876  -1027  -1061  -987  -799  -601  -523  -595  -820  -1172  -1505  -1644  -1563  -1376  -1178  -1027  -966  -965  -946  -877  -845  -988  -1272  -1532  -1651  -1592  -1429  -1299  -1258  -1232  -1161  -1093  -1089  -1106  -1092  -1049  -926  -692  -508  -495  -557  -594  -605  -613  -608  -592  -618  -699  -802  -882  -831  -636  -527  -644  -807  -839  -781  -698  -546  -364  -272  -279  -362  -533  -716  -807  -817  -816  -837  -837  -787  -752  -741  -688  -602  -503  -315  -28  209  298  259  111  -27  37  262  405  414  423  480  532  560  591  600  471  133  -268  -519  -575  -551  -522  -406  -196  -114  -291  -447  -209  247  371  213  209  366  573  888  1394  2114  2881  3344  3170  2346  1219  75  -965  -1649  -1842  -1767  -1658  -1685  -1811  -1570  -915  -430  -313  -234  73  465  617  486  283  174  147  140  167  319  588  779  803  768  722  628  534  559  707  831  861  900  995  1074  1165  1397  1713  1921  1977  1961  1945  1944  1920  1825  1707  1673  1696  1718  1779  1890  2002  2089  2192  2332  2400  2336  2296  2411  2589  2710  2810  2926  2991  2989  2975  2968  2939  2847  2683  2464  2181  1772  1256  781  432  156  -101  -310  -409  -412  -359  -244  -143  -218  -456  -659  -739  -763  -774  -774  -776  -788  -800  -838  -976  -1180  -1355  -1466  -1449  -1258  -1040  -945  -914  -891  -947  -1097  -1250  -1358  -1422  -1412  -1314  -1188  -1116  -1102  -1104  -1114  -1157  -1230  -1288  -1292  -1211  -1085  -1024  -1014  -971  -944  -1008  -1061  -924  -577  -241  -129  -217  -380  -564  -723  -801  -820  -832  -818  -686  -406  -144  -121  -375  -690  -848  -845  -755  -629  -556  -578  -622  -632  -649  -668  -583  -415  -340  -442  -613  -713  -735  -742  -754  -704  -542  -342  -218  -229  -374  -567  -678  -604  -365  -152  -99  -166  -310  -470  -465  -223  34  109  70  35  22  4  -26  -75  -167  -259  -208  48  337  437  348  212  123  85  67  83  137  133  31  -35  40  186  303  377  411  422  438  440  353  168  35  67  223  379  404  296  196  204  266  296  330  455  602  660  728  952  1235  1392  1424  1425  1404  1276  1003  702  470  295  143  3  -99  -162  -271  -417  -464  -363  -105  377  880  881  367  -74  -141  52  422  1037  1847  2559  2890  2648  1693  199  -1289  -2366  -2925  -2917  -2545  -2377  -2706  -2993  -2462  -1355  -522  -185  -159  -287  -398  -426  -420  -438  -508  -582  -569  -467  -382  -331  -194  54  248  294  296  344  410  468  551  630  604  528  603  817  922  824  660  566  541  534  553  675  896  1066  1126  1168  1233  1290  1356  1551  1890  2123  2112  2104  2304  2618  2842  2804  2515  2225  2123  2149  2195  2237  2257  2168  1924  1677  1556  1425  1107  712  442  325  281  210  17  -263  -493  -630  -762  -880  -845  -676  -556  -548  -583  -607  -618  -639  -669  -634  -492  -363  -368  -486  -592  -571  -459  -351  -290  -323  -436  -495  -428  -314  -208  -72  71  141  145  140  134  87  -28  -189  -304  -280  -185  -196  -329  -428  -454  -513  -601  -596  -472  -322  -239  -294  -501  -717  -743  -602  -480  -452  -474  -489  -444  -295  -106  -68  -243  -469  -591  -577  -541  -610  -683  -592  -416  -345  -391  -444  -487  -603  -825  -1050  -1163  -1177  -1167  -1148  -1079  -956  -859  -862  -915  -902  -847  -825  -765  -614  -509  -518  -498  -407  -445  -718  -1019  -1164  -1202  -1208  -1202  -1204  -1220  -1235  -1203  -1069  -851  -690  -662  -691  -714  -764  -860  -916  -847  -738  -716  -737  -741  -799  -908  -922  -796  -613  -460  -392  -397  -413  -390  -306  -152  88  355  527  619  773  997  1164  1256  1323  1316  1202  1104  1106  1159  1210  1164  906  565  375  347  371  407  479  564  582  549  574  687  824  891  735  309  -167  -485  -678  -822  -878  -872  -944  -1095  -1155  -1082  -987  -925  -881  -855  -832  -759  -655  -485  -23  805  1685  2278  2456  2093  1174  11  -1142  -2240  -3073  -3408  -3318  -3014  -2635  -2194  -1633  -1089  -804  -765  -780  -727  -623  -567  -598  -673  -768  -820  -730  -494  -205  28  190  316  372  334  292  295  287  261  268  309  338  337  335  381  492  627  709  665  509  329  236  394  855  1388  1748  1933  2015  2012  2025  2186  2451  2702  2879  2955  2964  2967  2959  2873  2686  2491  2357  2271  2278  2404  2504  2464  2333  2075  1560  900  405  160  -32  -224  -269  -208  -212  -281  -336  -352  -348  -358  -406  -452  -449  -474  -616  -740  -639  -377  -188  -135  -174  -306  -485  -603  -656  -746  -908  -1030  -1005  -866  -724  -656  -652  -664  -666  -658  -598  -428  -264  -294  -472  -589  -580  -537  -537  -602  -740  -916  -1026  -996  -874  -735  -618  -579  -617  -650  -647  -630  -616  -636  -732  -862  -902  -826  -724  -612  -450  -340  -424  -614  -724  -712  -641  -563  -537  -620  -739  -735  -614  -518  -496  -508  -524  -532  -514  -508  -606  -776  -912  -967  -877  -628  -374  -237  -159  -94  -84  -133  -227  -400  -649  -867  -927  -846  -762  -741  -753  -756  -710  -569  -346  -206  -295  -558  -821  -896  -719  -459  -281  -137  2  61  41  -28  -177  -357  -486  -559  -590  -596  -608  -621  -568  -399  -174  -19  -7  -132  -318  -444  -436  -340  -268  -287  -319  -276  -210  -173  -106  8  104  136  110  80  74  69  32  -34  -112  -224  -351  -404  -334  -225  -168  -81  148  376  403  324  286  224  97  12  46  188  355  447  468  478  479  394  149  -188  -376  -112  439  635  376  190  391  874  1359  1773  2299  2945  3406  3336  2601  1353  -41  -1191  -1844  -2013  -1925  -1804  -1828  -1961  -1832  -1350  -826  -403  -20  282  467  632  798  763  456  155  90  181  339  580  828  952  969  972  993  954  770  497  297  234  241  294  470  801  1174  1463  1670  1832  1932  1983  2070  2221  2342  2387  2444  2551  2627  2649  2663  2683  2647  2510  2393  2470  2752  3085  3335  3481  3500  3306  2946  2623  2393  2102  1654  1173  795  489  235  134  170  187  134  81  58  -6  -187  -464  -745  -964  -1152  -1318  -1373  -1328  -1329  -1392  -1377  -1282  -1240  -1255  -1248  -1224  -1219  -1243  -1298  -1341  -1357  -1367  -1372  -1332  -1249  -1222  -1278  -1306  -1238  -1127  -1024  -882  -730  -745  -938  -1098  -1143  -1163  -1185  -1155  -1082  -991  -892  -828  -804  -795  -827  -978  -1208  -1324  -1266  -1211  -1271  -1364  -1407  -1385  -1263  -1067  -980  -1063  -1112  -1022  -914  -880  -912  -1016  -1181  -1350  -1468  -1515  -1523  -1537  -1541  -1448  -1233  -1039  -979  -1001  -1017  -1018  -1010  -932  -765  -637  -647  -685  -649  -609  -602  -572  -546  -569  -595  -598  -592  -582  -571  -582  -590  -520  -396  -310  -274  -242  -181  -56  128  259  230  71  -87  -146  -166  -267  -424  -539  -599  -620  -623  -631  -634  -587  -455  -246  -19  68  -62  -229  -194  -4  99  37  -102  -238  -262  -92  148  251  175  43  -33  -55  -52  -43  -53  -103  -162  -178  -162  -151  -184  -241  -214  -70  54  65  37  71  173  303  390  346  217  129  102  99  98  86  78  125  241  318  243  52  -82  -76  -23  -7  -55  -170  -355  -738  -1202  -1108  -309  482  767  690  671  983  1612  2394  3044  3169  2526  1300  -74  -1316  -2273  -2751  -2718  -2260  -1290  -176  169  -209  -425  -270  -91  -21  12  26  -8  -55  -85  -96  -103  -127  -160  -121  33  168  208  284  447  548  505  421  407  470  569  676  768  834  932  1097  1228  1268  1284  1299  1306  1318  1341  1341  1311  1350  1493  1604  1593  1612  1815  2093  2287  2375  2393  2385  2380  2379  2338  2247  2192  2189  2161  2108  2083  2081  2053  1946  1751  1527  1337  1160  983  823  595  175  -361  -738  -823  -761  -685  -633  -684  -865  -1034  -1049  -949  -866  -844  -849  -858  -873  -865  -773  -620  -506  -485  -506  -455  -337  -339  -518  -673  -663  -540  -370  -191  -63  15  68  76  61  50  26  -36  -82  -14  113  119  -40  -258  -456  -582  -568  -456  -377  -306  -132  82  224  283  259  133  -33  -163  -246  -273  -260  -267  -358  -520  -610  -520  -351  -302  -402  -505  -502  -362  -167  -110  -181  -165  -47  -15  -147  -402  -717  -948  -997  -955  -930  -923  -884  -783  -624  -412  -179  -36  -66  -181  -235  -197  -89  27  -13  -241  -401  -305  -71  100  145  82  -26  -93  -98  -94  -130  -214  -258  -120  211  487  455  177  -74  -151  -110  -42  28  76  61  13  -23  -114  -314  -463  -364  -100  107  183  201  229  246  208  159  154  109  -17  -106  -146  -282  -525  -704  -739  -676  -520  -255  12  110  49  43  166  282  328  348  340  214  -91  -461  -679  -623  -391  -161  -21  -42  -304  -689  -906  -837  -656  -596  -731  -973  -1150  -1060  -686  -286  -98  -121  -233  -366  -534  -695  -712  -428  280  1295  2169  2564  2430  1729  527  -831  -2046  -2982  -3471  -3417  -2930  -2211  -1455  -895  -653  -610  -616  -641  -656  -612  -547  -526  -537  -518  -467  -409  -293  -101  33  31  26  118  228  286  319  322  301  303  322  328  334  363  410  464  523  528  463  467  652  910  1087  1186  1268  1332  1421  1624  1865  1983  2023  2102  2157  2115  2055  2030  2017  2019  2087  2261  2483  2581  2410  2054  1788  1765  1821  1731  1533  1311  970  522  178  14  -77  -105  4  163  232  224  211  200  162  86  -9  -133  -324  -579  -794  -846  -730  -558  -424  -321  -246  -247  -358  -519  -629  -649  -549  -310  -50  75  81  59  41  12  -29  -96  -231  -396  -516  -555  -448  -218  -85  -124  -137  -58  -83  -316  -604  -803  -927  -965  -872  -727  -652  -649  -662  -670  -676  -693  -768  -940  -1105  -1162  -1141  -1028  -819  -653  -631  -673  -664  -610  -563  -490  -388  -351  -405  -478  -518  -529  -528  -504  -426  -335  -352  -534  -782  -916  -884  -791  -687  -580  -543  -589  -615  -558  -455  -305  -52  186  224  112  -6  -88  -184  -368  -629  -843  -920  -855  -675  -475  -388  -437  -517  -462  -261  -178  -388  -653  -710  -588  -349  -8  268  312  201  106  63  1  -122  -232  -228  -159  -179  -299  -386  -355  -250  -150  -70  -29  -83  -204  -268  -223  -149  -64  104  290  357  334  305  293  302  333  358  327  231  117  34  -12  -85  -260  -486  -591  -545  -475  -433  -409  -438  -497  -450  -312  -306  -416  -378  -178  60  393  887  1449  1982  2444  2624  2211  1236  87  -1033  -2068  -2688  -2749  -2670  -2720  -2560  -1874  -1056  -640  -543  -498  -465  -456  -455  -451  -456  -449  -341  -130  57  113  29  -93  -65  163  451  694  842  838  731  679  744  847  907  924  934  935  927  955  1084  1258  1299  1185  1095  1141  1261  1371  1529  1814  2133  2357  2517  2674  2805  2890  2941  2945  2904  2857  2822  2802  2797  2797  2815  2869  2923  2897  2742  2451  2085  1737  1449  1239  1042  763  447  167  -102  -355  -531  -607  -633  -650  -651  -645  -651  -640  -558  -409  -310  -375  -570  -794  -985  -1050  -943  -766  -605  -479  -449  -524  -598  -615  -616  -570  -394  -175  -71  -69  -82  -91  -145  -278  -458  -598  -623  -577  -562  -555  -466  -334  -262  -237  -217  -264  -442  -627  -665  -592  -485  -362  -294  -327  -387  -406  -402  -429  -538  -718  -862  -865  -795  -750  -685  -596  -583  -629  -633  -635  -744  -942  -1076  -1066  -1018  -993  -909  -766  -678  -669  -663  -586  -463  -417  -479  -545  -601  -738  -893  -867  -651  -478  -496  -605  -675  -731  -779  -705  -532  -434  -406  -316  -184  -115  -104  -96  -97  -186  -431  -769  -1016  -997  -738  -423  -217  -240  -510  -800  -855  -714  -549  -378  -185  -117  -235  -374  -425  -422  -436  -504  -596  -622  -521  -321  -163  -235  -521  -802  -927  -874  -742  -724  -845  -916  -855  -749  -599  -377  -128  81  109  -76  -228  -164  97  515  1069  1739  2431  2850  2687  1953  873  -322  -1324  -1895  -2086  -2106  -2136  -2226  -2079  -1304  -246  310  263  52  -55  -68  -88  -194  -372  -504  -458  -253  -14  182  298  318  304  328  386  408  350  267  247  291  391  598  869  1069  1155  1171  1165  1159  1138  1076  1025  1050  1079  1063  1106  1254  1411  1549  1783  2157  2476  2565  2539  2572  2650  2741  2914  3133  3260  3280  3267  3259  3244  3192  3079  2915  2717  2445  2140  1932  1758  1458  1093  845  736  639  502  398  330  185  -33  -179  -200  -174  -154  -140  -153  -241  -401  -525  -512  -377  -258  -273  -377  -468  -508  -452  -268  -69  15  21  12  -54  -201  -385  -541  -614  -620  -610  -597  -569  -536  -528  -530  -481  -377  -322  -353  -369  -321  -265  -231  -196  -158  -176  -264  -313  -300  -310  -342  -355  -352  -348  -355  -394  -453  -474  -464  -497  -613  -798  -999  -1113  -1026  -764  -539  -482  -478  -419  -357  -351  -386  -446  -512  -560  -587  -599  -600  -609  -634  -646  -618  -590  -590  -602  -595  -557  -503  -410  -288  -270  -429  -619  -703  -712  -649  -465  -245  -104  -41  -25  -33  -36  -17  20  60  73  6  -157  -379  -569  -636  -605  -517  -324  -29  243  419  509  513  484  486  465  388  328  320  324  285  188  71  -11  -45  -96  -190  -220  -118  -19  -194  -797  -1466  -1484  -830  -180  125  231  442  952  1664  2372  2908  2963  2185  721  -819  -2008  -2684  -2789  -2505  -2043  -1270  -316  72  -196  -360  -144  130  219  95  -137  -293  -244  -38  165  259  268  256  243  201  145  122  99  45  9  22  97  276  558  861  1107  1203  1047  736  592  766  1083  1336  1472  1527  1534  1525  1550  1638  1711  1626  1417  1312  1436  1656  1824  2013  2282  2443  2374  2250  2226  2231  2171  2044  1831  1546  1296  1155  1121  1137  1132  1059  965  958  1038  1046  856  520  187  -61  -217  -311  -421  -599  -760  -774  -665  -529  -371  -227  -185  -213  -237  -237  -226  -238  -321  -450  -529  -547  -570  -597  -559  -471  -418  -398  -354  -285  -233  -248  -352  -502  -573  -450  -220  -99  -133  -212  -251  -249  -250  -304  -429  -620  -845  -969  -886  -708  -646  -736  -816  -751  -596  -497  -489  -557  -771  -1088  -1274  -1207  -1033  -917  -884  -883  -870  -851  -864  -915  -1006  -1201  -1431  -1439  -1155  -853  -803  -995  -1237  -1355  -1289  -1094  -910  -913  -1108  -1316  -1420  -1445  -1442  -1436  -1446  -1472  -1477  -1434  -1381  -1350  -1366  -1435  -1457  -1339  -1188  -1122  -1068  -978  -955  -1029  -1130  -1202  -1209  -1175  -1162  -1174  -1189  -1199  -1188  -1126  -1051  -1087  -1252  -1409  -1441  -1359  -1224  -1040  -870  -893  -1116  -1294  -1288  -1219  -1214  -1241  -1290  -1403  -1541  -1634  -1659  -1637  -1622  -1688  -1883  -2049  -1927  -1563  -1234  -1062  -985  -819  -333  452  1208  1630  1533  792  -421  -1668  -2635  -3243  -3445  -3251  -2879  -2576  -2449  -2474  -2471  -2261  -1879  -1504  -1263  -1174  -1184  -1204  -1206  -1202  -1202  -1194  -1084  -795  -489  -410  -584  -872  -1121  -1191  -1083  -954  -902  -903  -877  -760  -548  -320  -212  -311  -529  -619  -478  -253  -55  90  95  -94  -307  -278  31  440  805  1060  1163  1169  1161  1152  1080  916  763  789  1047  1348  1454  1361  1206  1001  709  362  -39  -526  -1029  -1385  -1516  -1541  -1549  -1495  -1400  -1357  -1366  -1376  -1380  -1424  -1547  -1736  -1934  -2097  -2209  -2228  -2113  -1953  -1920  -2027  -2097  -2060  -2005  -1947  -1843  -1765  -1820  -2008  -2210  -2309  -2315  -2313  -2352  -2398  -2375  -2311  -2280  -2226  -2081  -1935  -1847  -1738  -1604  -1584  -1716  -1829  -1787  -1639  -1478  -1357  -1348  -1458  -1561  -1575  -1535  -1505  -1496  -1470  -1402  -1366  -1447  -1521  -1408  -1150  -924  -835  -840  -857  -845  -737  -499  -276  -237  -317  -310  -179  -77  -111  -228  -314  -346  -358  -330  -186  51  187  122  40  127  297  393  453  559  683  838  1086  1330  1416  1411  1438  1421  1306  1203  1167  1157  1164  1241  1432  1682  1888  2000  2070  2180  2352  2543  2718  2958  3388  3918  4243  4265  4201  4234  4423  4774  5150  5368  5407  5336  5228  5128]
