reading_id,reading_time,wire_id,result_classification,heart_rate,heart_rate_alert,firmware_version,device_app_version,hardware_version,waveform_samples
943b2d90-5470-11ed-8080-808080808080,Tue Oct 25 14:23:21 UTC 2022,2101e3d81839,NSR,63,NONE,20001.171.50,2.10.0,Charge 5,[0  14  24  5  -57  -113  -57  199  656  1172  1582  1859  2073  2274  2465  2648  2852  3064  3216  3313  3451  3681  3953  4188  4344  4425  4462  4494  4539  4590  4628  4644  4626  4566  4468  4366  4298  4267  4234  4163  4037  3872  3733  3632  3503  3357  3255  3188  3139  3115  3103  3089  3085  3102  3124  3111  3035  2906  2761  2656  2665  2877  3310  3826  4218  4375  4348  4282  4239  4173  4058  3924  3798  3706  3732  3918  4125  4188  4132  4076  4046  3994  3925  3925  4001  3966  3720  3414  3172  2978  2902  3024  3229  3362  3405  3406  3366  3248  3044  2816  2642  2568  2602  2622  2386  1877  1398  1179  1163  1205  1228  1220  1192  1163  1141  1118  1096  1089  1092  1095  1094  1094  1107  1151  1223  1268  1228  1115  969  831  744  713  715  757  859  987  1049  995  868  744  626  448  214  21  -79  -122  -138  -143  -185  -337  -614  -944  -1212  -1363  -1419  -1385  -1217  -973  -871  -1006  -1116  -807  13  1135  2320  3242  3507  2964  1672  -129  -1858  -2931  -3252  -3185  -3082  -2921  -2596  -2270  -2111  -2044  -1933  -1769  -1660  -1665  -1726  -1766  -1750  -1670  -1542  -1411  -1310  -1223  -1130  -1097  -1186  -1320  -1369  -1276  -1068  -846  -698  -616  -552  -502  -493  -529  -559  -477  -203  194  519  669  727  830  1026  1269  1465  1545  1517  1456  1421  1411  1410  1452  1603  1873  2203  2501  2614  2393  1900  1425  1167  1068  986  904  863  840  775  656  525  370  109  -243  -551  -739  -860  -969  -1057  -1105  -1122  -1135  -1160  -1191  -1223  -1260  -1292  -1292  -1248  -1183  -1132  -1115  -1137  -1201  -1288  -1360  -1410  -1447  -1470  -1475  -1472  -1477  -1501  -1530  -1519  -1449  -1355  -1275  -1213  -1160  -1118  -1092  -1092  -1126  -1190  -1240  -1237  -1188  -1124  -1069  -1039  -1028  -1028  -1048  -1102  -1184  -1296  -1468  -1679  -1828  -1820  -1630  -1321  -1041  -899  -886  -930  -978  -1040  -1151  -1287  -1386  -1433  -1450  -1448  -1397  -1251  -1042  -876  -807  -811  -861  -932  -984  -1003  -1009  -1015  -1018  -1014  -1012  -1014  -1012  -990  -943  -899  -882  -887  -884  -846  -766  -673  -612  -595  -621  -715  -887  -1085  -1217  -1236  -1175  -1099  -1034  -986  -983  -1048  -1147  -1225  -1280  -1359  -1410  -1282  -1068  -1029  -1111  -1012  -421  837  2468  3828  4397  3975  2730  1063  -617  -1989  -2897  -3354  -3367  -2955  -2285  -1588  -1040  -740  -659  -684  -754  -880  -1020  -1048  -880  -606  -403  -341  -353  -367  -360  -338  -318  -312  -300  -246  -132  25  187  310  373  403  469  617  810  954  1009  1035  1103  1225  1356  1451  1502  1532  1593  1732  1922  2076  2161  2215  2272  2340  2415  2485  2533  2566  2602  2646  2684  2688  2652  2604  2564  2501  2372  2125  1717  1207  757  481  370  343  330  317  318  330  322  234  39  -210  -412  -511  -526  -512  -503  -501  -480  -430  -403  -473  -619  -738  -779  -772  -741  -681  -591  -500  -438  -416  -418  -416  -378  -297  -196  -114  -91  -131  -195  -244  -280  -316  -350  -383  -414  -425  -400  -347  -298  -283  -304  -352  -431  -525  -592  -613  -602  -578  -555  -540  -535  -531  -529  -545  -595  -668  -725  -743  -733  -717  -718  -750  -814  -886  -928  -909  -822  -703  -608  -556  -516  -451  -357  -283  -278  -347  -448  -522  -552  -553  -528  -471  -404  -360  -334  -290  -231  -185  -140  -55  76  219  328  381  379  340  265  133  -34  -180  -318  -516  -765  -963  -1036  -990  -868  -719  -577  -455  -367  -337  -421  -624  -805  -726  -218  692  1822  2992  4015  4609  4551  3827  2507  756  -1024  -2421  -3265  -3453  -2983  -2183  -1374  -717  -384  -357  -430  -467  -463  -474  -579  -769  -862  -712  -423  -170  3  121  195  249  320  418  515  569  560  489  380  301  297  334  392  499  685  945  1232  1492  1696  1817  1855  1865  1926  2076  2302  2554  2754  2866  2928  3003  3114  3252  3403  3518  3541  3487  3382  3203  2970  2742  2524  2328  2206  2165  2151  2110  1997  1795  1546  1286  958  517  68  -230  -354  -384  -391  -394  -396  -395  -387  -368  -343  -322  -311  -324  -364  -404  -426  -435  -428  -409  -397  -398  -401  -396  -383  -363  -328  -264  -198  -160  -145  -142  -161  -217  -314  -425  -510  -556  -575  -565  -530  -488  -442  -399  -378  -385  -422  -492  -593  -692  -727  -686  -620  -577  -558  -539  -502  -456  -432  -448  -479  -496  -507  -530  -562  -587  -598  -598  -593  -578  -553  -533  -518  -490  -433  -351  -265  -200  -185  -228  -304  -406  -539  -654  -675  -585  -450  -357  -334  -357  -390  -412  -423  -430  -439  -445  -431  -383  -325  -323  -424  -582  -692  -709  -676  -642  -600  -515  -387  -251  -136  -57  -1  55  87  16  -201  -492  -707  -784  -786  -785  -779  -733  -655  -593  -577  -599  -631  -646  -638  -644  -682  -697  -668  -600  -347  265  1236  2501  3879  4808  4676  3465  1625  -382  -2045  -2974  -3291  -3293  -3008  -2445  -1853  -1435  -1171  -984  -844  -751  -706  -683  -639  -567  -500  -481  -509  -530  -503  -451  -419  -421  -449  -488  -522  -546  -561  -547  -467  -284  3  308  499  544  530  555  631  677  636  582  638  846  1172  1543  1862  2068  2157  2172  2155  2131  2115  2152  2287  2481  2624  2650  2582  2484  2416  2390  2380  2368  2327  2193  1923  1580  1278  1062  864  581  207  -148  -375  -458  -471  -482  -505  -531  -556  -577  -606  -661  -696  -648  -553  -498  -534  -675  -871  -1025  -1086  -1037  -861  -609  -395  -275  -247  -298  -397  -516  -628  -705  -738  -738  -705  -634  -542  -459  -402  -374  -387  -453  -568  -700  -807  -843  -794  -699  -621  -584  -576  -592  -652  -775  -949  -1125  -1246  -1299  -1284  -1151  -862  -504  -240  -147  -154  -147  -116  -148  -259  -368  -424  -441  -444  -444  -447  -448  -436  -401  -358  -339  -359  -396  -416  -415  -415  -458  -560  -676  -701  -567  -332  -127  -18  15  12  -8  -47  -101  -148  -176  -211  -290  -409  -527  -611  -653  -652  -606  -529  -455  -401  -347  -299  -275  -278  -293  -304  -290  -226  -108  27  133  185  197  193  189  179  154  112  51  -21  -94  -173  -290  -430  -534  -577  -585  -586  -584  -575  -569  -593  -671  -823  -1026  -1156  -1123  -969  -678  -92  888  2141  3477  4715  5398  5050  3715  1751  -395  -2131  -3093  -3345  -3072  -2502  -1950  -1618  -1443  -1260  -1010  -753  -582  -509  -472  -430  -406  -437  -508  -531  -422  -199  43  218  291  296  288  299  324  345  353  349  336  324  350  460  656  872  1033  1126  1192  1263  1331  1383  1438  1531  1662  1782  1855  1899  1968  2110  2313  2510  2649  2732  2785  2822  2831  2791  2730  2686  2656  2618  2549  2438  2278  2039  1709  1357  1063  821  586  375  229  127  7  -145  -282  -373  -451  -542  -620  -660  -668  -665  -663  -663  -654  -623  -569  -517  -482  -470  -480  -474  -396  -258  -141  -126  -255  -497  -737  -878  -926  -926  -874  -748  -571  -420  -361  -404  -502  -595  -648  -663  -656  -640  -617  -585  -544  -498  -458  -434  -419  -404  -394  -399  -434  -505  -588  -640  -644  -612  -572  -551  -554  -557  -516  -412  -305  -291  -365  -428  -433  -416  -410  -412  -417  -420  -413  -387  -345  -300  -262  -242  -284  -426  -617  -738  -731  -648  -558  -473  -385  -319  -317  -394  -506  -594  -648  -683  -692  -653  -559  -445  -342  -237  -123  -49  -83  -231  -382  -394  -270  -146  -110  -139  -168  -172  -180  -211  -250  -273  -273  -257  -216  -133  -25  51  67  35  -15  -70  -137  -223  -333  -490  -674  -803  -822  -745  -630  -537  -498  -516  -581  -669  -771  -915  -1078  -1078  -672  218  1440  2703  3769  4461  4512  3767  2368  539  -1375  -2852  -3624  -3804  -3500  -2815  -1981  -1258  -816  -636  -559  -478  -408  -381  -383  -387  -378  -358  -330  -277  -163  6  161  246  266  238  161  45  -62  -112  -89  -1  139  302  448  562  656  740  817  912  1041  1171  1271  1353  1441  1527  1611  1735  1932  2155  2309  2382  2447  2539  2626  2685  2733  2781  2812  2801  2734  2599  2419  2269  2194  2145  2028  1793  1477  1157  883  671  522  431  380  339  266  127  -51  -200  -303  -401  -492  -551  -584  -589  -542  -465  -426  -456  -517  -554  -558  -557  -563  -565  -549  -526  -511  -508  -510  -510  -511  -520  -531  -536  -537  -537  -540  -540  -530  -504  -484  -490  -509  -522  -562  -678  -836  -919  -871  -772  -693  -613  -528  -477  -464  -455  -425  -397  -415  -469  -495  -474  -451  -455  -459  -444  -440  -496  -607  -712  -761  -748  -690  -617  -565  -542  -538  -535  -531  -531  -535  -534  -503  -422  -304  -206  -185  -261  -424  -616  -758  -821  -829  -805  -752  -661  -531  -391  -303  -307  -396  -515  -601  -628  -616  -587  -552  -520  -494  -477  -473  -460  -411  -328  -248  -199  -184  -179  -151  -74  31  118  159  160  117  19  -108  -221  -298  -345  -381  -420  -445  -445  -454  -498  -547  -566  -555  -540  -537  -509  -452  -477  -641  -844  -900  -628  19  964  2136  3386  4399  4801  4319  3031  1352  -310  -1693  -2630  -3099  -3141  -2746  -2035  -1341  -896  -677  -575  -529  -521  -538  -562  -576  -565  -523  -467  -404  -338  -270  -188  -83  18  76  90  110  180  281  353  369  357  357  389  458  556  674  788  865  905  943  1039  1235  1494  1718  1875  1988  2067  2118  2165  2235  2329  2428  2515  2593  2661  2710  2723  2683  2588  2452  2319  2238  2224  2234  2170  1952  1606  1246  966  785  667  554  407  214  -9  -230  -408  -516  -563  -599  -682  -794  -863  -858  -815  -770  -731  -702  -669  -623  -577  -533  -475  -411  -362  -332  -320  -333  -368  -423  -486  -533  -558  -581  -613  -643  -660  -665  -653  -590  -453  -323  -326  -462  -615  -733  -855  -989  -1051  -978  -826  -695  -628  -594  -554  -510  -480  -463  -451  -440  -446  -492  -568  -640  -690  -714  -718  -712  -707  -713  -743  -796  -853  -889  -886  -842  -770  -689  -627  -594  -565  -523  -503  -544  -622  -681  -701  -709  -732  -760  -764  -735  -694  -670  -672  -685  -687  -655  -575  -472  -396  -363  -353  -345  -332  -325  -332  -350  -373  -396  -411  -415  -410  -400  -382  -360  -339  -330  -336  -347  -356  -361  -359  -355  -360  -378  -389  -341  -197  -13  115  156  144  112  71  9  -109  -310  -529  -671  -715  -709  -681  -629  -564  -514  -489  -483  -507  -603  -773  -933  -989  -881  -505  228  1230  2316  3397  4380  4936  4687  3559  1782  -238  -1980  -2971  -3085  -2610  -1973  -1457  -1144  -990  -904  -836  -777  -705  -581  -422  -302  -251  -225  -174  -96  -28  16  48  67  63  32  -12  -51  -80  -89  -26  165  446  677  776  783  777  796  840  899  978  1088  1209  1294  1340  1407  1569  1817  2051  2193  2240  2233  2221  2251  2354  2515  2695  2883  3063  3185  3209  3110  2882  2596  2357  2193  2062  1922  1748  1543  1336  1143  941  722  512  297  32  -261  -520  -704  -799  -821  -812  -803  -806  -807  -789  -750  -706  -672  -646  -611  -568  -554  -586  -612  -585  -536  -523  -567  -641  -684  -666  -630  -614  -612  -609  -602  -609  -652  -724  -790  -824  -828  -819  -815  -823  -826  -804  -762  -712  -658  -605  -557  -518  -502  -526  -596  -691  -771  -809  -812  -797  -766  -698  -582  -456  -377  -367  -416  -488  -554  -616  -691  -772  -831  -837  -785  -704  -639  -615  -623  -640  -654  -670  -689  -706  -721  -739  -751  -751  -749  -763  -802  -843  -848  -812  -771  -753  -754  -760  -763  -752  -720  -681  -650  -628  -597  -544  -475  -411  -355  -319  -359  -510  -712  -874  -955  -970  -930  -807  -583  -332  -168  -117  -122  -132  -113  -44  55  141  185  186  131  10  -139  -243  -272  -262  -248  -249  -293  -400  -535  -632  -667  -667  -649  -604  -524  -440  -420  -498  -572  -507  -271  189  999  2118  3368  4558  5277  5062  3825  1843  -361  -2106  -2982  -3132  -2910  -2526  -2104  -1683  -1205  -727  -426  -341  -362  -381  -360  -307  -237  -158  -94  -62  -44  -2  88  197  249  201  95  7  -35  -43  -14  79  238  428  619  806  995  1163  1278  1345  1395  1445  1487  1505  1500  1509  1594  1775  1990  2159  2257  2311  2378  2500  2652  2775  2849  2885  2896  2906  2929  2935  2862  2714  2570  2453  2296  2043  1715  1402  1173  986  765  515  293  124  0  -93  -176  -257  -323  -362  -385  -422  -490  -558  -568  -506  -422  -362  -336  -342  -380  -458  -560  -630  -616  -501  -336  -220  -223  -345  -522  -666  -750  -794  -807  -793  -767  -733  -696  -669  -658  -657  -659  -661  -658  -648  -633  -624  -622  -623  -626  -627  -621  -604  -580  -562  -553  -547  -546  -553  -567  -591  -646  -740  -837  -902  -917  -876  -806  -744  -709  -719  -747  -745  -717  -691  -681  -690  -695  -681  -645  -583  -510  -445  -375  -290  -230  -272  -424  -598  -707  -736  -716  -687  -666  -653  -646  -649  -668  -701  -727  -733  -727  -731  -738  -695  -555  -368  -248  -234  -272  -306  -319  -309  -286  -261  -242  -233  -215  -151  -24  117  174  96  -58  -193  -273  -317  -339  -346  -366  -434  -546  -657  -731  -769  -785  -780  -741  -670  -617  -622  -641  -541  -211  370  1232  2327  3402  4155  4332  3737  2407  654  -1058  -2316  -2982  -3190  -3072  -2686  -2160  -1657  -1219  -828  -531  -383  -355  -373  -388  -384  -355  -303  -243  -191  -153  -115  -47  79  236  341  335  233  130  148  303  484  588  615  622  649  697  756  837  964  1117  1242  1323  1382  1433  1499  1624  1815  2013  2155  2239  2312  2409  2528  2634  2695  2708  2694  2671  2648  2633  2625  2604  2526  2365  2135  1879  1634  1429  1274  1161  1061  947  788  551  276  68  -56  -198  -408  -625  -771  -810  -758  -692  -671  -664  -613  -537  -505  -562  -660  -676  -574  -441  -353  -317  -309  -309  -308  -303  -295  -281  -261  -251  -291  -415  -583  -713  -767  -770  -749  -716  -672  -623  -581  -566  -592  -648  -700  -733  -756  -773  -782  -786  -790  -787  -754  -692  -661  -707  -785  -830  -836  -824  -809  -801  -800  -802  -798  -781  -762  -759  -737  -656  -561  -521  -535  -554  -537  -493  -466  -484  -533  -590  -654  -736  -808  -818  -742  -606  -459  -365  -365  -454  -577  -666  -702  -712  -712  -680  -612  -584  -660  -786  -876  -921  -941  -944  -927  -877  -781  -632  -458  -292  -135  7  101  135  137  118  62  -24  -80  -51  41  118  112  34  -45  -107  -175  -238  -279  -317  -367  -412  -425  -400  -365  -363  -394  -426  -449  -492  -593  -767  -964  -1066  -958  -553  163  1071  2079  3209  4285  4869  4653  3622  1929  -53  -1763  -2831  -3270  -3186  -2660  -1925  -1322  -1007  -882  -785  -645  -489  -385  -354  -368  -396  -420  -444  -470  -478  -427  -297  -133  -10  48  72  89  110  143  187  236  285  339  430  590  792  956  1034  1056  1076  1144  1264  1400  1506  1557  1567  1579  1642  1800  2075  2431  2768  2994  3057  2978  2861  2804  2798  2789  2770  2769  2783  2766  2665  2458  2185  1914  1675  1459  1228  942  620  334  121  -14  -89  -132  -177  -242  -328  -435  -543  -621  -671  -726  -801  -872  -902  -889  -846  -780  -717  -674  -639  -609  -586  -564  -539  -518  -518  -545  -580  -600  -606  -604  -575  -500  -399  -352  -428  -619  -829  -963  -1011  -1007  -953  -831  -680  -588  -588  -630  -660  -668  -659  -630  -591  -593  -678  -802  -882  -889  -855  -823  -806  -779  -722  -672  -697  -795  -901  -971  -1005  -1005  -935  -760  -533  -371  -318  -322  -327  -324  -350  -453  -613  -734  -743  -669  -598  -571  -573  -578  -572  -550  -518  -502  -529  -584  -626  -631  -619  -612  -605  -584  -557  -570  -645  -717  -698  -597  -505  -469  -460  -437  -398  -367  -355  -352  -349  -344  -333  -311  -279  -261  -277  -317  -337  -294  -179  -44  44  53  -42  -242  -476  -643  -717  -747  -766  -774  -768  -746  -710  -667  -632  -621  -625  -635  -656  -704  -770  -715  -319  503  1661  2937  4009  4610  4601  3908  2588  880  -847  -2208  -2964  -3099  -2783  -2249  -1678  -1193  -850  -637  -526  -481  -462  -457  -464  -451  -401  -337  -279  -220  -158  -104  -66  -39  -12  25  64  96  137  191  262  361  481  603  708  780  812  823  842  895  996  1167  1419  1701  1916  2023  2062  2084  2110  2136  2161  2204  2314  2524  2778  2958  3019  3010  2986  2962  2937  2903  2849  2754  2597  2375  2101  1824  1584  1351  1072  775  516  302  133  33  -26  -117  -250  -365  -428  -477  -563  -683  -786  -834  -823  -774  -720  -683  -650  -596  -524  -457  -410  -376  -341  -288  -241  -240  -288  -356  -423  -481  -530  -575  -607  -608  -563  -476  -383  -326  -311  -313  -312  -305  -302  -305  -302  -286  -285  -341  -454  -554  -591  -590  -606  -666  -747  -812  -846  -850  -835  -811  -758  -648  -487  -320  -193  -136  -156  -231  -334  -432  -493  -514  -521  -530  -535  -520  -488  -471  -522  -649  -787  -841  -792  -683  -548  -414  -324  -298  -325  -395  -484  -553  -588  -597  -584  -549  -516  -529  -607  -712  -794  -834  -840  -824  -780  -708  -632  -579  -523  -416  -278  -182  -154  -143  -79  45  173  244  241  175  60  -68  -157  -194  -224  -295  -401  -491  -531  -532  -528  -535  -557  -594  -633  -656  -657  -659  -696  -778  -864  -891  -779  -448  65  664  1361  2280  3408  4375  4614  3802  2105  76  -1658  -2706  -3111  -3182  -3073  -2739  -2145  -1433  -881  -628  -565  -549  -541  -550  -566  -562  -532  -495  -433  -304  -126  35  163  272  335  326  265  222  242  293  321  315  293  284  319  404  534  697  865  1000  1080  1132  1207  1313  1419  1524  1662  1834  1985  2083  2185  2364  2593  2768  2848  2867  2865  2850  2809  2743  2675  2621  2570  2508  2416  2264  2052  1809  1544  1241  919  638  448  365  337  250  17  -298  -528  -602  -584  -554  -538  -533  -525  -504  -485  -503  -559  -615  -655  -697  -746  -782  -786  -753  -692  -615  -524  -446  -422  -452  -488  -504  -521  -569  -640  -689  -687  -639  -576  -535  -536  -551  -551  -553  -591  -667  -760  -845  -890  -859  -742  -605  -545  -579  -636  -663  -665  -662  -667  -682  -696  -680  -627  -597  -633  -706  -778  -806  -759  -683  -630  -585  -521  -456  -430  -463  -524  -575  -611  -637  -644  -633  -626  -648  -691  -711  -666  -573  -498  -468  -462  -456  -452  -462  -494  -531  -546  -534  -510  -490  -479  -470  -460  -459  -498  -598  -703  -724  -654  -536  -416  -362  -400  -457  -439  -314  -136  0  63  88  78  11  -99  -224  -348  -459  -536  -573  -570  -526  -452  -373  -314  -279  -257  -250  -271  -345  -487  -651  -769  -833  -891  -954  -909  -570  210  1449  2947  4331  5180  5114  4040  2262  249  -1543  -2748  -3221  -3098  -2632  -2057  -1544  -1166  -906  -743  -651  -582  -517  -474  -466  -486  -518  -543  -551  -549  -541  -501  -395  -231  -53  106  221  278  299  343  446  582  685  726  724  706  697  731  838  984  1094  1148  1214  1371  1603  1813  1950  2049  2139  2231  2331  2426  2494  2534  2557  2577  2601  2622  2634  2656  2701  2741  2723  2650  2577  2530  2447  2220  1823  1361  963  691  499  310  100  -108  -296  -443  -534  -582  -600  -594  -575  -553  -534  -524  -518  -515  -530  -581  -650  -691  -681  -642  -611  -601  -596  -578  -536  -479  -428  -395  -368  -340  -331  -375  -480  -601  -678  -698  -690  -682  -697  -748  -824  -890  -916  -897  -844  -776  -697  -590  -470  -386  -365  -390  -430  -471  -523  -587  -634  -652  -659  -666  -662  -643  -629  -637  -664  -690  -714  -741  -756  -736  -681  -602  -500  -387  -271  -141  -38  -53  -198  -388  -537  -611  -622  -591  -546  -526  -552  -598  -623  -607  -547  -462  -393  -358  -348  -345  -347  -365  -413  -490  -567  -614  -629  -627  -612  -574  -521  -488  -493  -505  -484  -430  -366  -311  -275  -262  -284  -351  -445  -513  -509  -419  -275  -143  -59  -6  52  141  244  291  200  -50  -363  -586  -663  -641  -575  -503  -453  -434  -443  -481  -553  -641  -708  -726  -701  -701  -798  -943  -1012  -877  -315  830  2419  4085  5357  5780  5185  3778  1912  -57  -1748  -2873  -3351  -3226  -2660  -1946  -1373  -1048  -894  -790  -693  -642  -642  -610  -525  -462  -435  -393  -323  -243  -169  -125  -119  -132  -125  -55  85  239  336  359  344  336  381  509  689  858  983  1044  1032  1001  1012  1054  1092  1164  1356  1661  1962  2179  2318  2395  2419  2439  2503  2614  2721  2785  2814  2843  2884  2939  3007  3059  3042  2900  2593  2170  1784  1534  1379  1215  983  708  440  192  -16  -152  -225  -299  -412  -548  -672  -767  -854  -954  -1038  -1050  -954  -798  -679  -647  -672  -708  -730  -738  -743  -747  -745  -731  -697  -639  -543  -402  -294  -342  -531  -710  -792  -797  -742  -611  -438  -305  -254  -283  -389  -539  -653  -690  -675  -648  -630  -629  -652  -702  -764  -813  -832  -824  -770  -649  -491  -377  -350  -385  -435  -474  -510  -554  -591  -605  -595  -556  -504  -476  -500  -587  -704  -779  -769  -701  -659  -690  -752  -786  -793  -794  -794  -765  -679  -560  -472  -454  -494  -556  -595  -587  -541  -492  -471  -479  -496  -507  -510  -502  -472  -422  -373  -342  -335  -351  -399  -468  -528  -537  -472  -369  -312  -326  -380  -452  -518  -547  -519  -422  -286  -164  -76  1  78  142  189  222  249  266  258  217  155  55  -91  -244  -356  -432  -482  -487  -459  -443  -451  -463  -473  -491  -512  -506  -459  -401  -384  -444  -555  -655  -613  -212  682  1989  3440  4644  5145  4637  3208  1252  -700  -2136  -2880  -3063  -2854  -2447  -1999  -1560  -1196  -968  -826  -706  -612  -562  -544  -528  -485  -395  -234  -28  129  193  200  197  196  196  196  198  200  200  193  176  165  213  387  673  949  1109  1164  1177  1185  1194  1204  1231  1308  1445  1607  1770  1960  2186  2387  2493  2510  2522  2617  2802  2985  3079  3095  3081  3032  2911  2744  2608  2539  2479  2339  2075  1726  1378  1118  968  855  669  379  75  -157  -350  -568  -781  -912  -941  -915  -888  -874  -852  -801  -716  -623  -559  -536  -532  -530  -527  -526  -528  -531  -520  -475  -396  -306  -234  -199  -213  -290  -440  -625  -760  -810  -808  -776  -715  -640  -585  -566  -567  -558  -515  -441  -362  -300  -278  -333  -474  -648  -774  -813  -764  -631  -468  -393  -488  -712  -934  -1047  -1023  -882  -698  -561  -500  -482  -484  -502  -525  -535  -527  -519  -535  -573  -608  -620  -614  -606  -600  -597  -603  -635  -688  -719  -703  -669  -649  -617  -536  -424  -344  -325  -350  -402  -460  -499  -513  -517  -517  -504  -476  -452  -444  -449  -454  -456  -453  -451  -460  -485  -518  -535  -525  -496  -458  -417  -383  -366  -360  -351  -330  -293  -233  -148  -63  -16  -18  -52  -104  -169  -232  -272  -283  -278  -272  -275  -295  -339  -412  -493  -539  -538  -517  -516  -573  -688  -776  -780  -732  -563  -83  761  1875  3139  4282  4835  4507  3402  1755  -136  -1803  -2863  -3268  -3119  -2528  -1773  -1230  -1004  -915  -817  -721  -666  -649  -643  -637  -637  -629  -576  -465  -342  -258  -228  -222  -192  -109  4  101  149  165  184  223  290  374  462  560  674  775  845  905  984  1106  1266  1416  1504  1548  1605  1723  1917  2151  2342  2446  2503  2576  2689  2827  2955  3031  3027  2961  2889  2844  2819  2762  2611  2359  2077  1827  1617  1431  1239  996  704  421  177  -26  -174  -261  -318  -374  -425  -456  -466  -464  -462  -479  -527  -591  -636  -641  -611  -568  -538  -533  -550  -573  -589  -585  -558  -519  -488  -472  -475  -513  -595  -671  -669  -605  -570  -598  -640  -656  -649  -637  -632  -633  -635  -634  -631  -633  -640  -643  -639  -634  -639  -659  -688  -709  -706  -673  -627  -592  -580  -577  -566  -539  -517  -560  -678  -782  -804  -777  -747  -714  -650  -528  -373  -262  -259  -370  -539  -668  -703  -675  -635  -609  -609  -633  -668  -702  -721  -699  -619  -503  -411  -373  -370  -374  -376  -388  -429  -501  -581  -644  -665  -642  -604  -584  -600  -654  -719  -758  -770  -769  -768  -774  -777  -758  -725  -697  -679  -653  -599  -527  -469  -438  -424  -409  -389  -365  -340  -321  -315  -311  -290  -261  -240  -205  -122  -8  79  114  124  124  79  -52  -239  -381  -423  -405  -383  -371  -362  -360  -381  -418  -441  -445  -458  -520  -643  -782  -902  -947  -786  -333  457  1628  3091  4521  5380  5216  4001  2076  -41  -1775  -2792  -3128  -2934  -2362  -1665  -1127  -871  -822  -837  -834  -778  -664  -521  -396  -327  -330  -382  -430  -442  -415  -334  -195  -32  95  177  233  269  281  278  268  249  220  197  234  390  658  933  1117  1213  1276  1339  1416  1503  1583  1688  1865  2090  2289  2432  2548  2655  2741  2800  2844  2887  2933  2985  3038  3079  3101  3092  3014  2825  2559  2306  2089  1863  1631  1463  1356  1165  758  237  -138  -282  -319  -368  -451  -560  -682  -775  -813  -813  -810  -806  -766  -668  -561  -516  -514  -515  -559  -663  -756  -774  -723  -656  -617  -612  -610  -588  -543  -502  -505  -545  -579  -586  -580  -579  -593  -621  -650  -659  -643  -615  -596  -592  -595  -598  -599  -598  -597  -595  -586  -565  -535  -519  -542  -610  -686  -716  -695  -664  -659  -682  -708  -715  -715  -723  -725  -688  -611  -532  -485  -475  -481  -489  -500  -533  -599  -663  -677  -638  -582  -519  -441  -372  -346  -338  -310  -310  -409  -577  -710  -759  -741  -682  -614  -570  -556  -546  -530  -524  -544  -568  -559  -523  -513  -556  -608  -619  -581  -515  -443  -380  -333  -306  -299  -301  -308  -320  -337  -353  -373  -413  -481  -562  -623  -645  -620  -555  -474  -396  -315  -239  -192  -182  -192  -200  -184  -125  -39  28  35  -28  -113  -149  -146  -150  -179  -222  -263  -305  -369  -453  -537  -589  -576  -501  -418  -378  -410  -537  -732  -915  -1011  -991  -803  -342  438  1466  2665  3978  5049  5288  4445  2760  683  -1225  -2493  -3035  -3093  -2914  -2579  -2072  -1468  -974  -709  -599  -541  -510  -507  -506  -483  -433  -368  -299  -220  -113  9  98  128  126  127  125  101  67  74  156  281  406  564  797  1044  1195  1231  1215  1214  1255  1325  1399  1470  1534  1583  1643  1797  2087  2429  2687  2813  2847  2847  2849  2862  2872  2874  2872  2873  2878  2876  2845  2770  2669  2574  2483  2353  2121  1747  1277  829  478  232  87  10  -62  -171  -307  -428  -496  -517  -530  -566  -636  -720  -781  -802  -791  -761  -726  -702  -691  -684  -673  -658  -637  -593  -525  -432  -312  -198  -149  -196  -298  -390  -444  -477  -508  -546  -585  -612  -622  -628  -634  -624  -594  -562  -558  -591  -656  -726  -766  -755  -685  -588  -518  -495  -500  -508  -502  -471  -423  -387  -390  -448  -543  -632  -680  -686  -662  -612  -536  -446  -389  -432  -577  -738  -832  -853  -844  -841  -835  -781  -653  -492  -377  -340  -354  -391  -442  -502  -559  -597  -609  -596  -554  -489  -424  -380  -364  -356  -322  -240  -137  -76  -119  -270  -449  -568  -626  -646  -617  -549  -474  -412  -372  -362  -394  -460  -532  -578  -590  -565  -498  -417  -387  -444  -547  -608  -581  -494  -396  -310  -245  -204  -176  -151  -135  -130  -131  -131  -138  -178  -274  -409  -536  -634  -713  -774  -809  -819  -817  -809  -782  -712  -556  -334  -220  -368  -640  -801  -740  -299  689  2075  3484  4574  4972  4407  3036  1287  -433  -1818  -2719  -3172  -3248  -2927  -2268  -1527  -947  -606  -463  -429  -433  -442  -447  -441  -418  -375  -321  -242  -112  47  163  204  199  169  118  69  61  103  179  280  390  470  507  521  533  589  751  1021  1314  1535  1643  1661  1637  1603  1590  1662  1882  2210  2509  2699  2802  2866  2912  2941  2955  2959  2957  2948  2924  2871  2771  2630  2495  2417  2381  2296  2069  1723  1365  1054  791  574  396  224  19  -212  -415  -546  -620  -668  -707  -748  -799  -843  -860  -834  -762  -673  -608  -580  -570  -562  -550  -534  -519  -513  -522  -549  -582  -608  -626  -638  -637  -615  -579  -543  -523  -523  -537  -556  -568  -569  -560  -547  -527  -502  -487  -504  -558  -601  -573  -483  -399  -361  -352  -356  -372  -406  -451  -489  -503  -501  -501  -522  -569  -627  -676  -703  -710  -696  -669  -641  -612  -573  -534  -519  -533  -552  -553  -538  -528  -544  -593  -654  -706  -740  -741  -691  -605  -536  -514  -523  -535  -523  -471  -398  -346  -345  -386  -437  -489  -560  -639  -688  -671  -580  -462  -383  -355  -350  -352  -359  -369  -371  -365  -365  -377  -394  -411  -436  -483  -553  -641  -732  -776  -730  -623  -501  -391  -323  -304  -312  -318  -305  -273  -252  -281  -356  -430  -477  -499  -478  -373  -176  42  200  281  310  302  257  182  97  -1  -137  -289  -401  -459  -487  -503  -512  -525  -561  -625  -705  -781  -845  -932  -1043  -1063  -887  -548  -85  574  1570  2914  4363  5439  5574  4524  2623  467  -1399  -2619  -3155  -3194  -2897  -2378  -1792  -1271  -878  -649  -555  -512  -469  -426  -392  -370  -363  -358  -326  -266  -218  -210  -228  -231  -188  -113  -43  -8  -9  -19  10  97  211  316  423  574  774  984  1175  1334  1439  1480  1487  1501  1554  1676  1884  2135  2339  2456  2522  2581  2647  2713  2772  2840  2929  3020  3084  3106  3093  3063  3017  2912  2714  2467  2248  2063  1873  1679  1479  1230  925  608  300  24  -165  -267  -341  -424  -500  -558  -615  -674  -725  -760  -775  -749  -666  -560  -510  -555  -647  -718  -753  -774  -767  -696  -552  -420  -419  -549  -694  -768  -771  -719  -624  -516  -439  -409  -412  -442  -508  -595  -664  -707  -751  -802  -823  -796  -749  -703  -655  -607  -568  -533  -484  -400  -297  -236  -276  -439  -659  -822  -876  -844  -756  -650  -570  -527  -504  -499  -526  -580  -610  -575  -511  -478  -490  -524  -542  -519  -473  -444  -445  -478  -530  -565  -557  -527  -500  -472  -427  -373  -332  -326  -380  -482  -537  -501  -448  -447  -498  -566  -609  -624  -628  -633  -629  -593  -518  -445  -432  -468  -492  -501  -532  -568  -547  -449  -342  -324  -399  -486  -536  -556  -563  -551  -498  -390  -259  -164  -129  -136  -170  -221  -272  -301  -306  -300  -298  -303  -290  -250  -211  -189  -159  -117  -79  -41  0  31  44  37  2  -65  -157  -247  -302  -321  -325  -331  -342  -365  -406  -451  -488  -522  -554  -590  -667  -800  -863  -612  85  1184  2522  3808  4663  4808  4199  2947  1243  -572  -2083  -3040  -3414  -3270  -2761  -2105  -1481  -1000  -726  -635  -637  -660  -674  -670  -637  -563  -451  -333  -244  -159  -13  196  392  510  542  500  384  221  74  -3  -12  26  104  231  405  583  716  830  1003  1246  1468  1595  1635  1628  1615  1652  1793  2008  2201  2338  2480  2645  2779  2868  2950  3032  3088  3110  3109  3079  3004  2908  2840  2806  2741  2535  2127  1620  1227  1051  1007  942  758  487  238  65  -69  -215  -363  -480  -559  -583  -541  -465  -400  -352  -320  -328  -395  -492  -563  -586  -585  -590  -603  -602  -576  -545  -535  -543  -553  -553  -548  -544  -551  -592  -661  -720  -734  -711  -696  -714  -730  -695  -620  -555  -525  -509  -496  -495  -532  -611  -679  -686  -647  -614  -603  -608  -624  -651  -692  -738  -769  -770  -732  -659  -581  -532  -516  -516  -517  -524  -545  -575  -595  -601  -603  -612  -627  -637  -630  -605  -574  -555  -546  -540  -522  -481  -425  -379  -357  -375  -464  -620  -778  -861  -843  -752  -629  -510  -435  -432  -479  -520  -532  -524  -506  -476  -442  -415  -402  -400  -415  -461  -534  -600  -635  -644  -647  -658  -670  -649  -578  -494  -445  -441  -459  -476  -487  -496  -491  -450  -379  -318  -279  -233  -165  -93  -29  30  83  108  105  90  60  -20  -175  -380  -566  -674  -707  -712  -707  -649  -501  -322  -218  -215  -287  -437  -640  -840  -1013  -1104  -998  -691  -246  421  1367  2441  3496  4342  4594  4027  2778  1079  -755  -2243  -3066  -3250  -2924  -2235  -1476  -987  -877  -941  -939  -805  -600  -404  -265  -202  -193  -181  -121  -23  60  103  133  180  218  205  150  104  100  128  172  234  309  369  399  429  506  660  895  1171  1402  1515  1533  1537  1588  1713  1893  2075  2219  2345  2487  2647  2787  2868  2886  2876  2868  2871  2866  2844  2857  2937  2988  2881  2634  2375  2179  2019  1863  1695  1460  1107  696  363  178  76  -42  -211  -388  -517  -597  -663  -718  -742  -734  -715  -706  -705  -699  -686  -675  -682  -703  -718  -716  -705  -693  -687  -683  -662  -607  -531  -461  -414  -400  -419  -452  -480  -506  -539  -575  -608  -643  -693  -747  -770  -751  -692  -590  -466  -373  -337  -350  -415  -529  -652  -728  -734  -693  -662  -681  -735  -792  -843  -883  -898  -860  -745  -584  -460  -414  -417  -427  -437  -472  -553  -657  -731  -758  -763  -760  -724  -627  -498  -406  -377  -383  -397  -416  -447  -476  -482  -468  -448  -422  -387  -341  -287  -246  -241  -283  -373  -476  -544  -562  -546  -513  -486  -474  -470  -469  -481  -506  -536  -556  -546  -512  -480  -468  -460  -433  -389  -364  -394  -467  -508  -481  -444  -453  -488  -504  -488  -440  -356  -243  -132  -53  -9  -2  -31  -67  -71  -28  39  96  122  101  11  -135  -277  -359  -380  -374  -370  -378  -403  -449  -509  -570  -626  -672  -691  -679  -648  -625  -629  -627  -576  -431  -42  748  1922  3280  4456  4978  4598  3487  1976  344  -1153  -2295  -2916  -2977  -2630  -2125  -1661  -1304  -1017  -767  -569  -440  -357  -297  -251  -223  -220  -236  -243  -220  -184  -165  -160  -134  -53  61  149  181  175  159  155  188  279  440  654  862  1004  1068  1093  1151  1289  1499  1721  1893  1981  2006  2016  2044  2094  2176  2323  2541  2756  2900  2974  3006  3019  3039  3052  3025  2966  2892  2798  2697  2611  2508  2315  2010  1674  1413  1259  1138  925  568  138  -251  -518  -635  -642  -603  -560  -536  -546  -597  -672  -739  -779  -795  -788  -766  -758  -782  -814  -821  -792  -736  -689  -672  -672  -657  -609  -540  -483  -456  -447  -442  -437  -439  -471  -548  -645  -718  -750  -749  -717  -650  -573  -518  -495  -485  -476  -474  -494  -530  -562  -574  -569  -566  -598  -686  -791  -857  -876  -887  -924  -976  -1005  -964  -824  -632  -492  -449  -466  -493  -506  -514  -534  -577  -635  -679  -679  -640  -599  -566  -516  -449  -403  -431  -547  -687  -747  -695  -586  -480  -392  -298  -198  -137  -144  -206  -293  -374  -432  -472  -519  -587  -661  -715  -748  -773  -757  -656  -496  -361  -289  -262  -259  -274  -308  -370  -451  -516  -546  -554  -559  -568  -577  -578  -554  -492  -409  -350  -337  -351  -368  -370  -333  -248  -131  -27  34  63  79  84  79  78  78  16  -167  -416  -599  -663  -659  -643  -637  -632  -615  -577  -522  -429  -266  -52  130  206  78  -316  -804  -1065  -891  -181  1045  2551  3988  4966  5073  4165  2508  533  -1252  -2398  -2856  -2891  -2678  -2291  -1858  -1460  -1098  -794  -597  -507  -436  -321  -206  -151  -147  -161  -173  -175  -165  -145  -116  -79  -27  43  116  156  157  152  197  324  491  615  670  705  768  876  1017  1148  1225  1247  1254  1294  1419  1644  1911  2131  2270  2341  2375  2404  2454  2524  2597  2680  2793  2921  3013  3048  3044  3013  2935  2787  2606  2469  2383  2261  2025  1683  1300  934  586  220  -134  -378  -474  -479  -464  -460  -471  -489  -507  -517  -516  -514  -524  -560  -611  -652  -671  -670  -634  -543  -424  -339  -334  -407  -511  -590  -621  -619  -602  -587  -595  -642  -704  -743  -752  -756  -763  -751  -693  -609  -544  -519  -518  -523  -539  -574  -623  -672  -711  -736  -746  -743  -733  -715  -683  -640  -602  -574  -567  -607  -694  -772  -794  -759  -692  -625  -569  -519  -509  -556  -599  -576  -521  -492  -497  -513  -524  -536  -555  -578  -597  -606  -609  -599  -556  -478  -393  -338  -336  -389  -478  -576  -648  -672  -652  -605  -553  -513  -486  -475  -484  -507  -535  -538  -492  -428  -386  -373  -378  -408  -472  -555  -614  -631  -622  -612  -608  -603  -579  -523  -442  -369  -331  -326  -340  -354  -355  -349  -363  -397  -421  -407  -334  -217  -102  -29  -16  -63  -117  -129  -109  -92  -90  -102  -141  -229  -361  -484  -551  -570  -570  -560  -527  -470  -416  -390  -392  -408  -453  -584  -781  -856  -669  -302  165  802  1685  2795  3974  4825  4859  3901  2205  225  -1552  -2737  -3211  -3114  -2697  -2252  -1958  -1733  -1423  -1046  -732  -527  -400  -325  -282  -248  -204  -149  -111  -113  -138  -149  -107  -30  24  42  48  75  146  248  336  385  407  432  482  566  664  740  798  904  1124  1425  1680  1812  1846  1851  1878  1947  2044  2146  2261  2416  2606  2790  2925  3001  3033  3033  2998  2948  2897  2827  2717  2567  2390  2209  2049  1921  1795  1618  1353  1024  684  370  85  -162  -337  -406  -398  -396  -502  -762  -1083  -1314  -1395  -1348  -1180  -916  -659  -509  -476  -519  -605  -711  -829  -936  -959  -860  -701  -554  -461  -413  -371  -326  -296  -297  -333  -386  -429  -447  -447  -451  -486  -565  -654  -696  -688  -675  -685  -703  -691  -637  -569  -519  -493  -486  -490  -499  -498  -462  -384  -305  -299  -382  -516  -657  -770  -828  -824  -763  -663  -568  -516  -513  -541  -579  -614  -638  -647  -631  -583  -509  -433  -388  -388  -437  -517  -589  -620  -607  -573  -543  -524  -513  -510  -524  -559  -602  -630  -633  -618  -598  -583  -577  -576  -579  -580  -567  -528  -471  -415  -371  -345  -354  -404  -471  -527  -571  -624  -687  -733  -754  -769  -789  -784  -715  -601  -513  -482  -486  -499  -505  -484  -417  -319  -233  -170  -106  -43  -1  17  31  51  67  41  -72  -260  -438  -533  -547  -526  -500  -481  -472  -477  -503  -555  -618  -668  -692  -699  -711  -765  -884  -1007  -1028  -870  -469  212  1176  2415  3774  4836  5107  4385  2911  1090  -694  -2018  -2675  -2814  -2633  -2232  -1742  -1356  -1160  -1069  -989  -904  -828  -756  -666  -552  -444  -367  -307  -251  -210  -170  -96  1  75  99  92  83  92  133  198  277  375  484  576  650  743  886  1062  1228  1355  1434  1472  1484  1493  1522  1607  1790  2061  2332  2508  2589  2653  2766  2920  3060  3150  3180  3164  3135  3108  3062  2963  2789  2562  2349  2178  2006  1788  1518  1225  958  752  584  414  240  86  -55  -221  -421  -631  -807  -911  -951  -965  -976  -978  -948  -864  -702  -502  -359  -309  -309  -334  -388  -464  -541  -614  -704  -814  -917  -977  -951  -815  -632  -501  -448  -431  -408  -371  -342  -343  -382  -440  -481  -492  -494  -510  -554  -618  -676  -691  -662  -613  -565  -536  -534  -536  -533  -530  -534  -540  -534  -492  -418  -380  -420  -482  -504  -498  -498  -511  -516  -483  -429  -424  -491  -561  -567  -515  -480  -510  -542  -493  -382  -291  -252  -236  -215  -198  -222  -308  -427  -515  -546  -544  -525  -492  -452  -423  -415  -420  -425  -416  -380  -326  -269  -213  -164  -165  -257  -403  -511  -534  -506  -483  -478  -474  -451  -393  -314  -278  -322  -393  -407  -336  -228  -151  -131  -139  -134  -84  18  140  227  251  221  166  137  171  232  217  50  -213  -427  -514  -519  -503  -479  -431  -352  -267  -229  -290  -460  -673  -820  -808  -610  -363  -259  -232  56  909  2346  4004  5255  5537  4692  3036  1078  -729  -2050  -2769  -2993  -2821  -2284  -1593  -1112  -961  -970  -976  -935  -858  -744  -590  -426  -301  -234  -211  -207  -202  -200  -211  -211  -133  82  373  586  656  642  613  593  589  615  689  789  866  893  885  873  904  1022  1224  1452  1661  1859  2052  2203  2274  2280  2281  2347  2518  2762  2989  3131  3187  3206  3229  3254  3246  3178  3051  2886  2691  2455  2168  1876  1659  1502  1298  1032  784  548  243  -93  -334  -450  -510  -565  -623  -690  -758  -805  -822  -826  -847  -900  -958  -969  -930  -891  -884  -889  -854  -735  -568  -438  -379  -349  -314  -307  -389  -535  -653  -696  -695  -688  -681  -660  -629  -623  -658  -705  -738  -775  -830  -892  -936  -966  -996  -1024  -1038  -1047  -1058  -1061  -1038  -995  -938  -855  -771  -736  -752  -792  -834  -848  -838  -841  -879  -924  -920  -853  -754  -657  -587  -564  -594  -658  -719  -747  -755  -770  -794  -815  -824  -827  -825  -809  -771  -725  -687  -649  -601  -554  -521  -508  -515  -543  -592  -653  -713  -754  -769  -764  -746  -705  -642  -569  -504  -464  -452  -459  -475  -496  -527  -573  -623  -654  -662  -664  -671  -682  -681  -617  -446  -217  -48  9  -17  -91  -185  -267  -334  -435  -615  -833  -983  -1016  -962  -877  -806  -763  -747  -746  -752  -756  -751  -735  -729  -794  -952  -1019  -703  74  1175  2434  3625  4424  4544  3904  2598  815  -1056  -2560  -3436  -3617  -3207  -2458  -1665  -1083  -813  -753  -755  -758  -764  -767  -724  -594  -415  -282  -235  -240  -259  -277  -281  -237  -114  55  184  231  230  232  256  287  314  339  369  429  563  777  1020  1221  1336  1363  1336  1317  1398  1662  2047  2375  2545  2598  2613  2634  2668  2694  2712  2735  2776  2857  3003  3180  3284  3245  3071  2840  2636  2447  2202  1910  1635  1362  1034  671  331  41  -178  -300  -336  -343  -372  -450  -562  -654  -691  -699  -719  -765  -825  -881  -909  -910  -906  -910  -917  -913  -886  -834  -761  -659  -539  -429  -353  -311  -292  -292  -340  -469  -645  -774  -805  -751  -647  -526  -423  -378  -404  -454  -480  -479  -478  -503  -577  -703  -846  -950  -985  -958  -883  -783  -693  -634  -611  -607  -598  -564  -510  -464  -455  -488  -553  -622  -671  -695  -709  -717  -703  -658  -609  -574  -533  -467  -410  -396  -420  -446  -459  -459  -452  -439  -423  -414  -415  -413  -384  -327  -286  -296  -350  -408  -436  -450  -485  -527  -550  -569  -590  -597  -587  -579  -582  -572  -527  -458  -393  -356  -349  -358  -366  -368  -358  -324  -252  -177  -177  -265  -365  -422  -433  -421  -404  -382  -323  -206  -63  46  99  111  110  114  125  120  53  -91  -264  -404  -491  -524  -498  -425  -353  -349  -415  -496  -560  -611  -649  -670  -714  -831  -932  -834  -507  -20  685  1664  2839  4066  5013  5197  4345  2579  388  -1532  -2671  -2965  -2685  -2223  -1840  -1534  -1221  -910  -658  -511  -462  -451  -440  -428  -419  -408  -394  -383  -380  -372  -328  -223  -80  47  143  217  261  257  217  177  172  193  221  274  379  551  772  983  1129  1218  1315  1469  1661  1835  1977  2115  2262  2425  2597  2735  2805  2829  2854  2894  2928  2946  2955  2962  2967  2956  2922  2878  2834  2752  2563  2269  1955  1692  1487  1314  1155  990  742  345  -109  -456  -656  -790  -897  -962  -983  -980  -959  -904  -811  -719  -677  -675  -651  -578  -510  -510  -590  -691  -748  -761  -766  -769  -761  -745  -720  -689  -655  -621  -595  -577  -559  -544  -538  -537  -536  -547  -574  -597  -602  -594  -587  -589  -593  -599  -623  -684  -760  -799  -768  -671  -533  -399  -302  -241  -208  -206  -232  -275  -330  -393  -442  -470  -494  -521  -541  -548  -546  -539  -531  -532  -552  -583  -608  -622  -623  -603  -548  -476  -431  -432  -457  -481  -514  -579  -670  -741  -754  -715  -668  -642  -634  -634  -640  -647  -650  -649  -647  -647  -653  -664  -662  -625  -560  -514  -509  -521  -522  -511  -499  -499  -522  -577  -653  -717  -745  -725  -648  -528  -405  -311  -268  -275  -315  -363  -412  -469  -514  -516  -462  -367  -252  -126  -16  35  33  19  19  31  29  -18  -113  -223  -311  -376  -441  -518  -597  -631  -592  -525  -496  -515  -549  -572  -608  -717  -888  -999  -977  -894  -773  -437  301  1416  2746  4060  4948  5047  4321  2895  985  -942  -2402  -3193  -3300  -2844  -2131  -1501  -1121  -947  -847  -758  -686  -637  -605  -582  -554  -496  -410  -336  -298  -291  -310  -324  -277  -164  -39  53  110  137  143  147  185  279  415  551  654  725  795  895  1016  1141  1272  1405  1508  1575  1660  1824  2061  2290  2439  2521  2594  2680  2768  2864  2986  3122  3223  3256  3218  3117  2993  2904  2844  2718  2448  2100  1822  1639  1440  1172  904  703  567  456  312  88  -190  -435  -589  -668  -709  -720  -703  -678  -665  -662  -655  -629  -588  -546  -513  -489  -468  -451  -461  -528  -632  -715  -744  -712  -621  -503  -418  -392  -398  -407  -402  -370  -294  -196  -137  -151  -207  -258  -285  -296  -319  -374  -447  -481  -438  -367  -327  -320  -322  -328  -347  -391  -437  -453  -437  -403  -361  -327  -324  -357  -409  -457  -493  -511  -479  -379  -248  -146  -107  -123  -171  -240  -319  -389  -448  -493  -506  -487  -456  -420  -365  -299  -246  -217  -211  -234  -283  -340  -380  -393  -381  -347  -301  -254  -203  -149  -109  -95  -101  -118  -133  -143  -145  -144  -141  -137  -137  -151  -186  -233  -284  -323  -319  -272  -223  -197  -190  -195  -203  -196  -150  -68  14  73  114  164  244  325  372  384  369  333  285  220  143  81  40  -21  -159  -358  -546  -670  -703  -629  -487  -336  -216  -152  -136  -142  -154  -175  -181  -40  458  1359  2374  3121  3479  3586  3515  3043  1844  0]
