reading_id,reading_time,wire_id,result_classification,heart_rate,heart_rate_alert,firmware_version,device_app_version,hardware_version,waveform_samples
f5a9eac0-5be7-11ed-8080-808080808080,Fri Nov 04 02:25:33 UTC 2022,2101e3d81839,NSR,65,NONE,20001.171.50,2.10.0,Charge 5,[-10711  -10739  -10762  -10716  -10481  -9909  -8938  -7800  -6931  -6536  -6453  -6446  -6475  -6622  -6826  -6933  -6843  -6535  -6112  -5740  -5459  -5200  -4917  -4601  -4280  -4029  -3882  -3775  -3607  -3326  -2987  -2695  -2459  -2199  -1868  -1496  -1127  -728  -242  310  828  1217  1445  1557  1632  1723  1861  2029  2171  2323  2613  3036  3375  3448  3315  3166  3122  3213  3435  3761  4101  4343  4471  4583  4763  4962  5045  4968  4833  4768  4811  4880  4862  4732  4588  4539  4536  4474  4404  4454  4648  4903  5127  5282  5370  5439  5528  5592  5568  5533  5578  5645  5663  5657  5653  5612  5484  5296  5154  5165  5375  5753  6204  6609  6872  6985  7023  7074  7208  7461  7745  7871  7781  7595  7430  7361  7422  7576  7767  7926  7961  7854  7656  7415  7209  7132  7227  7477  7756  7894  7778  7391  6886  6508  6369  6457  6781  7288  7769  8040  8102  8062  8011  7953  7820  7566  7271  7077  7024  7049  7081  7067  6959  6754  6529  6347  6138  5765  5229  4672  4158  3697  3378  3246  3196  3089  2969  3069  3408  3753  4149  4730  5280  5730  6191  6426  6236  5717  4814  3472  1990  765  129  179  463  495  376  423  723  1242  1812  2173  2211  1999  1688  1428  1301  1313  1435  1631  1856  2030  2110  2137  2191  2326  2536  2752  2926  3092  3357  3769  4219  4535  4660  4659  4630  4629  4652  4713  4956  5539  6313  6891  7139  7257  7396  7538  7670  7870  8179  8485  8641  8642  8596  8576  8586  8612  8622  8534  8268  7895  7598  7417  7224  6953  6674  6464  6345  6258  6024  5501  4811  4260  4001  3930  3842  3601  3247  2950  2814  2781  2746  2646  2468  2249  2039  1841  1647  1466  1271  1048  825  593  289  -78  -412  -698  -1088  -1673  -2363  -3038  -3604  -3963  -4135  -4230  -4301  -4360  -4446  -4573  -4696  -4762  -4764  -4721  -4650  -4569  -4502  -4508  -4691  -5078  -5465  -5554  -5329  -5007  -4639  -4097  -3406  -2726  -2081  -1428  -872  -555  -473  -515  -566  -516  -267  148  537  742  781  755  714  655  577  534  599  760  910  980  984  931  771  441  -42  -557  -942  -1106  -1129  -1283  -1797  -2545  -3102  -3142  -2623  -1744  -824  -108  342  649  927  1152  1279  1299  1146  725  111  -438  -763  -921  -1007  -1050  -1072  -1144  -1334  -1660  -2078  -2514  -2904  -3206  -3402  -3535  -3690  -3900  -4173  -4561  -5050  -5518  -5777  -5636  -5228  -4840  -4414  -3911  -3573  -3660  -4340  -5464  -6584  -7494  -8323  -9075  -9623  -9923  -9858  -9242  -8159  -7025  -6236  -5868  -5727  -5607  -5401  -5106  -4805  -4576  -4405  -4246  -4063  -3809  -3484  -3154  -2832  -2454  -2045  -1724  -1542  -1434  -1325  -1186  -1031  -879  -735  -588  -424  -216  78  421  680  783  772  704  616  555  595  804  1173  1624  2083  2505  2842  3047  3128  3132  3103  3061  3014  2980  2958  2895  2708  2378  2012  1746  1594  1438  1143  729  362  126  -28  -131  -178  -186  -183  -177  -177  -215  -334  -532  -746  -969  -1322  -1859  -2403  -2770  -2985  -3120  -3137  -3018  -2831  -2668  -2573  -2529  -2493  -2468  -2477  -2503  -2508  -2490  -2464  -2439  -2396  -2309  -2186  -2046  -1894  -1755  -1666  -1621  -1585  -1528  -1429  -1262  -1041  -836  -719  -689  -697  -707  -715  -709  -639  -443  -137  181  441  637  786  886  934  943  937  936  947  969  999  1031  1052  1056  1044  1020  980  918  845  819  904  1093  1281  1356  1321  1270  1257  1250  1166  957  688  486  404  400  415  420  408  396  418  481  501  397  211  47  -52  -139  -292  -512  -703  -793  -805  -794  -796  -824  -872  -917  -918  -855  -753  -650  -576  -585  -722  -876  -728  -87  816  1658  2296  2589  2380  1663  577  -666  -1825  -2670  -3078  -3084  -2764  -2140  -1348  -676  -263  -22  139  243  306  365  451  578  737  899  1029  1101  1136  1178  1235  1290  1366  1511  1720  1921  2050  2113  2175  2311  2548  2824  3049  3220  3424  3713  4051  4364  4597  4766  4942  5184  5476  5741  5942  6113  6269  6376  6436  6495  6576  6669  6783  6929  7080  7135  6885  6275  5642  5331  5353  5431  5081  3876  1869  -275  -1765  -2340  -2322  -2152  -2136  -2371  -2675  -2846  -2901  -2919  -2900  -2820  -2691  -2554  -2436  -2348  -2291  -2252  -2208  -2157  -2106  -2029  -1890  -1687  -1433  -1140  -858  -675  -610  -599  -591  -579  -572  -570  -572  -582  -601  -609  -585  -538  -496  -449  -357  -233  -135  -92  -90  -140  -270  -440  -550  -544  -458  -377  -359  -397  -454  -525  -657  -886  -1152  -1336  -1407  -1419  -1420  -1445  -1513  -1598  -1637  -1600  -1534  -1496  -1480  -1469  -1495  -1560  -1611  -1641  -1736  -1968  -2267  -2473  -2498  -2374  -2199  -2078  -2040  -2046  -2059  -2074  -2095  -2120  -2130  -2103  -2026  -1928  -1861  -1843  -1855  -1872  -1880  -1881  -1886  -1898  -1901  -1885  -1870  -1882  -1924  -1982  -2054  -2132  -2186  -2198  -2178  -2142  -2102  -2057  -2015  -2026  -2147  -2315  -2391  -2300  -1950  -1282  -424  438  1167  1701  2054  2100  1566  407  -1093  -2526  -3512  -3882  -3720  -3359  -3109  -2908  -2578  -2162  -1773  -1458  -1229  -1078  -1001  -984  -989  -966  -882  -755  -628  -520  -433  -377  -346  -324  -295  -249  -183  -101  11  175  344  448  498  596  824  1129  1371  1478  1485  1445  1416  1477  1701  2051  2383  2588  2685  2739  2788  2851  2929  2965  2918  2858  2863  2907  2918  2871  2795  2697  2503  2141  1685  1284  1009  829  702  616  558  463  266  -11  -273  -452  -543  -579  -581  -546  -483  -428  -420  -451  -481  -483  -460  -410  -318  -200  -112  -96  -161  -287  -422  -520  -585  -621  -611  -560  -499  -448  -410  -397  -417  -445  -443  -374  -259  -205  -257  -319  -310  -246  -156  -80  -48  -38  -13  26  47  16  -71  -177  -249  -266  -252  -220  -161  -85  -24  3  -4  -76  -231  -419  -553  -604  -609  -589  -522  -397  -261  -177  -173  -241  -345  -426  -439  -379  -285  -209  -152  -76  14  80  84  23  -67  -140  -178  -183  -159  -98  6  139  261  339  390  463  560  633  652  623  542  390  198  45  -26  -39  -24  20  110  214  263  218  123  49  16  -4  -35  -78  -97  -8  233  617  1150  1845  2652  3450  4015  4068  3444  2231  722  -781  -1979  -2549  -2443  -1967  -1441  -1004  -691  -480  -288  -28  296  591  761  800  745  626  495  428  460  574  709  806  878  996  1157  1278  1297  1226  1116  1002  872  727  611  559  582  698  911  1195  1505  1788  1983  2068  2083  2082  2087  2098  2112  2123  2130  2143  2175  2226  2272  2278  2267  2311  2410  2447  2306  1992  1611  1276  1052  921  805  656  458  188  -133  -445  -745  -1041  -1278  -1447  -1571  -1596  -1500  -1334  -1136  -980  -942  -991  -1043  -1062  -1060  -1067  -1102  -1173  -1263  -1335  -1363  -1343  -1293  -1231  -1174  -1129  -1093  -1042  -956  -838  -727  -700  -831  -1101  -1379  -1551  -1649  -1765  -1907  -2010  -2040  -2035  -2049  -2098  -2128  -2061  -1882  -1666  -1515  -1469  -1505  -1596  -1710  -1786  -1748  -1545  -1239  -983  -871  -865  -887  -891  -864  -816  -760  -696  -629  -575  -537  -506  -474  -447  -452  -524  -659  -797  -858  -815  -734  -683  -664  -660  -662  -656  -617  -508  -323  -126  6  51  26  -48  -162  -290  -370  -330  -137  137  373  525  608  623  606  608  632  656  676  677  609  420  149  -82  -205  -235  -196  -86  65  197  274  310  332  358  336  149  -82  -8  513  1343  2239  2902  3191  3207  2989  2392  1356  14  -1371  -2352  -2578  -2152  -1430  -724  -269  -131  -148  -115  55  302  500  592  605  585  560  543  531  524  546  628  768  906  986  1003  986  965  956  970  1017  1108  1237  1365  1443  1448  1395  1320  1258  1227  1245  1355  1577  1857  2096  2230  2268  2249  2199  2141  2100  2089  2111  2168  2258  2343  2363  2283  2075  1719  1301  973  757  564  374  215  48  -196  -511  -827  -1090  -1292  -1442  -1557  -1644  -1692  -1703  -1695  -1680  -1656  -1625  -1600  -1586  -1571  -1549  -1514  -1453  -1370  -1275  -1164  -1058  -1017  -1072  -1172  -1237  -1232  -1160  -1016  -837  -701  -652  -673  -736  -812  -865  -883  -874  -847  -813  -788  -796  -859  -975  -1112  -1210  -1202  -1059  -827  -630  -580  -664  -771  -832  -859  -889  -929  -962  -974  -973  -966  -960  -937  -881  -805  -752  -739  -743  -726  -664  -577  -515  -517  -599  -733  -858  -922  -912  -831  -700  -568  -473  -418  -388  -364  -333  -306  -296  -299  -302  -299  -276  -219  -143  -73  -8  83  198  285  305  250  119  -56  -203  -287  -342  -396  -435  -454  -466  -483  -497  -487  -440  -365  -286  -228  -233  -342  -538  -756  -879  -794  -526  -174  224  677  1188  1755  2283  2555  2351  1531  250  -1035  -2056  -2743  -2982  -2873  -2657  -2372  -1993  -1609  -1295  -1063  -905  -814  -754  -664  -503  -275  -8  236  397  468  494  500  500  521  598  732  892  1056  1209  1321  1393  1475  1610  1767  1875  1913  1921  1928  1944  2000  2132  2338  2591  2856  3075  3211  3299  3382  3449  3466  3426  3362  3311  3290  3301  3321  3304  3208  3023  2796  2593  2373  2019  1528  1073  816  727  668  574  451  286  54  -227  -498  -700  -803  -820  -806  -813  -835  -855  -887  -951  -1033  -1091  -1093  -1024  -897  -767  -692  -674  -681  -689  -691  -693  -699  -708  -709  -696  -678  -670  -676  -686  -691  -693  -691  -680  -661  -653  -663  -678  -690  -719  -780  -832  -802  -686  -561  -486  -462  -461  -461  -453  -439  -428  -425  -426  -426  -425  -423  -423  -426  -419  -388  -329  -269  -239  -243  -259  -264  -250  -229  -207  -189  -180  -199  -276  -406  -533  -599  -589  -517  -421  -353  -333  -349  -388  -452  -547  -659  -746  -767  -721  -656  -629  -660  -710  -705  -608  -475  -408  -425  -449  -427  -385  -381  -410  -421  -400  -381  -374  -378  -428  -573  -789  -991  -1144  -1278  -1395  -1468  -1495  -1489  -1450  -1374  -1290  -1230  -1185  -1120  -1066  -1109  -1212  -1223  -1106  -886  -512  24  686  1400  1920  1887  1178  51  -1139  -2182  -2956  -3445  -3729  -3745  -3322  -2528  -1724  -1230  -1056  -1021  -990  -948  -894  -786  -619  -451  -332  -245  -167  -116  -101  -106  -99  -66  -16  29  67  106  160  237  330  408  462  530  651  797  915  1002  1088  1166  1219  1267  1386  1634  1960  2227  2360  2394  2377  2326  2258  2213  2207  2220  2216  2187  2157  2141  2138  2137  2131  2108  2055  1960  1831  1715  1660  1654  1625  1510  1329  1165  1060  983  897  809  754  741  753  763  744  681  596  535  518  529  540  520  446  328  215  139  111  123  155  178  150  39  -141  -313  -406  -420  -397  -369  -358  -403  -538  -723  -857  -890  -849  -785  -742  -744  -799  -892  -986  -1050  -1079  -1055  -948  -760  -552  -392  -325  -407  -676  -1038  -1303  -1385  -1336  -1225  -1091  -978  -939  -993  -1099  -1186  -1213  -1158  -1004  -784  -592  -508  -580  -841  -1216  -1523  -1658  -1650  -1548  -1381  -1214  -1116  -1100  -1122  -1148  -1164  -1157  -1096  -959  -772  -607  -519  -498  -498  -488  -464  -421  -347  -237  -122  -37  8  26  25  13  -3  -3  34  134  309  544  796  1015  1158  1223  1257  1306  1360  1375  1346  1308  1261  1177  1071  1015  1051  1146  1237  1292  1318  1323  1300  1234  1131  1029  951  877  829  860  970  1210  1708  2483  3376  4149  4525  4232  3251  1883  384  -1102  -2247  -2732  -2579  -2049  -1434  -945  -644  -447  -275  -149  -85  -46  6  64  75  13  -66  -109  -118  -114  -103  -78  -36  10  43  56  62  72  91  132  222  357  481  557  614  684  749  778  798  891  1107  1394  1632  1745  1769  1783  1837  1952  2128  2313  2436  2484  2497  2493  2458  2375  2257  2143  2047  1916  1676  1326  936  568  224  -86  -302  -388  -411  -499  -735  -1052  -1295  -1401  -1417  -1405  -1391  -1382  -1376  -1372  -1364  -1342  -1305  -1280  -1314  -1425  -1566  -1671  -1722  -1725  -1654  -1467  -1193  -949  -824  -803  -820  -837  -845  -834  -794  -734  -690  -688  -727  -785  -847  -909  -941  -926  -900  -900  -920  -946  -972  -1033  -1131  -1187  -1146  -1048  -970  -960  -1004  -1054  -1084  -1091  -1056  -948  -787  -648  -580  -566  -569  -572  -576  -580  -585  -592  -603  -607  -569  -453  -273  -114  -52  -82  -143  -191  -221  -253  -304  -365  -413  -436  -435  -423  -411  -407  -410  -417  -426  -432  -432  -419  -405  -422  -479  -524  -496  -415  -366  -404  -504  -613  -701  -760  -783  -750  -635  -458  -289  -177  -131  -129  -150  -186  -241  -293  -310  -289  -260  -245  -241  -247  -272  -326  -408  -492  -535  -516  -451  -380  -347  -376  -458  -559  -641  -683  -695  -698  -700  -698  -704  -746  -844  -984  -1130  -1174  -952  -467  122  767  1502  2285  2985  3369  3160  2239  802  -753  -2112  -3048  -3391  -3253  -2920  -2503  -2037  -1608  -1216  -821  -470  -245  -154  -138  -134  -100  -30  54  124  164  186  210  236  255  273  315  410  541  651  725  818  984  1191  1359  1458  1527  1603  1696  1803  1920  2034  2150  2277  2411  2538  2672  2822  2960  3063  3144  3217  3271  3297  3315  3332  3349  3368  3376  3313  3098  2735  2356  2072  1852  1620  1355  1082  845  665  525  417  356  344  352  343  296  211  114  29  -22  -27  14  91  173  226  220  151  47  -34  -63  -60  -64  -90  -118  -130  -130  -129  -134  -145  -159  -185  -241  -319  -392  -440  -452  -418  -359  -310  -292  -307  -341  -379  -407  -416  -402  -377  -356  -342  -341  -373  -464  -599  -707  -719  -650  -579  -554  -574  -614  -656  -688  -707  -725  -761  -826  -895  -922  -887  -815  -748  -701  -676  -691  -747  -808  -826  -779  -690  -608  -564  -552  -567  -614  -674  -713  -708  -669  -622  -589  -577  -575  -571  -560  -552  -571  -639  -736  -810  -836  -824  -789  -746  -713  -701  -718  -769  -841  -905  -948  -980  -999  -1004  -993  -964  -923  -878  -818  -742  -677  -643  -632  -632  -635  -639  -636  -613  -557  -459  -342  -250  -204  -194  -210  -256  -322  -383  -432  -495  -607  -752  -871  -924  -931  -924  -913  -885  -841  -836  -935  -1110  -1250  -1295  -1271  -1224  -1174  -1120  -1043  -907  -617  -17  925  2000  2919  3437  3307  2373  799  -996  -2595  -3556  -3599  -3008  -2364  -1941  -1690  -1533  -1405  -1217  -930  -583  -256  -39  32  0  -66  -116  -139  -147  -147  -131  -86  -20  42  103  206  409  729  1088  1354  1476  1504  1512  1538  1581  1628  1692  1836  2099  2403  2609  2678  2680  2694  2797  3061  3448  3811  4031  4102  4068  3974  3866  3789  3747  3697  3603  3480  3348  3173  2928  2627  2288  1969  1739  1570  1373  1093  725  342  48  -146  -325  -534  -753  -925  -1004  -999  -963  -927  -885  -841  -838  -908  -1015  -1069  -999  -825  -643  -539  -524  -567  -633  -691  -724  -738  -744  -735  -687  -607  -567  -609  -659  -649  -609  -585  -584  -590  -585  -553  -488  -413  -366  -340  -280  -147  38  211  334  453  621  803  918  951  943  929  911  886  868  875  901  922  930  935  945  954  940  884  788  684  591  504  408  313  230  138  14  -135  -265  -333  -339  -314  -302  -338  -432  -558  -676  -748  -771  -769  -763  -757  -755  -763  -800  -872  -969  -1074  -1160  -1206  -1220  -1230  -1251  -1280  -1312  -1346  -1378  -1402  -1416  -1416  -1404  -1395  -1427  -1544  -1734  -1909  -1988  -1954  -1826  -1636  -1439  -1316  -1312  -1414  -1553  -1651  -1682  -1675  -1664  -1658  -1658  -1665  -1680  -1699  -1707  -1699  -1681  -1667  -1664  -1675  -1699  -1712  -1637  -1408  -1087  -856  -835  -1009  -1258  -1434  -1465  -1375  -1231  -1116  -1072  -1086  -1151  -1265  -1299  -1006  -289  701  1741  2589  3001  2794  1911  534  -1025  -2520  -3677  -4270  -4331  -4029  -3478  -2803  -2139  -1561  -1134  -906  -827  -786  -683  -456  -139  147  329  417  448  436  395  371  396  462  554  663  758  816  842  875  972  1144  1337  1488  1570  1587  1564  1560  1614  1709  1835  2040  2318  2559  2677  2702  2725  2832  3058  3357  3634  3821  3907  3931  3927  3910  3891  3863  3761  3458  2887  2197  1622  1203  835  502  255  84  -57  -228  -532  -1056  -1673  -2101  -2228  -2177  -2097  -2049  -2031  -2025  -2029  -2057  -2113  -2184  -2277  -2401  -2509  -2536  -2453  -2278  -2099  -2017  -2027  -2059  -2079  -2095  -2117  -2149  -2183  -2188  -2129  -2017  -1869  -1682  -1464  -1225  -915  -487  -9  374  582  643  647  674  780  973  1183  1311  1308  1183  1002  878  931  1214  1621  1937  2065  2096  2141  2212  2263  2279  2286  2302  2321  2329  2305  2231  2130  2044  1966  1851  1705  1597  1563  1572  1564  1477  1282  1038  854  770  732  686  628  581  552  496  360  171  23  -36  -29  10  34  -11  -147  -354  -581  -758  -854  -893  -910  -917  -915  -905  -893  -891  -896  -902  -904  -905  -906  -905  -899  -888  -881  -891  -906  -912  -915  -921  -930  -942  -958  -962  -902  -730  -492  -311  -241  -229  -199  -133  -93  -141  -250  -355  -437  -535  -673  -815  -916  -963  -967  -924  -815  -634  -447  -380  -471  -584  -504  -35  888  2057  3078  3666  3781  3430  2576  1322  -115  -1530  -2608  -3054  -2921  -2488  -1927  -1326  -812  -470  -277  -133  51  259  407  472  490  493  496  507  521  504  420  291  196  192  279  410  541  666  773  823  820  823  885  1037  1250  1447  1586  1688  1795  1918  2036  2135  2232  2326  2407  2498  2639  2866  3203  3603  3929  4093  4140  4159  4177  4171  4118  4030  3898  3644  3202  2647  2119  1641  1155  688  320  75  -84  -192  -253  -289  -360  -509  -713  -900  -1025  -1090  -1131  -1168  -1195  -1205  -1202  -1193  -1189  -1210  -1277  -1388  -1519  -1646  -1733  -1737  -1670  -1584  -1503  -1427  -1374  -1357  -1361  -1347  -1280  -1164  -1054  -997  -999  -1044  -1104  -1147  -1141  -1069  -950  -833  -755  -713  -672  -598  -492  -393  -332  -313  -323  -363  -441  -564  -715  -852  -930  -945  -930  -913  -901  -896  -921  -1005  -1139  -1277  -1375  -1410  -1373  -1283  -1186  -1120  -1091  -1080  -1071  -1052  -1006  -938  -869  -817  -787  -774  -771  -783  -824  -891  -953  -978  -960  -927  -909  -926  -987  -1071  -1135  -1166  -1172  -1139  -1039  -886  -749  -677  -658  -664  -689  -745  -821  -889  -926  -938  -936  -915  -864  -794  -730  -681  -631  -568  -511  -473  -440  -387  -304  -210  -135  -92  -73  -67  -72  -108  -196  -315  -410  -447  -446  -436  -433  -431  -408  -346  -252  -160  -106  -117  -234  -459  -648  -629  -377  108  821  1637  2456  3245  3814  3831  3083  1664  -56  -1621  -2657  -3037  -2987  -2802  -2514  -2028  -1332  -540  111  441  500  460  415  371  324  289  288  323  382  445  497  527  534  555  649  826  1012  1122  1149  1142  1141  1161  1228  1376  1573  1726  1791  1802  1810  1847  1936  2094  2294  2472  2580  2649  2764  2969  3237  3506  3698  3779  3786  3765  3729  3651  3505  3321  3155  2998  2781  2475  2109  1754  1480  1293  1143  931  562  93  -278  -462  -529  -554  -561  -576  -632  -751  -907  -1041  -1110  -1120  -1098  -1082  -1116  -1230  -1386  -1501  -1537  -1523  -1496  -1467  -1436  -1407  -1360  -1255  -1104  -971  -893  -863  -848  -804  -723  -647  -633  -701  -806  -884  -919  -941  -977  -1020  -1050  -1056  -1046  -1039  -1061  -1137  -1248  -1336  -1368  -1350  -1303  -1241  -1179  -1129  -1094  -1069  -1052  -1037  -1011  -959  -892  -843  -831  -851  -893  -949  -1006  -1042  -1036  -979  -887  -803  -757  -734  -694  -615  -509  -407  -332  -289  -266  -263  -305  -423  -580  -688  -713  -692  -667  -645  -627  -622  -636  -661  -678  -683  -709  -783  -887  -964  -992  -992  -986  -971  -936  -888  -842  -804  -770  -751  -757  -785  -820  -837  -818  -778  -746  -751  -801  -871  -928  -960  -965  -943  -905  -875  -863  -863  -866  -871  -880  -880  -845  -758  -652  -590  -595  -632  -656  -647  -624  -617  -657  -757  -817  -677  -329  147  789  1618  2464  3086  3300  2922  1900  494  -922  -2063  -2731  -2910  -2800  -2576  -2230  -1709  -1076  -488  -78  146  271  365  440  501  572  680  829  982  1092  1142  1147  1132  1109  1102  1167  1352  1612  1821  1914  1936  1946  1974  2049  2188  2354  2472  2512  2511  2523  2570  2637  2697  2780  2950  3204  3436  3559  3581  3553  3496  3422  3366  3381  3492  3654  3772  3790  3707  3545  3324  3044  2707  2359  2063  1802  1503  1111  629  163  -154  -334  -465  -573  -650  -722  -853  -1085  -1358  -1557  -1641  -1651  -1631  -1584  -1502  -1394  -1301  -1262  -1267  -1262  -1210  -1098  -958  -858  -822  -827  -843  -865  -890  -906  -909  -898  -881  -855  -806  -733  -662  -593  -492  -355  -237  -182  -176  -183  -180  -168  -164  -180  -202  -213  -212  -208  -212  -238  -287  -340  -364  -346  -306  -266  -226  -176  -118  -61  -8  36  63  75  78  79  78  79  89  120  175  241  291  310  302  280  248  201  145  91  48  20  7  6  8  8  4  -2  0  18  47  87  131  164  187  211  231  220  172  119  88  73  47  -12  -110  -232  -340  -393  -366  -256  -108  1  37  16  -43  -117  -165  -161  -109  -48  -30  -68  -129  -182  -213  -228  -227  -186  -57  152  318  321  231  267  567  1098  1722  2269  2615  2687  2371  1593  486  -659  -1580  -2150  -2359  -2312  -2197  -2094  -1908  -1616  -1336  -1124  -954  -834  -793  -838  -958  -1102  -1198  -1216  -1178  -1124  -1086  -1073  -1071  -1057  -992  -866  -722  -623  -584  -575  -566  -556  -554  -557  -543  -481  -362  -217  -99  -14  100  301  553  765  896  965  1018  1105  1253  1436  1612  1782  1950  2083  2160  2189  2185  2138  2000  1733  1389  1071  824  640  504  372  204  25  -127  -270  -423  -574  -720  -875  -1020  -1118  -1162  -1175  -1187  -1229  -1319  -1454  -1614  -1763  -1865  -1903  -1882  -1838  -1814  -1818  -1814  -1782  -1746  -1730  -1728  -1717  -1656  -1527  -1377  -1278  -1248  -1256  -1273  -1292  -1298  -1245  -1092  -877  -689  -549  -439  -369  -331  -280  -187  -98  -95  -175  -263  -307  -308  -266  -173  -52  40  73  56  24  9  25  72  136  196  219  183  94  -8  -88  -136  -158  -154  -122  -61  12  86  172  264  306  239  61  -150  -301  -356  -343  -300  -241  -151  -36  60  113  137  144  144  155  167  164  148  125  103  93  101  125  157  180  189  189  181  157  113  60  11  -38  -101  -168  -231  -281  -311  -319  -321  -335  -369  -413  -450  -478  -509  -533  -501  -345  -71  265  657  1119  1603  2025  2323  2345  1862  866  -389  -1617  -2529  -2891  -2765  -2460  -2183  -1939  -1676  -1344  -933  -525  -241  -101  -21  58  124  157  163  154  132  92  43  1  2  95  315  619  901  1080  1155  1182  1211  1256  1302  1353  1429  1526  1625  1733  1854  1969  2090  2264  2480  2658  2745  2761  2748  2733  2743  2823  2994  3195  3331  3383  3395  3387  3331  3203  3036  2887  2764  2621  2418  2126  1725  1284  928  697  531  381  247  144  59  -34  -134  -204  -227  -212  -171  -118  -83  -96  -169  -269  -341  -365  -362  -358  -361  -355  -319  -242  -168  -160  -209  -250  -256  -250  -250  -250  -231  -176  -120  -164  -386  -708  -954  -1043  -1032  -988  -948  -927  -923  -920  -902  -871  -836  -810  -821  -901  -1052  -1226  -1383  -1540  -1706  -1832  -1878  -1858  -1810  -1760  -1694  -1583  -1453  -1363  -1336  -1349  -1384  -1448  -1537  -1617  -1652  -1630  -1549  -1429  -1314  -1251  -1244  -1261  -1277  -1287  -1288  -1271  -1222  -1156  -1094  -1027  -929  -823  -767  -783  -838  -881  -897  -896  -885  -865  -843  -834  -844  -842  -770  -591  -364  -200  -140  -153  -193  -235  -264  -275  -273  -278  -320  -405  -493  -536  -525  -492  -476  -486  -495  -476  -446  -437  -447  -418  -317  -194  -142  -226  -420  -564  -516  -264  178  817  1607  2406  3010  3256  3018  2233  1019  -365  -1638  -2499  -2760  -2532  -2101  -1662  -1261  -867  -494  -223  -82  -22  0  0  -5  14  77  178  280  353  403  455  514  567  610  663  733  807  884  975  1083  1184  1248  1272  1275  1283  1325  1418  1559  1717  1858  1983  2123  2279  2410  2500  2581  2677  2771  2841  2892  2932  2955  2966  2976  2983  2971  2917  2814  2670  2491  2286  2080  1894  1695  1432  1125  825  521  194  -111  -356  -541  -679  -796  -899  -946  -896  -778  -670  -618  -603  -591  -586  -613  -670  -723  -748  -762  -794  -851  -893  -883  -828  -766  -728  -720  -723  -725  -729  -736  -749  -772  -795  -795  -765  -736  -731  -735  -732  -726  -726  -734  -748  -766  -790  -812  -832  -856  -876  -884  -878  -871  -879  -905  -925  -912  -876  -853  -855  -858  -829  -772  -719  -684  -659  -626  -585  -549  -525  -505  -489  -490  -516  -560  -594  -591  -540  -428  -286  -206  -225  -289  -346  -382  -400  -405  -390  -352  -307  -279  -273  -280  -286  -274  -224  -141  -52  13  46  55  70  117  199  289  357  378  320  162  -40  -192  -260  -283  -292  -293  -286  -278  -270  -247  -204  -145  -63  33  109  119  43  -104  -267  -403  -525  -641  -718  -734  -702  -645  -587  -547  -524  -509  -493  -463  -412  -355  -322  -263  -35  482  1304  2263  3062  3500  3461  2812  1632  235  -1141  -2294  -2965  -3129  -2950  -2484  -1794  -1117  -648  -368  -188  -84  -46  -36  -32  -49  -88  -111  -80  -11  54  98  143  222  343  487  627  743  828  895  961  1021  1051  1049  1061  1134  1251  1361  1456  1558  1670  1792  1936  2100  2246  2341  2389  2428  2502  2643  2848  3053  3175  3202  3188  3175  3164  3147  3124  3070  2899  2551  2135  1834  1652  1435  1112  776  527  355  191  0  -217  -432  -613  -779  -949  -1088  -1173  -1258  -1407  -1592  -1718  -1728  -1634  -1490  -1358  -1261  -1188  -1126  -1076  -1051  -1059  -1097  -1152  -1204  -1239  -1259  -1272  -1270  -1234  -1156  -1043  -923  -828  -793  -844  -979  -1150  -1283  -1333  -1267  -1064  -776  -537  -435  -450  -521  -604  -683  -749  -800  -843  -893  -944  -938  -826  -655  -517  -456  -460  -499  -552  -621  -705  -786  -837  -838  -809  -798  -842  -951  -1077  -1140  -1108  -1005  -841  -655  -521  -469  -461  -480  -535  -615  -680  -708  -704  -689  -680  -685  -708  -734  -730  -671  -589  -535  -520  -520  -513  -500  -483  -468  -462  -467  -476  -477  -451  -387  -304  -243  -228  -271  -374  -495  -563  -546  -472  -385  -303  -238  -210  -222  -237  -228  -205  -185  -189  -215  -233  -220  -188  -173  -182  -165  -79  58  187  247  218  107  -64  -246  -371  -428  -443  -448  -456  -474  -497  -522  -538  -537  -512  -486  -494  -555  -635  -630  -426  -11  542  1160  1833  2597  3331  3717  3427  2336  764  -720  -1797  -2406  -2599  -2574  -2496  -2286  -1830  -1244  -762  -460  -241  -38  115  189  221  260  311  347  365  386  423  474  541  618  677  701  714  752  835  945  1038  1087  1095  1078  1069  1127  1302  1565  1816  1981  2053  2071  2102  2207  2392  2592  2734  2808  2867  2967  3123  3294  3422  3486  3493  3447  3327  3133  2932  2801  2710  2548  2248  1856  1475  1176  966  819  703  575  401  191  -21  -221  -412  -608  -796  -928  -975  -962  -927  -886  -839  -798  -781  -784  -798  -809  -811  -797  -764  -721  -685  -671  -689  -748  -825  -882  -902  -895  -868  -821  -760  -703  -671  -665  -669  -667  -647  -613  -580  -561  -558  -563  -563  -549  -529  -514  -511  -509  -514  -554  -654  -783  -875  -893  -855  -798  -752  -724  -707  -714  -764  -835  -881  -872  -812  -737  -678  -633  -598  -578  -577  -592  -600  -583  -546  -501  -446  -392  -359  -354  -376  -429  -526  -666  -802  -867  -817  -661  -444  -244  -128  -108  -160  -271  -418  -541  -600  -608  -600  -593  -592  -596  -603  -600  -569  -505  -438  -394  -374  -370  -386  -424  -476  -523  -548  -539  -488  -408  -336  -300  -297  -307  -318  -308  -257  -164  -68  -14  -2  -7  -13  -12  -2  22  64  114  147  145  114  65  2  -77  -198  -352  -482  -532  -506  -448  -394  -343  -292  -260  -253  -263  -275  -280  -241  -103  132  394  696  1195  1988  2951  3821  4259  3915  2704  953  -899  -2459  -3335  -3442  -3074  -2494  -1806  -1139  -627  -328  -203  -147  -80  9  102  180  226  239  235  231  237  254  267  265  249  227  198  172  180  254  390  532  624  678  754  913  1141  1347  1473  1550  1612  1657  1714  1844  2038  2211  2329  2460  2669  2912  3089  3171  3199  3204  3182  3141  3103  3077  3052  3006  2904  2681  2295  1822  1410  1137  965  806  594  316  16  -283  -596  -893  -1105  -1218  -1269  -1293  -1316  -1359  -1416  -1454  -1454  -1426  -1389  -1357  -1339  -1332  -1324  -1308  -1280  -1251  -1241  -1259  -1291  -1304  -1270  -1192  -1093  -1004  -952  -936  -942  -962  -1004  -1063  -1112  -1127  -1100  -1032  -934  -841  -787  -769  -771  -792  -845  -925  -991  -999  -953  -891  -844  -820  -815  -829  -864  -910  -943  -951  -938  -913  -866  -763  -592  -404  -262  -172  -109  -71  -61  -67  -53  23  163  306  388  390  328  234  146  100  124  217  327  388  383  348  320  302  266  186  71  -38  -113  -151  -157  -149  -140  -133  -128  -139  -187  -273  -359  -394  -366  -300  -239  -204  -192  -206  -266  -373  -485  -546  -527  -450  -364  -303  -273  -264  -267  -282  -308  -335  -349  -345  -324  -280  -207  -117  -40  16  56  84  108  151  231  327  376  304  86  -215  -493  -679  -766  -787  -783  -778  -779  -776  -760  -741  -733  -737  -757  -801  -844  -792  -546  -111  406  926  1497  2161  2848  3401  3483  2739  1270  -492  -2182  -3370  -3712  -3384  -2785  -2088  -1399  -883  -611  -509  -459  -387  -294  -203  -94  69  262  405  470  478  442  362  295  333  483  651  760  813  837  852  875  911  954  1009  1103  1242  1398  1550  1689  1811  1923  2049  2206  2374  2506  2584  2666  2822  3041  3233  3346  3407  3454  3491  3516  3534  3545  3537  3493  3420  3320  3134  2791  2321  1845  1473  1225  1049  832  477  55  -249  -360  -352  -329  -374  -531  -747  -907  -960  -948  -917  -890  -881  -893  -917  -938  -952  -964  -976  -982  -974  -959  -946  -941  -941  -941  -941  -941  -941  -941  -941  -940  -941  -941  -940  -938  -937  -944  -961  -984  -998  -1003  -1013  -1047  -1117  -1209  -1281  -1300  -1255  -1145  -1012  -921  -891  -892  -898  -914  -959  -1031  -1101  -1158  -1211  -1254  -1270  -1262  -1244  -1226  -1213  -1206  -1200  -1183  -1151  -1111  -1077  -1050  -1032  -1030  -1036  -1031  -1006  -963  -912  -876  -867  -881  -906  -929  -923  -852  -706  -532  -407  -382  -458  -576  -665  -702  -709  -709  -706  -695  -665  -599  -488  -350  -234  -176  -164  -160  -142  -130  -142  -165  -161  -122  -82  -75  -102  -131  -136  -119  -79  0  132  287  409  467  482  488  482  415  244  7  -190  -291  -319  -314  -290  -253  -216  -193  -184  -180  -180  -202  -260  -336  -386  -397  -393  -403  -398  -223  295  1161  2203  3175  3784  3784  3087  1807  205  -1445  -2832  -3598  -3633  -3171  -2484  -1712  -1028  -632  -519  -519  -515  -497  -489  -482  -426  -288  -96  86  219  311  378  425  465  539  663  794  881  925  945  949  939  919  914  974  1144  1398  1647  1840  1991  2108  2185  2262  2399  2594  2787  2927  3028  3149  3319  3501  3635  3698  3711  3707  3696  3672  3611  3484  3299  3112  2960  2815  2618  2330  1946  1501  1078  734  450  208  42  -48  -116  -187  -240  -258  -255  -249  -243  -239  -236  -233  -230  -231  -251  -289  -316  -302  -262  -236  -237  -253  -270  -284  -313  -368  -433  -488  -532  -568  -607  -657  -713  -757  -777  -771  -740  -701  -673  -668  -684  -713  -758  -827  -901  -946  -957  -952  -947  -943  -933  -923  -933  -976  -1032  -1072  -1084  -1076  -1064  -1055  -1051  -1054  -1070  -1097  -1112  -1100  -1072  -1045  -1020  -995  -973  -961  -953  -940  -918  -897  -882  -866  -835  -795  -766  -745  -715  -674  -653  -683  -767  -873  -961  -1017  -1050  -1045  -981  -882  -794  -745  -736  -745  -749  -745  -743  -752  -762  -744  -683  -615  -596  -623  -650  -651  -634  -623  -622  -609  -570  -512  -456  -422  -396  -340  -243  -146  -95  -98  -126  -134  -102  -63  -72  -147  -284  -473  -674  -832  -919  -938  -904  -840  -773  -708  -647  -612  -622  -661  -713  -781  -882  -999  -1016  -807  -390  128  709  1399  2234  3116  3778  3866  3095  1551  -276  -1886  -2943  -3295  -3116  -2804  -2602  -2407  -1981  -1304  -651  -275  -165  -167  -185  -191  -154  -44  107  228  287  301  291  275  288  364  496  633  740  812  863  921  1003  1088  1146  1195  1267  1359  1437  1487  1543  1653  1817  1979  2096  2200  2347  2524  2682  2829  3015  3229  3400  3480  3492  3482  3476  3473  3456  3419  3370  3290  3093  2710  2214  1788  1554  1473  1378  1120  694  239  -103  -303  -407  -457  -483  -514  -592  -732  -893  -1012  -1059  -1057  -1037  -1017  -1006  -1002  -1001  -1000  -998  -1004  -1026  -1058  -1084  -1076  -1022  -944  -886  -866  -861  -850  -825  -787  -751  -732  -729  -734  -739  -748  -759  -768  -773  -774  -764  -734  -691  -666  -670  -681  -696  -742  -801  -838  -856  -891  -958  -1040  -1114  -1170  -1187  -1152  -1074  -987  -927  -890  -850  -801  -774  -789  -829  -861  -864  -827  -746  -637  -543  -494  -486  -506  -546  -589  -614  -616  -608  -606  -622  -658  -706  -740  -742  -713  -667  -624  -596  -581  -577  -583  -594  -592  -558  -499  -440  -399  -372  -358  -366  -396  -430  -447  -446  -437  -429  -408  -358  -291  -247  -252  -296  -350  -367  -285  -67  220  435  516  502  426  290  110  -77  -232  -317  -337  -341  -376  -444  -513  -555  -560  -521  -442  -358  -322  -349  -380  -308  -102  220  726  1437  2204  2864  3300  3338  2807  1714  243  -1336  -2671  -3434  -3567  -3255  -2691  -2035  -1461  -1042  -729  -495  -355  -288  -249  -211  -151  -68  3  31  17  -13  -40  -47  -1  129  332  547  734  878  970  1009  1025  1057  1123  1228  1362  1487  1558  1567  1558  1616  1824  2164  2499  2721  2866  3025  3209  3360  3443  3483  3512  3534  3545  3550  3549  3526  3462  3352  3202  3031  2883  2795  2725  2556  2226  1842  1557  1366  1157  862  493  142  -73  -141  -137  -122  -115  -132  -189  -275  -353  -402  -423  -428  -431  -449  -485  -535  -593  -643  -670  -679  -684  -693  -701  -702  -692  -669  -636  -593  -533  -448  -374  -360  -379  -362  -314  -277  -269  -277  -299  -340  -400  -465  -534  -619  -712  -783  -798  -757  -704  -678  -680  -687  -678  -638  -576  -521  -493  -482  -476  -481  -508  -549  -578  -586  -585  -587  -589  -584  -573  -562  -553  -541  -500  -409  -285  -171  -107  -171  -488  -1058  -1644  -1987  -2041  -1895  -1633  -1322  -1050  -891  -842  -846  -857  -854  -821  -758  -695  -661  -656  -661  -663  -659  -653  -644  -632  -624  -643  -717  -841  -988  -1157  -1363  -1573  -1732  -1828  -1885  -1922  -1940  -1943  -1941  -1965  -2050  -2188  -2329  -2432  -2489  -2516  -2533  -2544  -2548  -2545  -2538  -2548  -2592  -2624  -2567  -2384  -2069  -1570  -858  -58  644  1132  1280  909  -75  -1529  -3088  -4376  -5122  -5203  -4745  -4044  -3335  -2724  -2201  -1657  -1016  -307  379  929  1234  1288  1203  1090  1014  979  964  964  998  1094  1245  1399  1518  1636  1803  2012  2212  2366  2460  2497  2522  2623  2854  3142  3359  3474  3543  3613  3704  3824  3943  4017  4039  4034  4023  4011  3988  3950  3892  3801  3668  3493  3291  3113  3017  3004  3024  3019  2912  2631  2211  1799  1506  1312  1124  861  548  293  141  25  -114  -266  -395  -491  -563  -618  -637  -604  -548  -512  -499  -498  -501  -506  -505  -495  -490  -510  -558  -627  -700  -758  -794  -816  -828  -824  -765  -611  -394  -220  -157  -201  -317  -448  -547  -595  -582  -500  -390  -317  -299  -313  -338  -372  -416  -444  -435  -399  -357  -325  -310  -306  -301  -293  -292  -308  -339  -382  -418  -418  -405  -422  -459  -486  -498  -499  -494  -486  -483  -486  -491  -495  -499  -505  -516  -530  -536  -529  -516  -514  -549  -649  -791  -907  -946  -911  -842  -764  -681  -614  -605  -654  -711  -742  -749  -755  -773  -801  -829  -844  -821  -751  -652  -533  -396  -259  -136  -45  -43  -170  -372  -533  -591  -578  -545  -524  -524  -552  -612  -697  -783  -847  -874  -841  -707  -486  -289  -227  -297  -418  -453  -256  186  766  1419  2122  2764  3113  2902  2016  628  -903  -2222  -3010  -3144  -2867  -2484  -2074  -1653  -1274  -946  -673  -474  -337  -247  -190  -153  -128  -105  -68  -14  37  79  126  191  259  306  329  337  345  381  468  590  709  800  868  936  1044  1208  1367  1449  1461  1467  1525  1642  1773  1878  1975  2108  2287  2472  2611  2705  2789  2870  2921  2924  2884  2822  2763  2697  2582  2416  2245  2071  1837  1538  1250  1036  899  799  643  376  72  -140  -229  -258  -294  -351  -410  -465  -528  -588  -633  -662  -682  -694  -693  -675  -645  -615  -593  -567  -525  -469  -416  -377  -337  -270  -193  -158  -195  -291  -399  -494  -582  -665  -715  -726  -722  -717  -689  -596  -440  -282  -178  -127  -103  -87  -65  -37  -13  1  16  37  60  68  34  -39  -123  -189  -234  -264  -283  -292  -294  -286  -275  -269  -278  -305  -339  -357  -330  -252  -163  -107  -90  -96  -118  -159  -211  -248  -254  -241  -237  -250  -270  -296  -338  -406  -481  -533  -550  -532  -483  -426  -400  -422  -465  -492  -500  -504  -505  -495  -492  -547  -699  -899  -1043  -1072  -997  -862  -730  -645  -578  -479  -360  -302  -353  -475  -604  -731  -862  -978  -1056  -1088  -1095  -1133  -1249  -1420  -1570  -1648  -1661  -1643  -1639  -1673  -1729  -1778  -1794  -1791  -1864  -2049  -2200  -2094  -1610  -785  256  1275  1910  1943  1435  544  -539  -1621  -2630  -3512  -4064  -4146  -3877  -3461  -3025  -2636  -2343  -2142  -1959  -1728  -1440  -1096  -727  -458  -391  -461  -532  -550  -529  -411  -113  288  582  677  652  604  576  577  618  705  838  1005  1170  1284  1345  1403  1508  1661  1827  1992  2178  2406  2633  2792  2898  3037  3226  3385  3446  3390  3233  3041  2906  2861  2872  2894  2895  2843  2706  2476  2188  1909  1686  1524  1403  1259  1011  669  343  106  -69  -215  -321  -398  -484  -579  -649  -703  -772  -841  -865  -820  -706  -533  -365  -270  -238  -242  -290  -359  -398  -355  -206  -5  140  202  234  278  320  345  359  365  328  206  21  -137  -211  -221  -210  -199  -183  -163  -148  -141  -143  -154  -175  -184  -163  -128  -126  -162  -197  -203  -187  -184  -254  -430  -615  -639  -488  -318  -246  -248  -249  -200  -102  0  66  89  90  73  26  -43  -99  -117  -102  -64  0  83  163  225  247  170  -42  -319  -508  -539  -490  -452  -458  -494  -528  -534  -506  -457  -429  -452  -502  -561  -651  -764  -842  -845  -785  -700  -638  -630  -656  -677  -685  -703  -746  -802  -822  -748  -567  -345  -181  -111  -97  -75  -1  113  215  256  218  117  11  -46  -55  -55  -90  -178  -298  -397  -452  -485  -518  -575  -670  -790  -864  -809  -620  -395  -251  -266  -424  -595  -619  -356  332  1441  2624  3391  3438  2717  1456  73  -1181  -2210  -2816  -2941  -2830  -2643  -2331  -1883  -1406  -1008  -738  -576  -460  -342  -233  -150  -81  -7  61  100  113  139  203  286  336  322  277  249  240  225  216  285  496  791  1031  1164  1245  1339  1494  1729  1976  2120  2131  2111  2164  2310  2496  2680  2887  3126  3321  3412  3420  3400  3385  3381  3385  3386  3358  3281  3154  2966  2680  2325  2001  1765  1544  1214  766  359  121  6  -101  -230  -327  -364  -370  -393  -461  -552  -622  -657  -680  -713  -756  -760  -698  -610  -537  -485  -458  -456  -450  -422  -382  -352  -342  -344  -352  -386  -473  -593  -684  -712  -682  -616  -548  -493  -436  -387  -361  -350  -346  -372  -453  -575  -684  -745  -758  -724  -633  -506  -397  -341  -332  -351  -376  -388  -372  -326  -268  -235  -272  -407  -590  -725  -774  -773  -750  -690  -585  -469  -396  -387  -428  -504  -592  -671  -720  -743  -759  -776  -781  -756  -723  -708  -696  -700  -752  -816  -805  -675  -484  -346  -337  -447  -604  -723  -786  -820  -845  -852  -823  -756  -687  -653  -657  -677  -689  -695  -722  -753  -696  -522  -344  -263  -275  -330  -399  -470  -534  -594  -659  -712  -710  -640  -554  -510  -490  -407  -258  -136  -90  -85  -79  -62  -47  -44  -58  -111  -206  -313  -409  -501  -605  -710  -785  -813  -812  -803  -790  -770  -782  -825  -738  -380  199  993  1994  2938  3534  3625  3040  1800  211  -1445  -2877  -3711  -3923  -3799  -3453  -2906  -2303  -1789  -1411  -1128  -876  -666  -547  -509  -508  -519  -535  -536  -491  -391  -240  -31  199  363  421  422  420  430  449  491  580  719  878  1001  1052  1053  1061  1100  1171  1299  1503  1743  1971  2191  2432  2700  2948  3104  3149  3135  3117  3129  3183  3261  3330  3382  3423  3443  3421  3338  3183  2961  2681  2330  1921  1563  1341  1187  981  675  309  -31  -265  -368  -357  -290  -235  -219  -225  -225  -203  -183  -224  -365  -578  -784  -913  -963  -964  -897  -713  -448  -224  -124  -129  -197  -297  -396  -462  -488  -480  -442  -349  -189  -17  52  -34  -203  -334  -381  -377  -356  -320  -275  -237  -219  -220  -236  -277  -338  -368  -326  -245  -165  -97  -56  -80  -198  -378  -533  -606  -617  -597  -554  -485  -402  -328  -286  -293  -357  -456  -542  -573  -553  -521  -514  -535  -558  -578  -610  -661  -714  -733  -672  -537  -406  -338  -332  -383  -468  -539  -572  -564  -526  -468  -390  -311  -293  -384  -549  -695  -775  -802  -795  -763  -722  -698  -713  -762  -796  -771  -701  -632  -590  -572  -564  -559  -556  -563  -599  -672  -745  -760  -712  -650  -604  -576  -564  -556  -532  -464  -347  -210  -105  -51  -28  -14  0  26  65  111  124  40  -162  -409  -580  -635  -625  -602  -583  -558  -510  -439  -361  -294  -266  -295  -359  -426  -486  -526  -534  -498  -424  -342  -249  -89  169  588  1278  2223  3247  4068  4237  3443  1900  104  -1507  -2576  -2910  -2644  -2110  -1518  -885  -240  269  541  614  568  466  367  303  256  192  115  53  10  -39  -141  -306  -492  -646  -743  -759  -672  -514  -360  -255  -198  -173  -169  -165  -141  -98  -25  135  434  817  1164  1404  1538  1595  1608  1609  1614  1618  1637  1740  1975  2275  2521  2663  2721  2700  2614  2512  2428  2354  2290  2251  2213  2082  1750  1237  736  415  236  73  -126  -383  -711  -1040  -1249  -1295  -1200  -973  -665  -389  -223  -156  -141  -142  -152  -200  -336  -558  -781  -934  -1012  -1002  -870  -626  -362  -184  -140  -181  -243  -314  -388  -449  -495  -527  -543  -535  -510  -494  -496  -483  -438  -394  -375  -352  -282  -175  -84  -36  -9  18  41  39  3  -63  -138  -187  -186  -145  -102  -76  -69  -91  -163  -273  -379  -445  -463  -430  -351  -241  -121  -38  -47  -136  -217  -211  -103  47  154  194  209  230  213  78  -125  -226  -163  -52  7  13  -13  -67  -154  -256  -332  -354  -316  -220  -101  -18  -3  -39  -93  -134  -155  -160  -150  -121  -79  -55  -71  -119  -192  -277  -319  -314  -363  -491  -590  -602  -554  -481  -420  -396  -379  -325  -230  -134  -79  -73  -72  -33  34  82  84  57  21  -21  -63  -83  -73  -56  -46  -30  -1  4  -62  -220  -419  -575  -646  -655  -646  -639  -638  -642  -650  -656  -632  -552  -473  -528  -670  -649  -359  86  596  1132  1655  2160  2613  2794  2361  1225  -289  -1743  -2794  -3229  -3119  -2781  -2455  -2159  -1854  -1553  -1267  -990  -729  -514  -368  -269  -174  -74  16  96  166  221  253  264  265  269  288  344  445  560  657  742  813  846  836  813  832  934  1098  1275  1459  1635  1751  1794  1820  1901  2049  2208  2328  2435  2579  2744  2865  2919  2937  2946  2949  2931  2895  2874  2878  2861  2743  2495  2194  1950  1783  1608  1353  1059  817  621  375  36  -305  -513  -558  -525  -485  -472  -510  -620  -769  -880  -915  -889  -819  -712  -598  -523  -502  -507  -509  -492  -472  -488  -551  -620  -658  -652  -613  -564  -523  -493  -483  -481  -445  -365  -280  -239  -247  -275  -303  -331  -358  -385  -427  -502  -598  -667  -681  -655  -617  -593  -592  -603  -604  -585  -555  -529  -515  -512  -506  -501  -524  -579  -674  -826  -987  -1053  -956  -732  -480  -276  -148  -99  -126  -224  -398  -605  -755  -807  -802  -791  -789  -786  -758  -697  -634  -607  -593  -552  -506  -505  -552  -616  -667  -691  -688  -669  -649  -643  -650  -659  -661  -661  -672  -706  -770  -856  -947  -1032  -1098  -1130  -1129  -1112  -1099  -1084  -1036  -961  -898  -863  -838  -799  -736  -652  -564  -504  -509  -577  -662  -719  -740  -743  -742  -742  -731  -699  -659  -641  -664  -707  -729  -706  -652  -601  -574  -577  -623  -727  -861  -965  -1019  -1041  -1012  -876  -681  -628  -725  -674  -366  -1  435  1159  2001  2534  2590  2088  989  -348  -1494  -2401  -3094  -3445  -3437  -3127  -2521  -1771  -1169  -857  -765  -773  -805  -826  -779  -622  -398  -214  -114  -51  9  55  70  64  52  53  89  184  342  524  669  745  775  806  857  936  1046  1167  1287  1428  1592  1770  1979  2199  2347  2393  2379  2355  2350  2397  2527  2740  2969  3119  3166  3160  3137  3090  2996  2851  2684  2546  2469  2425  2325  2059  1591  1061  680  517  483  469  389  193  -67  -280  -401  -475  -533  -573  -594  -603  -609  -625  -665  -715  -741  -727  -692  -663  -632  -570  -479  -404  -369  -367  -382  -390  -368  -327  -294  -266  -216  -122  -16  49  64  52  36  24  15  7  1  0]
