reading_id,reading_time,wire_id,result_classification,heart_rate,heart_rate_alert,firmware_version,device_app_version,hardware_version,waveform_samples
f4850db0-67b7-11ed-8080-808080808080,Sat Nov 19 03:12:09 UTC 2022,2101e3d81839,NSR,64,NONE,20001.171.50,2.10.0,Charge 5,[353  970  1322  1402  1368  1333  1321  1312  1299  1301  1346  1419  1469  1467  1433  1421  1465  1552  1656  1732  1734  1716  1805  2064  2419  2725  2893  2944  2952  3007  3169  3381  3497  3439  3282  3153  3102  3102  3117  3132  3135  3094  2961  2715  2434  2237  2124  1971  1660  1184  677  315  150  95  34  -88  -242  -362  -404  -370  -317  -290  -284  -269  -239  -230  -285  -403  -543  -652  -700  -704  -715  -739  -729  -656  -554  -474  -451  -476  -512  -551  -616  -703  -773  -800  -772  -693  -598  -537  -536  -582  -637  -689  -785  -938  -1074  -1125  -1092  -1003  -905  -847  -858  -961  -1157  -1383  -1555  -1639  -1661  -1661  -1662  -1672  -1690  -1712  -1735  -1755  -1769  -1771  -1751  -1715  -1694  -1712  -1750  -1782  -1804  -1825  -1857  -1914  -1989  -2071  -2168  -2268  -2317  -2278  -2190  -2119  -2096  -2103  -2100  -2047  -1932  -1799  -1713  -1685  -1660  -1586  -1466  -1335  -1228  -1153  -1108  -1115  -1213  -1382  -1544  -1644  -1685  -1689  -1681  -1678  -1695  -1734  -1763  -1750  -1734  -1793  -1921  -2023  -2047  -2035  -2071  -2172  -2199  -1992  -1566  -1037  -403  490  1692  2973  3957  4246  3609  2240  634  -847  -2063  -2861  -3197  -3224  -3005  -2582  -2174  -1905  -1691  -1463  -1250  -1089  -990  -946  -941  -952  -957  -930  -832  -623  -311  40  343  536  629  686  744  787  804  802  791  774  771  817  921  1076  1304  1592  1862  2074  2290  2602  3006  3383  3619  3713  3750  3842  4065  4362  4586  4673  4679  4660  4623  4568  4521  4521  4556  4503  4227  3759  3282  2920  2647  2345  1922  1422  1000  772  718  724  680  535  293  9  -212  -306  -303  -272  -253  -257  -275  -289  -293  -294  -291  -272  -222  -139  -52  11  79  198  342  405  327  170  46  4  19  60  107  138  140  113  70  29  4  -2  -4  -4  8  32  41  27  0  -27  -60  -127  -254  -407  -514  -553  -551  -517  -435  -320  -233  -210  -244  -302  -358  -419  -512  -634  -725  -704  -562  -390  -269  -200  -147  -103  -91  -121  -163  -184  -188  -193  -204  -210  -200  -178  -148  -111  -58  31  142  228  268  282  288  291  294  282  228  132  39  -4  1  31  79  151  236  324  411  486  515  485  416  331  228  109  -1  -89  -156  -227  -317  -395  -430  -430  -419  -419  -459  -565  -728  -914  -1063  -1088  -947  -688  -375  -12  501  1273  2248  3316  4271  4654  4147  2955  1435  -171  -1573  -2543  -3098  -3270  -3044  -2562  -2031  -1577  -1253  -1049  -929  -874  -871  -892  -893  -831  -695  -528  -404  -353  -350  -366  -392  -416  -414  -387  -353  -294  -167  14  175  267  308  331  353  396  488  652  861  1040  1167  1293  1459  1636  1785  1900  1978  2015  2036  2076  2147  2239  2366  2534  2712  2855  2933  2922  2815  2643  2469  2321  2118  1763  1326  976  752  572  398  240  80  -114  -347  -598  -833  -1007  -1111  -1191  -1289  -1408  -1532  -1639  -1699  -1723  -1774  -1901  -2071  -2187  -2159  -1964  -1683  -1432  -1237  -1086  -997  -966  -961  -975  -1034  -1158  -1317  -1431  -1469  -1465  -1456  -1450  -1443  -1441  -1458  -1483  -1487  -1437  -1326  -1198  -1107  -1054  -984  -866  -734  -647  -641  -700  -774  -815  -813  -789  -764  -733  -674  -561  -418  -320  -352  -546  -823  -1028  -1079  -990  -809  -627  -539  -543  -571  -582  -569  -522  -436  -336  -268  -254  -272  -287  -282  -262  -239  -223  -221  -231  -245  -259  -261  -222  -116  29  146  198  207  204  204  208  214  217  202  154  85  21  -24  -48  -40  -8  10  -14  -76  -124  -122  -94  -78  -63  -8  109  241  304  251  106  -68  -218  -315  -361  -377  -374  -350  -308  -266  -252  -284  -359  -464  -575  -661  -702  -713  -723  -730  -719  -733  -856  -1010  -950  -522  213  1149  2243  3384  4334  4781  4446  3303  1579  -361  -2016  -3013  -3362  -3237  -2796  -2239  -1738  -1343  -1045  -814  -594  -401  -319  -352  -444  -569  -685  -744  -730  -636  -477  -312  -212  -202  -249  -300  -330  -323  -227  22  369  643  757  764  743  723  713  721  757  818  916  1089  1351  1635  1839  1947  2022  2121  2268  2465  2692  2908  3069  3175  3262  3339  3373  3321  3182  3000  2830  2703  2622  2542  2384  2086  1663  1234  953  853  844  816  676  362  -60  -409  -568  -585  -560  -547  -551  -564  -584  -614  -648  -664  -657  -649  -661  -690  -737  -800  -860  -892  -901  -912  -937  -955  -917  -794  -612  -451  -372  -362  -372  -374  -375  -396  -461  -568  -680  -760  -813  -858  -890  -901  -904  -910  -911  -864  -730  -532  -352  -273  -330  -472  -592  -637  -631  -610  -586  -563  -549  -553  -578  -616  -648  -664  -668  -666  -660  -649  -636  -631  -638  -637  -625  -629  -650  -654  -630  -587  -528  -470  -436  -427  -426  -418  -417  -444  -494  -539  -560  -559  -544  -524  -498  -453  -392  -339  -305  -282  -269  -277  -324  -423  -537  -593  -552  -450  -364  -339  -372  -440  -515  -564  -557  -473  -330  -192  -117  -104  -107  -78  2  107  190  232  240  209  118  -21  -149  -225  -270  -319  -379  -436  -477  -491  -457  -368  -257  -182  -174  -233  -346  -481  -589  -650  -680  -697  -710  -702  -621  -412  -59  480  1291  2381  3636  4823  5516  5305  4164  2387  385  -1358  -2489  -2985  -3007  -2686  -2153  -1566  -1055  -714  -548  -473  -402  -313  -230  -181  -164  -144  -95  -15  83  179  236  237  207  185  192  229  281  327  368  426  526  670  816  936  1051  1174  1280  1352  1404  1455  1514  1591  1707  1865  2022  2133  2218  2358  2609  2899  3094  3152  3121  3052  2977  2931  2932  2980  3055  3111  3090  2942  2684  2388  2087  1747  1348  937  605  409  318  250  127  -71  -297  -487  -616  -688  -727  -766  -853  -1019  -1219  -1353  -1354  -1233  -1065  -940  -888  -878  -887  -904  -926  -961  -1012  -1059  -1062  -1019  -976  -953  -926  -899  -896  -909  -921  -930  -928  -898  -825  -752  -734  -753  -751  -726  -722  -762  -823  -866  -882  -897  -934  -968  -944  -835  -676  -552  -546  -643  -739  -755  -685  -569  -464  -394  -368  -401  -509  -655  -765  -802  -782  -722  -644  -585  -579  -633  -727  -817  -866  -874  -851  -801  -738  -693  -678  -680  -686  -692  -694  -679  -635  -563  -494  -462  -480  -540  -628  -720  -779  -784  -731  -635  -541  -492  -497  -537  -592  -645  -678  -691  -695  -699  -703  -711  -723  -743  -767  -778  -752  -686  -607  -547  -495  -413  -300  -201  -144  -122  -131  -181  -278  -431  -638  -849  -991  -1037  -1004  -909  -785  -675  -593  -536  -507  -500  -502  -510  -545  -626  -743  -848  -899  -877  -652  -8  1071  2353  3561  4417  4620  4087  3033  1689  239  -1092  -2161  -2869  -3084  -2815  -2260  -1623  -1064  -714  -579  -546  -529  -512  -493  -460  -400  -316  -202  -28  178  329  391  402  384  329  252  193  187  250  378  537  688  815  953  1157  1410  1615  1730  1815  1935  2100  2288  2482  2658  2793  2898  3003  3108  3193  3246  3272  3282  3282  3278  3274  3267  3249  3220  3200  3208  3220  3164  2977  2688  2409  2222  2098  1929  1640  1278  980  805  669  458  191  -2  -72  -122  -278  -537  -768  -877  -888  -868  -852  -845  -843  -846  -848  -836  -800  -755  -725  -720  -727  -740  -777  -858  -963  -1041  -1069  -1058  -1027  -983  -940  -911  -902  -922  -976  -1048  -1104  -1122  -1095  -1019  -920  -846  -807  -777  -753  -748  -767  -798  -812  -797  -773  -755  -735  -679  -556  -383  -223  -135  -151  -250  -372  -467  -530  -573  -615  -676  -745  -794  -818  -823  -795  -716  -611  -542  -539  -576  -620  -663  -708  -747  -784  -823  -842  -827  -800  -788  -786  -772  -731  -677  -633  -608  -597  -591  -591  -594  -600  -603  -602  -598  -593  -584  -572  -564  -564  -564  -556  -534  -497  -450  -404  -369  -356  -367  -394  -426  -454  -464  -427  -315  -156  -29  9  -72  -287  -574  -818  -975  -1075  -1138  -1167  -1171  -1168  -1162  -1148  -1114  -1053  -980  -917  -862  -800  -778  -888  -1122  -1281  -1175  -781  -125  811  1998  3251  4299  4928  4940  4202  2838  1129  -696  -2332  -3357  -3619  -3305  -2632  -1843  -1249  -980  -897  -831  -739  -658  -606  -552  -438  -240  -23  125  189  204  191  151  94  66  99  175  260  332  374  382  382  417  508  630  736  813  907  1074  1325  1620  1885  2058  2148  2211  2293  2423  2619  2853  3046  3143  3159  3146  3138  3142  3152  3157  3160  3181  3236  3311  3361  3333  3177  2849  2362  1825  1353  996  771  669  629  549  354  89  -121  -236  -319  -420  -523  -583  -588  -567  -552  -548  -545  -544  -558  -601  -669  -734  -773  -772  -731  -673  -627  -581  -499  -389  -309  -295  -337  -398  -441  -446  -412  -358  -309  -283  -280  -300  -367  -499  -634  -665  -584  -490  -447  -442  -447  -456  -487  -543  -579  -554  -498  -465  -481  -553  -653  -742  -795  -807  -781  -742  -715  -690  -650  -592  -533  -493  -481  -496  -538  -594  -636  -650  -632  -582  -519  -479  -482  -513  -531  -513  -477  -452  -445  -448  -449  -441  -431  -441  -483  -541  -588  -611  -623  -638  -651  -650  -642  -635  -630  -618  -594  -556  -512  -471  -446  -440  -442  -442  -436  -431  -448  -492  -529  -512  -422  -256  -55  93  149  144  113  51  -55  -191  -312  -403  -480  -541  -570  -568  -554  -538  -525  -514  -506  -503  -515  -534  -547  -533  -491  -489  -616  -788  -799  -548  59  1103  2388  3557  4346  4531  3985  2858  1423  -118  -1532  -2561  -3124  -3266  -3032  -2551  -2034  -1606  -1285  -1079  -982  -951  -944  -938  -920  -885  -828  -739  -628  -532  -464  -415  -372  -326  -271  -197  -103  6  121  231  353  515  688  806  847  842  833  865  986  1209  1480  1729  1921  2053  2148  2234  2322  2420  2549  2692  2802  2888  3018  3205  3377  3470  3490  3472  3418  3315  3196  3117  3067  2929  2601  2117  1636  1283  1054  892  768  678  591  442  184  -133  -395  -531  -569  -569  -573  -590  -623  -672  -724  -757  -769  -771  -763  -733  -675  -610  -563  -537  -526  -536  -570  -606  -611  -575  -532  -533  -581  -626  -625  -577  -524  -506  -506  -485  -451  -444  -492  -581  -655  -683  -690  -697  -705  -710  -705  -677  -632  -585  -547  -521  -504  -499  -510  -535  -564  -585  -596  -610  -634  -661  -691  -738  -783  -799  -788  -789  -844  -945  -1024  -1029  -972  -906  -866  -866  -929  -1040  -1134  -1174  -1172  -1144  -1087  -1013  -953  -924  -917  -926  -965  -1041  -1112  -1121  -1060  -977  -908  -845  -769  -702  -669  -661  -670  -717  -808  -884  -881  -818  -756  -727  -731  -743  -747  -751  -757  -747  -685  -550  -365  -189  -80  -60  -132  -286  -463  -579  -614  -609  -600  -584  -551  -504  -463  -440  -443  -504  -655  -870  -1068  -1177  -1185  -1105  -949  -779  -699  -755  -848  -782  -333  607  1919  3334  4475  4910  4429  3178  1483  -296  -1787  -2725  -3097  -3030  -2663  -2153  -1651  -1246  -947  -737  -609  -534  -461  -376  -308  -275  -270  -272  -249  -161  -5  164  276  317  327  356  441  583  733  829  860  855  837  816  822  913  1128  1413  1646  1752  1757  1736  1775  1937  2228  2589  2933  3184  3321  3406  3520  3671  3805  3882  3920  3939  3930  3880  3801  3689  3523  3309  3100  2915  2689  2373  2009  1643  1278  949  725  597  486  355  224  80  -117  -355  -566  -705  -774  -804  -829  -857  -871  -864  -843  -815  -773  -722  -677  -652  -643  -629  -590  -516  -394  -248  -144  -109  -118  -141  -166  -183  -184  -154  -86  3  79  102  68  18  -10  -24  -50  -104  -169  -202  -179  -124  -92  -114  -159  -189  -199  -201  -199  -186  -159  -105  -25  60  116  134  134  129  119  97  69  44  8  -68  -175  -255  -285  -278  -250  -201  -137  -82  -66  -88  -116  -130  -135  -139  -138  -130  -117  -106  -97  -87  -82  -89  -102  -107  -102  -96  -119  -209  -384  -613  -840  -1027  -1156  -1224  -1242  -1233  -1210  -1180  -1156  -1136  -1107  -1067  -1035  -1023  -1035  -1071  -1120  -1156  -1160  -1130  -1077  -1024  -991  -983  -1004  -1060  -1134  -1187  -1205  -1203  -1197  -1188  -1182  -1209  -1317  -1508  -1697  -1798  -1806  -1769  -1734  -1726  -1750  -1782  -1797  -1828  -1909  -1971  -1941  -1772  -1378  -640  525  1981  3324  4117  3997  2888  1232  -384  -1689  -2640  -3254  -3600  -3709  -3483  -2875  -2119  -1564  -1282  -1083  -856  -664  -565  -527  -488  -436  -405  -405  -382  -293  -163  -40  44  88  125  198  309  415  473  487  495  533  612  716  845  1037  1285  1503  1640  1733  1814  1874  1915  1966  2041  2140  2278  2469  2679  2855  3015  3205  3396  3516  3553  3548  3524  3472  3391  3301  3214  3125  3033  2921  2715  2366  1955  1587  1227  808  400  112  -52  -169  -272  -344  -382  -410  -454  -508  -559  -616  -715  -860  -1003  -1103  -1152  -1163  -1158  -1155  -1146  -1094  -981  -848  -759  -731  -732  -740  -761  -809  -862  -894  -904  -900  -866  -814  -766  -725  -680  -613  -517  -422  -372  -379  -421  -470  -499  -500  -479  -444  -398  -331  -254  -198  -190  -228  -289  -341  -371  -395  -426  -438  -395  -315  -270  -297  -364  -418  -441  -444  -439  -434  -433  -445  -473  -510  -541  -559  -564  -541  -468  -361  -275  -256  -290  -336  -377  -415  -449  -470  -477  -492  -528  -562  -555  -508  -460  -431  -404  -375  -359  -363  -374  -381  -380  -370  -349  -318  -288  -266  -254  -256  -272  -290  -293  -265  -210  -161  -134  -117  -89  -49  -29  -64  -146  -233  -288  -319  -355  -406  -451  -477  -491  -501  -513  -525  -531  -532  -531  -542  -587  -668  -751  -803  -805  -735  -600  -412  -97  429  1203  2250  3500  4683  5338  5032  3706  1710  -394  -2010  -2833  -3029  -2926  -2662  -2254  -1776  -1347  -1047  -864  -750  -688  -668  -671  -685  -707  -726  -733  -726  -690  -582  -386  -167  -8  66  77  50  13  -11  -13  9  67  156  246  309  352  403  472  578  763  1011  1246  1434  1594  1748  1934  2166  2391  2542  2629  2724  2859  2994  3082  3119  3125  3123  3128  3119  3033  2818  2531  2293  2144  2046  1968  1869  1670  1308  831  402  158  73  22  -79  -232  -399  -557  -679  -744  -765  -782  -830  -919  -1022  -1092  -1110  -1083  -1013  -908  -798  -703  -624  -564  -528  -510  -500  -513  -579  -685  -755  -738  -659  -580  -534  -517  -513  -516  -520  -518  -506  -482  -449  -419  -400  -398  -426  -502  -615  -695  -696  -655  -605  -549  -504  -486  -486  -490  -490  -485  -480  -476  -473  -468  -464  -461  -459  -462  -479  -503  -511  -498  -501  -533  -575  -613  -632  -621  -595  -574  -548  -497  -431  -376  -350  -348  -363  -398  -439  -468  -480  -482  -483  -486  -491  -495  -492  -474  -436  -392  -363  -367  -396  -418  -417  -407  -396  -367  -300  -187  -52  71  167  232  257  216  85  -80  -158  -78  92  231  283  260  170  28  -113  -212  -258  -258  -239  -230  -251  -294  -326  -323  -304  -303  -335  -386  -423  -427  -404  -375  -378  -494  -762  -1052  -1143  -914  -384  369  1290  2350  3517  4608  5226  4991  3841  2042  24  -1720  -2861  -3396  -3426  -3005  -2310  -1621  -1092  -741  -542  -443  -391  -354  -319  -294  -296  -323  -353  -361  -333  -270  -187  -111  -47  16  90  168  233  271  290  307  326  359  437  583  790  1022  1232  1387  1479  1512  1507  1522  1636  1889  2223  2517  2711  2844  2973  3103  3207  3300  3428  3582  3700  3740  3712  3641  3547  3435  3305  3127  2864  2552  2256  1947  1566  1150  790  551  430  379  355  333  271  110  -141  -400  -597  -727  -825  -920  -1006  -1058  -1072  -1066  -1056  -1053  -1071  -1123  -1194  -1247  -1266  -1256  -1226  -1184  -1149  -1148  -1178  -1205  -1191  -1135  -1072  -1033  -1020  -1021  -1024  -1029  -1042  -1058  -1069  -1069  -1054  -1023  -978  -925  -874  -850  -853  -835  -777  -720  -692  -686  -680  -670  -676  -741  -889  -1064  -1177  -1200  -1166  -1114  -1064  -1031  -1021  -1023  -1031  -1050  -1084  -1112  -1095  -1023  -938  -890  -891  -918  -943  -952  -950  -946  -946  -940  -922  -892  -859  -835  -835  -852  -865  -863  -871  -909  -965  -1006  -1018  -1012  -988  -943  -880  -818  -765  -727  -714  -726  -739  -734  -718  -695  -659  -608  -555  -510  -480  -461  -441  -422  -417  -432  -459  -474  -470  -460  -449  -441  -443  -447  -440  -429  -423  -421  -421  -423  -432  -450  -467  -463  -440  -427  -455  -543  -704  -900  -971  -729  -124  787  1897  3036  4061  4786  4895  4212  2902  1259  -380  -1654  -2402  -2682  -2573  -2195  -1712  -1209  -771  -511  -430  -424  -410  -372  -330  -297  -276  -272  -281  -281  -242  -161  -58  46  138  211  273  334  386  425  463  521  608  721  838  936  1025  1136  1268  1384  1458  1519  1626  1797  1980  2104  2177  2277  2447  2636  2782  2882  2968  3048  3111  3149  3166  3175  3176  3146  3048  2881  2704  2589  2535  2470  2318  2062  1761  1488  1253  1021  777  547  371  247  125  -24  -186  -321  -398  -407  -379  -350  -339  -355  -384  -392  -375  -361  -366  -386  -405  -413  -429  -480  -572  -675  -741  -725  -610  -433  -271  -178  -148  -151  -159  -157  -144  -124  -110  -104  -101  -96  -96  -105  -109  -90  -51  -23  -44  -114  -191  -236  -246  -241  -242  -264  -293  -287  -234  -192  -206  -258  -337  -466  -617  -722  -759  -752  -734  -729  -739  -745  -725  -685  -657  -673  -739  -841  -952  -1040  -1081  -1083  -1062  -1026  -979  -930  -876  -822  -789  -779  -762  -705  -624  -563  -554  -591  -645  -693  -731  -765  -785  -779  -747  -712  -703  -713  -719  -710  -685  -650  -607  -566  -539  -532  -535  -538  -536  -523  -502  -480  -467  -474  -526  -638  -792  -943  -1047  -1098  -1113  -1110  -1100  -1111  -1168  -1256  -1322  -1350  -1385  -1470  -1581  -1655  -1669  -1666  -1696  -1721  -1608  -1216  -514  421  1552  2864  4165  5028  5034  4083  2468  624  -1036  -2199  -2777  -2869  -2621  -2186  -1720  -1348  -1117  -976  -850  -718  -604  -529  -469  -390  -302  -237  -206  -203  -221  -251  -285  -312  -317  -288  -224  -151  -88  -21  65  166  267  348  386  393  416  497  618  735  868  1089  1391  1665  1838  1944  2038  2130  2217  2335  2536  2835  3147  3344  3398  3377  3349  3332  3324  3316  3304  3271  3178  2976  2648  2250  1871  1555  1285  1045  839  620  337  40  -169  -281  -369  -471  -553  -588  -608  -665  -778  -911  -1000  -1007  -955  -894  -862  -857  -860  -863  -866  -866  -860  -847  -823  -777  -702  -614  -554  -549  -583  -604  -560  -461  -364  -288  -220  -160  -119  -100  -95  -93  -84  -65  -42  -22  -13  -28  -64  -96  -100  -83  -60  -38  -16  -6  -29  -86  -162  -248  -354  -478  -589  -666  -709  -720  -695  -627  -533  -461  -443  -464  -491  -518  -556  -604  -641  -658  -662  -661  -645  -601  -540  -491  -466  -455  -449  -447  -445  -444  -452  -475  -510  -549  -597  -648  -661  -614  -551  -516  -489  -438  -388  -390  -445  -493  -492  -461  -439  -432  -397  -325  -262  -236  -223  -180  -83  41  140  186  187  147  52  -93  -241  -330  -350  -336  -325  -347  -420  -520  -596  -645  -707  -791  -864  -908  -935  -962  -1012  -1141  -1400  -1683  -1728  -1361  -616  365  1473  2632  3715  4478  4592  3848  2374  569  -1130  -2375  -3031  -3269  -3265  -3001  -2522  -2053  -1725  -1462  -1175  -917  -773  -729  -696  -617  -511  -435  -386  -315  -210  -108  -37  5  26  33  39  54  80  105  127  171  288  509  788  1025  1183  1307  1421  1504  1551  1614  1760  1994  2230  2399  2531  2698  2926  3189  3443  3651  3787  3862  3912  3958  3983  3949  3839  3669  3503  3404  3360  3262  3004  2622  2285  2089  1934  1669  1309  1024  904  854  729  492  210  -41  -239  -372  -440  -463  -467  -451  -403  -334  -286  -287  -321  -367  -421  -467  -493  -501  -501  -500  -493  -476  -445  -405  -367  -325  -276  -265  -346  -501  -647  -724  -753  -793  -888  -1024  -1135  -1160  -1104  -1002  -888  -777  -681  -606  -560  -552  -590  -667  -752  -816  -837  -811  -754  -695  -664  -692  -802  -967  -1111  -1195  -1234  -1243  -1211  -1126  -1006  -900  -843  -831  -837  -855  -890  -941  -993  -1029  -1039  -1008  -940  -876  -869  -937  -1042  -1134  -1194  -1221  -1176  -1051  -911  -811  -750  -717  -711  -734  -772  -815  -893  -1005  -1075  -1060  -1001  -954  -942  -955  -974  -999  -1044  -1104  -1144  -1130  -1063  -1002  -1020  -1110  -1194  -1227  -1228  -1223  -1213  -1176  -1092  -960  -793  -605  -415  -243  -110  -25  12  3  -55  -155  -265  -348  -377  -357  -316  -278  -243  -205  -171  -154  -150  -145  -140  -160  -246  -402  -569  -675  -686  -650  -680  -794  -847  -712  -324  423  1583  3003  4391  5400  5608  4753  3060  1068  -743  -2034  -2682  -2863  -2804  -2578  -2197  -1731  -1316  -1058  -925  -803  -644  -498  -412  -373  -363  -379  -413  -447  -434  -340  -218  -147  -133  -134  -106  -43  27  78  109  144  201  293  404  505  602  739  955  1229  1499  1706  1835  1926  2044  2218  2431  2667  2900  3083  3213  3342  3505  3661  3753  3784  3809  3868  3952  4030  4084  4109  4043  3772  3285  2753  2336  2017  1692  1353  1067  867  732  631  531  395  198  -66  -367  -621  -758  -804  -843  -908  -975  -1023  -1052  -1067  -1072  -1075  -1068  -1032  -936  -790  -648  -565  -536  -534  -567  -661  -812  -972  -1097  -1174  -1210  -1218  -1203  -1152  -1055  -933  -835  -797  -817  -878  -956  -1019  -1039  -1021  -985  -910  -758  -553  -385  -307  -299  -321  -357  -395  -424  -437  -438  -440  -456  -496  -559  -626  -678  -708  -721  -726  -734  -742  -738  -698  -610  -493  -397  -349  -349  -382  -434  -490  -529  -529  -473  -363  -241  -155  -117  -110  -118  -129  -128  -96  -30  47  113  159  190  211  215  186  115  17  -81  -180  -292  -389  -447  -483  -516  -539  -544  -533  -511  -462  -366  -247  -158  -116  -98  -94  -110  -143  -178  -208  -226  -230  -218  -183  -109  12  160  287  341  282  116  -102  -314  -477  -579  -622  -615  -589  -574  -585  -615  -648  -676  -704  -740  -773  -792  -808  -838  -870  -876  -832  -745  -661  -578  -402  23  856  2074  3415  4504  4931  4434  3138  1391  -454  -2015  -2980  -3350  -3307  -2983  -2511  -2054  -1689  -1431  -1272  -1156  -1024  -877  -753  -681  -659  -651  -609  -509  -374  -247  -156  -105  -75  -31  32  91  127  151  187  271  431  636  795  871  930  1042  1181  1280  1353  1485  1701  1928  2095  2202  2306  2453  2628  2799  2943  3063  3196  3363  3519  3618  3659  3665  3630  3532  3386  3247  3153  3094  2993  2728  2283  1818  1511  1390  1342  1212  915  530  224  59  -61  -233  -436  -588  -672  -747  -839  -918  -955  -957  -948  -942  -949  -977  -1018  -1050  -1042  -964  -828  -694  -621  -610  -632  -679  -771  -891  -970  -973  -945  -951  -1000  -1036  -1012  -953  -914  -914  -947  -988  -1010  -1015  -1009  -992  -970  -947  -923  -901  -889  -886  -888  -888  -885  -885  -890  -886  -858  -814  -792  -816  -883  -954  -995  -998  -984  -973  -963  -945  -910  -861  -819  -808  -827  -857  -856  -789  -686  -609  -579  -572  -573  -603  -698  -841  -965  -1013  -971  -862  -737  -650  -616  -638  -734  -898  -1063  -1158  -1167  -1116  -1035  -950  -879  -829  -790  -738  -676  -624  -592  -578  -577  -582  -596  -623  -660  -700  -727  -732  -718  -688  -642  -578  -517  -485  -474  -433  -315  -137  29  133  182  236  346  486  542  414  120  -203  -426  -519  -528  -493  -434  -364  -298  -243  -194  -153  -130  -134  -170  -224  -272  -310  -364  -446  -539  -623  -649  -519  -121  664  1869  3298  4552  5222  5027  3949  2288  490  -1063  -2154  -2772  -3000  -2910  -2566  -2041  -1424  -865  -519  -401  -402  -421  -423  -410  -385  -352  -310  -255  -185  -116  -60  12  152  343  501  581  596  566  494  402  350  391  514  686  872  1032  1150  1236  1304  1375  1480  1646  1876  2149  2409  2586  2665  2717  2816  2963  3119  3274  3445  3607  3712  3752  3763  3761  3709  3565  3366  3199  3068  2874  2548  2123  1686  1328  1124  1064  1043  922  630  248  -64  -247  -354  -443  -535  -627  -699  -749  -792  -832  -862  -883  -905  -928  -939  -916  -843  -748  -692  -704  -752  -788  -796  -787  -776  -769  -762  -753  -750  -763  -797  -843  -872  -848  -754  -601  -448  -363  -369  -437  -519  -574  -590  -584  -571  -556  -544  -542  -563  -615  -701  -814  -931  -987  -948  -856  -747  -615  -485  -422  -462  -586  -750  -904  -1003  -1033  -1013  -976  -948  -940  -952  -970  -988  -1005  -1014  -1003  -973  -934  -885  -833  -795  -780  -792  -841  -926  -1014  -1076  -1110  -1134  -1160  -1171  -1099  -895  -631  -477  -516  -664  -788  -833  -820  -769  -686  -582  -485  -425  -404  -397  -378  -332  -258  -200  -232  -382  -576  -711  -750  -723  -652  -540  -422  -371  -433  -577  -718  -796  -814  -796  -743  -651  -550  -478  -452  -465  -497  -536  -487  -105  769  2033  3442  4680  5340  5088  3995  2479  863  -637  -1777  -2466  -2746  -2630  -2184  -1598  -1092  -777  -631  -582  -574  -566  -518  -403  -249  -124  -67  -61  -71  -79  -86  -93  -90  -67  -25  28  96  201  362  544  676  728  737  750  790  844  889  932  1006  1134  1323  1549  1767  1972  2215  2504  2770  2967  3108  3212  3296  3395  3528  3657  3709  3655  3534  3395  3237  3056  2891  2760  2590  2285  1884  1547  1347  1201  1010  749  436  95  -213  -412  -503  -564  -636  -697  -726  -736  -744  -770  -838  -945  -1057  -1150  -1222  -1276  -1304  -1297  -1244  -1150  -1050  -966  -898  -848  -825  -826  -837  -840  -820  -762  -682  -606  -544  -493  -464  -481  -564  -698  -836  -938  -993  -1002  -982  -952  -945  -985  -1050  -1098  -1111  -1102  -1089  -1076  -1067  -1061  -1060  -1053  -1013  -913  -781  -683  -648  -648  -654  -659  -667  -676  -682  -682  -676  -672  -697  -768  -855  -890  -839  -739  -651  -592  -552  -528  -521  -522  -519  -511  -516  -568  -697  -864  -985  -1031  -1036  -1019  -941  -756  -504  -303  -223  -251  -357  -493  -587  -574  -436  -219  -10  131  183  133  -16  -222  -416  -550  -632  -701  -761  -772  -705  -573  -445  -400  -402  -361  -291  -250  -241  -249  -294  -413  -575  -653  -553  -270  200  908  1859  2952  4017  4794  4927  4236  2943  1365  -270  -1646  -2460  -2715  -2587  -2227  -1796  -1458  -1267  -1164  -1063  -922  -766  -656  -614  -615  -617  -585  -510  -414  -329  -263  -214  -192  -196  -204  -181  -98  55  237  383  483  581  695  785  817  804  779  768  775  802  886  1085  1391  1722  2011  2250  2440  2564  2615  2621  2619  2626  2655  2719  2803  2872  2913  2938  2941  2875  2691  2434  2199  2000  1779  1520  1275  1088  935  725  409  73  -159  -272  -331  -380  -415  -442  -483  -553  -644  -734  -791  -783  -725  -668  -643  -640  -644  -646  -647  -653  -665  -668  -619  -482  -299  -168  -140  -201  -312  -439  -547  -609  -628  -625  -612  -577  -514  -446  -394  -354  -327  -329  -372  -444  -516  -569  -592  -588  -578  -577  -575  -548  -484  -416  -389  -401  -417  -429  -451  -493  -543  -570  -557  -518  -484  -471  -497  -573  -675  -749  -779  -797  -832  -876  -905  -912  -907  -897  -869  -799  -704  -631  -612  -652  -728  -785  -784  -754  -722  -685  -637  -573  -502  -453  -430  -412  -377  -326  -273  -221  -170  -133  -120  -115  -112  -125  -174  -266  -380  -477  -547  -605  -653  -651  -572  -467  -406  -409  -457  -522  -570  -588  -590  -597  -623  -646  -605  -458  -233  39  499  1317  2367  3372  4157  4475  4093  3108  1739  108  -1494  -2657  -3230  -3257  -2784  -2049  -1456  -1192  -1125  -1074  -978  -868  -791  -751  -710  -657  -624  -633  -666  -685  -662  -599  -530  -488  -479  -486  -487  -466  -410  -306  -148  39  213  345  448  566  715  851  938  1003  1092  1207  1311  1395  1503  1689  1959  2236  2433  2533  2585  2648  2741  2835  2901  2936  2935  2897  2832  2748  2656  2587  2555  2503  2331  1995  1577  1195  888  633  418  249  125  29  -76  -213  -352  -452  -511  -538  -537  -516  -497  -496  -515  -545  -572  -590  -598  -593  -572  -537  -489  -432  -386  -380  -410  -437  -430  -397  -380  -412  -466  -502  -508  -503  -514  -560  -627  -674  -680  -662  -653  -679  -760  -872  -959  -979  -935  -858  -778  -722  -699  -698  -711  -742  -799  -866  -902  -874  -778  -623  -440  -299  -251  -278  -336  -411  -493  -557  -591  -599  -574  -500  -394  -303  -249  -223  -227  -303  -473  -651  -696  -594  -464  -383  -343  -311  -277  -270  -314  -387  -448  -484  -501  -512  -517  -487  -385  -226  -80  1  19  -1  -37  -76  -134  -223  -328  -429  -531  -627  -699  -760  -839  -917  -958  -979  -1010  -1046  -1064  -1062  -1053  -1041  -1026  -1011  -1013  -1048  -1112  -1190  -1250  -1192  -855  -101  1081  2507  3845  4788  5074  4521  3243  1587  -139  -1609  -2487  -2752  -2636  -2286  -1790  -1327  -1037  -898  -820  -766  -740  -726  -654  -473  -241  -71  -3  9  18  46  87  126  159  185  203  214  222  236  262  318  434  626  849  1035  1157  1228  1263  1288  1341  1440  1573  1716  1862  2028  2213  2361  2442  2494  2577  2704  2835  2934  2996  3024  3021  2997  2969  2943  2892  2773  2576  2341  2107  1866  1594  1322  1105  937  762  568  391  275  220  177  52  -215  -581  -909  -1091  -1137  -1126  -1108  -1070  -980  -854  -757  -723  -731  -755  -779  -797  -808  -814  -798  -730  -606  -463  -354  -301  -293  -303  -309  -303  -293  -304  -344  -396  -445  -486  -527  -594  -702  -824  -932  -1017  -1067  -1071  -1035  -972  -903  -849  -834  -866  -916  -952  -972  -984  -993  -1001  -1008  -1026  -1061  -1098  -1123  -1138  -1142  -1124  -1082  -1038  -1015  -1024  -1067  -1111  -1123  -1114  -1099  -1076  -1033  -961  -881  -826  -799  -786  -784  -811  -886  -989  -1065  -1083  -1046  -978  -901  -840  -818  -840  -882  -915  -936  -949  -956  -947  -876  -695  -433  -195  -60  -24  -33  -43  -59  -113  -188  -249  -300  -388  -534  -691  -793  -822  -792  -709  -607  -536  -517  -521  -510  -464  -408  -377  -387  -443  -568  -781  -1032  -1186  -1117  -762  -107  822  1991  3273  4392  5075  5134  4472  3188  1583  8  -1273  -2109  -2448  -2394  -2137  -1768  -1307  -850  -543  -423  -397  -363  -302  -250  -232  -233  -229  -214  -195  -176  -135  -29  144  299  356  357  392  474  559  614  647  689  754  838  945  1077  1211  1321  1409  1497  1607  1772  1998  2232  2401  2487  2530  2594  2724  2887  3003  3043  3062  3128  3251  3392  3505  3570  3601  3618  3589  3422  3073  2634  2261  2005  1827  1700  1609  1474  1189  768  344  30  -142  -198  -192  -177  -190  -265  -403  -561  -676  -722  -723  -714  -707  -705  -710  -722  -740  -759  -762  -732  -680  -630  -600  -592  -602  -625  -653  -671  -671  -657  -631  -596  -565  -550  -553  -575  -618  -668  -682  -622  -506  -398  -339  -319  -329  -366  -413  -445  -454  -450  -446  -447  -458  -473  -489  -506  -524  -538  -550  -561  -561  -528  -482  -487  -554  -618  -626  -583  -530  -483  -432  -386  -368  -386  -434  -488  -554  -669  -841  -1015  -1122  -1149  -1139  -1127  -1125  -1127  -1121  -1095  -1042  -967  -887  -824  -795  -798  -817  -854  -917  -991  -1053  -1112  -1175  -1233  -1282  -1324  -1349  -1341  -1281  -1184  -1101  -1054  -1017  -955  -845  -695  -560  -492  -498  -576  -718  -886  -1031  -1141  -1222  -1271  -1295  -1308  -1318  -1323  -1323  -1320  -1309  -1281  -1241  -1203  -1167  -1129  -1092  -1069  -1071  -1112  -1175  -1171  -968  -466  331  1351  2542  3755  4613  4720  3960  2564  944  -523  -1639  -2354  -2684  -2691  -2437  -1979  -1470  -1101  -917  -830  -776  -747  -736  -727  -707  -662  -574  -440  -281  -137  -46  -17  -19  -9  20  48  61  64  70  105  197  346  509  654  786  904  988  1041  1103  1228  1434  1662  1840  1956  2056  2175  2313  2450  2575  2690  2798  2898  3009  3156  3309  3411  3439  3404  3337  3272  3204  3089  2908  2671  2381  2066  1794  1602  1484  1396  1241  940  535  158  -92  -212  -263  -299  -331  -350  -354  -351  -352  -359  -379  -415  -455  -482  -499  -524  -562  -584  -561  -502  -433  -365  -299  -229  -131  -16  59  60  1  -72  -126  -150  -168  -216  -313  -439  -541  -589  -596  -587  -580  -577  -566  -549  -538  -542  -551  -543  -513  -483  -471  -471  -471  -464  -459  -483  -559  -670  -759  -790  -779  -768  -780  -789  -751  -649  -527  -448  -432  -447  -459  -462  -464  -474  -495  -527  -567  -605  -628  -646  -674  -710  -728  -709  -665  -632  -629  -646  -674  -713  -760  -795  -794  -758  -704  -657  -637  -655  -693  -730  -747  -720  -644  -565  -511  -476  -445  -411  -406  -457  -532  -586  -619  -645  -651  -577  -376  -107  93  170  167  142  116  94  80  62  19  -62  -165  -261  -329  -368  -389  -403  -418  -439  -463  -490  -521  -554  -593  -640  -681  -693  -649  -555  -484  -494  -530  -439  -26  842  2119  3544  4770  5492  5464  4593  3080  1274  -519  -2002  -2889  -3105  -2862  -2399  -1828  -1280  -878  -622  -462  -378  -351  -350  -357  -365  -364  -339  -281  -202  -116  -30  21  -18  -134  -235  -272  -259  -222  -161  -84  -15  24  29  19  49  182  418  681  895  1047  1165  1261  1334  1430  1619  1891  2155  2345  2460  2541  2644  2789  2934  3025  3055  3057  3057  3066  3085  3096  3034  2842  2565  2310  2093  1843  1541  1253  1029  864  718  535  273  -26  -293  -511  -690  -801  -844  -865  -902  -960  -1017  -1055  -1068  -1064  -1056  -1037  -992  -915  -820  -733  -681  -685  -745  -835  -909  -941  -947  -953  -967  -982  -993  -998  -1002  -1006  -997  -955  -868  -764  -690  -660  -662  -700  -788  -893  -947  -932  -890  -858  -848  -868  -917  -975  -1012  -1016  -1004  -996  -994  -995  -996  -995  -991  -979  -957  -926  -894  -872  -857  -835  -796  -736  -649  -547  -462  -423  -433  -495  -621  -780  -892  -910  -854  -779  -742  -749  -732  -658  -583  -551  -551  -557  -559  -558  -561  -576  -606  -631  -626  -588  -543  -511  -485  -448  -409  -395  -407  -421  -415  -392  -361  -324  -289  -267  -260  -260  -248  -212  -163  -125  -106  -94  -76  -43  3  53  102  145  171  169  140  92  38  0  -8  1  0  -37  -123  -239  -330  -369  -378  -392  -418  -439  -446  -441  -435  -442  -480  -562  -677  -756  -735  -617  -342  247  1217  2487  3885  5111  5741  5446  4279  2634  933  -506  -1496  -2069  -2354  -2364  -2095  -1640  -1105  -617  -320  -227  -235  -262  -280  -278  -240  -153  -40  48  96  122  147  190  258  329  377  397  400  398  395  391  396  417  460  515  592  709  841  935  1004  1148  1436  1797  2079  2214  2257  2286  2331  2390  2486  2652  2891  3148  3343  3433  3436  3395  3329  3228  3090  2954  2863  2805  2717  2526  2238  1922  1627  1353  1078  802  561  387  234  49  -146  -307  -441  -578  -707  -794  -832  -843  -844  -838  -813  -768  -730  -721  -727  -717  -684  -655  -653  -668  -676  -672  -660  -654  -651  -645  -644  -655  -675  -702  -734  -761  -778  -782  -762  -706  -632  -577  -552  -545  -561  -617  -703  -779  -810  -801  -778  -754  -726  -714  -734  -765  -782  -783  -778  -775  -783  -809  -847  -875  -889  -898  -900  -870  -779  -649  -546  -513  -568  -717  -912  -1068  -1140  -1123  -1028  -898  -796  -753  -747  -753  -760  -765  -768  -771  -772  -773  -773  -775  -784  -803  -834  -871  -889  -879  -861  -851  -851  -852  -853  -854  -856  -849  -831  -810  -805  -827  -865  -888  -880  -856  -828  -810  -813  -827  -824  -776  -645  -440  -235  -115  -85  -84  -58  3  95  207  293  297  221  126  48  -20  -92  -169  -256  -355  -463  -584  -708  -801  -854  -884  -905  -921  -938  -949  -935  -892  -837  -792  -775  -827  -948  -1008  -837  -309  629  1842  3067  4093  4727  4693  3836  2332  536  -1172  -2421  -3062  -3192  -2945  -2473  -1962  -1542  -1243  -1020  -827  -679  -605  -580  -544  -455  -335  -243  -207  -211  -231  -262  -299  -321  -287  -166  24  206  322  392  475  587  683  724  719  720  792  970  1224  1470  1638  1716  1763  1881  2120  2416  2663  2828  2942  3032  3124  3231  3327  3381  3397  3403  3414  3409  3371  3317  3273  3230  3140  2963  2710  2442  2217  2039  1867  1637  1307  906  509  183  -27  -137  -217  -302  -362  -376  -372  -397  -483  -605  -702  -746  -747  -723  -698  -714  -795  -915  -1001  -1019  -1000  -966  -895  -776  -645  -550  -509  -505  -520  -545  -574  -592  -594  -587  -580  -579  -580  -582  -578  -563  -539  -511  -478  -436  -388  -354  -350  -368  -394  -423  -465  -516  -552  -552  -511  -452  -411  -424  -502  -611  -695  -728  -730  -710  -661  -584  -505  -443  -390  -337  -295  -287  -306  -326  -340  -373  -443  -534  -605  -640  -650  -651  -653  -657  -666  -676  -685  -674  -626  -555  -501  -480  -479  -482  -484  -488  -493  -505  -533  -582  -624  -613  -544  -455  -369  -286  -226  -229  -290  -362  -413  -449  -478  -507  -540  -578  -600  -583  -522  -433  -340  -247  -162  -94  -34  27  82  128  167  191  199  199  202  204  183  113  -4  -125  -208  -251  -271  -276  -277  -297  -358  -441  -502  -523  -516  -496  -480  -504  -591  -687  -716  -689  -662  -656  -658  -613  -431  -14  745  1929  3347  4570  5255  5158  4159  2488  591  -1123  -2346  -2944  -3016  -2793  -2442  -2001  -1516  -1120  -892  -772  -664  -539  -434  -389  -395  -416  -431  -451  -496  -557  -576  -481  -268  -29  129  182  194  232  306  386  461  542  631  706  762  816  902  1046  1231  1406  1540  1627  1685  1770  1940  2187  2447  2661  2803  2867  2879  2877  2907  3001  3140  3258  3305  3276  3187  3058  2901  2705  2481  2265  2052  1805  1542  1277  954  566  223  4  -132  -284  -500  -730  -885  -951  -993  -1062  -1151  -1237  -1311  -1340  -1282  -1155  -1024  -943  -916  -914  -920  -946  -1015  -1116  -1216  -1294  -1336  -1325  -1264  -1185  -1107  -1030  -958  -902  -859  -817  -781  -772  -795  -828  -836  -824  -837  -881  -928  -959  -947  -889  -816  -759  -724  -704  -686  -674  -676  -686  -691  -678  -643  -593  -533  -477  -441  -436  -453  -477  -495  -502  -500  -498  -500  -515  -547  -588  -625  -647  -649  -625  -573  -503  -442  -406  -393  -409  -476  -591  -708  -775  -799  -821  -857  -873  -832  -751  -657  -553  -479  -468  -494  -519  -525  -522  -523  -517  -497  -483  -493  -526  -562  -579  -564  -514  -448  -399  -380  -380  -394  -431  -486  -536  -557  -547  -520  -485  -433  -350  -249  -158  -81  -9  43  71  78  46  -35  -146  -255  -349  -423  -472  -486  -476  -484  -541  -636  -730  -782  -758  -654  -516  -416  -380  -387  -418  -480  -589  -740  -875  -909  -806  -568  -160  532  1594  2927  4247  5182  5345  4554  3028  1240  -385  -1545  -2136  -2343  -2417  -2410  -2230  -1822  -1269  -764  -443  -279  -188  -154  -183  -246  -297  -319  -310  -264  -180  -79  14  92  156  228  337  466  556  579  556  538  607  827  1130  1355  1433  1418  1377  1358  1425  1641  1980  2314  2531  2620  2648  2695  2809  2968  3098  3163  3187  3210  3242  3270  3286  3294  3295  3278  3229  3160  3103  3059  2954  2673  2183  1641  1278  1127  976  639  180  -192  -387  -464  -496  -527  -587  -666  -737  -812  -926  -1063  -1162  -1196  -1185  -1143  -1065  -973  -907  -885  -890  -908  -934  -965  -985  -977  -943  -900  -860  -821  -792  -775  -760  -744  -723  -695  -665  -629  -577  -506  -423  -339  -281  -260  -261  -267  -277  -314  -392  -485  -547  -571  -581  -584  -565  -539  -556  -629  -725  -816  -895  -957  -981  -954  -891  -815  -724  -621  -533  -489  -488  -507  -529  -553  -588  -629  -660  -676  -685  -680  -646  -593  -553  -538  -530  -513  -493  -476  -460  -446  -443  -445  -439  -403  -330  -252  -219  -249  -314  -374  -433  -507  -589  -654  -687  -697  -695  -678  -634  -573  -526  -511  -524  -545  -562  -571  -564  -521  -423  -300  -214  -185  -169  -124  -59  -20  -17  -24  -15  24  100  187  232  196  84  -75  -241  -369  -436  -469  -511  -550  -564  -575  -591  -597  -593  -594  -598  -602  -609  -655  -783  -981  -1157  -1257  -1259  -1072  -581  278  1470  2783  3869  4356  3983  2798  1131  -625  -2136  -3168  -3660  -3704  -3447  -3002  -2438  -1860  -1412  -1148  -1016  -947  -902  -868  -838  -803  -746  -656  -546  -451  -387  -346  -326  -320  -299  -247  -185  -117  -16  120  271  447  647  809  892  929  964  1048  1213  1421  1585  1679  1743  1802  1860  1949  2124  2387  2650  2821  2906  2960  3035  3170  3346  3490  3561  3580  3575  3544  3479  3397  3308  3171  2922  2533  2057  1619  1299  1067  883  725  525  218  -146  -464  -688  -818  -871  -874  -851  -807  -756  -736  -772  -849  -924  -970  -993  -1002  -1003  -1007  -1018  -1020  -993  -945  -897  -858  -845  -867  -899  -905  -874  -824  -779  -743  -707  -684  -692  -721  -745  -745  -719  -679  -631  -582  -545  -516  -488  -482  -522  -584  -628  -645  -649  -648  -638  -610  -572  -545  -542  -563  -594  -615  -611  -580  -537  -506  -496  -497  -500  -505  -513  -525  -540  -547  -541  -522  -493  -460  -438  -450  -508  -591  -654  -676  -667  -644  -621  -603  -573  -515  -436  -361  -308  -278  -268  -280  -325  -409  -512  -584  -570  -473  -360  -291  -273  -285  -309  -335  -351  -348  -342  -348  -355  -351  -340  -336  -349  -370  -372  -354  -336  -331  -334  -340  -351  -355  -323  -227  -95  6  57  85  116  151  173  163  121  60  -4  -60  -103  -139  -176  -217  -238  -231  -230  -258  -309  -378  -444  -463  -405  -298  -205  -164  -171  -205  -252  -254  -26  665  1868  3308  4627  5557  5793  5125  3737  2006  231  -1261  -2171  -2473  -2345  -1954  -1456  -1016  -714  -511  -342  -194  -104  -107  -180  -254  -299  -331  -354  -342  -277  -181  -96  -49  -38  -48  -54  -27  53  175  298  415  564  750  918  1021  1065  1087  1127  1225  1416  1685  1942  2105  2198  2307  2489  2754  3062  3329  3492  3566  3607  3651  3697  3742  3794  3850  3892  3910  3910  3881  3762  3503  3145  2788  2487  2256  2104  1969  1733  1369  990  690  449  197  -95  -367  -541  -633  -711  -807  -908  -1003  -1089  -1162  -1221  -1280  -1362  -1447  -1488  -1475  -1444  -1438  -1501  -1632  -1768  -1851  -1871  -1834  -1737  -1603  -1492  -1450  -1473  -1518  -1543  -1529  -1467  -1377  -1296  -1239  -1209  -1215  -1252  -1288  -1305  -1309  -1309  -1308  -1297  -1261  -1211  -1184  -1209  -1278  -1356  -1401  -1398  -1343  -1247  -1144  -1081  -1063  -1070  -1083  -1099  -1119  -1139  -1160  -1185  -1216  -1242  -1255  -1255  -1244  -1226  -1211  -1206  -1204  -1156  -1016  -824  -679  -622  -615  -624  -639  -655  -672  -701  -757  -843  -933  -977  -949  -886  -815  -729  -635  -570  -537  -514  -491  -484  -495  -513  -525  -516  -488  -462  -450  -446  -440  -437  -449  -473  -480  -456  -427  -420  -427  -424  -395  -341  -276  -206  -139  -87  -61  -53  -44  -20  12  46  90  153  215  252  265  274  283  255  140  -61  -270  -417  -514  -631  -781  -898  -904  -773  -576  -446  -451  -551  -669  -748  -780  -785  -736  -572  -296  54  543  1311  2399  3676  4858  5513  5258  4062  2199  115  -1624  -2668  -3082  -3049  -2692  -2174  -1637  -1142  -741  -483  -355  -311  -308  -322  -337  -348  -359  -364  -329  -220  -65  62  132  167  206  264  323  358  369  387  436  516  612  719  837  958  1085  1235  1388  1489  1535  1599  1741  1931  2088  2175  2243  2384  2615  2849  3005  3088  3148  3223  3307  3375  3414  3422  3385  3276  3076  2810  2537  2320  2169  2036  1860  1608  1315  1058  858  667  444  210  5  -161  -327  -503  -652  -746  -786  -783  -766  -773  -822  -884  -927  -950  -962  -968  -976  -992  -1017  -1037  -1033  -1005  -960  -887  -782  -695  -700  -767  -788  -734  -665  -625  -606  -594  -582  -545  -454  -329  -236  -205  -210  -234  -282  -371  -481  -560  -580  -562  -535  -515  -493  -461  -446  -489  -575  -643  -651  -614  -574  -563  -572  -574  -549  -492  -432  -417  -453  -506  -576  -676  -784  -856  -884  -886  -859  -779  -667  -591  -582  -595  -582  -557  -548  -554  -563  -568  -574  -582  -589  -593  -590  -572  -532  -480  -428  -374  -322  -288  -269  -246  -210  -174  -161  -188  -251  -328  -389  -411  -391  -351  -305  -226  -78  107  232  230  114  -37  -130  -134  -77  1  72  126  165  166  116  24  -74  -101  -4  188  392  523  566  558  511  400  227  44  -89  -165  -209  -240  -267  -289  -310  -341  -390  -457  -531  -574  -576  -570  -565  -534  -471  -417  -459  -655  -836  -660  21  1103  2462  3898  5040  5542  5207  4072  2423  633  -930  -1992  -2502  -2569  -2311  -1854  -1399  -1122  -999  -872  -676  -498  -410  -386  -354  -265  -132  -25  10  -15  -62  -77  -7  135  284  389  454  490  487  459  454  508  607  703  786  889  1020  1150  1274  1404  1538  1671  1804  1931  2043  2157  2346  2647  2972  3206  3334  3399  3427  3431  3430  3443  3472  3509  3531  3476  3276  2957  2649  2426  2243  2038  1801  1525  1183  786  412  120  -95  -254  -352  -411  -483  -605  -745  -843  -890  -934  -1016  -1140  -1277  -1390  -1467  -1526  -1586  -1647  -1691  -1696  -1663  -1599  -1498  -1370  -1266  -1224  -1242  -1305  -1397  -1490  -1555  -1587  -1602  -1614  -1628  -1638  -1633  -1605  -1557  -1520  -1520  -1546  -1583  -1631  -1678  -1707  -1710  -1707  -1728  -1782  -1851  -1898  -1890  -1809  -1622  -1330]
