reading_id,reading_time,wire_id,result_classification,heart_rate,heart_rate_alert,firmware_version,device_app_version,hardware_version,waveform_samples
098a4550-4ff2-11ed-8080-808080808080,Wed Oct 19 21:07:27 UTC 2022,2101e3d81839,NSR,65,NONE,20001.171.50,2.10.0,Charge 5,[-8912  -9180  -9305  -8973  -7884  -6238  -4660  -3514  -2737  -2222  -1899  -1598  -1078  -204  933  2067  2950  3523  3932  4436  5193  6042  6604  6758  6904  7575  9041  11296  13985  16557  18531  19469  19162  17639  15102  12429  10761  10245  10315  10737  11403  12026  12482  12767  12877  12893  12908  12911  12829  12656  12482  12349  12196  11985  11742  11504  11328  11269  11306  11361  11360  11227  10930  10561  10279  10153  10133  10117  10008  9784  9522  9304  9161  9097  9118  9203  9280  9282  9237  9226  9258  9291  9304  9310  9312  9274  9142  8915  8655  8401  8134  7842  7558  7289  7005  6747  6597  6511  6348  6043  5683  5378  5099  4707  4181  3671  3273  2961  2689  2390  1992  1527  1153  976  915  818  633  418  231  97  19  -29  -89  -144  -155  -113  -52  -7  24  82  173  246  248  196  153  140  119  56  -59  -240  -472  -651  -699  -659  -620  -613  -617  -613  -631  -720  -880  -1075  -1299  -1548  -1747  -1839  -1853  -1844  -1832  -1792  -1714  -1648  -1682  -1827  -1985  -2093  -2177  -2250  -2305  -2341  -2346  -2289  -2178  -2108  -2152  -2245  -2290  -2283  -2265  -2248  -2216  -2163  -2126  -2120  -2091  -2014  -1939  -1904  -1890  -1877  -1866  -1864  -1873  -1888  -1907  -1940  -1991  -2058  -2135  -2208  -2263  -2288  -2269  -2209  -2145  -2095  -2052  -2013  -1984  -1965  -1946  -1927  -1926  -1945  -1957  -1934  -1885  -1865  -1907  -1971  -2013  -2040  -2022  -1909  -1730  -1577  -1477  -1389  -1291  -1218  -1217  -1313  -1485  -1656  -1752  -1772  -1761  -1751  -1750  -1761  -1785  -1813  -1830  -1825  -1811  -1819  -1884  -1984  -2042  -2094  -2163  -1919  -931  801  2874  4804  6000  5922  4617  2568  185  -2063  -3672  -4457  -4523  -4088  -3439  -2823  -2327  -1947  -1659  -1463  -1383  -1414  -1497  -1571  -1603  -1561  -1399  -1136  -878  -712  -629  -583  -584  -666  -789  -856  -760  -460  -76  203  322  345  336  332  372  482  634  766  863  958  1073  1206  1352  1506  1646  1731  1744  1696  1638  1638  1695  1768  1887  2047  2145  2163  2168  2162  2105  1982  1807  1626  1485  1401  1353  1284  1136  908  619  240  -214  -610  -841  -922  -929  -916  -889  -826  -740  -685  -723  -869  -1065  -1226  -1317  -1337  -1292  -1226  -1183  -1140  -1028  -822  -610  -514  -550  -623  -663  -706  -830  -1030  -1195  -1244  -1221  -1184  -1110  -952  -749  -602  -548  -543  -552  -596  -695  -813  -890  -912  -906  -901  -903  -903  -888  -858  -833  -827  -830  -822  -794  -770  -790  -857  -937  -999  -1029  -1019  -968  -893  -823  -768  -712  -630  -528  -440  -384  -368  -412  -563  -846  -1187  -1431  -1512  -1470  -1350  -1188  -1042  -963  -959  -1005  -1062  -1125  -1193  -1250  -1280  -1280  -1253  -1195  -1109  -1021  -965  -949  -955  -970  -997  -1036  -1053  -1016  -931  -829  -748  -728  -753  -760  -710  -612  -504  -401  -258  -15  292  530  632  650  647  605  455  176  -145  -392  -507  -498  -413  -316  -252  -221  -189  -126  -40  31  63  59  51  77  158  229  175  58  99  365  796  1482  2593  4087  5651  6863  7280  6536  4703  2455  504  -882  -1680  -1933  -1796  -1408  -910  -494  -189  114  439  715  887  957  956  904  798  657  535  512  660  962  1265  1390  1325  1246  1289  1396  1459  1470  1477  1500  1521  1519  1513  1538  1602  1724  1931  2177  2342  2388  2400  2487  2674  2887  3039  3107  3120  3120  3132  3135  3066  2923  2808  2802  2868  2930  2963  2980  2986  2939  2773  2480  2147  1853  1557  1181  772  450  227  22  -200  -400  -521  -563  -576  -593  -606  -604  -616  -704  -901  -1151  -1329  -1336  -1216  -1111  -1099  -1146  -1196  -1246  -1328  -1439  -1512  -1495  -1407  -1277  -1122  -980  -895  -868  -903  -1025  -1241  -1506  -1730  -1837  -1837  -1810  -1788  -1729  -1604  -1466  -1378  -1331  -1303  -1307  -1349  -1396  -1412  -1408  -1417  -1439  -1472  -1529  -1603  -1658  -1662  -1615  -1543  -1480  -1408  -1235  -921  -579  -376  -370  -479  -559  -571  -621  -760  -923  -1019  -950  -729  -524  -435  -417  -409  -388  -351  -304  -258  -220  -190  -140  -29  135  272  269  71  -219  -474  -673  -819  -883  -850  -706  -458  -156  115  273  284  174  7  -156  -297  -413  -464  -424  -335  -261  -193  -66  116  272  339  308  175  -28  -212  -307  -324  -315  -309  -300  -264  -199  -169  -265  -496  -723  -782  -673  -536  -440  -347  -303  -502  -974  -1366  -1282  -677  309  1568  2942  4246  5201  5384  4614  3086  1094  -871  -2234  -2947  -3293  -3295  -2973  -2513  -2021  -1584  -1274  -1050  -851  -686  -535  -330  -100  43  79  77  111  208  327  405  433  447  462  480  507  547  590  623  636  639  669  760  881  952  934  879  882  1000  1199  1412  1616  1825  2047  2246  2365  2412  2456  2499  2490  2442  2406  2395  2396  2406  2438  2483  2474  2333  2083  1847  1709  1619  1473  1278  1141  1089  1012  803  500  197  -103  -406  -628  -751  -856  -967  -1015  -989  -996  -1111  -1265  -1362  -1359  -1225  -986  -748  -590  -518  -502  -528  -593  -679  -742  -761  -751  -745  -774  -848  -942  -1012  -1035  -1011  -945  -861  -802  -782  -782  -778  -767  -747  -703  -636  -604  -660  -772  -871  -930  -954  -957  -945  -921  -891  -868  -858  -861  -870  -877  -882  -889  -893  -879  -827  -740  -633  -502  -357  -260  -257  -345  -507  -714  -905  -1054  -1177  -1267  -1271  -1178  -1042  -902  -758  -623  -525  -472  -453  -447  -437  -432  -473  -600  -779  -918  -972  -971  -949  -906  -825  -695  -549  -435  -366  -321  -294  -271  -229  -164  -108  -86  -89  -86  -64  -35  -11  -4  -51  -189  -378  -516  -560  -548  -533  -556  -630  -715  -743  -704  -653  -623  -608  -611  -677  -833  -981  -951  -730  -492  -283  189  1241  2789  4411  5496  5454  4236  2348  323  -1403  -2539  -3123  -3256  -2949  -2450  -2104  -1896  -1587  -1141  -747  -538  -478  -447  -371  -272  -174  -68  21  59  69  106  187  283  354  376  363  366  420  524  656  781  867  911  923  913  907  960  1121  1357  1561  1675  1727  1770  1846  1979  2171  2371  2504  2582  2690  2852  3007  3105  3147  3158  3154  3121  3036  2913  2785  2629  2399  2131  1899  1696  1467  1183  863  572  386  326  348  369  280  1  -388  -696  -828  -845  -832  -830  -840  -854  -869  -878  -869  -838  -792  -741  -699  -672  -664  -668  -673  -654  -591  -502  -419  -344  -264  -189  -148  -165  -249  -392  -575  -753  -865  -894  -876  -855  -850  -850  -817  -718  -584  -485  -449  -442  -429  -411  -417  -473  -557  -614  -623  -606  -592  -595  -613  -628  -635  -640  -657  -696  -758  -815  -791  -657  -496  -403  -377  -385  -430  -539  -681  -786  -824  -831  -834  -816  -751  -667  -639  -679  -712  -677  -583  -494  -486  -561  -642  -679  -689  -691  -650  -515  -306  -130  -120  -318  -612  -824  -891  -873  -838  -794  -697  -513  -274  -65  33  21  -31  -53  -38  -21  -20  -29  -36  -37  -51  -131  -315  -545  -709  -767  -758  -726  -702  -706  -731  -749  -738  -722  -706  -655  -612  -708  -974  -1206  -1113  -559  478  1999  3852  5581  6513  6187  4628  2341  119  -1442  -2292  -2729  -3018  -3139  -2883  -2199  -1314  -558  -122  35  85  134  188  222  213  143  32  -72  -148  -177  -126  29  262  489  628  678  692  715  757  809  864  904  916  931  999  1131  1293  1438  1551  1649  1752  1884  2052  2235  2383  2440  2379  2247  2138  2111  2151  2213  2279  2367  2495  2644  2765  2833  2855  2839  2752  2554  2297  2062  1801  1385  827  314  22  -54  -44  -32  -39  -111  -308  -586  -816  -930  -980  -1056  -1178  -1252  -1194  -1057  -945  -895  -888  -899  -918  -945  -964  -932  -805  -607  -429  -337  -324  -370  -473  -604  -703  -739  -736  -732  -744  -770  -789  -789  -778  -762  -734  -697  -666  -644  -616  -558  -460  -346  -259  -214  -211  -278  -441  -653  -817  -884  -892  -891  -901  -915  -927  -931  -906  -834  -736  -664  -638  -641  -662  -694  -718  -711  -681  -645  -598  -544  -500  -491  -532  -603  -671  -717  -737  -742  -740  -713  -634  -518  -416  -365  -356  -377  -431  -521  -623  -696  -719  -704  -657  -570  -462  -388  -378  -417  -471  -517  -556  -591  -619  -622  -569  -469  -382  -345  -347  -367  -372  -312  -161  -3  18  -94  -203  -224  -206  -211  -234  -248  -263  -307  -387  -483  -566  -614  -622  -602  -569  -538  -519  -510  -504  -517  -607  -823  -1072  -1177  -1082  -782  -161  895  2313  3855  5200  5945  5798  4811  3222  1283  -655  -2203  -3141  -3475  -3223  -2411  -1368  -567  -174  -67  -111  -240  -404  -535  -586  -540  -396  -193  -2  130  210  257  292  328  366  406  459  534  613  677  719  735  734  742  786  872  982  1112  1269  1445  1608  1719  1785  1838  1883  1915  1958  2037  2179  2393  2614  2750  2793  2807  2853  2930  2958  2877  2712  2506  2301  2163  2108  2071  1975  1792  1560  1299  972  603  319  178  102  9  -93  -205  -372  -589  -795  -933  -980  -964  -931  -910  -901  -896  -870  -803  -724  -718  -840  -1026  -1118  -1024  -800  -576  -430  -359  -340  -355  -393  -441  -475  -487  -484  -474  -462  -463  -498  -568  -652  -723  -763  -774  -773  -770  -758  -726  -680  -642  -619  -595  -545  -475  -415  -392  -428  -537  -680  -780  -804  -787  -764  -745  -725  -687  -611  -512  -429  -385  -371  -373  -386  -405  -404  -357  -293  -260  -275  -331  -407  -493  -602  -723  -807  -817  -760  -660  -542  -405  -240  -73  43  74  -2  -194  -437  -620  -703  -741  -788  -823  -796  -704  -599  -580  -685  -809  -835  -777  -712  -666  -596  -445  -205  34  135  33  -202  -440  -613  -726  -764  -684  -472  -190  56  204  271  292  273  204  95  -26  -146  -268  -381  -455  -489  -516  -550  -578  -592  -599  -599  -576  -525  -477  -495  -603  -761  -903  -957  -954  -1061  -1256  -1229  -811  21  1339  3031  4731  5981  6340  5600  3905  1645  -609  -2289  -3120  -3211  -2878  -2444  -2065  -1690  -1258  -839  -534  -362  -280  -250  -266  -318  -371  -380  -309  -152  27  149  199  213  221  241  289  355  419  480  545  605  652  685  698  688  674  714  865  1116  1386  1594  1719  1801  1899  2019  2119  2189  2266  2372  2491  2593  2653  2679  2745  2902  3089  3206  3215  3124  2965  2759  2489  2183  1929  1723  1460  1107  760  490  283  125  29  0  0  -58  -253  -516  -698  -747  -733  -740  -808  -911  -989  -1018  -1021  -1015  -977  -879  -747  -651  -619  -623  -627  -617  -596  -576  -557  -556  -616  -695  -658  -478  -282  -191  -214  -289  -379  -493  -633  -769  -848  -844  -770  -674  -607  -578  -555  -514  -458  -400  -347  -303  -273  -269  -305  -387  -496  -598  -663  -683  -665  -640  -628  -629  -635  -639  -642  -645  -644  -627  -588  -537  -497  -477  -472  -476  -478  -471  -462  -483  -559  -664  -739  -766  -785  -827  -870  -864  -787  -684  -638  -664  -693  -686  -655  -612  -577  -572  -602  -645  -675  -686  -691  -707  -735  -751  -749  -753  -774  -792  -787  -761  -731  -715  -712  -717  -728  -746  -772  -787  -756  -651  -505  -399  -376  -419  -487  -549  -588  -590  -521  -361  -171  -56  -24  -9  10  6  -36  -96  -145  -210  -346  -549  -749  -901  -984  -972  -878  -759  -654  -576  -544  -566  -636  -747  -892  -1073  -1282  -1405  -1305  -1027  -680  -154  766  2149  3878  5554  6411  5897  4239  2143  238  -1188  -2211  -3003  -3459  -3350  -2776  -2068  -1420  -917  -616  -490  -459  -465  -488  -523  -558  -580  -575  -474  -191  210  528  648  618  518  388  256  159  123  172  331  562  762  875  942  1011  1088  1174  1254  1308  1362  1473  1670  1913  2117  2231  2281  2306  2340  2419  2548  2681  2769  2798  2783  2748  2702  2641  2581  2549  2555  2584  2596  2540  2382  2124  1807  1483  1211  997  779  533  319  153  -41  -335  -692  -990  -1131  -1126  -1059  -1019  -1006  -920  -743  -588  -532  -535  -531  -491  -443  -453  -559  -731  -889  -975  -997  -998  -999  -975  -892  -774  -690  -674  -689  -677  -610  -510  -416  -342  -284  -249  -259  -294  -349  -444  -537  -565  -543  -497  -432  -371  -335  -322  -316  -303  -289  -304  -359  -433  -513  -613  -727  -832  -899  -900  -818  -651  -439  -256  -168  -187  -267  -346  -385  -384  -365  -367  -431  -545  -640  -685  -701  -712  -727  -745  -761  -768  -781  -815  -854  -856  -781  -624  -434  -276  -178  -141  -170  -247  -342  -427  -495  -549  -572  -542  -481  -420  -368  -327  -300  -293  -319  -393  -494  -574  -610  -614  -607  -600  -593  -585  -570  -532  -474  -434  -412  -377  -331  -311  -329  -366  -389  -387  -349  -241  -40  216  412  416  219  -60  -311  -468  -525  -522  -504  -491  -475  -447  -434  -488  -597  -652  -568  -408  -321  -386  -535  -669  -794  -982  -1195  -1287  -1134  -631  351  1821  3596  5284  6245  6021  4760  2848  592  -1541  -3004  -3568  -3372  -2721  -2010  -1535  -1286  -1088  -866  -654  -502  -421  -381  -333  -256  -160  -55  50  145  212  248  269  297  333  361  372  370  390  476  618  746  814  847  902  1023  1203  1385  1510  1579  1634  1697  1759  1809  1859  1955  2128  2366  2631  2868  3003  2999  2875  2704  2586  2577  2673  2819  2951  3025  2988  2789  2490  2245  2126  2043  1859  1536  1154  823  585  426  309  156  -108  -437  -673  -750  -738  -712  -696  -689  -689  -705  -746  -795  -821  -811  -782  -768  -775  -756  -677  -583  -541  -572  -650  -696  -658  -575  -491  -403  -327  -291  -283  -286  -315  -393  -498  -579  -618  -634  -647  -663  -683  -696  -682  -626  -542  -464  -415  -403  -434  -503  -577  -623  -638  -635  -622  -593  -555  -530  -536  -569  -601  -600  -579  -581  -611  -633  -616  -572  -536  -524  -528  -536  -542  -552  -583  -652  -742  -809  -831  -825  -813  -808  -819  -855  -920  -992  -1031  -977  -789  -527  -315  -202  -156  -148  -179  -260  -371  -461  -510  -553  -636  -753  -855  -921  -936  -852  -628  -335  -124  -66  -144  -321  -528  -672  -724  -723  -690  -605  -463  -314  -224  -194  -150  -16  184  339  345  173  -92  -312  -424  -473  -509  -545  -576  -586  -588  -613  -641  -640  -624  -615  -608  -588  -558  -577  -683  -768  -712  -587  -453  -136  638  2013  3766  5288  5920  5321  3596  1290  -864  -2400  -3213  -3436  -3361  -3146  -2704  -2060  -1437  -1004  -746  -546  -348  -187  -67  48  155  201  171  116  90  97  125  171  229  281  332  389  438  462  466  472  509  607  774  966  1138  1290  1434  1541  1567  1523  1488  1546  1727  1996  2265  2435  2484  2475  2478  2541  2666  2805  2905  2973  3039  3099  3129  3123  3105  3063  2902  2552  2109  1732  1462  1228  1000  828  721  624  510  381  203  -79  -418  -668  -761  -769  -786  -847  -938  -1026  -1077  -1064  -977  -844  -721  -643  -608  -603  -619  -658  -714  -756  -743  -662  -574  -568  -663  -777  -799  -710  -606  -556  -512  -398  -239  -156  -249  -489  -743  -889  -906  -833  -730  -651  -610  -580  -552  -556  -621  -729  -812  -823  -765  -680  -616  -588  -585  -599  -630  -674  -721  -761  -786  -768  -684  -565  -479  -451  -456  -460  -456  -452  -456  -453  -431  -431  -479  -516  -487  -416  -349  -310  -302  -322  -411  -598  -802  -930  -973  -950  -876  -768  -618  -445  -325  -317  -412  -547  -644  -675  -658  -606  -517  -410  -327  -293  -292  -299  -304  -304  -300  -289  -266  -222  -150  -65  -11  -27  -90  -146  -184  -211  -229  -243  -251  -244  -246  -311  -481  -704  -866  -920  -913  -894  -876  -864  -853  -805  -697  -594  -527  -389  -23  709  1874  3343  4701  5343  4855  3334  1263  -760  -2221  -2943  -3130  -3070  -2915  -2673  -2284  -1778  -1272  -831  -464  -206  -90  -76  -95  -109  -114  -108  -88  -53  -12  20  43  71  110  162  224  298  391  505  619  716  792  847  885  916  962  1046  1170  1312  1463  1624  1784  1938  2072  2171  2257  2379  2530  2652  2709  2724  2750  2824  2944  3045  3043  2951  2832  2706  2597  2539  2518  2476  2337  2065  1706  1352  1051  772  483  221  41  -44  -70  -87  -158  -329  -566  -779  -930  -1023  -1039  -948  -768  -559  -403  -357  -387  -415  -422  -436  -468  -510  -548  -570  -581  -613  -698  -806  -846  -754  -571  -397  -285  -232  -219  -243  -309  -398  -464  -487  -485  -483  -491  -505  -515  -514  -504  -498  -526  -619  -758  -882  -954  -967  -914  -786  -593  -393  -280  -299  -409  -529  -590  -589  -579  -567  -517  -453  -416  -409  -419  -452  -503  -530  -487  -387  -284  -220  -201  -220  -273  -351  -425  -474  -490  -490  -513  -587  -693  -772  -792  -770  -731  -679  -611  -543  -514  -576  -749  -932  -960  -805  -569  -346  -182  -104  -97  -124  -156  -177  -184  -171  -137  -91  -56  -45  -53  -73  -96  -105  -93  -82  -133  -304  -551  -741  -818  -840  -858  -872  -849  -757  -609  -475  -413  -425  -494  -617  -794  -993  -1139  -1184  -1140  -964  -454  628  2346  4342  5880  6320  5467  3614  1452  -361  -1656  -2572  -3146  -3315  -3068  -2478  -1725  -1053  -637  -485  -483  -504  -475  -378  -257  -171  -138  -132  -128  -115  -88  -48  -5  32  65  100  152  241  387  577  746  835  855  851  868  943  1090  1271  1410  1470  1478  1480  1524  1670  1929  2223  2445  2560  2595  2569  2510  2489  2543  2633  2728  2834  2930  2989  2988  2908  2752  2549  2343  2186  2076  1921  1635  1257  892  575  292  47  -163  -344  -505  -666  -818  -918  -955  -956  -931  -870  -788  -727  -691  -623  -482  -323  -281  -440  -732  -1001  -1166  -1229  -1183  -993  -694  -419  -282  -293  -405  -548  -650  -688  -688  -677  -671  -673  -676  -670  -645  -617  -599  -570  -523  -496  -518  -564  -589  -577  -557  -564  -604  -669  -742  -788  -796  -791  -795  -792  -757  -704  -652  -598  -550  -506  -436  -324  -190  -68  -8  -82  -335  -680  -932  -1003  -940  -814  -670  -550  -503  -530  -565  -558  -530  -515  -514  -517  -521  -525  -527  -522  -519  -519  -511  -494  -482  -483  -492  -501  -479  -396  -268  -183  -219  -344  -464  -536  -577  -598  -600  -586  -566  -553  -555  -569  -580  -540  -402  -185  26  166  209  158  50  -57  -136  -184  -201  -198  -221  -310  -465  -627  -715  -704  -627  -535  -493  -532  -601  -646  -674  -709  -756  -785  -773  -826  -1019  -1079  -584  629  2411  4370  5954  6588  5984  4389  2338  263  -1477  -2577  -3053  -3135  -2889  -2353  -1734  -1214  -827  -568  -447  -436  -474  -496  -461  -383  -308  -242  -158  -64  0  17  13  11  20  31  31  28  65  188  379  561  682  754  829  940  1060  1157  1242  1331  1432  1565  1753  1956  2096  2150  2169  2199  2249  2317  2418  2560  2705  2781  2764  2718  2701  2710  2732  2757  2760  2686  2488  2232  2042  1907  1675  1277  820  436  156  -40  -171  -253  -300  -332  -379  -457  -554  -642  -693  -710  -730  -787  -885  -975  -1008  -991  -957  -903  -812  -701  -616  -580  -575  -580  -577  -559  -531  -512  -509  -516  -520  -526  -558  -628  -716  -813  -920  -979  -918  -766  -619  -523  -471  -456  -479  -518  -555  -592  -659  -772  -899  -970  -937  -821  -696  -622  -613  -652  -710  -744  -715  -632  -539  -478  -456  -454  -475  -539  -645  -751  -793  -746  -654  -588  -571  -579  -574  -544  -513  -502  -500  -492  -485  -518  -631  -805  -960  -1042  -1061  -1044  -987  -875  -724  -591  -517  -501  -521  -561  -610  -655  -685  -686  -651  -595  -559  -562  -608  -698  -749  -661  -478  -324  -249  -223  -193  -130  -72  -89  -178  -258  -274  -244  -221  -231  -256  -284  -323  -357  -370  -376  -385  -388  -378  -373  -402  -465  -520  -542  -558  -622  -745  -868  -921  -922  -972  -1098  -1147  -976  -587  25  934  2210  3798  5315  6163  5922  4572  2491  300  -1444  -2494  -2933  -2942  -2612  -2059  -1521  -1164  -989  -911  -837  -733  -633  -566  -520  -471  -406  -302  -162  -37  49  131  204  227  195  140  122  179  281  394  531  678  800  904  1023  1151  1257  1320  1344  1355  1381  1425  1488  1587  1720  1846  1954  2089  2270  2482  2728  2978  3144  3176  3108  3008  2921  2861  2810  2722  2546  2327  2168  2093  2017  1797  1334  756  348  205  195  192  165  104  -9  -166  -341  -531  -728  -886  -969  -992  -990  -988  -991  -992  -970  -905  -815  -741  -694  -659  -628  -610  -615  -630  -635  -639  -646  -642  -632  -620  -596  -549  -500  -488  -525  -594  -677  -726  -705  -650  -617  -629  -685  -762  -823  -848  -827  -743  -603  -461  -371  -335  -332  -365  -451  -548  -588  -589  -628  -721  -828  -920  -991  -1036  -1031  -932  -726  -492  -345  -308  -325  -344  -347  -339  -333  -358  -436  -547  -634  -676  -701  -731  -735  -677  -591  -536  -527  -536  -532  -514  -501  -503  -507  -500  -490  -506  -553  -601  -633  -660  -675  -632  -496  -317  -203  -183  -215  -265  -324  -385  -441  -494  -548  -558  -467  -305  -169  -118  -133  -164  -175  -155  -117  -96  -113  -151  -184  -208  -220  -218  -203  -182  -163  -147  -137  -162  -264  -452  -663  -812  -859  -833  -796  -787  -813  -909  -1104  -1279  -1273  -1102  -836  -416  328  1606  3398  5259  6494  6500  5159  2953  589  -1366  -2597  -3092  -3064  -2773  -2391  -1938  -1402  -893  -576  -488  -521  -571  -598  -612  -655  -750  -826  -753  -505  -201  31  180  291  392  490  577  616  586  512  438  422  495  625  788  982  1162  1266  1291  1287  1303  1364  1466  1582  1708  1898  2166  2436  2631  2751  2827  2869  2906  2978  3073  3119  3052  2882  2676  2480  2314  2215  2198  2215  2180  2016  1724  1388  1092  866  683  492  244  -80  -405  -605  -661  -663  -686  -750  -828  -887  -920  -928  -881  -744  -546  -381  -320  -390  -580  -812  -974  -1035  -1041  -1027  -983  -897  -787  -693  -636  -596  -543  -474  -406  -362  -344  -339  -348  -367  -382  -391  -427  -529  -674  -774  -757  -673  -621  -628  -652  -662  -655  -621  -549  -471  -467  -559  -649  -645  -586  -560  -572  -581  -575  -598  -688  -809  -859  -777  -615  -495  -470  -495  -521  -560  -635  -715  -746  -731  -696  -640  -594  -605  -655  -694  -705  -704  -701  -687  -631  -528  -418  -343  -321  -346  -389  -425  -472  -544  -608  -626  -601  -566  -542  -531  -527  -520  -496  -446  -389  -377  -424  -494  -552  -584  -598  -617  -620  -529  -307  -58  67  60  21  14  32  41  25  -29  -135  -261  -369  -461  -537  -584  -606  -625  -661  -709  -749  -772  -784  -791  -788  -758  -697  -644  -642  -684  -760  -876  -1002  -1106  -1114  -773  169  1668  3479  5214  6259  6137  4910  2963  724  -1275  -2646  -3427  -3696  -3363  -2619  -1909  -1457  -1191  -956  -716  -557  -517  -513  -433  -241  -18  114  127  82  42  26  23  26  49  106  173  209  203  191  249  450  771  1072  1230  1251  1221  1222  1296  1437  1577  1664  1721  1810  1943  2076  2182  2257  2315  2400  2552  2752  2934  3051  3124  3188  3214  3172  3104  3061  3012  2875  2629  2352  2114  1908  1699  1471  1227  930  519  65  -243  -343  -330  -307  -307  -333  -387  -475  -600  -740  -848  -904  -929  -949  -967  -985  -1006  -1027  -1035  -1013  -951  -870  -812  -794  -792  -773  -732  -683  -646  -635  -678  -800  -967  -1094  -1147  -1148  -1091  -948  -757  -614  -562  -566  -561  -507  -407  -316  -302  -400  -562  -684  -708  -675  -655  -690  -769  -822  -806  -765  -751  -757  -745  -694  -617  -557  -534  -539  -550  -557  -571  -600  -636  -661  -669  -658  -616  -525  -410  -329  -319  -389  -535  -694  -783  -794  -765  -728  -704  -700  -711  -731  -740  -684  -510  -266  -75  -4  -64  -279  -616  -926  -1050  -952  -732  -532  -438  -448  -533  -649  -744  -783  -763  -690  -592  -502  -406  -257  -39  177  286  264  166  28  -119  -229  -290  -336  -379  -408  -437  -492  -566  -626  -665  -697  -713  -696  -656  -610  -557  -501  -479  -582  -908  -1376  -1656  -1473  -866  -5  959  1967  3107  4366  5337  5450  4425  2482  228  -1676  -2879  -3398  -3440  -3259  -2946  -2423  -1738  -1046  -472  -134  -46  -81  -108  -87  -77  -162  -314  -397  -322  -150  -4  82  201  415  656  833  911  892  814  745  721  722  717  713  773  958  1220  1432  1545  1609  1674  1753  1862  2012  2187  2337  2426  2486  2591  2759  2933  3047  3085  3078  3065  3052  3009  2911  2788  2692  2611  2468  2222  1937  1695  1520  1378  1224  1004  686  339  68  -121  -311  -525  -702  -796  -827  -846  -884  -947  -1017  -1048  -1007  -907  -802  -728  -685  -661  -671  -727  -787  -783  -713  -642  -609  -610  -634  -680  -725  -735  -712  -677  -634  -594  -573  -569  -572  -574  -570  -558  -552  -593  -718  -894  -1033  -1083  -1024  -848  -616  -453  -426  -513  -635  -721  -750  -750  -740  -709  -638  -545  -477  -454  -450  -453  -491  -597  -744  -855  -884  -840  -736  -583  -410  -278  -232  -274  -377  -488  -557  -577  -557  -504  -433  -375  -350  -371  -424  -459  -438  -392  -374  -396  -437  -467  -476  -474  -474  -486  -501  -491  -452  -427  -460  -548  -647  -709  -722  -693  -578  -311  39  292  343  237  77  -57  -164  -271  -380  -472  -542  -607  -677  -736  -766  -779  -798  -845  -912  -966  -961  -840  -601  -350  -216  -226  -254  -113  292  1062  2223  3478  4395  4670  4167  2960  1315  -385  -1802  -2817  -3424  -3559  -3194  -2502  -1747  -1123  -715  -514  -448  -442  -443  -438  -419  -372  -297  -230  -191  -168  -112  5  142  226  248  250  288  398  558  697  775  802  802  796  783  750  716  780  1048  1439  1737  1853  1889  1976  2164  2392  2567  2671  2732  2757  2754  2747  2745  2736  2710  2671  2637  2622  2622  2589  2453  2225  2001  1836  1723  1657  1618  1544  1332  925  434  55  -152  -283  -435  -622  -795  -894  -903  -850  -778  -729  -720  -744  -790  -855  -931  -969  -932  -849  -768  -718  -712  -723  -709  -656  -574  -497  -468  -489  -518  -531  -546  -585  -640  -670  -641  -554  -434  -320  -248  -226  -235  -273  -362  -514  -692  -850  -966  -1028  -1013  -895  -697  -511  -432  -468  -557  -645  -714  -757  -770  -764  -755  -735  -668  -571  -584  -775  -1003  -1086  -982  -790  -643  -583  -560  -538  -531  -572  -676  -802  -878  -882  -844  -793  -757  -776  -866  -972  -998  -894  -690  -472  -322  -242  -166  -66  0  -76  -355  -724  -957  -965  -832  -665  -520  -411  -327  -251  -163  -62  17  42  16  -58  -222  -478  -730  -878  -912  -862  -738  -585  -486  -480  -530  -582  -609  -615  -616  -622  -635  -669  -781  -1012  -1226  -1072  -230  1233  2884  4341  5354  5583  4868  3422  1513  -519  -2149  -3009  -3134  -2797  -2304  -1911  -1651  -1360  -1023  -783  -688  -656  -604  -513  -387  -228  -50  107  202  238  266  311  360  395  414  420  421  421  411  387  359  370  465  641  838  992  1114  1244  1370  1448  1476  1513  1652  1925  2228  2424  2490  2504  2528  2579  2655  2734  2788  2813  2817  2809  2796  2781  2758  2704  2589  2437  2308  2218  2128  1993  1768  1412  937  458  81  -205  -439  -588  -633  -621  -595  -574  -574  -625  -740  -873  -955  -972  -972  -998  -1050  -1096  -1102  -1075  -1051  -1054  -1061  -1013  -863  -656  -504  -452  -458  -472  -484  -505  -531  -553  -569  -582  -577  -529  -449  -397  -442  -594  -771  -874  -878  -842  -817  -809  -806  -809  -826  -866  -918  -961  -976  -948  -864  -755  -686  -679  -699  -709  -704  -687  -656  -616  -587  -582  -593  -609  -629  -672  -758  -887  -1025  -1124  -1157  -1109  -967  -771  -609  -528  -509  -522  -552  -583  -601  -604  -601  -600  -600  -601  -597  -588  -589  -618  -666  -712  -734  -725  -699  -663  -611  -556  -521  -511  -509  -493  -433  -317  -170  -41  36  71  76  55  5  -59  -107  -135  -175  -262  -378  -468  -512  -543  -582  -610  -597  -530  -448  -421  -454  -489  -516  -575  -737  -1105  -1522  -1577  -1143  -408  571  1900  3522  5106  6150  6158  4971  3006  916  -812  -1970  -2611  -2833  -2663  -2231  -1736  -1282  -939  -751  -683  -682  -700  -685  -602  -457  -309  -219  -196  -205  -215  -217  -206  -163  -53  134  357  539  637  630  527  417  390  463  606  768  898  997  1106  1246  1397  1524  1617  1711  1851  2039  2241  2413  2523  2569  2578  2573  2568  2566  2569  2579  2622  2722  2837  2839  2635  2291  1981  1803  1728  1686  1629  1544  1380  1056  612  235  26  -91  -236  -425  -588  -695  -765  -789  -762  -740  -766  -818  -867  -904  -921  -923  -924  -935  -949  -927  -837  -710  -634  -647  -695  -705  -661  -597  -544  -510  -492  -480  -466  -477  -570  -747  -854  -745  -522  -386  -418  -583  -765  -859  -863  -836  -823  -835  -843  -812  -750  -721  -769  -852  -881  -817  -704  -619  -589  -591  -597  -605  -623  -659  -699  -721  -711  -683  -645  -598  -561  -541  -524  -480  -408  -380  -463  -601  -691  -706  -681  -647  -628  -637  -672  -717  -745  -734  -702  -680  -671  -667  -660  -651  -641  -629  -591  -486  -310  -138  -64  -141  -358  -626  -829  -924  -939  -910  -840  -725  -595  -518  -511  -498  -434  -368  -345  -348  -327  -247  -131  -44  -11  -9  -16  -42  -106  -195  -271  -321  -354  -373  -366  -325  -262  -220  -260  -418  -641  -817  -897  -893  -828  -729  -634  -560  -512  -504  -577  -752  -895  -749  -150  900  2289  3818  5214  6055  5928  4788  2923  669  -1476  -2943  -3570  -3527  -2904  -1895  -990  -548  -496  -569  -615  -612  -563  -460  -325  -209  -128  -85  -93  -134  -144  -82  35  146  208  269  394  535  610  620  619  656  743  863  990  1086  1130  1133  1118  1098  1088  1122  1243  1449  1703  1965  2182  2302  2340  2356  2410  2545  2768  3010  3169  3208  3179  3136  3076  2966  2823  2697  2594  2487  2360  2152  1776  1267  795  472  267  114  -2  -79  -140  -215  -309  -404  -481  -531  -571  -646  -789  -971  -1117  -1154  -1071  -932  -829  -794  -800  -815  -820  -782  -676  -542  -479  -543  -672  -757  -764  -744  -738  -720  -674  -628  -611  -616  -623  -625  -633  -668  -730  -790  -810  -785  -734  -704  -717  -760  -810  -852  -874  -868  -829  -761  -664  -554  -478  -456  -467  -506  -592  -709  -809  -867  -895  -902  -859  -736  -564  -427  -367  -366  -414  -521  -659  -759  -780  -743  -699  -677  -669  -658  -648  -654  -680  -709  -718  -705  -690  -694  -718  -762  -823  -867  -832  -679  -463  -302  -248  -271  -333  -403  -449  -459  -444  -420  -405  -408  -438  -489  -542  -579  -589  -571  -533  -485  -461  -489  -553  -620  -680  -736  -773  -754  -669  -562  -476  -403  -297  -143  4  89  109  101  92  92  99  98  79  39  -25  -142  -305  -467  -592  -671  -698  -666  -573  -462  -394  -381  -403  -452  -531  -630  -724  -779  -797  -859  -1064  -1358  -1457  -1050  -47  1432  3124  4667  5712  5983  5358  3959  2085  141  -1482  -2623  -3215  -3193  -2729  -2153  -1660  -1285  -988  -750  -591  -512  -478  -459  -432  -382  -325  -307  -330  -321  -204  -3  196  337  407  422  406  371  328  302  328  431  577  701  789  888  1031  1185  1282  1296  1274  1308  1476  1761  2043  2234  2346  2422  2469  2468  2436  2471  2662  2947  3165  3242  3225  3160  3058  2925  2791  2691  2615  2489  2251  1926  1597  1292  1015  780  556  281  -20  -269  -430  -514  -543  -537  -512  -480  -451  -440  -479  -599  -761  -883  -927  -925  -915  -910  -912  -914  -910  -890  -854  -819  -796  -780  -753  -693  -591  -474  -394  -371  -390  -422  -442  -448  -448  -448  -453  -459  -462  -459  -450  -439  -439  -477  -558  -624  -624  -582  -551  -545  -547  -546  -543  -539  -536  -532  -530  -539  -576  -635  -691  -719  -706  -650  -566  -492  -453  -453  -477  -514  -559  -602  -637  -690  -796  -923  -978  -901  -734  -564  -431  -329  -275  -293  -373  -450  -462  -441  -457  -503  -536  -547  -548  -548  -549  -551  -551  -543  -522  -501  -493  -501  -520  -527  -511  -498  -521  -583  -650  -694  -711  -714  -711  -701  -686  -676  -674  -677  -683  -685  -661  -580  -449  -328  -266  -257  -267  -271  -258  -227  -185  -151  -141  -147  -150  -139  -111  -71  -32  -4  0  -32  -100  -194  -294  -386  -460  -521  -586  -656  -707  -724  -711  -671  -620  -582  -576  -605  -674  -790  -910  -954  -883  -587  140  1384  2963  4492  5556  5840  5212  3860  2115  217  -1535  -2781  -3400  -3496  -3165  -2525  -1834  -1325  -1013  -796  -607  -430  -282  -199  -179  -180  -155  -76  41  145  205  236  265  277  216  58  -98  -89  106  342  499  589  692  853  1027  1144  1192  1216  1250  1294  1330  1348  1365  1440  1635  1924  2200  2398  2530  2624  2715  2828  2951  3047  3101  3128  3137  3120  3076  3026  2996  2981  2928  2750  2397  1915  1419  1023  760  554  329  110  -34  -102  -153  -225  -314  -393  -449  -498  -569  -657  -729  -784  -858  -950  -1020  -1056  -1082  -1108  -1121  -1124  -1128  -1124  -1087  -1003  -877  -733  -606  -526  -473  -419  -384  -398  -435  -457  -459  -456  -456  -458  -452  -429  -398  -397  -453  -541  -599  -605  -588  -587  -628  -712  -799  -834  -806  -754  -728  -727  -697  -621  -552  -540  -574  -603  -579  -510  -453  -451  -500  -555  -575  -563  -553  -575  -634  -698  -736  -741  -716  -664  -593  -515  -457  -432  -426  -428  -447  -499  -577  -650  -694  -691  -652  -623  -614  -589  -524  -428  -321  -230  -206  -283  -437  -578  -642  -650  -652  -662  -670  -674  -678  -681  -669  -611  -489  -336  -222  -180  -192  -232  -279  -313  -322  -315  -321  -365  -432  -467  -425  -314  -164  -14  98  166  205  213  164  41  -120  -263  -370  -467  -541  -555  -525  -499  -487  -473  -450  -417  -383  -354  -326  -310  -354  -505  -748  -990  -1123  -1087  -861  -376  484  1753  3183  4306  4801  4585  3668  2234  602  -971  -2228  -2918  -3051  -2859  -2561  -2273  -2001  -1697  -1355  -998  -664  -427  -301  -233  -184  -142  -81  13  130  233  281  254  174  88  31  4  -2  36  170  384  564  603  522  425  414  539  784  1072  1349  1612  1842  1979  2015  2000  1983  1987  2031  2126  2250  2353  2404  2416  2435  2523  2697  2888  3011  3052  3054  3039  2985  2869  2700  2505  2310  2136  1970  1748  1411  976  559  286  167  112  37  -110  -364  -696  -985  -1097  -1017  -847  -711  -655  -654  -678  -709  -736  -747  -745  -753  -791  -850  -870  -820  -738  -667  -613  -572  -537  -505  -493  -513  -552  -584  -598  -603  -611  -619  -625  -641  -688  -783  -925  -1084  -1211  -1254  -1164  -925  -628  -426  -381  -446  -544  -617  -648  -651  -642  -618  -585  -581  -669  -841  -989  -1042  -1019  -961  -890  -811  -727  -663  -655  -685  -699  -669  -616  -584  -601  -641  -677  -719  -769  -810  -830  -827  -797  -737  -671  -640  -650  -651  -605  -522  -443  -423  -469  -521  -527  -486  -431  -378  -327  -310  -366  -469  -552  -587  -596  -596  -575  -519  -447  -403  -393  -387  -362  -319  -232  -63  144  272  263  173  84  28  -4  -28  -49  -75  -115  -181  -291  -435  -561  -615  -593  -536  -495  -489  -509  -539  -589  -667  -715  -684  -633  -653  -764  -887  -810  -302  729  2187  3796  5143  5704  5141  3650  1693  -341  -2014  -2973  -3270  -3148  -2750  -2191  -1627  -1181  -916  -805  -744  -650  -515  -386  -309  -276  -230  -143  -74  -76  -99  -70  13  92  108  64  17  27  129  338  599  799  881  881  861  864  900  954  1021  1154  1392  1659  1827  1862  1843  1872  2007  2204  2367  2476  2573  2676  2771  2867  2989  3115  3173  3114  2969  2810  2692  2625  2564  2421  2156  1834  1539  1276  1009  713  417  202  119  120  100  -29  -258  -489  -638  -702  -736  -793  -870  -926  -944  -940  -930  -914  -886  -852  -822  -797  -758  -702  -650  -624  -620  -628  -632  -607  -538  -444  -375  -350  -351  -356  -355  -350  -349  -369  -412  -460  -501  -549  -608  -674  -750  -825  -872  -879  -847  -776  -675  -583  -545  -562  -587  -603  -649  -743  -825  -835  -779  -719  -719  -760  -765  -710  -640  -596  -581  -584  -593  -617  -672  -754  -825  -858  -838  -769  -679  -583  -477  -389  -358  -392  -467  -531  -567  -601  -640  -659  -658  -659  -689  -756  -838  -876  -831  -723  -610  -540  -518  -521  -530  -541  -553  -561  -559  -551  -542  -539  -539  -544  -556  -561  -522  -405  -244  -125  -84  -92  -107  -92  -31  56  131  168  112  -100  -408  -648  -720  -645  -514  -414  -381  -419  -526  -665  -766  -795  -772  -729  -729  -860  -1114  -1323  -1277  -898  -190  882  2270  3743  4975  5527  5098  3856  2220  518  -1000  -2200  -3086  -3555  -3386  -2614  -1658  -976  -696  -636  -607  -572  -552  -547  -539  -514  -461  -374  -256  -126  -6  113  224  270  228  179  238  411  586  660  629  552  486  443  431  502  725  1052  1325  1455  1494  1522  1564  1607  1655  1725  1830  1974  2145  2300  2392  2421  2424  2446  2507  2603  2718  2815  2864  2878  2893  2908  2870  2717  2445  2095  1697  1300  1004  856  786  677  440  85  -269  -527  -692  -802  -844  -795  -678  -556  -489  -496  -541  -587  -632  -697  -783  -851  -856  -804  -751  -731  -732  -734  -723  -705  -711  -778  -891  -975  -986  -954  -925  -897  -821  -678  -520  -408  -356  -363  -439  -567  -688  -753  -770  -772  -772  -743  -655  -533  -443  -407  -405  -417  -441  -487  -564  -651  -717  -738  -716  -687  -689  -732  -780  -776  -702  -582  -465  -395  -398  -469  -571  -658  -711  -725  -700  -655  -618  -620  -693  -816  -905  -885  -767  -638  -563  -541  -540  -540  -538  -535  -536  -555  -591  -614  -589  -531  -500  -521  -560  -562  -518  -471  -467  -498  -537  -582  -622  -628  -586  -510  -440  -412  -427  -462  -481  -439  -299  -97  77  184  239  264  272  267  240  173  64  -71  -215  -346  -453  -548  -646  -730  -795  -852  -888  -871  -795  -678  -559  -478  -449  -497  -670  -970  -1283  -1369  -980  -12  1468  3204  4808  5886  6055  5161  3477  1387  -721  -2347  -3176  -3303  -2985  -2448  -1888  -1404  -1007  -722  -556  -463  -418  -411  -422  -415  -360  -249  -98  50  146  168  137  110  145  241  331  370  370  359  346  339  366  456  598  742  874  1018  1192  1355  1453  1482  1490  1520  1565  1602  1658  1797  2017  2242  2421  2558  2657  2714  2735  2735  2739  2773  2844  2931  3005  3035  2972  2764  2452  2156  1923  1668  1327  950  586  222  -106  -310  -376  -370  -349  -335  -341  -400  -545  -751  -924  -989  -950  -863  -786  -749  -754  -808  -904  -1003  -1045  -996  -876  -752  -680  -661  -671  -696  -739  -806  -882  -925  -893  -802  -706  -646  -591  -510  -473  -568  -737  -823  -758  -638  -579  -570  -549  -530  -562  -642  -722  -738  -672  -586  -544  -543  -558  -571  -582  -603  -642  -689  -736  -782  -789  -716  -597  -516  -511  -546  -581  -605  -624  -639  -650  -658  -662  -664  -661  -631  -548  -430  -330  -282  -291  -354  -454  -550  -613  -631  -611  -566  -513  -468  -435  -412  -428  -502  -590  -638  -620  -559  -528  -592  -713  -784  -751  -660  -579  -512  -404  -222  -17  107  107  27  -56  -93  -79  -37  17  80  114  86  11  -90  -221  -374  -519  -626  -662  -609  -486  -349  -256  -233  -277  -376  -491  -568  -595  -607  -638  -692  -771  -893  -1034  -1097  -926  -306  867  2397  3953  5203  5745  5347  4137  2402  478  -1222  -2405  -3060  -3266  -3031  -2468  -1807  -1194  -710  -438  -374  -414  -469  -494  -452  -318  -139  -7  56  104  153  155  92  32  44  105  147  147  127  105  84  87  184  457  874  1257  1457  1484  1419  1318  1223  1181  1229  1372  1569  1747  1872  1982  2139  2353  2575  2756  2885  2964  2997  2982  2922  2850  2797  2765  2746  2725  2651  2450  2091  1655  1296  1073  931  818  727  642  514  317  72  -167  -348  -469  -588  -736  -893  -1021  -1097  -1123  -1118  -1101  -1076  -1045  -1015  -992  -942  -821  -657  -535  -492  -493  -501  -515  -546  -590  -623  -630  -615  -588  -557  -533  -521  -519  -520  -517  -507  -501  -519  -556  -573  -546  -512  -521  -570  -599  -580  -556  -558  -553  -524  -495  -487  -492  -498  -500  -506  -525  -551  -568  -563  -539  -521  -537  -603  -712  -824  -895  -915  -899  -858  -802  -750  -717  -700  -665  -581  -482  -461  -558  -683  -743  -759  -787  -807  -760  -639  -499  -415  -414  -473  -550  -609  -637  -645  -644  -638  -625  -610  -601  -595  -579  -541  -475  -396  -334  -306  -304  -307  -300  -282  -256  -220  -157  -41  109  221  240  154  -6  -175  -293  -367  -443  -545  -654  -737  -764  -729  -662  -607  -581  -573  -561  -545  -555  -631  -770  -929  -1021  -978  -901  -886  -687  50  1351  2960  4536  5648  5895  5152  3611  1646  -332  -1984  -3092  -3577  -3477  -2928  -2130  -1326  -727  -408  -298  -281  -269  -229  -182  -178  -222  -280  -324  -350  -363  -357  -314  -218  -89  31  115  162  194  256  371  512  635  762  936  1108  1199  1204  1178  1153  1148  1205  1362  1575  1753  1873  2000  2180  2365  2481  2536  2613  2755  2911  3011  3042  3040  3031  3008  2959  2888  2804  2681  2470  2180  1900  1715  1613  1498  1281  970  660  395  128  -138  -334  -448  -525  -580  -617  -661  -745  -864  -972  -1027  -1039  -1040  -1044  -1031  -967  -853  -747  -696  -691  -700  -700  -684  -667  -672  -700  -728  -734  -721  -708  -709  -711  -697  -673  -652  -627  -583  -526  -481  -455  -440  -443  -481  -542  -598  -635  -657  -669  -670  -657  -626  -569  -497  -443  -442  -500  -592  -680  -732  -740  -715  -689  -679  -670  -648  -622  -608  -615  -646  -695  -765  -842  -858  -773  -656  -597  -594  -602  -586  -548  -518  -513  -516  -496  -458  -445  -486  -545  -578  -571  -531  -471  -403  -337  -292  -270  -255  -242  -260  -356  -526  -671  -689  -577  -397  -223  -116  -81  -75  -55  -19  -7  -57  -140  -207  -252  -310  -401  -506  -581  -605  -596  -580  -577  -600  -654  -720  -767  -788  -788  -755  -677  -638  -807  -1166  -1443  -1347  -643  728  2484  4196  5462  5864  5228  3822  2047  174  -1568  -2947  -3813  -4126  -3861  -3067  -2015  -1088  -541  -371  -396  -446  -441  -362  -246  -157  -128  -141  -162  -159  -99  20  154  251  301  304  266  224  244  363  526  633  661  676  726  795  850  909  1013  1177  1397  1634  1843  2022  2175  2281  2329  2337  2334  2356  2440  2578  2733  2875  2995  3077  3092  3031  2946  2904  2906  2892  2790  2572  2272  1928  1584  1288  1047  833  637  445  245  36  -180  -403  -603  -737  -801  -827  -851  -884  -922  -953  -965  -962  -958  -951  -911  -824  -727  -665  -643  -637  -633  -629  -638  -673  -712  -725  -710  -655  -562  -467  -400  -374  -393  -462  -588  -745  -870  -929  -931  -868  -721  -533  -406  -416  -568  -781  -937  -984  -945  -845  -709  -599  -587  -666  -755  -807  -826  -824  -786  -696  -581  -491  -445  -437  -451  -466  -471  -482  -525  -620  -746  -855  -934  -987  -990  -918  -809  -740  -737  -754  -748  -727  -717  -720  -718  -686  -615  -530  -465  -430  -414  -403  -399  -406  -420  -419  -379  -294  -186  -90  -29  -12  -28  -83  -192  -325  -414  -432  -405  -367  -343  -340  -367  -438  -532  -602  -625  -618  -601  -585  -594  -669  -837  -1035  -1091  -906  -604  -380  -289  -174  307  1398  2993  4635  5637  5479  4183  2143  -48  -1737  -2694  -3124  -3198  -3035  -2753  -2348  -1824  -1332  -990  -746  -530  -354  -245  -199  -184  -173  -161  -147  -116  -51  32  103  149  182  209  240  291  371  483  597  668  684  675  685  754  897  1084  1259  1394  1506  1626  1756  1861  1931  1999  2089  2188  2285  2385  2487  2586  2685  2807  2940  3033  3061  3027  2934  2797  2650  2513  2363  2171  1919  1609  1276  1000  841  772  716  586  317  -74  -458  -692  -751  -715  -682  -712  -813  -933  -1010  -1031  -1026  -1024  -1028  -1022  -978  -897  -814  -768  -762  -776  -787  -791  -790  -782  -762  -733  -705  -685  -680  -690  -712  -735  -752  -758  -749  -723  -681  -633  -586  -551  -546  -599  -717  -872  -1010  -1094  -1128  -1138  -1140  -1110  -1013  -866  -754  -721  -724  -723  -718  -714  -711  -717  -750  -797  -811  -782  -789  -868  -943  -940  -886  -836  -807  -780  -753  -735  -734  -759  -825  -938  -1067  -1161  -1204  -1207  -1154  -1021  -850  -727  -681  -663  -627  -565  -491  -429  -411  -461  -565  -655  -680  -652  -610  -583  -576  -570  -525  -422  -317  -298  -365  -463  -562  -635  -663  -660  -650  -641  -638  -649  -675  -703  -725  -748  -772  -811  -892  -1021  -1166  -1298  -1391  -1423  -1373  -1192  -828  -257  576  1752  3221  4685  5622  5583  4486  2563  284  -1735  -3085  -3683  -3577  -2982  -2298  -1779  -1431  -1198  -1022  -837  -654  -538  -506  -515  -526  -528  -519  -490  -437  -360  -259  -155  -84  -59  -40  6  67  112  162  277  479  701  853  923  939  924  902  928  1056  1259  1443  1567  1647  1699  1740  1791  1884  2046  2254  2431  2532  2569  2578  2596  2650  2726  2787  2820  2834  2809  2679  2409  2070  1798  1639  1501  1266  930  589  323  140  12  -77  -155  -250  -371  -506  -631  -730  -814  -890  -940  -944  -910  -861  -815  -767  -708  -644  -587  -544  -520  -518  -546  -602  -674  -743  -794  -813  -773  -643  -446  -257  -120  -26  30  38  6  -29  -47  -57  -97  -198  -321  -369  -287  -139  -34  0]
