reading_id,reading_time,wire_id,result_classification,heart_rate,heart_rate_alert,firmware_version,device_app_version,hardware_version,waveform_samples
364e1080-6307-11ed-8080-808080808080,Sun Nov 13 03:56:54 UTC 2022,8100e3ea1a39,NSR,80,NONE,20001.171.50,2.10.0,Charge 5,[0  1150  2116  2796  3159  3270  3257  3175  3014  2813  2668  2613  2608  2630  2722  2950  3345  3878  4490  5113  5673  6158  6654  7198  7734  8287  8977  9803  10611  11292  11793  12082  12206  12269  12397  12673  13084  13502  13630  13134  11846  9920  7838  6041  4604  3364  2158  963  -78  -781  -1092  -1139  -1106  -1096  -1128  -1156  -1101  -905  -580  -204  117  303  359  384  542  1040  1971  3068  3865  4121  3845  3138  2298  1723  1533  1575  1760  2113  2587  3053  3438  3730  3941  4121  4297  4430  4499  4533  4561  4584  4587  4554  4475  4356  4207  4018  3783  3557  3414  3364  3357  3364  3401  3496  3620  3708  3737  3736  3734  3727  3681  3565  3411  3297  3264  3292  3341  3362  3336  3294  3273  3260  3224  3160  3092  3033  2965  2856  2682  2445  2186  1966  1805  1650  1424  1117  805  559  352  119  -130  -322  -405  -403  -378  -366  -362  -346  -316  -298  -305  -320  -332  -354  -395  -445  -466  -429  -370  -356  -429  -575  -732  -839  -894  -941  -1026  -1145  -1241  -1282  -1300  -1349  -1439  -1541  -1618  -1657  -1678  -1724  -1812  -1925  -2029  -2092  -2100  -2050  -1967  -1930  -1987  -2081  -2137  -2140  -2109  -2065  -2035  -2025  -2022  -2012  -1996  -1983  -1973  -1972  -2026  -2193  -2430  -2595  -2603  -2484  -2334  -2237  -2208  -2212  -2219  -2232  -2271  -2340  -2392  -2390  -2362  -2350  -2363  -2361  -2313  -2336  -2581  -2994  -3364  -3385  -2740  -1424  162  1513  2222  2094  1277  178  -926  -1906  -2534  -2714  -2627  -2462  -2343  -2347  -2426  -2485  -2496  -2447  -2329  -2178  -2066  -2014  -2002  -2022  -2077  -2123  -2099  -2013  -1937  -1916  -1928  -1926  -1893  -1863  -1867  -1895  -1893  -1803  -1665  -1584  -1567  -1542  -1496  -1454  -1411  -1349  -1270  -1192  -1126  -1038  -884  -646  -372  -152  -29  28  40  -23  -168  -336  -438  -443  -402  -390  -451  -561  -647  -673  -677  -723  -844  -1036  -1245  -1400  -1491  -1577  -1691  -1793  -1809  -1699  -1522  -1398  -1358  -1319  -1208  -1084  -1079  -1225  -1438  -1628  -1707  -1635  -1505  -1409  -1338  -1277  -1239  -1215  -1169  -1088  -1000  -927  -884  -886  -917  -963  -1029  -1105  -1153  -1134  -1048  -963  -933  -933  -900  -813  -717  -649  -593  -545  -525  -556  -643  -751  -832  -878  -913  -958  -1025  -1073  -1036  -913  -786  -714  -673  -625  -578  -541  -488  -420  -376  -367  -371  -362  -331  -302  -319  -395  -491  -567  -612  -631  -638  -652  -678  -708  -756  -900  -1173  -1406  -1410  -1259  -1148  -1082  -797  19  1390  2966  4185  4554  3945  2638  1162  3  -646  -847  -789  -656  -538  -477  -458  -432  -400  -393  -411  -437  -454  -458  -439  -369  -257  -155  -99  -84  -81  -68  -37  -2  26  61  104  128  100  28  -40  -76  -85  -84  -66  -18  49  125  231  396  599  789  953  1130  1354  1583  1734  1788  1787  1743  1625  1438  1249  1123  1065  1055  1078  1105  1111  1087  1037  961  840  659  458  302  198  90  -52  -197  -294  -331  -352  -393  -449  -504  -537  -508  -399  -255  -132  -59  -27  -12  -16  -68  -172  -264  -298  -308  -307  -270  -215  -183  -178  -191  -210  -219  -184  -90  12  68  72  34  -36  -101  -107  -61  -8  18  -4  -72  -141  -170  -160  -134  -115  -95  -47  28  101  145  160  164  176  209  266  338  401  418  331  116  -146  -326  -379  -352  -290  -207  -137  -134  -220  -352  -424  -381  -329  -430  -689  -833  -431  749  2502  4223  5150  4835  3518  1897  621  -9  -105  39  202  250  163  35  -63  -124  -144  -140  -130  -124  -122  -121  -115  -100  -71  -34  0  29  52  71  93  114  122  118  105  100  138  253  416  544  588  571  549  561  608  676  749  817  871  903  912  910  917  957  1043  1149  1225  1243  1209  1147  1090  1049  1011  978  958  933  871  751  580  369  131  -80  -213  -265  -278  -288  -307  -326  -328  -319  -315  -335  -387  -448  -495  -523  -532  -524  -493  -426  -346  -297  -302  -356  -431  -490  -520  -528  -509  -442  -331  -221  -153  -133  -146  -179  -227  -278  -305  -302  -279  -247  -212  -188  -172  -150  -123  -120  -163  -236  -305  -349  -365  -348  -291  -211  -136  -82  -64  -96  -159  -227  -286  -349  -428  -494  -492  -407  -286  -199  -172  -170  -159  -134  -102  -60  -6  57  125  187  222  199  92  -77  -255  -412  -548  -640  -663  -620  -541  -468  -415  -390  -465  -721  -1042  -1048  -382  979  2691  4128  4690  4223  3029  1650  598  34  -216  -342  -432  -526  -590  -573  -519  -494  -503  -518  -505  -437  -318  -201  -133  -116  -121  -128  -135  -142  -153  -166  -176  -179  -182  -187  -191  -170  -104  -10  66  109  137  170  210  262  329  387  406  421  491  594  659  670  668  715  847  1022  1139  1145  1061  951  882  879  908  885  699  317  -135  -494  -710  -819  -867  -884  -895  -945  -1086  -1301  -1495  -1599  -1629  -1640  -1636  -1569  -1410  -1214  -1069  -991  -941  -890  -834  -781  -744  -722  -705  -688  -664  -635  -601  -543  -454  -356  -251  -132  -37  -18  -91  -214  -298  -292  -242  -208  -196  -172  -104  -5  73  105  103  88  69  45  15  -16  -38  -52  -65  -84  -112  -146  -170  -161  -111  -41  21  62  81  86  83  69  41  8  -7  4  26  33  22  -2  -33  -54  -62  -63  -63  -54  -20  55  173  308  418  458  421  353  311  315  351  391  411  394  329  225  116  29  -31  -74  -88  -50  38  143  221  233  164  32  -161  -418  -617  -489  233  1568  3146  4421  4950  4509  3228  1644  350  -388  -614  -507  -296  -184  -207  -235  -204  -148  -77  -10  17  11  -11  -55  -132  -227  -295  -320  -318  -301  -267  -217  -168  -136  -125  -147  -212  -268  -225  -83  63  148  170  166  180  245  355  457  522  563  596  626  659  712  800  906  985  1024  1035  1031  1029  1070  1177  1300  1350  1316  1263  1236  1209  1115  900  596  312  132  41  -40  -165  -309  -406  -433  -424  -427  -461  -501  -505  -456  -389  -365  -402  -456  -498  -532  -562  -586  -607  -625  -635  -630  -609  -583  -558  -522  -455  -369  -299  -266  -262  -265  -244  -212  -241  -362  -491  -550  -550  -536  -518  -478  -414  -352  -317  -310  -307  -275  -199  -123  -116  -182  -258  -304  -325  -341  -356  -364  -368  -372  -375  -378  -376  -355  -307  -239  -174  -142  -151  -168  -169  -166  -212  -332  -461  -508  -476  -424  -382  -352  -333  -310  -269  -217  -178  -168  -168  -149  -118  -85  -38  19  63  85  97  94  30  -127  -318  -422  -402  -358  -391  -499  -626  -743  -846  -912  -941  -993  -994  -736  -126  841  2092  3271  3926  3831  3022  1808  632  -229  -700  -833  -784  -692  -643  -661  -681  -647  -586  -534  -507  -506  -531  -597  -667  -636  -489  -330  -234  -214  -258  -334  -400  -432  -430  -412  -385  -342  -281  -217  -154  -87  -20  32  68  91  113  147  198  262  340  418  481  557  698  899  1098  1258  1371  1430  1447  1456  1480  1504  1489  1409  1259  1063  891  801  771  711  562  342  122  -52  -198  -339  -454  -527  -560  -553  -515  -466  -423  -390  -366  -343  -320  -302  -294  -294  -302  -325  -368  -420  -456  -470  -471  -462  -432  -391  -386  -434  -479  -459  -361  -229  -124  -62  -18  -3  -36  -92  -124  -112  -64  -5  50  111  162  165  113  33  -32  -72  -89  -90  -96  -130  -180  -216  -229  -227  -215  -192  -177  -215  -298  -324  -205  3  167  221  168  24  -156  -284  -327  -328  -328  -313  -248  -140  -53  -25  -29  -33  -24  0  37  81  124  153  160  146  104  21  -104  -234  -306  -311  -296  -288  -285  -294  -337  -410  -429  -323  -216  -306  -543  -657  -424  342  1686  3197  4234  4392  3567  2023  427  -607  -901  -642  -186  162  284  194  25  -90  -146  -197  -288  -440  -595  -643  -568  -421  -241  -96  -37  -36  -45  -47  -42  -33  -22  -13  -11  -13  -13  -6  12  44  85  126  170  233  327  422  479  505  538  604  695  796  882  937  960  963  963  994  1090  1235  1359  1417  1419  1380  1295  1162  999  820  619  397  180  3  -108  -175  -232  -296  -362  -414  -440  -433  -410  -407  -445  -496  -534  -556  -567  -571  -579  -602  -636  -676  -738  -831  -926  -985  -982  -889  -741  -620  -547  -490  -430  -377  -341  -320  -302  -290  -306  -357  -418  -450  -437  -386  -328  -282  -245  -220  -221  -252  -297  -336  -368  -404  -447  -485  -513  -532  -540  -522  -471  -399  -326  -274  -260  -280  -307  -320  -326  -348  -396  -445  -461  -444  -416  -380  -324  -239  -139  -68  -45  -48  -40  -7  13  -21  -85  -126  -141  -158  -201  -267  -330  -364  -364  -346  -327  -321  -341  -402  -487  -550  -618  -756  -932  -1027  -833  -55  1376  3035  4250  4550  3854  2496  1093  187  -90  18  182  199  53  -161  -348  -455  -484  -462  -409  -346  -294  -262  -244  -241  -246  -235  -185  -106  -37  2  27  45  57  66  67  61  57  74  112  142  135  107  89  84  82  81  95  145  249  417  638  874  1067  1194  1282  1351  1392  1406  1387  1334  1276  1240  1224  1191  1104  978  874  819  775  677  502  290  91  -75  -217  -338  -424  -478  -515  -544  -563  -571  -582  -607  -626  -612  -573  -535  -509  -494  -485  -482  -488  -498  -504  -499  -476  -444  -421  -420  -443  -477  -506  -526  -533  -501  -405  -265  -148  -91  -84  -123  -221  -354  -457  -495  -484  -456  -435  -425  -419  -408  -388  -355  -309  -262  -225  -213  -253  -365  -517  -632  -671  -654  -609  -560  -529  -522  -529  -540  -548  -553  -546  -520  -483  -460  -467  -498  -531  -545  -532  -510  -505  -543  -630  -735  -803  -803  -728  -602  -466  -355  -278  -218  -164  -122  -81  -13  80  171  236  271  256  151  -47  -273  -449  -565  -640  -675  -664  -603  -501  -421  -416  -486  -651  -826  -685  23  1252  2765  4091  4624  4143  2924  1449  239  -386  -501  -368  -195  -82  -69  -159  -272  -321  -297  -236  -203  -243  -333  -432  -530  -584  -550  -454  -356  -300  -285  -283  -268  -234  -179  -107  -41  10  56  76  51  10  0  32  95  168  237  308  384  446  495  555  636  723  814  949  1168  1406  1499  1355  1089  914  926  1047  1153  1192  1167  1094  995  894  775  617  452  322  220  95  -91  -305  -453  -500  -480  -431  -381  -363  -395  -453  -502  -521  -508  -461  -386  -315  -282  -288  -306  -323  -338  -351  -356  -358  -358  -361  -366  -371  -359  -312  -228  -140  -98  -120  -180  -253  -322  -370  -385  -365  -315  -254  -218  -210  -209  -193  -155  -106  -69  -58  -78  -133  -205  -260  -278  -264  -223  -175  -157  -180  -217  -234  -226  -213  -212  -202  -144  -59  -1  -1  -46  -101  -158  -230  -302  -341  -349  -348  -352  -348  -310  -239  -178  -158  -178  -229  -293  -343  -361  -336  -255  -137  -40  -5  -21  -53  -75  -80  -74  -58  -17  49  104  103  52  -7  -62  -131  -215  -289  -339  -379  -431  -498  -565  -591  -530  -442  -447  -576  -667  -391  492  1936  3532  4630  4736  3817  2279  760  -255  -677  -657  -408  -143  -8  -1  -49  -108  -168  -222  -265  -282  -266  -235  -205  -177  -162  -177  -203  -219  -234  -263  -293  -289  -247  -201  -185  -181  -147  -60  84  251  363  373  311  245  218  211  211  234  290  372  464  553  658  803  956  1060  1099  1099  1088  1086  1094  1114  1146  1149  1082  977  878  783  689  594  480  349  210  41  -146  -279  -318  -305  -301  -318  -341  -358  -380  -438  -567  -741  -878  -915  -847  -716  -583  -490  -446  -429  -402  -356  -310  -288  -303  -357  -430  -485  -510  -518  -524  -535  -551  -562  -549  -497  -420  -351  -308  -277  -239  -191  -152  -139  -144  -143  -113  -46  8  -17  -120  -226  -286  -302  -295  -290  -289  -276  -257  -255  -277  -310  -328  -322  -309  -320  -354  -377  -379  -380  -386  -387  -379  -371  -371  -372  -358  -324  -294  -285  -277  -244  -201  -175  -159  -143  -135  -137  -145  -162  -198  -263  -354  -449  -502  -486  -430  -377  -352  -352  -355  -358  -368  -369  -346  -309  -278  -265  -265  -254  -204  -106  32  204  388  485  346  -51  -499  -756  -784  -709  -646  -624  -608  -569  -517  -485  -452  -332  -83  160  129  -271  -673  -495  498  2028  3477  4163  3792  2620  1193  66  -451  -472  -293  -54  166  200  23  -175  -263  -268  -271  -322  -420  -518  -559  -509  -372  -201  -59  46  155  276  362  349  205  -7  -158  -184  -136  -75  -8  61  125  189  262  331  389  450  512  553  563  558  557  575  614  674  775  953  1170  1329  1388  1394  1401  1424  1428  1388  1321  1257  1190  1113  1023  898  725  519  298  84  -75  -159  -187  -190  -190  -192  -201  -223  -266  -315  -364  -424  -483  -516  -519  -504  -488  -482  -482  -479  -467  -446  -418  -388  -375  -390  -410  -410  -395  -382  -376  -367  -345  -321  -300  -281  -268  -261  -249  -225  -188  -143  -107  -93  -100  -116  -134  -161  -206  -250  -265  -258  -249  -246  -242  -232  -217  -208  -212  -223  -222  -201  -174  -156  -157  -173  -187  -200  -231  -278  -315  -331  -336  -341  -349  -364  -378  -367  -303  -198  -108  -74  -94  -143  -194  -227  -250  -279  -323  -372  -422  -463  -469  -429  -377  -342  -324  -312  -293  -268  -242  -221  -209  -206  -205  -198  -185  -181  -200  -233  -257  -265  -263  -262  -267  -270  -247  -175  -57  68  172  240  263  248  231  246  285  275  140  -107  -380  -593  -676  -605  -433  -242  -137  -198  -373  -578  -790  -869  -508  464  1877  3297  4221  4281  3464  2140  823  -98  -517  -510  -245  9  47  -90  -252  -350  -376  -354  -309  -250  -188  -144  -134  -151  -187  -229  -261  -269  -243  -180  -105  -52  -33  -36  -44  -48  -33  9  70  119  141  147  148  140  134  172  265  362  448  582  785  983  1095  1120  1108  1097  1095  1099  1106  1111  1115  1117  1110  1083  1036  984  947  928  916  882  808  694  539  342  133  -30  -124  -169  -205  -251  -309  -375  -465  -589  -691  -704  -629  -535  -466  -420  -374  -318  -268  -244  -277  -393  -551  -664  -690  -650  -592  -552  -530  -500  -445  -360  -270  -212  -207  -250  -310  -348  -348  -322  -302  -308  -334  -379  -460  -561  -624  -604  -505  -360  -203  -57  46  82  55  -4  -79  -187  -341  -507  -612  -611  -507  -349  -216  -162  -197  -279  -346  -371  -370  -354  -323  -284  -257  -248  -251  -255  -254  -247  -231  -208  -185  -170  -172  -201  -252  -299  -322  -313  -275  -222  -186  -189  -237  -307  -356  -352  -285  -185  -102  -67  -82  -147  -247  -338  -388  -398  -379  -330  -261  -199  -159  -136  -126  -121  -105  -51  40  137  204  216  147  -17  -232  -404  -482  -478  -429  -363  -299  -265  -266  -268  -321  -542  -867  -1045  -841  -80  1277  2922  4212  4605  4006  2688  1186  70  -433  -463  -295  -155  -113  -105  -82  -60  -55  -83  -161  -261  -338  -370  -358  -318  -280  -266  -267  -257  -219  -163  -132  -145  -166  -174  -180  -180  -159  -123  -79  -15  92  238  361  422  435  431  433  459  528  639  758  835  856  848  836  834  862  944  1077  1210  1288  1308  1297  1282  1263  1216  1126  1025  931  815  677  568  512  468  358  149  -92  -280  -408  -518  -618  -678  -689  -677  -668  -664  -661  -654  -639  -608  -564  -529  -486  -410  -347  -356  -425  -502  -551  -569  -568  -543  -478  -392  -331  -322  -347  -378  -404  -416  -387  -321  -263  -240  -241  -249  -258  -265  -267  -270  -290  -343  -410  -435  -383  -283  -200  -165  -168  -184  -202  -218  -233  -245  -253  -260  -270  -290  -311  -298  -246  -178  -112  -56  -32  -50  -107  -193  -307  -402  -415  -362  -312  -283  -254  -228  -218  -220  -226  -228  -214  -177  -139  -161  -286  -464  -584  -608  -586  -571  -568  -553  -504  -430  -351  -284  -268  -314  -341  -257  -69  127  274  371  420  407  324  187  41  -72  -134  -152  -164  -211  -294  -387  -470  -536  -584  -584  -492  -372  -410  -657  -910  -880  -320  893  2556  4110  4952  4752  3532  1689  -9  -913  -989  -628  -236  -93  -207  -345  -375  -343  -289  -204  -100  -29  -27  -94  -192  -265  -295  -296  -278  -238  -187  -149  -138  -147  -166  -176  -139  -23  137  257  299  288  258  222  182  148  158  246  379  487  537  545  553  601  722  907  1095  1211  1242  1236  1244  1283  1339  1384  1396  1392  1389  1360  1267  1123  960  785  596  427  317  250  161  23  -137  -276  -354  -369  -362  -383  -449  -528  -577  -602  -636  -673  -670  -601  -514  -476  -495  -525  -544  -557  -567  -564  -545  -517  -472  -386  -291  -276  -367  -479  -527  -496  -432  -364  -286  -207  -159  -146  -148  -152  -158  -158  -144  -131  -157  -230  -299  -327  -326  -319  -318  -320  -319  -306  -269  -209  -155  -151  -204  -264  -286  -271  -248  -255  -289  -311  -304  -284  -270  -276  -311  -371  -431  -488  -546  -569  -522  -423  -319  -247  -209  -177  -140  -114  -125  -194  -299  -378  -407  -406  -396  -377  -341  -288  -227  -180  -180  -223  -261  -254  -207  -146  -80  3  90  132  110  65  24  -23  -91  -169  -232  -269  -288  -306  -334  -379  -426  -409  -277  -66  78  -83  -591  -1002  -768  302  1956  3575  4498  4380  3363  1940  624  -254  -580  -496  -310  -205  -191  -277  -425  -533  -553  -503  -403  -295  -220  -188  -215  -276  -306  -283  -229  -157  -89  -49  -30  -12  12  39  60  71  74  65  44  18  13  50  121  205  287  352  388  406  437  527  691  882  1039  1138  1191  1219  1241  1270  1310  1358  1407  1437  1423  1349  1235  1120  1025  939  841  723  593  464  332  194  59  -73  -223  -378  -486  -511  -479  -440  -420  -417  -432  -477  -547  -611  -637  -625  -599  -577  -553  -521  -495  -499  -530  -560  -573  -574  -570  -556  -530  -508  -505  -519  -513  -452  -357  -294  -286  -304  -315  -313  -308  -310  -315  -308  -280  -243  -214  -196  -187  -189  -204  -222  -233  -235  -234  -232  -225  -214  -211  -224  -243  -258  -270  -283  -295  -298  -294  -290  -292  -294  -290  -286  -292  -304  -313  -309  -306  -337  -409  -476  -469  -365  -236  -168  -163  -186  -210  -221  -218  -212  -213  -215  -198  -138  -31  88  174  211  208  153  28  -135  -261  -316  -333  -359  -397  -425  -447  -482  -525  -558  -544  -449  -372  -494  -813  -1093  -1012  -280  1129  2780  3997  4342  3791  2595  1212  171  -300  -344  -199  -104  -220  -423  -477  -397  -352  -382  -427  -442  -437  -431  -401  -310  -168  -36  32  27  -33  -122  -213  -279  -303  -289  -257  -220  -171  -91  22  154  273  340  346  317  281  250  221  178  121  103  208  456  763  1005  1119  1144  1164  1227  1315  1372  1373  1338  1283  1205  1107  1015  940  867  771  643  504  388  322  303  311  332  345  296  111  -209  -563  -821  -892  -782  -612  -517  -499  -479  -442  -413  -390  -354  -306  -279  -308  -392  -508  -623  -686  -676  -623  -557  -478  -402  -363  -370  -394  -407  -403  -392  -383  -381  -380  -379  -391  -433  -496  -540  -525  -433  -302  -200  -152  -137  -129  -130  -155  -203  -243  -258  -255  -243  -230  -236  -280  -348  -398  -414  -411  -403  -392  -376  -363  -357  -357  -357  -347  -331  -328  -344  -365  -368  -336  -299  -304  -340  -370  -385  -384  -340  -222  -49  100  171  166  120  64  18  -20  -64  -113  -152  -178  -194  -203  -218  -281  -429  -640  -814  -800  -562  -341  -409  -711  -940  -771  38  1456  3016  4077  4238  3545  2353  1106  218  -153  -181  -122  -79  -51  -58  -105  -171  -246  -313  -352  -370  -379  -369  -331  -254  -148  -57  -14  -21  -76  -146  -209  -278  -339  -345  -287  -198  -115  -44  22  69  91  107  145  224  343  468  554  599  631  663  696  735  784  845  911  974  1028  1083  1158  1247  1316  1348  1353  1339  1305  1264  1235  1193  1083  893  674  472  306  170  52  -52  -143  -219  -264  -274  -267  -263  -284  -338  -409  -473  -529  -588  -651  -709  -763  -798  -782  -707  -620  -569  -558  -561  -559  -552  -546  -545  -547  -546  -528  -486  -434  -391  -348  -289  -225  -177  -150  -140  -146  -168  -192  -207  -216  -228  -241  -246  -264  -335  -449  -520  -490  -401  -328  -304  -309  -316  -307  -261  -164  -45  26  -12  -162  -330  -425  -460  -481  -484  -452  -383  -310  -271  -244  -187  -117  -73  -58  -56  -68  -100  -145  -179  -177  -130  -51  30  97  155  212  247  203  46  -160  -314  -380  -398  -404  -410  -424  -453  -498  -509  -463  -505  -721  -946  -953  -522  456  1829  3250  4226  4340  3556  2218  866  -37  -371  -364  -307  -303  -329  -351  -355  -345  -327  -311  -312  -346  -413  -473  -485  -436  -348  -253  -184  -150  -134  -128  -137  -160  -171  -142  -72  1  34  12  -27  -36  -8  40  107  190  265  307  313  303  314  386  532  717  895  1040  1146  1216  1262  1306  1358  1413  1440  1409  1336  1253  1175  1114  1064  1007  938  848  702  470  179  -77  -226  -287  -300  -292  -288  -316  -388  -495  -596  -653  -661  -639  -602  -557  -512  -479  -468  -491  -556  -642  -707  -728  -713  -663  -579  -490  -455  -490  -556  -604  -610  -573  -508  -411  -275  -134  -48  -25  -34  -44  -47  -43  -45  -99  -246  -440  -558  -548  -475  -421  -401  -388  -376  -388  -430  -471  -490  -493  -483  -451  -393  -329  -278  -240  -214  -212  -242  -305  -395  -483  -519  -484  -415  -364  -348  -344  -327  -296  -281  -301  -332  -350  -356  -363  -369  -360  -332  -296  -263  -224  -171  -116  -65  -4  51  77  75  56  26  -15  -64  -101  -114  -112  -112  -125  -142  -152  -155  -154  -145  -122  -105  -156  -336  -633  -895  -785  20  1449  3021  4198  4624  4178  3018  1542  215  -626  -887  -708  -382  -222  -314  -444  -451  -390  -352  -362  -377  -338  -268  -222  -214  -221  -226  -227  -227  -232  -243  -253  -257  -251  -241  -237  -245  -259  -260  -219  -107  63  242  378  447  461  450  438  442  478  557  678  813  916  959  958  939  926  955  1064  1239  1398  1464  1429  1363  1323  1306  1260  1138  951  758  590  451  325  183  11  -158  -280  -337  -354  -367  -401  -449  -484  -498  -507  -525  -554  -584  -595  -578  -548  -530  -525  -525  -530  -549  -585  -636  -682  -694  -650  -563  -473  -422  -420  -449  -475  -461  -403  -328  -248  -158  -73  -20  -28  -124  -294  -460  -544  -534  -467  -397  -344  -303  -280  -281  -322  -416  -504  -526  -495  -455  -422  -396  -381  -375  -358  -326  -297  -282  -277  -276  -286  -318  -366  -415  -453  -470  -462  -444  -453  -500  -555  -587  -596  -594  -585  -557  -505  -450  -404  -354  -303  -263  -238  -229  -206  -133  -44  8  29  41  56  80  106  126  147  162  138  38  -130  -311  -447  -509  -497  -433  -370  -362  -416  -498  -552  -521  -437  -407  -464  -470  -149  726  2080  3471  4336  4303  3375  1916  512  -341  -550  -356  -96  -19  -143  -316  -414  -432  -408  -369  -327  -288  -260  -245  -235  -208  -149  -72  -12  9  -4  -47  -128  -256  -370  -346  -146  118  298  312  208  103  47  21  1  -7  26  123  255  374  467  570  703  835  940  1030  1125  1220  1296  1343  1366  1371  1365  1341  1293  1218  1126  1044  994  961  897  783  632  463  296  155  68  29  1  -62  -191  -366  -517  -587  -583  -546  -517  -512  -528  -566  -624  -656  -626  -570  -528  -493  -452  -422  -435  -506  -596  -647  -633  -561  -461  -371  -303  -256  -219  -177  -137  -118  -115  -117  -120  -124  -126  -131  -151  -195  -241  -257  -255  -270  -296  -313  -327  -350  -391  -446  -501  -538  -544  -521  -474  -412  -357  -337  -366  -433  -495  -515  -495  -463  -440  -424  -405  -384  -369  -362  -358  -357  -355  -337  -298  -260  -250  -261  -268  -269  -271  -273  -270  -268  -284  -335  -419  -522  -601  -604  -529  -421  -306  -190  -86  -7  38  46  26  -16  -76  -130  -153  -152  -142  -132  -135  -154  -204  -309  -439  -526  -539  -507  -473  -450  -439  -460  -567  -815  -1096  -1110  -631  379  1811  3326  4365  4520  3825  2580  1157  3  -576  -659  -500  -300  -213  -301  -438  -473  -388  -262  -173  -139  -132  -126  -112  -96  -90  -100  -128  -165  -204  -255  -314  -359  -370  -345  -286  -193  -60  67  112  60  -60  -232  -393  -454  -332  23  490  824  929  905  869  864  889  926  965  1012  1077  1161  1258  1348  1402  1417  1406  1376  1331  1261  1154  1032  942  876  776  614  415  213  38  -75  -123  -139  -169  -242  -351  -457  -526  -546  -528  -495  -465  -445  -438  -439  -435  -428  -422  -417  -410  -401  -393  -395  -418  -456  -476  -453  -415  -401  -399  -369  -303  -216  -128  -60  -39  -80  -162  -244  -298  -313  -292  -258  -234  -224  -222  -223  -225  -227  -227  -225  -223  -230  -254  -291  -322  -326  -303  -273  -247  -220  -198  -188  -190  -194  -200  -221  -267  -318  -361  -406  -454  -493  -516  -525  -526  -506  -453  -388  -323  -248  -192  -189  -229  -272  -300  -315  -311  -264  -160  -74  -115  -273  -415  -434  -327  -168  -46  14  61  119  134  50  -104  -247  -327  -348  -345  -339  -321  -283  -237  -218  -237  -273  -301  -338  -451  -686  -944  -981  -583  292  1543  2896  3908  4201  3681  2552  1256  249  -283  -448  -421  -328  -242  -197  -195  -211  -226  -237  -246  -250  -253  -250  -229  -194  -185  -244  -330  -347  -277  -190  -128  -72  -12  32  48  44  53  109  213  319  379  373  304  204  134  140  222  340  441  512  573  655  779  927  1042  1094  1123  1179  1259  1324  1354  1362  1362  1361  1367  1368  1317  1169  962  784  653  541  422  265  78  -70  -153  -207  -264  -338  -424  -505  -568  -609  -619  -607  -595  -591  -592  -592  -592  -598  -613  -634  -658  -667  -625  -510  -365  -262  -232  -259  -308  -338  -334  -328  -339  -357  -383  -405  -413  -415  -421  -421  -394  -331  -278  -288  -344  -397  -424  -421  -399  -382  -380  -383  -380  -366  -343  -315  -278  -235  -205  -200  -218  -249  -281  -303  -312  -312  -315  -337  -385  -446  -493  -511  -497  -443  -355  -273  -234  -240  -270  -300  -322  -331  -327  -315  -302  -293  -288  -279  -269  -265  -266  -256  -210  -129  -48  -7  -9  -26  -34  -50  -99  -180  -264  -333  -387  -420  -428  -423  -440  -499  -562  -589  -618  -711  -826  -737  -168  962  2426  3723  4338  4029  2939  1552  418  -217  -423  -370  -262  -264  -344  -379  -369  -386  -423  -437  -416  -378  -357  -362  -351  -306  -264  -262  -296  -332  -339  -309  -260  -201  -142  -103  -82  -58  -25  0  5  -2  0  43  135  251  349  404  421  438  484  554  613  648  691  786  926  1064  1174  1258  1308  1332  1361  1409  1463  1489  1447  1302  1084  873  716  593  478  374  269  135  -10  -117  -176  -221  -279  -346  -396  -420  -432  -440  -447  -465  -511  -584  -654  -682  -659  -625  -616  -621  -612  -587  -557  -529  -495  -460  -438  -435  -434  -419  -384  -335  -297  -284  -296  -321  -344  -360  -367  -358  -331  -307  -308  -333  -368  -393  -406  -414  -419  -425  -436  -463  -498  -511  -476  -424  -402  -403  -375  -307  -269  -315  -388  -410  -392  -384  -403  -428  -440  -439  -434  -435  -440  -436  -404  -327  -224  -138  -86  -58  -27  28  95  136  137  102  47  -9  -56  -90  -114  -129  -146  -184  -249  -320  -372  -388  -378  -363  -359  -367  -379  -398  -466  -623  -833  -985  -847  -111  1296  2955  4192  4529  3860  2449  906  -172  -602  -564  -351  -194  -184  -270  -343  -379  -421  -477  -524  -546  -532  -462  -332  -184  -88  -80  -135  -200  -255  -315  -366  -371  -310  -201  -88  -6  13  -36  -109  -157  -190  -216  -203  -106  64  247  385  468  526  597  671  727  794  925  1100  1233  1287  1292  1285  1280  1290  1323  1367  1384  1332  1206  1047  905  790  675  545  405  254  102  -19  -103  -194  -308  -413  -477  -500  -500  -496  -503  -532  -575  -605  -596  -540  -461  -405  -392  -407  -429  -448  -467  -488  -513  -547  -570  -562  -522  -470  -428  -396  -365  -336  -321  -315  -307  -294  -278  -272  -291  -324  -347  -356  -356  -347  -335  -327  -326  -336  -356  -385  -414  -430  -424  -407  -398  -402  -411  -408  -384  -335  -287  -261  -248  -230  -215  -216  -231  -240  -229  -203  -177  -162  -158  -161  -164  -157  -126  -63  10  59  72  73  103  171  226  179  22  -154  -267  -314  -330  -324  -290  -255  -259  -281  -236  -145  -203  -506  -873  -974  -513  587  2105  3550  4336  4202  3326  2056  817  3  -302  -283  -134  -17  -33  -169  -331  -426  -421  -341  -240  -174  -161  -190  -254  -341  -417  -452  -432  -358  -251  -146  -50  25  46  18  -30  -79  -99  -71  -5  71  132  159  157  147  165  250  406  569  679  742  776  791  799  813  843  894  963  1045  1132  1218  1292  1346  1375  1387  1384  1349  1255  1102  917  722  525  340  183  26  -151  -312  -424  -508  -588  -648  -681  -702  -717  -709  -666  -597  -530  -494  -495  -526  -572  -615  -645  -667  -683  -689  -675  -629  -566  -519  -502  -503  -507  -503  -486  -462  -460  -493  -533  -551  -546  -535  -536  -547  -535  -490  -439  -406  -383  -342  -256  -145  -78  -108  -226  -363  -435  -413  -348  -314  -348  -434  -514  -562  -592  -604  -556  -406  -199  -48  -17  -85  -198  -302  -362  -361  -299  -194  -84  -9  13  -9  -70  -149  -210  -248  -292  -361  -435  -484  -505  -518  -528  -527  -510  -492  -509  -578  -686  -828  -921  -717  -5  1152  2508  3701  4259  3903  2800  1408  196  -519  -656  -413  -129  -25  -117  -294  -430  -480  -476  -451  -408  -353  -309  -304  -348  -421  -477  -482  -429  -320  -190  -97  -71  -89  -124  -158  -180  -187  -186  -182  -157  -85  37  174  278  329  340  326  287  233  195  220  353  604  910  1158  1296  1374  1443  1497  1503  1446  1335  1223  1163  1154  1152  1112  1017  882  748  649  550  379  119  -160  -390  -544  -633  -678  -689  -666  -622  -576  -534  -499  -458  -397  -330  -299  -352  -491  -657  -778  -836  -842  -801  -722  -637  -579  -544  -510  -464  -414  -365  -324  -311  -345  -418  -517  -619  -685  -702  -686  -659  -622  -543  -391  -224  -128  -108  -109  -111  -157  -271  -399  -475  -488  -464  -426  -384  -337  -287  -236  -185  -122  -29  77  149  145  63  -50  -131  -147  -114  -64  -28  -32  -86  -178  -263  -300  -282  -227  -156  -90  -64  -123  -281  -485  -678  -862  -1042  -1162  -1113  -746  60  1243  2465  3318  3610  3332  2551  1489  484  -276  -781  -979  -871  -688  -606  -549  -446  -338  -257  -209  -190  -185  -190  -217  -283  -370  -434  -456  -445  -414  -378  -350  -327  -295  -242  -164  -63  44  130  172  180  179  189  204  196  162  137  156  240  389  581  762  880  935  963  1001  1066  1149  1217  1258  1280  1294  1310  1331  1343  1325  1257  1149  1036  927  785  585  328  38  -205  -339  -377  -374  -366  -364  -373  -395  -422  -446  -488  -579  -699  -788  -818  -808  -783  -755  -732  -710  -684  -658  -637  -631  -644  -655  -639  -597  -545  -503  -480  -467  -439  -373  -282  -214  -189  -191  -196  -197  -194  -196  -211  -237  -262  -279  -294  -314  -341  -371  -392  -398  -396  -392  -393  -407  -432  -447  -435  -411  -390  -367  -341  -325  -333  -363  -384  -341  -192  24  200  264  249  198  91  -94  -309  -457  -487  -439  -378  -334  -299  -259  -231  -228  -262  -373  -546  -705  -848  -946  -775  -81  1155  2650  3922  4480  4056  2790  1256  96  -439  -469  -264  -137  -182  -277  -349  -398  -405  -372  -326  -287  -270  -278  -295  -308  -317  -326  -330  -317  -289  -266  -258  -258  -254  -240  -222  -204  -184  -170  -162  -145  -99  -18  90  196  260  271  261  282  371  506  623  687  715  730  748  781  833  895  962  1048  1155  1228  1229  1186  1138  1085  995  827  590  356  194  111  70  32  -29  -142  -315  -492  -594  -604  -571  -541  -525  -521  -525  -535  -541  -537  -524  -508  -500  -524  -579  -628  -648  -651  -651  -644  -606  -534  -453  -399  -402  -464  -536  -572  -576  -571  -570  -567  -553  -520  -468  -407  -361  -333  -306  -268  -221  -181  -169  -185  -200  -199  -195  -205  -233  -263  -279  -277  -262  -244  -235  -234  -236  -238  -236  -231  -224  -218  -210  -196  -175  -152  -135  -129  -143  -183  -233  -256  -235  -192  -154  -127  -109  -105  -117  -139  -163  -186  -201  -203  -199  -208  -228  -249  -276  -315  -358  -374  -316  -206  -192  -371  -657  -895  -853  -206  1125  2778  4158  4733  4255  2933  1404  312  -118  -62  165  295  215  1  -201  -322  -379  -411  -431  -435  -417  -382  -342  -301  -253  -205  -161  -112  -82  -112  -198  -294  -359  -381  -365  -307  -205  -76  37  98  106  88  77  93  130  165  179  175  175  221  357  580  804  934  964  958  979  1052  1164  1275  1344  1366  1358  1331  1274  1177  1051  923  806  692  574  458  356  258  133  -37  -241  -436  -566  -618  -626  -626  -623  -604  -558  -496  -438  -388  -342  -307  -290  -285  -287  -294  -304  -309  -314  -334  -383  -454  -507  -506  -468  -425  -388  -371  -374  -365  -335  -317  -321  -329  -327  -314  -303  -307  -326  -345  -348  -336  -322  -308  -296  -285  -272  -256  -246  -248  -270  -313  -364  -405  -439  -481  -529  -554  -533  -451  -333  -237  -193  -181  -167  -144  -133  -143  -162  -177  -193  -209  -219  -222  -220  -206  -163  -97  -32  17  56  85  91  67  11  -64  -138  -196  -239  -267  -284  -292  -294  -298  -318  -365  -453  -528  -560  -693  -940  -936  -316  977  2674  4148  4729  4225  2945  1410  192  -365  -354  -120  15  -54  -212  -315  -352  -351  -318  -272  -235  -210  -187  -164  -167  -211  -266  -302  -316  -322  -330  -339  -340  -319  -266  -204  -166  -156  -128  -40  84  176  208  217  241  272  281  264  241  249  331  509  750  967  1084  1107  1108  1142  1205  1269  1315  1343  1355  1358  1354  1338  1282  1163  1000  864  789  737  656  545  407  213  -18  -202  -294  -315  -291  -252  -227  -231  -278  -376  -520  -666  -760  -789  -784  -766  -737  -698  -650  -579  -483  -393  -347  -363  -421  -480  -525  -563  -589  -584  -530  -435  -349  -300  -271  -247  -236  -236  -237  -234  -231  -244  -289  -360  -441  -516  -546  -489  -360  -218  -114  -55  -33  -61  -147  -251  -322  -347  -344  -316  -254  -180  -164  -248  -386  -480  -488  -447  -413  -404  -408  -408  -406  -410  -422  -438  -452  -460  -464  -468  -471  -458  -409  -325  -238  -182  -169  -189  -217  -223  -191  -136  -88  -56  -49  -110  -286  -519  -656  -609  -448  -321  -311  -397  -538  -694  -793  -778  -682  -636  -733  -807  -498  413  1840  3411  4543  4701  3795  2288  851  -96  -498  -526  -453  -438  -456  -454  -427  -391  -360  -343  -335  -318  -292  -286  -320  -363  -376  -355  -316  -273  -226  -160  -78  -27  -57  -174  -295  -300  -178  -31  58  77  57  34  22  21  43  107  198  280  346  417  504  587  661  752  865  959  1020  1081  1177  1290  1361  1366  1336  1306  1256  1150  1001  857  734  627  531  412  254  100  -7  -78  -129  -168  -223  -336  -518  -706  -813  -824  -794  -760  -707  -620  -522  -455  -431  -430  -431  -440  -475  -532  -557  -513  -444  -405  -396  -397  -403  -423  -455  -467  -420  -316  -197  -107  -78  -123  -239  -374  -461  -479  -462  -449  -443  -418  -345  -238  -147  -105  -96  -92  -98  -158  -294  -459  -573  -615  -622  -618  -572  -444  -269  -139  -104  -146  -228  -312  -362  -362  -320  -257  -196  -146  -103  -59  -28  -32  -55  -56  -29  1  -8  -85  -223  -389  -524  -575  -534  -449  -371  -309  -235  -173  -241  -520  -867  -962  -486  709  2389  3922  4649  4291  3087  1573  320  -318  -373  -128  91  81  -118  -341  -512  -613  -611  -504  -355  -248  -214  -226  -253  -273  -255  -177  -65  23  69  91  102  100  88  69  55  53  65  88  103  102  96  109  158  234  305  342  343  337  371  480  642  782  844  853  887  1002  1172  1326  1427  1481  1482  1403  1241  1065  948  898  868  835  804  761  656  446  170  -74  -230  -332  -427  -506  -547  -556  -551  -545  -539  -538  -542  -536  -513  -495  -522  -604  -702  -773  -803  -809  -811  -801  -752  -650  -532  -449  -408  -382  -356  -338  -329  -321  -327  -369  -431  -474  -488  -487  -483  -474  -453  -422  -399  -391  -391  -390  -391  -404  -428  -441  -420  -371  -324  -297  -281  -258  -225  -199  -199  -225  -261  -285  -282  -253  -211  -177  -164  -177  -227  -309  -391  -431  -426  -415  -428  -449  -448  -412  -383  -471  -736  -1066  -1200  -852  116  1559  3034  3995  4137  3481  2267  944  -22  -506  -624  -479  -237  -137  -230  -362  -433  -474  -533  -617  -677  -672  -626  -582  -544  -497  -448  -400  -343  -290  -267  -282  -325  -369  -385  -363  -305  -237  -171  -90  1  66  89  93  99  111  137  205  322  448  543  611  680  750  832  952  1085  1173  1204  1209  1213  1223  1238  1248  1232  1165  1054  918  752  572  436  357  272  140  -18  -170  -300  -401  -470  -511  -532  -544  -570  -627  -703  -758  -771  -749  -712  -680  -665  -662  -664  -665  -666  -667  -671  -679  -688  -684  -650  -577  -481  -391  -338  -340  -391  -461  -515  -541  -550  -550  -543  -539  -550  -578  -604  -594  -536  -458  -387  -327  -281  -258  -261  -277  -285  -266  -213  -130  -34  72  205  347  433  408  273  73  -120  -261  -346  -395  -430  -453  -459  -447  -413  -356  -295  -298  -409  -583  -752  -833  -623  121  1389  2780  3736  3876  3165  1928  684  -162  -552  -614  -416  -108  19  -94  -266  -373  -415  -430  -450  -493  -558  -605  -579  -453  -280  -154  -111  -118  -142  -172  -191  -180  -150  -118  -77  -25  20  46  57  74  118  174  212  226  252  329  472  645  776  834  844  842  854  889  943  1014  1112  1248  1393  1499  1544  1528  1459  1355  1216  1006  719  444  270  203  189  182  165  148  131  81  -42  -217  -370  -471  -521  -531  -527  -545  -599  -663  -703  -698  -649  -590  -541  -484  -435  -434  -480  -534  -542  -488  -432  -418  -413  -387  -343  -286  -241  -224  -225  -225  -220  -213  -205  -201  -216  -274  -371  -478  -569  -612  -582  -506  -430  -374  -341  -318  -286  -247  -194  -110  -17  37  49  48  63  89  88  36  -35  -99  -165  -234  -280  -300  -332  -416  -537  -632  -649  -578  -441  -277  -198  -346  -672  -918  -783  -36  1286  2815  4005  4365  3770  2512  1090  -24  -575  -592  -350  -163  -139  -218  -332  -415  -432  -402  -351  -293  -237  -181  -135  -104  -87  -82  -88  -109  -142  -171  -186  -193  -197  -188  -139  -41  67  141  169  172  166  156  147  144  156  189  247  333  460  610  733  797  825  862  937  1029  1093  1114  1113  1113  1120  1129  1137  1149  1167  1163  1064  801  408  44  -148  -182  -158  -156  -205  -278  -327  -337  -330  -349  -433  -587  -750  -843  -837  -751  -611  -458  -349  -317  -373  -517  -697  -825  -869  -871  -867  -856  -812  -726  -623  -520  -399  -251  -122  -63  -75  -125  -189  -272  -374  -449  -448  -372  -254  -152  -133  -195  -272  -329  -375  -423  -471  -515  -557  -590  -591  -543  -455  -359  -299  -301  -360  -441  -500  -524  -529  -516  -442  -275  -82  34  73  101  133  141  79  -74  -290  -495  -620  -620  -527  -441  -420  -457  -515  -570  -627  -721  -864  -1000  -996  -618  330  1767  3269  4303  4504  3806  2518  1212  329  -41  -73  -29  -103  -268  -357  -339  -322  -360  -415  -442  -439  -424  -404  -358  -273  -185  -128  -113  -126  -145  -159  -173  -189  -189  -141  -38  79  158  185  174  137  90  55  32  10  -7  12  121  322  538  678  725  727  732  754  798  876  993  1129  1240  1300  1312  1301  1290  1276  1237  1151  1018  870  752  673  584  423  190  -53  -250  -382  -457  -498  -523  -545  -576  -606  -612  -587  -547  -518  -509  -511  -510  -499  -481  -466  -457  -455  -465  -501  -558  -614  -644  -643  -610  -538  -429  -316  -237  -203  -208  -241  -292  -345  -382  -394  -373  -316  -238  -181  -169  -206  -286  -398  -505  -553  -521  -457  -406  -371  -344  -326  -310  -269  -192  -126  -119  -158  -215  -275  -326  -363  -381  -382  -375  -359  -329  -299  -312  -400  -524  -594  -566  -482  -402  -337  -260  -163  -76  -46  -73  -99  -79  -36  -11  -9  -14  -10  7  31  36  2  -64  -136  -199  -263  -340  -423  -482  -483  -400  -266  -207  -315  -577  -926  -1199  -1126  -412  1013  2766  4229  4878  4493  3316  1896  754  156  30  102  114  -11  -167  -267  -332  -385  -412  -409  -396  -385  -374  -349  -312  -298  -330  -378  -402  -388  -348  -303  -267  -234  -215  -218  -240  -275  -303  -284  -189  -41  89  161  193  211  216  210  207  226  293  414  543  617  631  644  721  878  1075  1246  1352  1392  1395  1385  1359  1308  1223  1099  961  858  797  718  566  368  208  120  84  66  16  -118  -313  -477  -560  -581  -575  -567  -567  -578  -605  -647  -687  -700  -661  -562  -436  -355  -351  -398  -452  -479  -483  -504  -552  -570  -507  -397  -336  -369  -449  -520  -553  -532  -471  -407  -347  -289  -252  -251  -280  -323  -358  -376  -385  -400  -425  -452  -471  -480  -485  -492  -498  -501  -500  -499  -499  -499  -495  -479  -456  -435  -420  -417  -425  -429  -417  -394  -389  -410  -420  -371  -268  -169  -138  -191  -273  -322  -321  -279  -228  -201  -197  -200  -209  -231  -269  -312  -340  -320  -234  -108  0  56  65  49  26  6  -21  -75  -170  -313  -476  -588  -609  -558  -474  -395  -324  -249  -261  -500  -850  -920  -401  780  2408  3897  4597  4261  3117  1643  365  -341  -504  -433  -337  -255  -210  -231  -283  -299  -266  -219  -175  -126  -78  -51  -50  -73  -104  -129  -145  -152  -160  -185  -225  -239  -198  -139  -106  -101  -111  -126  -133  -90  35  207  331  368  355  331  311  314  375  508  675  820  913  957  988  1055  1165  1283  1386  1474  1539  1570  1579  1578  1564  1517  1400  1175  859  558  364  260  170  51  -68  -144  -196  -283  -406  -502  -534  -529  -518  -505  -480  -446  -429  -456  -513  -580  -661  -743  -777  -718  -580  -433  -345  -322  -333  -364  -419  -481  -508  -478  -420  -385  -389  -410  -423  -420  -400  -367  -321  -258  -174  -83  -18  -4  -36  -76  -99  -111  -137  -211  -341  -476  -531  -475  -356  -252  -198  -183  -183  -184  -187  -196  -209  -206  -169  -118  -118  -186  -261  -298  -310  -320  -326  -325  -323  -326  -321  -287  -230  -194  -198  -218  -239  -254  -257  -253  -252  -254  -255  -245  -211  -142  -49  30  72  80  50  -12  -83  -134  -157  -159  -155  -161  -189  -235  -289  -366  -461  -504  -452  -415  -519  -706  -687  -91  1188  2777  4005  4337  3657  2279  792  -266  -734  -768  -593  -390  -245  -174  -166  -175  -169  -163  -176  -207  -231  -233  -227  -227  -242  -274  -318  -353  -370  -367  -327  -240  -133  -55  -23  -20  -26  -32  -31  -14  22  65  89  93  100  155  285  449  565  603  592  567  556  609  767  988  1162  1247  1294  1341  1374  1361  1268  1099  926  823  793  770  691  543  363  183  19  -102  -169  -196  -197  -183  -193  -277  -439  -612  -723  -764  -775  -786  -791  -783  -762  -726  -670  -603  -545  -511  -501  -504  -520  -554  -599  -638  -664  -678  -679  -653  -593  -525  -486  -487  -502  -504  -498  -495  -475  -432  -383  -333  -294  -280  -285  -295  -303  -306  -303  -296  -291  -312  -379  -479  -561  -598  -602  -595  -591  -593  -595  -591  -574  -546  -527  -526  -530  -527  -513  -496  -485  -479  -476  -478  -493  -523  -544  -519  -453  -391  -368  -378  -404  -428  -444  -448  -427  -365  -278  -209  -178  -170  -165  -157  -149  -143  -133  -129  -172  -294  -461  -587  -638  -646  -643  -638  -627  -619  -643  -751  -907  -900  -447  611  2136  3610  4438  4290  3235  1772  519  -217  -452  -375  -272  -327  -488  -594  -595  -555  -527  -519  -512  -479  -407  -310  -218  -162  -173  -233  -289  -313  -315  -307  -279  -220  -128  -28  43  82  103  107  92  83  93  111  133  164  241  372  491  543  544  535  532  546  586  646  726  834  959  1065  1143  1215  1293  1351  1328  1216  1072  939  822  710]
