reading_id,reading_time,wire_id,result_classification,heart_rate,heart_rate_alert,firmware_version,device_app_version,hardware_version,waveform_samples
ca774d60-649e-11ed-8080-808080808080,Tue Nov 15 04:34:28 UTC 2022,8100e3ea1a39,UNCLASSIFIABLE,82,NONE,20001.171.50,2.10.0,Charge 5,[15358  15506  15968  16804  17790  18639  19180  19395  19392  19333  19309  19196  18685  17614  16038  14075  12090  10429  8908  7231  5296  2837  -268  -3587  -6633  -9319  -11624  -13487  -15134  -16836  -18400  -19480  -20225  -21048  -21918  -22406  -22329  -21964  -21686  -21595  -21492  -21084  -20238  -19102  -17885  -16650  -15393  -14098  -12818  -11737  -10918  -10174  -9382  -8658  -8085  -7527  -6813  -5892  -4842  -3879  -3230  -2947  -2933  -3091  -3351  -3615  -3804  -3910  -3967  -3995  -4019  -4129  -4421  -4852  -5221  -5392  -5417  -5426  -5490  -5611  -5800  -6099  -6463  -6744  -6863  -6853  -6712  -6398  -5999  -5716  -5665  -5827  -6111  -6390  -6556  -6570  -6469  -6306  -6100  -5888  -5742  -5682  -5647  -5569  -5410  -5181  -4953  -4798  -4721  -4687  -4670  -4644  -4558  -4381  -4151  -3941  -3785  -3678  -3619  -3599  -3596  -3596  -3595  -3595  -3600  -3611  -3617  -3579  -3460  -3288  -3137  -3039  -2975  -2879  -2594  -1996  -1258  -739  -566  -574  -605  -637  -696  -755  -740  -628  -479  -356  -296  -323  -442  -623  -802  -924  -962  -883  -645  -306  -18  133  191  243  345  510  734  1001  1248  1404  1485  1628  1958  2409  2784  2967  2989  2920  2778  2549  2264  2013  1875  1847  1869  1891  1872  1818  1810  1857  1774  1415  850  311  128  525  1469  2642  3522  3721  3256  2422  1572  986  767  789  857  894  873  773  655  592  562  503  412  343  350  444  584  699  756  780  808  851  902  967  1063  1220  1480  1846  2244  2581  2806  2931  2994  3027  3054  3102  3165  3211  3227  3233  3251  3280  3296  3281  3252  3233  3241  3293  3393  3518  3623  3670  3664  3634  3605  3585  3576  3582  3598  3593  3513  3330  3092  2887  2753  2660  2551  2420  2313  2250  2194  2114  2029  1977  1961  1924  1792  1540  1244  1023  922  911  979  1148  1376  1536  1521  1315  1030  824  761  779  810  832  850  867  884  905  938  974  999  1007  1005  993  958  881  775  681  617  582  578  596  618  631  629  630  656  694  706  667  579  462  352  289  284  312  338  346  342  343  359  402  500  674  899  1108  1252  1327  1352  1351  1327  1261  1147  1015  905  815  719  612  512  456  501  634  697  511  59  -469  -710  -320  719  2032  3076  3509  3321  2685  1879  1192  670  255  55  126  316  456  473  382  216  27  -141  -307  -507  -764  -1109  -1556  -2081  -2632  -3086  -3335  -3403  -3400  -3406  -3431  -3440  -3408  -3363  -3334  -3301  -3216  -3044  -2805  -2541  -2217  -1734  -1096  -467  -25  218  406  652  938  1203  1427  1605  1720  1785  1843  1937  2087  2276  2474  2675  2883  3074  3211  3295  3351  3385  3405  3433  3457  3380  3076  2570  2078  1772  1632  1565  1527  1466  1297  987  574  143  -178  -293  -213  -32  149  282  353  350  237  9  -244  -408  -456  -455  -493  -666  -1038  -1534  -1998  -2371  -2703  -3054  -3443  -3826  -4143  -4356  -4428  -4363  -4310  -4544  -5167  -5982  -6779  -7490  -8109  -8684  -9339  -10194  -11265  -12398  -13290  -13672  -13453  -12708  -11698  -10792  -10177  -9724  -9200  -8454  -7455  -6339  -5353  -4587  -3930  -3339  -2886  -2560  -2250  -1913  -1582  -1237  -816  -316  211  679  1014  1240  1430  1595  1689  1704  1704  1823  2160  2594  2810  2643  2283  2064  2115  2294  2420  2456  2459  2465  2470  2528  2801  3378  4069  4560  4718  4554  4080  3434  2881  2563  2418  2341  2277  2207  2124  2055  2022  2011  1984  1926  1861  1821  1824  1857  1881  1861  1800  1700  1559  1414  1317  1290  1340  1475  1653  1784  1836  1842  1829  1778  1684  1608  1594  1598  1573  1510  1420  1360  1381  1474  1615  1771  1883  1936  1974  2019  2055  2071  2086  2117  2177  2273  2373  2395  2293  2132  2007  1931  1880  1834  1741  1538  1278  1088  990  888  734  577  474  438  442  435  382  294  216  173  154  142  136  152  199  263  304  263  104  -119  -291  -343  -264  -67  166  306  276  107  -102  -263  -336  -327  -283  -260  -271  -304  -351  -395  -412  -390  -350  -346  -415  -511  -560  -527  -415  -261  -125  -34  20  46  52  50  39  14  -14  -29  -24  -13  -6  -4  -1  2  -1  -31  -93  -160  -206  -237  -270  -303  -326  -338  -347  -357  -353  -305  -217  -195  -370  -732  -1105  -1244  -912  -72  956  1743  1996  1575  565  -705  -1812  -2451  -2584  -2322  -1849  -1440  -1273  -1296  -1339  -1312  -1228  -1111  -972  -848  -757  -694  -671  -741  -954  -1243  -1454  -1528  -1528  -1512  -1493  -1469  -1452  -1454  -1473  -1484  -1441  -1307  -1127  -993  -934  -899  -849  -765  -625  -427  -228  -96  -52  -45  21  242  607  963  1170  1231  1241  1278  1360  1466  1570  1657  1711  1728  1728  1723  1717  1707  1688  1639  1516  1306  1070  887  780  709  617  492  371  295  280  308  339  346  330  306  283  263  244  230  221  216  211  205  181  123  52  31  101  225  323  360  356  338  311  269  222  185  145  74  -14  -75  -92  -94  -123  -192  -272  -319  -319  -305  -314  -359  -434  -516  -579  -605  -595  -555  -470  -317  -129  -23  -101  -328  -556  -663  -613  -426  -186  -7  74  97  85  42  -28  -118  -220  -334  -462  -605  -778  -954  -1050  -999  -839  -702  -637  -604  -660  -798  -752  -291  628  1878  2975  3309  2708  1511  217  -732  -1101  -1017  -823  -724  -704  -698  -661  -539  -320  -77  79  97  -4  -167  -309  -379  -388  -378  -369  -366  -367  -370  -380  -388  -375  -316  -219  -131  -87  -77  -68  -38  8  52  77  89  106  138  181  232  295  370  453  546  637  698  737  801  922  1071  1172  1171  1071  929  820  756  689  608  545  523  527  527  489  402  290  167  13  -169  -319  -407  -452  -474  -488  -516  -567  -625  -661  -670  -676  -682  -666  -613  -556  -536  -539  -522  -489  -460  -428  -360  -237  -117  -113  -256  -474  -673  -783  -774  -658  -495  -370  -320  -318  -329  -338  -345  -349  -354  -358  -358  -354  -355  -386  -461  -535  -549  -505  -446  -395  -367  -350  -321  -296  -289  -282  -276  -282  -311  -369  -437  -481  -494  -497  -514  -533  -511  -436  -359  -320  -304  -277  -222  -154  -109  -109  -142  -180  -197  -175  -87  58  188  245  244  219  179  124  62  0  -64  -133  -198  -240  -275  -348  -461  -538  -453  -154  168  220  -25  -319  -409  -164  466  1416  2417  3039  2972  2233  1083  -25  -643  -691  -481  -312  -245  -236  -265  -304  -331  -325  -271  -194  -121  -72  -84  -158  -227  -252  -250  -244  -241  -231  -212  -193  -180  -162  -117  -33  74  172  256  335  398  432  442  436  407  342  259  211  228  300  417  564  708  832  924  960  951  925  893  857  828  816  835  900  1004  1115  1209  1273  1297  1257  1126  948  796  678  558  425  291  177  118  151  271  394  397  259  68  -86  -165  -179  -166  -154  -144  -124  -77  -9  47  77  99  136  191  238  246  211  144  40  -83  -180  -222  -216  -172  -100  -38  -23  -29  24  175  372  527  605  616  532  321  49  -147  -221  -217  -163  -54  66  120  87  31  18  77  199  330  419  452  433  348  192  13  -113  -160  -162  -154  -130  -52  80  188  225  246  302  352  351  312  272  256  257  241  176  72  -17  -57  -51  -22  -9  -90  -325  -644  -880  -960  -943  -914  -906  -912  -910  -894  -879  -889  -941  -1036  -1141  -1206  -1224  -1222  -1232  -1273  -1362  -1492  -1642  -1798  -1967  -2131  -2246  -2315  -2416  -2575  -2663  -2578  -2409  -2270  -2146  -1866  -1219  -235  806  1575  1787  1382  589  -282  -1003  -1443  -1530  -1314  -986  -699  -491  -397  -414  -480  -555  -609  -579  -446  -275  -154  -106  -94  -70  4  128  245  306  319  314  314  346  433  558  676  768  836  875  884  877  868  882  941  1037  1123  1167  1194  1252  1363  1493  1585  1628  1650  1680  1730  1812  1905  1968  1988  1992  1980  1939  1865  1752  1624  1524  1470  1432  1364  1239  1077  919  782  625  391  115  -103  -230  -317  -399  -470  -542  -638  -742  -814  -837  -815  -755  -670  -584  -525  -521  -586  -686  -760  -768  -706  -579  -421  -296  -234  -213  -202  -196  -202  -223  -258  -310  -365  -400  -412  -413  -410  -392  -346  -285  -237  -218  -216  -225  -250  -285  -306  -295  -276  -263  -233  -156  -57  1  1  -17  -7  44  111  165  196  194  163  121  86  75  95  130  156  138  64  -24  -94  -148  -207  -269  -315  -357  -422  -522  -645  -780  -927  -1090  -1277  -1526  -1865  -2236  -2508  -2597  -2536  -2414  -2297  -2198  -2095  -1981  -1880  -1798  -1714  -1620  -1538  -1487  -1458  -1447  -1451  -1450  -1414  -1320  -1170  -996  -827  -673  -553  -500  -508  -528  -530  -520  -520  -531  -536  -514  -452  -344  -200  -77  -18  -54  -246  -487  -436  97  1070  2323  3415  3867  3624  2856  1812  917  415  219  180  197  285  473  635  670  647  650  693  749  794  831  850  843  828  824  823  800  746  695  694  719  715  685  665  663  662  648  623  619  655  681  663  657  703  753  749  701  685  773  955  1155  1300  1363  1369  1358  1350  1344  1333  1305  1258  1229  1245  1283  1305  1310  1327  1384  1473  1540  1508  1321  1017  731  550  453  380  300  218  148  88  23  -56  -171  -324  -473  -560  -571  -534  -482  -439  -414  -407  -418  -447  -477  -482  -463  -443  -435  -426  -397  -347  -292  -251  -230  -225  -227  -232  -239  -243  -237  -240  -275  -322  -354  -368  -373  -371  -351  -272  -112  67  151  84  -66  -187  -229  -204  -130  -36  28  32  -28  -130  -234  -312  -345  -317  -238  -177  -217  -337  -432  -437  -369  -280  -212  -164  -123  -109  -146  -205  -243  -245  -220  -183  -150  -128  -123  -146  -207  -288  -347  -362  -326  -246  -157  -118  -163  -271  -378  -433  -429  -380  -316  -267  -235  -203  -176  -184  -248  -339  -372  -287  -134  -23  -6  -54  -124  -195  -262  -332  -411  -497  -579  -650  -707  -751  -800  -851  -842  -724  -552  -430  -418  -507  -538  -198  651  1754  2626  2807  2168  1057  -9  -697  -953  -948  -857  -746  -636  -545  -480  -446  -446  -483  -548  -611  -643  -624  -557  -464  -369  -279  -215  -193  -200  -207  -192  -143  -84  -46  -27  -16  -33  -87  -140  -146  -79  34  132  202  284  375  445  488  512  513  477  428  413  440  504  614  764  909  1007  1049  1058  1067  1098  1163  1241  1297  1323  1325  1288  1186  1043  922  843  766  669  543  361  142  -38  -152  -238  -326  -401  -434  -434  -434  -448  -483  -546  -624  -688  -719  -724  -723  -730  -743  -732  -664  -550  -438  -355  -293  -242  -205  -186  -185  -205  -243  -288  -331  -368  -394  -405  -398  -379  -346  -278  -169  -56  2  -19  -87  -152  -186  -197  -204  -216  -226  -214  -169  -112  -61  -10  21  9  -32  -85  -133  -160  -166  -169  -178  -190  -210  -253  -308  -335  -308  -247  -194  -168  -161  -161  -163  -163  -158  -125  -22  117  170  96  -7  -60  -66  -58  -74  -141  -238  -314  -347  -356  -359  -362  -369  -386  -404  -408  -402  -399  -380  -322  -237  -157  -83  -9  48  78  89  95  95  66  -10  -115  -193  -223  -222  -216  -210  -200  -182  -162  -148  -152  -191  -275  -375  -426  -452  -569  -744  -780  -530  115  1194  2389  3163  3167  2426  1310  298  -332  -539  -428  -249  -186  -192  -181  -160  -155  -170  -199  -234  -264  -255  -172  -34  76  58  -125  -373  -527  -543  -466  -338  -171  17  156  175  96  7  -53  -95  -117  -75  71  279  434  479  457  427  412  406  395  376  359  359  384  442  518  602  712  855  1001  1123  1210  1263  1287  1294  1294  1280  1232  1135  1017  929  882  804  620  363  153  50  18  12  14  18  18  22  36  31  -67  -311  -604  -789  -841  -827  -789  -744  -695  -640  -593  -532  -428  -342  -348  -409  -454  -457  -425  -385  -361  -352  -343  -321  -268  -183  -102  -60  -59  -80  -106  -131  -152  -143  -76  19  81  83  56  28  -3  -46  -92  -111  -83  -58  -91  -164  -226  -267  -290  -297  -279  -223  -141  -70  -43  -65  -115  -167  -197  -201  -194  -187  -177  -161  -145  -149  -183  -222  -257  -277  -261  -245  -284  -341  -359  -340  -309  -284  -274  -273  -275  -279  -276  -261  -240  -221  -192  -130  -44  25  56  43  -16  -113  -197  -211  -141  -14  119  208  230  185  81  -46  -143  -179  -171  -157  -167  -205  -259  -326  -424  -516  -478  -310  -197  -180  -74  316  1080  2070  2862  3061  2644  1813  830  72  -242  -223  -57  76  13  -218  -436  -541  -568  -552  -494  -393  -274  -189  -188  -281  -445  -645  -827  -952  -1040  -1126  -1210  -1257  -1244  -1179  -1085  -977  -872  -776  -690  -623  -596  -591  -545  -402  -203  -49  28  66  78  68  71  100  157  254  369  460  534  629  771  946  1106  1207  1236  1215  1193  1188  1167  1115  1077  1095  1157  1200  1161  1019  795  540  310  134  26  -19  -27  -18  -18  -61  -162  -295  -416  -501  -550  -570  -563  -520  -447  -375  -347  -359  -341  -243  -93  18  18  -62  -131  -157  -173  -196  -206  -195  -184  -191  -209  -217  -192  -133  -60  13  55  0  -114  -170  -146  -114  -101  -87  -54  -18  -17  -58  -106  -128  -116  -85  -51  -17  8  0  -70  -207  -359  -467  -515  -516  -468  -365  -228  -109  -41  -28  -65  -146  -266  -398  -491  -506  -442  -351  -297  -307  -352  -366  -317  -249  -202  -171  -147  -136  -136  -136  -122  -89  -54  -25  -17  -53  -149  -271  -357  -383  -376  -370  -381  -404  -411  -347  -220  -152  -237  -427  -630  -748  -551  170  1300  2490  3390  3690  3243  2230  1102  275  -106  -102  119  318  370  341  310  296  301  333  400  486  550  573  575  574  561  514  450  452  553  662  687  649  613  606  623  646  666  684  699  710  707  671  588  448  265  120  101  192  289  323  326  348  370  345  281  225  202  201  211  239  301  387  462  504  516  515  499  463  416  378  332  233  85  -55  -163  -283  -464  -708  -964  -1150  -1221  -1216  -1195  -1178  -1161  -1157  -1210  -1341  -1496  -1598  -1635  -1646  -1649  -1626  -1558  -1477  -1430  -1418  -1406  -1392  -1393  -1411  -1424  -1408  -1358  -1291  -1236  -1208  -1202  -1215  -1246  -1290  -1331  -1357  -1364  -1349  -1290  -1175  -1037  -944  -919  -925  -915  -870  -794  -711  -651  -628  -631  -644  -633  -550  -382  -180  -30  32  49  72  110  150  185  209  218  222  235  266  314  376  445  522  598  648  648  593  507  457  483  533  536  478  395  328  276  217  151  102  68  14  -53  -5  322  988  1934  2947  3560  3359  2422  1169  65  -461  -306  181  536  558  372  206  153  170  201  219  225  222  211  185  152  127  117  114  108  99  95  114  176  273  375  452  500  528  534  508  438  335  255  235  250  266  281  314  378  466  565  660  728  745  734  736  776  867  1009  1160  1267  1320  1346  1358  1358  1355  1364  1396  1440  1454  1394  1246  1033  822  672  555  360  33  -342  -637  -798  -866  -900  -921  -927  -913  -884  -855  -840  -830  -810  -780  -776  -824  -896  -945  -951  -926  -884  -835  -778  -704  -609  -483  -335  -200  -103  -34  -12  -78  -226  -387  -493  -531  -525  -478  -377  -267  -218  -229  -253  -277  -300  -313  -314  -311  -306  -299  -289  -278  -269  -263  -262  -269  -284  -299  -304  -300  -282  -246  -202  -174  -167  -170  -168  -160  -165  -221  -352  -528  -687  -791  -842  -845  -769  -569  -286  -100  -187  -492  -806  -942  -651  217  1433  2542  3133  2977  2189  1131  133  -602  -938  -858  -551  -255  -96  -108  -213  -287  -301  -285  -262  -245  -236  -232  -237  -262  -301  -313  -260  -164  -90  -69  -69  -34  53  145  195  205  194  183  209  291  385  429  422  399  400  435  472  482  470  454  457  473  494  538  595  632  655  685  729  787  857  933  1012  1083  1139  1164  1140  1076  984  875  762  640  490  301  87  -119  -288  -400  -458  -486  -501  -509  -515  -524  -538  -557  -588  -629  -665  -685  -701  -720  -727  -705  -663  -614  -556  -499  -449  -415  -424  -480  -536  -556  -546  -531  -520  -513  -506  -492  -463  -424  -390  -363  -329  -285  -250  -236  -246  -277  -316  -352  -385  -409  -414  -404  -380  -345  -310  -297  -330  -393  -427  -382  -270  -154  -86  -62  -51  -46  -54  -75  -98  -98  -67  -40  -67  -158  -278  -377  -437  -482  -542  -600  -583  -464  -341  -360  -498  -517  -149  712  1904  2949  3304  2769  1650  529  -114  -151  142  265  27  -280  -404  -380  -315  -250  -179  -116  -87  -85  -88  -81  -68  -59  -66  -95  -151  -215  -250  -246  -219  -180  -135  -92  -44  20  104  182  229  248  252  242  222  212  228  269  316  362  425  506  581  632  656  670  706  783  873  932  975  1032  1070  1050  1006  984  982  988  991  976  923  828  710  594  488  368  215  21  -184  -338  -416  -448  -460  -470  -504  -565  -626  -672  -712  -741  -741  -711  -656  -590  -510  -415  -337  -305  -301  -297  -289  -295  -327  -378  -425  -443  -430  -411  -418  -455  -487  -484  -465  -443  -392  -325  -278  -260  -271  -279  -258  -275  -368  -463  -496  -481  -469  -486  -512  -501  -429  -320  -213  -131  -92  -90  -106  -128  -157  -181  -187  -177  -169  -175  -190  -204  -211  -216  -218  -211  -206  -239  -345  -493  -602  -628  -594  -532  -434  -278  -148  -238  -573  -874  -794  -143  1004  2242  3052  3104  2413  1392  524  -27  -282  -262  -142  -136  -212  -230  -194  -177  -188  -206  -222  -238  -266  -303  -322  -316  -310  -302  -261  -180  -101  -65  -65  -77  -83  -69  -33  2  17  17  26  57  106  169  242  281  261  236  272  352  419  466  533  626  702  733  735  743  785  861  935  978  1021  1109  1222  1314  1346  1316  1267  1236  1215  1163  1039  830  584  374  234  148  101  73  38  -28  -143  -296  -438  -525  -560  -579  -607  -653  -701  -725  -709  -641  -542  -461  -422  -418  -434  -448  -442  -420  -402  -393  -393  -395  -405  -430  -460  -472  -449  -403  -353  -305  -269  -264  -291  -317  -321  -307  -297  -308  -334  -355  -355  -335  -308  -275  -225  -193  -237  -370  -520  -595  -587  -555  -538  -522  -477  -400  -317  -262  -237  -231  -230  -213  -162  -91  -40  -24  -27  -31  -38  -53  -78  -107  -150  -229  -353  -493  -600  -637  -584  -451  -275  -125  -73  -118  -238  -438  -687  -872  -789  -246  726  1835  2720  3078  2746  1878  881  80  -356  -413  -272  -125  -49  -47  -81  -126  -180  -240  -285  -316  -354  -393  -396  -329  -212  -107  -57  -55  -74  -90  -101  -130  -205  -308  -390  -426  -424  -373  -231  19  309  511  581  572  539  509  493  488  489  491  495  496  490  482  519  666  923  1184  1333  1356  1309  1251  1215  1205  1208  1214  1225  1243  1246  1173  976  714  507  402  361  342  308  219  62  -130  -306  -442  -533  -582  -611  -654  -720  -793  -821  -755  -622  -494  -391  -304  -240  -226  -272  -346  -411  -461  -496  -508  -497  -466  -420  -360  -295  -250  -242  -268  -315  -368  -415  -454  -484  -505  -520  -524  -509  -486  -483  -515  -554  -559  -522  -470  -415  -348  -268  -192  -146  -146  -190  -252  -306  -341  -360  -364  -358  -356  -371  -393  -404  -404  -406  -415  -420  -403  -361  -314  -274  -247  -224  -198  -173  -135  -71  -8  25  34  25  -8  -69  -123  -124  -72  -14  21  41  45  2  -120  -287  -413  -456  -451  -439  -436  -444  -463  -500  -537  -516  -406  -296  -289  -325  -172  358  1237  2217  2867  2802  2061  1047  187  -235  -226  -65  1  -46  -115  -131  -104  -62  -18  -12  -62  -125  -164  -179  -180  -186  -213  -259  -289  -251  -110  85  225  253  199  126  77  56  42  24  2  -3  32  122  240  344  415  466  498  508  524  590  704  809  859  869  872  877  876  870  877  924  1018  1139  1260  1348  1388  1391  1374  1332  1246  1126  1017  946  889  778  546  220  -69  -250  -358  -406  -367  -282  -234  -255  -324  -392  -428  -443  -464  -504  -559  -599  -608  -594  -578  -572  -584  -622  -674  -718  -744  -749  -712  -606  -462  -358  -338  -389  -465  -522  -546  -552  -563  -586  -597  -552  -428  -277  -201  -250  -379  -511  -615  -692  -728  -696  -578  -417  -296  -255  -278  -346  -435  -509  -554  -575  -585  -601  -653  -741  -784  -682  -466  -288  -244  -309  -409  -480  -502  -490  -454  -404  -357  -315  -274  -218  -119  21  146  199  187  157  146  129  23  -222  -529  -729  -733  -614  -486  -360  -210  -129  -237  -496  -766  -837  -466  344  1337  2270  2885  2913  2340  1377  274  -604  -940  -782  -478  -315  -322  -394  -449  -431  -326  -193  -127  -143  -186  -228  -287  -363  -414  -386  -273  -132  -15  76  132  127  80  30  0  -11  -12  -3  16  44  83  159  284  406  469  479  466  419  323  243  258  345  437  551  754  1032  1263  1371  1389  1377  1367  1364  1362  1350  1322  1287  1251  1206  1165  1136  1087  985  829  658  507  377  233  56  -129  -293  -416  -481  -494  -486  -491  -523  -567  -585  -557  -501  -446  -401  -366  -364  -418  -511  -597  -639  -631  -574  -458  -304  -163  -50  40  86  68  -7  -136  -276  -339  -304  -264  -297  -360  -356  -261  -155  -141  -212  -272  -278  -258  -246  -250  -254  -239  -217  -221  -274  -354  -420  -464  -504  -522  -486  -403  -311  -235  -178  -138  -116  -135  -219  -343  -442  -486  -494  -486  -457  -391  -304  -235  -191  -153  -105  -50  1  47  92  118  108  63  -4  -88  -176  -249  -305  -351  -387  -408  -407  -380  -315  -222  -167  -211  -354  -515  -560  -392  76  917  1958  2770  3024  2676  1847  797  -69  -501  -531  -303  -59  -10  -91  -125  -116  -137  -174  -192  -189  -173  -160  -155  -155  -153  -152  -158  -161  -129  -39  57  70  -3  -83  -118  -123  -124  -116  -71  25  126  164  142  110  89  82  133  308  574  797  901  918  908  911  938  969  982  990  1012  1041  1074  1131  1212  1301  1400  1509  1591  1594  1507  1359  1183  992  815  688  583  441  274  127  -18  -203  -390  -508  -543  -536  -523  -518  -519  -515  -504  -489  -470  -455  -452  -461  -480  -499  -517  -539  -564  -579  -567  -518  -439  -375  -368  -400  -424  -419  -405  -409  -414  -371  -264  -140  -71  -98  -200  -316  -396  -426  -429  -424  -389  -291  -150  -47  -50  -172  -348  -481  -536  -540  -529  -516  -513  -526  -541  -522  -453  -358  -287  -263  -266  -266  -249  -225  -212  -215  -223  -229  -230  -226  -215  -198  -182  -172  -172  -186  -226  -285  -337  -365  -374  -368  -349  -324  -293  -272  -288  -338  -364  -302  -174  -71  -37  -46  -75  -131  -214  -303  -377  -422  -413  -327  -179  -27  68  97  95  90  91  81  26  -93  -253  -403  -511  -576  -606  -595  -515  -354  -217  -250  -442  -655  -752  -568  61  1112  2279  3139  3387  2977  2113  1078  175  -350  -507  -430  -203  45  168  146  69  2  -64  -146  -211  -239  -246  -251  -239  -180  -103  -76  -104  -141  -165  -189  -231  -280  -285  -231  -141  -27  94  178  208  208  204  200  188  163  154  198  290  382  439  467  502  571  643  656  617  602  639  706  792  905  1025  1130  1223  1305  1354  1362  1348  1323  1246  1060  805  599  494  460  450  414  300  107  -93  -226  -289  -333  -381  -416  -429  -425  -414  -398  -378  -359  -353  -373  -418  -470  -496  -485  -459  -443  -444  -456  -464  -441  -370  -281  -230  -227  -251  -296  -361  -430  -482  -512  -521  -502  -445  -367  -305  -276  -273  -278  -257  -184  -88  -18  2  -22  -93  -202  -309  -379  -426  -484  -552  -601  -615  -613  -620  -634  -629  -587  -522  -466  -438  -427  -422  -424  -434  -449  -460  -466  -467  -465  -450  -417  -371  -324  -293  -279  -267  -252  -245  -248  -253  -244  -201  -129  -69  -64  -119  -193  -247  -275  -298  -324  -348  -359  -342  -301  -250  -191  -148  -152  -190  -223  -239  -250  -259  -239  -152  -16  101  164  173  140  93  45  -13  -91  -170  -232  -275  -317  -371  -433  -487  -501  -425  -285  -230  -337  -503  -640  -587  -74  838  1806  2627  3070  2903  2315  1620  877  170  -277  -383  -280  -111  23  43  -37  -153  -277  -399  -471  -429  -248  -28  75  30  -58  -108  -120  -115  -96  -52  10  68  117  170  221  253  265  271  276  277  274  259  221  168  129  131  190  297  415  518  621  732  821  869  894  923  967  1016  1058  1110  1208  1334  1427  1458  1444  1406  1367  1342  1328  1293  1216  1097  936  707  408  127  -31  -64  -43  -24  -39  -111  -228  -350  -443  -505  -548  -587  -634  -668  -649  -566  -459  -385  -362  -362  -367  -391  -445  -503  -512  -436  -308  -205  -173  -208  -276  -329  -354  -385  -439  -487  -500  -475  -411  -295  -151  -50  -38  -104  -196  -259  -279  -279  -286  -308  -345  -383  -410  -423  -428  -426  -408  -373  -338  -323  -322  -314  -295  -277  -278  -292  -296  -287  -291  -328  -387  -431  -446  -447  -428  -363  -271  -204  -186  -204  -235  -258  -265  -263  -260  -258  -260  -266  -272  -279  -290  -303  -307  -296  -275  -258  -253  -260  -273  -291  -316  -335  -328  -289  -234  -194  -178  -176  -211  -322  -463  -514  -413  -228  -77  -5  21  32  31  22  20  52  135  223  245  199  155  143  127  58  -72  -221  -331  -392  -411  -393  -348  -292  -271  -330  -435  -449  -158  562  1576  2556  3166  3175  2582  1625  639  -117  -573  -716  -504  -98  193  265  198  60  -134  -329  -411  -320  -135  13  76  93  101  88  13  -119  -236  -280  -257  -185  -103  -48  -14  40  134  232  285  292  288  299  341  422  513  570  566  508  428  371  368  435  562  705  823  918  991  1042  1081  1119  1176  1275  1405  1518  1580  1592  1570  1526  1478  1442  1379  1233  1030  849  703  543  357  155  -78  -314  -460  -462  -367  -294  -310  -359  -383  -409  -485  -594  -674  -698  -693  -702  -751  -820  -854  -807  -682  -533  -419  -363  -349  -353  -376  -439  -551  -671  -735  -719  -651  -584  -551  -542  -527  -485  -401  -295  -207  -173  -196  -241  -262  -253  -243  -263  -302  -330  -344  -345  -340  -353  -393  -430  -444  -439  -426  -407  -372  -326  -294  -290  -300  -313  -333  -367  -405  -424  -408  -367  -321  -281  -256  -248  -249  -253  -255  -262  -284  -320  -359  -406  -467  -526  -566  -587  -585  -523  -378  -236  -239  -390  -536  -549  -413  -213  -66  -17  -33  -81  -148  -216  -260  -262  -229  -180  -126  -51  55  143  124  2  -123  -176  -164  -126  -91  -77  -111  -222  -388  -525  -538  -361  -48  163  46  -362  -775  -834  -294  807  2096  3007  3138  2495  1349  166  -545  -664  -468  -213  -29  18  -30  -89  -128  -149  -155  -146  -121  -80  -29  23  45  -2  -125  -275  -383  -427  -419  -357  -216  -11  188  324  383  368  311  260  238  236  241  246  242  221  192  184  210  248  290  357  458  583  714  811  851  854  860  891  934  956  962  976  1002  1021  1033  1063  1136  1234  1298  1292  1244  1186  1105  950  684  357  93  -41  -90  -140  -243  -377  -491  -573  -639  -684  -694  -662  -602  -558  -559  -581  -595  -604  -611  -614  -615  -610  -577  -494  -378  -280  -244  -298  -425  -544  -598  -591  -555  -520  -481  -398  -273  -178  -157  -165  -159  -145  -131  -120  -108  -91  -76  -86  -135  -206  -257  -277  -281  -277  -242  -165  -95  -123  -276  -459  -542  -492  -392  -336  -337  -352  -360  -364  -371  -381  -382  -356  -291  -202  -134  -123  -176  -264  -350  -418  -461  -470  -435  -372  -319  -295  -299  -320  -331  -321  -297  -258  -207  -159  -140  -148  -139  -98  -50  -11  3  -5  -12  -11  -24  -82  -186  -302  -393  -441  -449  -448  -474  -535  -578  -539  -409  -250  -195  -307  -445  -492  -421  -65  701  1708  2631  3161  3062  2314  1175  74  -596  -757  -607  -356  -200  -219  -263  -224  -163  -122  -91  -65  -53  -57  -75  -100  -116  -118  -121  -135  -146  -131  -80  -24  -25  -94  -148  -124  -47  49  159  247  282  278  261  252  280  367  486  570  576  519  453  423  425  435  449  492  592  753  942  1113  1224  1256  1231  1197  1190  1223  1275  1313  1313  1266  1182  1079  992  945  915  838  674  454  233  21  -183  -343  -424  -442  -434  -428  -437  -465  -508  -554  -595  -611  -580  -490  -369  -270  -221  -221  -273  -376  -497  -589  -640  -658  -626  -532  -407  -302  -247  -241  -273  -321  -365  -402  -433  -428  -357  -256  -187  -167  -173  -183  -187  -179  -156  -145  -173  -228  -280  -308  -298  -267  -246  -236  -226  -221  -231  -267  -320  -342  -305  -247  -229  -265  -327  -380  -422  -460  -484  -477  -430  -362  -308  -287  -286  -293  -300  -305  -303  -293  -283  -293  -326  -355  -368  -390  -423  -423  -374  -302  -229  -171  -135  -118  -111  -108  -106  -101  -101  -125  -189  -275  -338  -360  -359  -368  -400  -434  -437  -404  -350  -295  -296  -421  -657  -819  -598  190  1402  2575  3188  3013  2242  1266  421  -92  -286  -357  -424  -442  -404  -365  -312  -186  8  182  260  245  172  69  -41  -134  -194  -218  -195  -118  -18  45  42  6  4  53  98  97  57  13  5  53  156  293  410  470  477  457  430  400  371  371  444  599  773  871  854  788  765  819  936  1066  1154  1194  1209  1211  1208  1210  1222  1243  1266  1277  1243  1123  932  754  650  571  433  247  100  39  32  17  -41  -154  -317  -504  -666  -761  -789  -767  -697  -590  -485  -413  -378  -364  -360  -375  -427  -515  -607  -682  -737  -765  -739  -638  -496  -399  -381  -386  -367  -324  -284  -277  -265  -177  -39  62  63  -58  -246  -390  -441  -438  -426  -421  -422  -423  -426  -435  -447  -439  -388  -308  -251  -251  -293  -337  -361  -372  -377  -381  -393  -406  -406  -390  -378  -402  -471  -546  -582  -586  -595  -618  -626  -587  -474  -307  -172  -143  -184  -221  -228  -226  -251  -320  -391  -393  -322  -231  -152  -88  -47  -32  -30  -30  -35  -66  -160  -334  -528  -653  -684  -652  -575  -473  -391  -354  -364  -444  -541  -469  -53  753  1810  2744  3165  2940  2169  1137  244  -230  -254  -32  127  88  -54  -172  -224  -237  -245  -239  -180  -92  -48  -98  -233  -366  -417  -400  -366  -334  -303  -269  -237  -207  -161  -73  38  120  157  183  220  262  294  312  323  343  380  425  460  484  516  554  587  620  669  741  820  886  945  1015  1090  1134  1122  1065  999  936  873  821  796  812  859  909  940  960  973  942  792  494  151  -81  -166  -172  -165  -175  -210  -268  -341  -398  -421  -419  -409  -399  -389  -381  -394  -457  -569  -678  -738  -747  -731  -710  -690  -670  -649  -621  -579  -531  -476  -378  -259  -216  -276  -355  -392  -393  -389  -397  -424  -459  -485  -497  -498  -482  -436  -374  -330  -318  -315  -301  -283  -277  -289  -320  -376  -454  -510  -506  -465  -420  -384  -360  -340  -324  -319  -329  -345  -358  -355  -338  -329  -323  -298  -261  -238  -241  -275  -320  -353  -354  -322  -281  -255  -237  -205  -151  -85  -29  6  16  -6  -54  -105  -134  -143  -154  -183  -231  -305  -394  -473  -553  -647  -706  -722  -758  -767  -582  -71  824  1967  2941  3330  2999  2098  986  74  -400  -489  -446  -444  -413  -284  -147  -90  -90  -102  -107  -105  -104  -118  -148  -176  -187  -186  -185  -192  -196  -164  -68  63  164  206  211  204  189  168  148  132  108  83  74  94  159  274  398  467  453  389  351  375  416  449  505  593  700  833  992  1142  1235  1262  1260  1263  1275  1287  1293  1300  1314  1319  1267  1119  885  649  512  482  459  345  137  -76  -214  -267  -274  -267  -261  -262  -289  -366  -485  -604  -674  -673  -615  -547  -496  -462  -433  -414  -433  -514  -632  -719  -740  -723  -699  -669  -627  -576  -521  -466  -418  -394  -398  -409  -396  -352  -306  -297  -332  -391  -467  -544  -579  -549  -482  -430  -411  -408  -410  -417  -437  -464  -454  -365  -223  -106  -76  -146  -271  -399  -496  -549  -558  -533  -482  -412  -344  -305  -297  -290  -251  -190  -139  -113  -90  -53  -33  -56  -110  -174  -263  -384  -502  -556  -547  -568  -634  -630  -552  -566  -727  -870  -759  -242  746  2043  3126  3440  2847  1634  290  -644  -905  -734  -532  -449  -455  -486  -449  -329  -212  -149  -128  -134  -153  -171  -184  -204  -237  -287  -348  -381  -343  -236  -97  25  95  120  144  195  262  309  298  215  91  -3  0  120  296  423  459  445  431  448  520  655  809  909  930  902  859  827  827  863  946  1075  1208  1291  1315  1305  1276  1225  1151  1064  964  834  668  496  351  223  83  -57  -167  -232  -266  -303  -349  -386  -404  -412  -426  -464  -534  -619  -675  -688  -680  -676  -678  -664  -625  -582  -566  -581  -600  -593  -566  -546  -532  -513  -483  -441  -402  -379  -369  -364  -368  -379  -386  -381  -367  -347  -308  -242  -167  -109  -86  -109  -183  -292  -392  -447  -457  -440  -402  -360  -346  -377  -430  -461  -452  -419  -376  -335  -329  -393  -501  -593  -641  -645  -570  -374  -110  86  148  93  -46  -203  -272  -228  -178  -219  -327  -428  -497  -556  -624  -657  -594  -495  -488  -584  -651  -492  40  934  2011  2893  3138  2657  1737  691  -169  -544  -489  -370  -353  -329  -264  -220  -187  -138  -97  -77  -61  -35  -10  -16  -67  -132  -137  -37  101  183  182  123  41  -47  -156  -271  -322  -256  -104  55  167  213  215  219  241  275  305  315  325  351  366  370  399  441  466  487  536  619  705  758  786  838  935  1047  1140  1205  1243  1257  1246  1197  1116  1036  972  886  731  512  274  52  -131  -256  -322  -364  -417  -487  -546  -545  -448  -297  -181  -135  -125  -129  -185  -341  -553  -711  -766  -755  -720  -673  -614  -558  -522  -506  -497  -484  -471  -465  -470  -479  -489  -503  -517  -532  -554  -577  -568  -491  -351  -208  -124  -100  -101  -108  -145  -241  -375  -478  -517  -505  -465  -425  -411  -445  -528  -626  -701  -714  -613  -411  -218  -110  -77  -80  -90  -95  -89  -68  -39  -17  -6  0  11  18  -7  -88  -199  -282  -327  -377  -473  -602  -720  -803  -827  -726  -493  -275  -215  -314  -476  -542  -346  252  1251  2355  3142  3296  2756  1773  708  -133  -572  -655  -531  -334  -232  -273  -308  -272  -245  -252  -253  -227  -173  -111  -59  -27  -46  -119  -192  -233  -249  -260  -270  -263  -235  -206  -193  -193  -195  -194  -213  -271  -336  -316  -145  109  305  377  374  358  348  347  353  367  383  390  389  399  447  541  690  913  1155  1283  1264  1197  1150  1125  1119  1134  1147  1089  890  588  312  143  65  23  -21  -69  -100  -106  -101  -116  -182  -292  -398  -454  -461  -444  -432  -434  -448  -467  -490  -511  -527  -536  -538  -528  -504  -479  -472  -490  -510  -511  -493  -478  -472  -467  -445  -392  -318  -272  -284  -330  -350  -308  -222  -146  -108  -104  -147  -263  -419  -533  -561  -519  -448  -380  -340  -341  -376  -424  -466  -486  -474  -436  -396  -373  -368  -355  -316  -264  -236  -257  -318  -375  -379  -337  -284  -229  -151  -62  0  27  36  41  36  8  -44  -110  -178  -234  -267  -277  -279  -276  -268  -278  -355  -501  -615  -649  -697  -756  -630  -158  696  1809  2770  3128  2777  1963  1063  358  -38  -166  -166  -132  -98  -108  -155  -190  -226  -308  -438  -537  -520  -394  -247  -153  -121  -108  -85  -62  -62  -79  -94  -94  -91  -88  -88  -101  -116  -114  -99  -84  -72  -56  -27  17  81  160  226  258  275  300  351  449  582  702  778  809  809  806  835  908  998  1059  1074  1065  1056  1056  1062  1061  1031  950  820  678  552  439  334  246  181  121  43  -56  -161  -242  -287  -337  -447  -599  -714  -754  -748  -722  -678  -624  -583  -559  -529  -472  -407  -368  -359  -374  -410  -442  -461  -486  -529  -572  -585  -549  -477  -392  -335  -365  -469  -565  -605  -608  -599  -580  -536  -471  -398  -325  -268  -251  -264  -278  -279  -272  -276  -315  -393  -482  -544  -574  -587  -579  -539  -482  -432  -401  -386  -385  -400  -424  -439  -431  -413  -396  -371  -314  -206  -68  30  55  40  21  11  9  12  21  30  20  -39  -160  -326  -498  -628  -681  -638  -552  -559  -670  -736  -640  -276  479  1561  2623  3250  3213  2531  1421  301  -452  -778  -779  -569  -318  -170  -135  -132  -96  -27  10  -37  -146  -236  -267  -264  -253  -233  -193  -139  -101  -90  -76  -24  62  146  198  219  222  213  198  194  211  233  240  232  224  216  201  185  206  296  428  544  630  694  738  777  832  901  955  983  1005  1039  1079  1100  1097  1090  1083  1059  1014  958  900  847  799  736  620  428  199  2  -123  -194  -238  -278  -332  -413  -510  -588  -618  -602  -574  -563  -564  -552  -507  -441  -397  -420  -514  -613  -633  -575  -494  -416  -360  -346  -379  -434  -482  -515  -546  -566  -546  -486  -427  -399  -398  -405  -409  -398  -361  -312  -275  -254  -230  -200  -182  -190  -225  -291  -402  -541  -643  -669  -619  -485  -275  -69  50  82  74  52  12  -44  -94  -123  -131  -117  -93  -84  -95  -115  -137  -156  -167  -174  -183  -192  -196  -191  -192  -238  -341  -462  -592  -739  -829  -762  -462  184  1210  2313  3015  3039  2349  1174  28  -684  -889  -695  -338  -114  -136  -243  -252  -150  -14  93  152  168  134  35  -98  -174  -135  -36  32  16  -98  -259  -369  -369  -265  -120  -19  8  -7  -22  8  114  262  374  417  418  414  415  418  416  414  418  438  486  568  660  721  740  745  770  836  929  1011  1058  1105  1202  1326  1378  1301  1163  1072  1046  1001  863  639  400  214  84  -28  -139  -228  -272  -275  -273  -291  -329  -389  -457  -511  -545  -567  -584  -604  -634  -664  -681  -693  -700  -686  -654  -610  -559  -510  -461  -417  -395  -404  -423  -438  -458  -488  -502  -449  -330  -231  -225  -322  -465  -576  -621  -622  -612  -606  -591  -550  -489  -442  -425  -428  -432  -430  -418  -405  -412  -442  -453  -402  -310  -233  -200  -197  -200  -206  -226  -257  -278  -276  -259  -239  -216  -190  -171  -174  -212  -279  -348  -403  -449  -478  -461  -404  -362  -401  -517  -600  -572  -513  -473  -361  -72  470  1280  2160  2755  2793  2257  1376  475  -214  -573  -577  -348  -91  61  76  -31  -193  -316  -363  -352  -320  -298  -291  -291  -285  -266  -241  -223  -198  -140  -75  -42  -45  -69  -97  -117  -124  -127  -130  -133  -119  -62  42  160  243  291  339  390  424  434  431  430  434  446  465  491  510  529  595  756  997  1231  1376  1428  1426  1382  1287  1166  1075  1027  985  907  775  615  463  311  132  -49  -169  -205  -196  -197  -245  -350  -495  -634  -710  -701  -642  -583  -555  -563  -599  -661  -736  -794  -799  -717  -543  -340  -199  -157  -180  -222  -251  -262  -264  -262  -269  -305  -372  -434  -468  -475  -463  -429  -369  -295  -228  -186  -173  -170  -167  -167  -180  -211  -244  -272  -307  -358  -428  -505  -560  -575  -553  -506  -456  -408  -352  -300  -262  -226  -186  -158  -145  -134  -116  -96  -86  -95  -122  -151  -178  -224  -282  -321  -319  -280  -222  -164  -129  -132  -168  -218  -258  -287  -311  -326  -323  -311  -316  -369  -452  -465  -357  -222  -163  -182  -230  -142  352  1291  2328  3002  2998  2332  1316  352  -236  -369  -223  -17  133  178  122  41  -2  -17  -31  -46  -60  -79  -123  -184  -209  -146  -15  117  203  231  217  174  109  31  -42  -105  -119  -59  30  90  125  171  234  276  276  281  335  420  503  588  678  753  804  840  859  864  858  843  833  830  853  937  1069  1178  1236  1270  1299  1305  1265  1183  1068  914  739  589  475  366  255  178  140  89  -21  -178  -319  -394  -406  -399  -402  -424  -456  -476  -478  -485  -500  -504  -491  -478  -476  -487  -498  -500  -498  -497  -498  -497  -489  -474  -462  -471  -500  -535  -562  -574  -560  -508  -434  -365  -319  -305  -324  -356  -371  -357  -321  -295  -305  -352  -426  -506  -564  -582  -558  -485  -389  -324  -327  -392  -467  -491  -460  -418  -397  -396  -398  -385  -365  -361  -397  -473  -549  -589  -602  -606  -588  -522  -425  -341  -299  -290  -280  -244  -193  -147  -102  -63  -46  -51  -68  -86  -102  -127  -179  -244  -290  -305  -305  -307  -312  -307  -297  -303  -334  -351  -305  -271  -384  -618  -814  -817  -469  314  1376  2378  2991  2984  2356  1411  536  -46  -273  -231  -110  -33  -14  -64  -163  -267  -360  -433  -475  -486  -472  -436  -383  -331  -291  -243  -174  -126  -129  -135  -103  -60  -40  -43  -51  -57  -61  -65  -73  -91  -117  -135  -124  -74  -4  50  85  119  167  225  287  350  421  509  600  647  635  595  560  561  612  684  747  802  890  1041  1210  1303  1294  1236  1181  1121  1018  865  692  540  427  299  47  -328  -674  -844  -830  -698  -529  -393  -317  -291  -288  -287  -282  -273  -265  -260  -262  -277  -310  -364  -426  -463  -451  -407  -359  -321  -292  -260  -229  -216  -217  -221  -223  -219  -206  -178  -141  -113  -104  -119  -152  -208  -297  -397  -474  -521  -532  -504  -461  -431  -403  -362  -314  -271  -246  -239  -248  -270  -298  -321  -331  -338  -365  -436  -532  -598  -586  -482  -322  -186  -122  -119  -148  -202  -272  -329  -329  -264  -159  -51  26  39  -18  -107  -173  -195  -193  -186  -169  -136  -98  -86  -138  -259  -412  -534  -579  -537  -438  -324  -226  -165  -208  -392  -587  -571  -237  368  1172  2056  2699  2816  2413  1574  520  -288  -607  -581  -394  -196  -131  -150  -108  -42  -36  -47  -55  -102  -187  -266  -313  -325  -307  -268  -226  -198  -194  -205  -214  -195  -114  19  148  220  240  233  202  131  36  -34  -55  -24  40  105  157  219  307  424  566  710  828  894  910  913  929  959  996  1031  1055  1069  1085  1106  1125  1135  1137  1135  1111  1041  934  826  738  649  524  379  270  220  180  73  -126  -355  -526  -609  -619  -576  -495  -416  -391  -430  -503  -558  -564  -541  -523  -511  -489  -459  -436  -432  -445  -462  -476  -484  -480  -467  -462  -461  -421  -299  -130  -5  23  -20  -93  -172  -255  -336  -383  -385  -366  -354  -351  -351  -351  -356  -374  -404  -442  -476  -480  -444  -399  -375  -369  -369  -381  -419  -476  -517  -521  -493  -460  -439  -447  -487  -513  -453  -286  -72  111  221  252  222  148  48  -58  -135  -158  -155  -206  -377  -620  -794  -803  -665  -483  -348  -281  -269  -292  -357  -467  -559  -528  -235  463  1506  2501  2976  2739  1890  730  -264  -763  -829  -712  -592  -478  -334  -235  -234  -268  -286  -290  -291  -288  -267  -218  -158  -114  -94  -92  -117  -190  -297  -379  -370  -257  -118  -52  -65  -92  -79  -22  45  91  118  144  183  249  344  432  456  416  370  373  436  522  587  620  633  640  659  703  786  913  1048  1141  1180  1189  1185  1165  1118  1031  910  782  665  524  321  80  -123  -236  -272  -282  -295  -301  -300  -318  -359  -387  -400  -437  -518  -632  -747  -817  -833  -831  -852  -906  -945  -928  -892  -851  -744  -569  -426  -365  -364  -417  -529  -661  -736  -717  -637  -554  -499  -483  -515  -594  -696  -787  -838  -824  -747  -645  -560  -510  -477  -446  -431  -457  -503  -528  -519  -505  -513  -534  -550  -560  -568  -577  -581  -580  -585  -603  -621  -625  -614  -600  -588  -569  -559  -583  -625  -645  -614  -522  -404  -320  -272  -219  -158  -149  -245  -408  -539  -595  -607  -610  -612  -617  -612  -572  -532  -592  -783  -989  -1021  -716  -21  1003  2101  2822  2854  2259  1314  346  -317  -520  -390  -227  -218  -305  -372  -400  -412  -422  -417  -388  -354  -329  -299  -259  -212  -153  -87  -40  -25  -28  -32  -33  -32  -33  -31  -12  40  118  190  231  234  204  152  101  71  71  119  225  376  551  718  831  883  910  937  964  997  1037  1071  1094  1117  1156  1207  1271  1352  1442  1536  1637  1718  1729  1645  1500  1328  1121  895  725  643  599  544  471  394  324  266  238  237  221  185  173  217  319  436  515  530  482  379  243  110  0]
