reading_id,reading_time,wire_id,result_classification,heart_rate,heart_rate_alert,firmware_version,device_app_version,hardware_version,waveform_samples
b4e87240-60ab-11ed-8080-808080808080,Thu Nov 10 03:56:50 UTC 2022,8100e3ea1a39,NSR,96,NONE,20001.171.50,2.10.0,Charge 5,[1306  1903  2282  2402  2408  2516  2856  3336  3725  3862  3632  2956  2064  1419  1194  1193  1228  1312  1527  1843  2131  2320  2442  2559  2681  2776  2810  2765  2625  2368  2020  1681  1416  1211  1061  949  737  268  -402  -1046  -1493  -1719  -1804  -1883  -2110  -2600  -3343  -4147  -4751  -5035  -5094  -5091  -5127  -5237  -5389  -5514  -5585  -5607  -5538  -5279  -4790  -4143  -3495  -3006  -2737  -2614  -2544  -2495  -2494  -2623  -2954  -3526  -4377  -5462  -6632  -7731  -8644  -9346  -9928  -10484  -10978  -11232  -11137  -10784  -10294  -9744  -9234  -8814  -8420  -7947  -7303  -6492  -5626  -4817  -4167  -3774  -3625  -3596  -3575  -3475  -3218  -2813  -2387  -2071  -1884  -1729  -1500  -1218  -1000  -908  -895  -881  -818  -683  -387  244  1241  2289  2986  3205  2954  2221  1227  411  -9  -132  -83  80  295  495  664  801  885  917  923  927  930  949  1015  1146  1330  1521  1664  1757  1831  1893  1927  1928  1910  1890  1887  1940  2079  2263  2401  2450  2435  2403  2374  2345  2312  2292  2300  2334  2399  2519  2700  2890  3014  3047  3029  3002  2987  2985  2993  3007  3031  3077  3147  3215  3237  3199  3107  2959  2782  2634  2506  2339  2120  1895  1709  1565  1437  1304  1176  1079  1013  952  883  808  723  636  584  588  622  650  658  654  658  679  696  664  559  425  333  306  317  335  342  336  316  293  279  281  299  328  370  417  420  323  132  -84  -252  -321  -290  -215  -170  -190  -266  -368  -459  -501  -480  -420  -359  -317  -298  -297  -308  -323  -336  -343  -337  -314  -297  -314  -351  -379  -395  -413  -444  -464  -428  -345  -290  -322  -418  -514  -600  -715  -856  -998  -1081  -883  -92  1356  3059  4360  4721  3983  2475  815  -422  -929  -821  -486  -211  -134  -259  -409  -429  -357  -279  -219  -179  -157  -152  -154  -155  -154  -153  -146  -129  -118  -130  -149  -150  -131  -92  -28  53  132  194  232  249  254  255  259  265  275  295  326  372  449  560  677  773  841  904  991  1113  1250  1359  1412  1418  1396  1356  1301  1245  1208  1198  1191  1154  1073  979  910  859  777  626  399  109  -205  -479  -646  -692  -658  -601  -560  -545  -549  -570  -608  -654  -682  -679  -657  -629  -599  -569  -541  -508  -473  -450  -463  -522  -604  -670  -703  -716  -720  -718  -703  -684  -677  -676  -666  -651  -651  -685  -754  -827  -873  -883  -871  -841  -799  -765  -769  -807  -837  -799  -653  -421  -199  -107  -200  -420  -644  -781  -825  -820  -808  -803  -805  -810  -817  -821  -806  -745  -614  -439  -272  -188  -353  -822  -1226  -1008  66  1714  3260  3972  3483  1998  219  -1060  -1486  -1226  -668  -261  -276  -516  -632  -578  -489  -415  -346  -286  -241  -208  -192  -192  -208  -231  -262  -312  -378  -432  -431  -343  -198  -84  -44  -49  -52  -33  -1  20  23  16  26  82  187  308  409  468  490  495  502  518  559  671  866  1071  1195  1229  1215  1182  1145  1130  1187  1350  1569  1724  1731  1569  1287  971  696  509  423  388  319  168  -37  -230  -362  -406  -365  -284  -218  -193  -213  -288  -412  -540  -624  -650  -638  -612  -564  -476  -358  -259  -209  -199  -206  -215  -212  -185  -148  -135  -158  -192  -205  -198  -190  -186  -181  -170  -164  -175  -202  -225  -235  -236  -234  -221  -192  -156  -127  -110  -95  -68  -20  37  65  36  -28  -96  -164  -258  -398  -550  -652  -684  -677  -661  -628  -526  -362  -313  -553  -950  -1121  -716  383  1921  3280  3827  3328  2035  498  -680  -1171  -1039  -603  -243  -154  -257  -385  -452  -467  -472  -518  -643  -813  -938  -953  -862  -715  -581  -486  -419  -400  -446  -496  -473  -380  -282  -232  -235  -273  -311  -320  -302  -281  -273  -264  -220  -140  -55  29  120  204  286  393  547  721  849  901  916  956  1038  1129  1168  1143  1105  1105  1140  1180  1203  1191  1112  952  757  590  478  420  391  357  295  183  19  -147  -260  -303  -304  -311  -354  -430  -498  -508  -460  -405  -378  -362  -334  -309  -321  -366  -402  -397  -363  -333  -321  -318  -313  -306  -300  -306  -338  -403  -478  -554  -627  -656  -621  -559  -509  -477  -453  -420  -387  -383  -430  -513  -580  -594  -549  -450  -327  -240  -210  -207  -210  -236  -315  -430  -530  -589  -615  -625  -623  -601  -565  -534  -505  -465  -429  -463  -623  -825  -820  -331  769  2280  3680  4442  4323  3343  1793  279  -672  -982  -820  -415  -62  68  13  -145  -330  -479  -569  -606  -596  -542  -456  -360  -277  -217  -196  -229  -297  -351  -365  -349  -323  -296  -254  -184  -107  -57  -50  -69  -87  -96  -104  -121  -146  -156  -118  -39  42  114  202  321  440  517  556  600  678  771  838  876  909  941  964  983  999  1006  988  922  796  618  403  178  -20  -172  -275  -355  -442  -528  -604  -705  -872  -1083  -1263  -1358  -1378  -1364  -1343  -1323  -1317  -1346  -1415  -1471  -1438  -1317  -1188  -1107  -1081  -1085  -1087  -1067  -1026  -985  -963  -959  -957  -954  -953  -948  -920  -862  -788  -725  -688  -666  -626  -556  -477  -408  -334  -220  -72  59  137  167  176  198  278  440  660  872  1021  1079  1011  796  511  304  235  243  266  293  330  365  363  333  342  354  186  -197  -486  -237  773  2346  3895  4749  4557  3454  1987  807  228  89  107  126  74  -10  -39  -20  -8  -12  -25  -47  -83  -124  -156  -168  -156  -114  -47  16  44  28  -4  -29  -42  -50  -56  -58  -44  0  71  140  175  176  170  195  275  374  432  450  485  568  666  730  746  740  758  859  1069  1326  1517  1596  1605  1599  1588  1553  1480  1377  1259  1133  1020  940  883  824  729  578  392  229  127  33  -158  -450  -717  -858  -883  -844  -774  -698  -645  -615  -576  -493  -379  -291  -258  -266  -307  -389  -508  -624  -688  -693  -647  -564  -447  -309  -194  -154  -207  -315  -420  -498  -546  -551  -531  -520  -515  -506  -498  -496  -498  -504  -506  -491  -459  -448  -487  -545  -577  -564  -505  -404  -279  -164  -96  -85  -112  -149  -173  -178  -173  -176  -220  -337  -497  -623  -676  -679  -639  -543  -431  -430  -604  -847  -958  -713  102  1478  3030  4176  4438  3690  2247  675  -444  -815  -651  -386  -247  -259  -348  -399  -386  -360  -344  -335  -327  -329  -348  -377  -389  -357  -283  -205  -153  -134  -142  -183  -250  -272  -171  -10  48  -33  -142  -195  -203  -201  -199  -175  -103  13  142  271  387  463  493  502  506  512  546  637  772  901  1010  1106  1183  1226  1236  1222  1195  1164  1129  1090  1057  1026  975  890  777  624  387  48  -303  -541  -650  -720  -796  -832  -785  -692  -626  -612  -625  -634  -630  -613  -592  -586  -613  -661  -700  -707  -654  -556  -465  -401  -365  -369  -433  -548  -671  -756  -785  -765  -706  -619  -528  -463  -432  -429  -461  -534  -617  -659  -651  -629  -623  -642  -675  -698  -686  -631  -552  -484  -437  -406  -408  -459  -536  -590  -593  -558  -508  -461  -432  -423  -428  -437  -439  -408  -329  -217  -121  -79  -87  -123  -187  -297  -426  -514  -539  -528  -514  -519  -566  -641  -674  -600  -489  -519  -716  -789  -334  806  2356  3707  4280  3859  2654  1202  56  -558  -718  -568  -332  -259  -377  -533  -635  -673  -658  -607  -526  -433  -365  -336  -332  -338  -350  -360  -343  -277  -185  -115  -91  -96  -108  -123  -141  -152  -125  -33  100  211  263  271  275  295  317  330  353  418  536  690  841  953  1017  1068  1147  1252  1336  1371  1376  1378  1393  1424  1469  1518  1557  1583  1600  1576  1448  1190  880  642  529  474  365  149  -112  -310  -401  -431  -457  -491  -506  -488  -453  -420  -403  -396  -386  -359  -332  -337  -382  -440  -482  -500  -504  -502  -496  -486  -466  -430  -391  -362  -346  -333  -319  -309  -301  -293  -292  -318  -370  -415  -431  -429  -432  -453  -489  -530  -568  -596  -597  -572  -540  -513  -492  -479  -468  -447  -414  -385  -384  -417  -453  -461  -451  -447  -444  -430  -407  -383  -351  -294  -209  -126  -66  -25  -2  -13  -78  -177  -252  -274  -263  -250  -262  -315  -392  -447  -467  -510  -636  -806  -933  -948  -719  -66  1044  2385  3505  3910  3343  1983  366  -858  -1311  -1131  -723  -385  -239  -229  -233  -227  -237  -255  -265  -268  -267  -267  -263  -246  -223  -208  -203  -201  -192  -171  -140  -105  -71  -41  -12  27  86  153  211  244  264  289  325  373  437  505  563  618  668  700  712  726  770  847  938  1027  1114  1200  1299  1424  1554  1641  1667  1660  1645  1630  1620  1618  1604  1512  1287  987  748  634  603  554  397  119  -183  -408  -532  -580  -589  -604  -643  -675  -686  -687  -689  -695  -697  -686  -653  -605  -564  -546  -545  -549  -551  -551  -549  -548  -549  -555  -565  -566  -544  -496  -422  -329  -238  -190  -242  -427  -680  -864  -924  -904  -859  -818  -799  -801  -800  -757  -646  -480  -302  -179  -175  -268  -362  -404  -409  -406  -405  -408  -410  -400  -370  -327  -288  -265  -259  -273  -297  -319  -337  -371  -438  -547  -691  -811  -806  -700  -659  -753  -890  -901  -533  426  1860  3251  3958  3610  2321  642  -711  -1317  -1289  -975  -647  -481  -484  -510  -482  -446  -422  -388  -322  -231  -149  -107  -110  -156  -233  -319  -378  -384  -343  -285  -234  -203  -195  -197  -191  -164  -121  -66  0  60  94  111  141  195  251  296  354  452  564  648  712  804  935  1072  1187  1273  1334  1377  1410  1436  1460  1482  1495  1500  1500  1506  1516  1507  1431  1249  994  744  550  394  221  18  -181  -353  -486  -565  -597  -604  -594  -577  -571  -596  -655  -720  -759  -753  -696  -605  -509  -437  -400  -399  -417  -431  -428  -414  -389  -335  -255  -179  -140  -151  -213  -307  -395  -449  -468  -467  -467  -480  -505  -518  -501  -468  -444  -435  -434  -442  -462  -490  -511  -518  -508  -479  -438  -398  -371  -354  -331  -304  -283  -279  -290  -308  -321  -326  -327  -328  -328  -320  -303  -284  -281  -309  -375  -453  -506  -537  -599  -704  -767  -721  -643  -651  -781  -903  -686  174  1627  3226  4336  4459  3577  2101  586  -497  -982  -982  -705  -403  -266  -277  -321  -342  -350  -360  -380  -399  -401  -389  -372  -354  -337  -316  -286  -257  -241  -232  -218  -182  -116  -31  54  122  151  141  123  127  155  203  263  316  351  367  374  392  458  581  722  837  925  1009  1105  1218  1355  1504  1635  1730  1781  1792  1777  1741  1695  1654  1614  1559  1488  1422  1368  1306  1188  976  679  355  74  -125  -267  -377  -445  -467  -463  -454  -445  -444  -468  -537  -633  -709  -742  -733  -689  -616  -533  -468  -439  -433  -438  -460  -503  -550  -578  -586  -581  -568  -537  -480  -415  -385  -413  -475  -531  -560  -570  -579  -597  -627  -661  -681  -677  -661  -641  -608  -566  -533  -521  -529  -556  -585  -593  -577  -558  -576  -655  -765  -841  -842  -789  -730  -681  -609  -502  -389  -313  -292  -296  -300  -303  -316  -366  -474  -612  -724  -783  -806  -812  -815  -821  -823  -807  -788  -848  -1051  -1291  -1255  -631  648  2284  3664  4186  3707  2557  1199  63  -577  -772  -752  -670  -588  -554  -577  -619  -643  -644  -627  -588  -542  -513  -512  -525  -525  -508  -492  -474  -438  -392  -352  -305  -240  -168  -112  -73  -46  -22  4  31  51  74  106  150  221  319  416  487  544  629  762  907  1011  1059  1070  1067  1074  1120  1218  1337  1434  1504  1559  1598  1616  1616  1594  1544  1450  1295  1108  951  833  707  539  344  162  12  -123  -249  -357  -454  -541  -598  -620  -625  -630  -629  -603  -549  -496  -486  -537  -636  -748  -832  -865  -841  -754  -629  -520  -477  -500  -549  -590  -617  -630  -635  -637  -638  -628  -591  -532  -474  -446  -448  -464  -476  -477  -454  -397  -314  -237  -191  -174  -176  -206  -282  -376  -431  -430  -413  -423  -462  -486  -438  -307  -150  -43  -11  -33  -87  -151  -195  -204  -175  -119  -60  -24  -23  -63  -136  -219  -287  -330  -347  -358  -383  -426  -471  -502  -497  -440  -397  -470  -650  -755  -480  428  1920  3535  4589  4598  3557  1918  364  -581  -813  -572  -263  -154  -193  -245  -274  -286  -278  -247  -207  -197  -228  -256  -234  -179  -131  -111  -110  -109  -97  -79  -79  -114  -172  -223  -228  -170  -70  29  114  188  248  281  282  259  232  220  240  318  460  631  773  857  892  903  929  1005  1129  1251  1326  1348  1338  1305  1264  1233  1223  1225  1231  1239  1240  1195  1058  834  583  353  149  -39  -200  -303  -355  -415  -540  -707  -836  -890  -898  -900  -901  -897  -881  -855  -829  -801  -757  -705  -660  -620  -579  -546  -526  -519  -519  -524  -534  -547  -559  -561  -531  -461  -380  -345  -370  -416  -448  -454  -449  -449  -456  -473  -507  -553  -589  -604  -607  -605  -594  -570  -539  -516  -507  -509  -512  -504  -484  -464  -442  -411  -369  -317  -260  -205  -156  -115  -84  -68  -85  -162  -294  -430  -519  -555  -560  -560  -575  -591  -585  -568  -557  -547  -577  -677  -704  -363  569  2006  3454  4258  4049  2910  1286  -185  -1040  -1222  -961  -583  -342  -270  -252  -227  -203  -190  -189  -209  -255  -318  -371  -395  -385  -330  -243  -172  -163  -206  -248  -236  -149  -22  75  115  117  109  95  76  64  77  119  184  260  339  414  477  517  551  624  746  878  991  1090  1175  1249  1338  1441  1521  1556  1560  1556  1558  1563  1570  1575  1575  1546  1464  1319  1130  934  763  609  419  150  -139  -341  -428  -459  -479  -499  -523  -554  -594  -646  -700  -731  -726  -699  -674  -654  -624  -569  -505  -461  -453  -473  -511  -549  -576  -594  -599  -588  -569  -556  -558  -571  -575  -567  -552  -534  -517  -516  -558  -638  -697  -694  -650  -610  -598  -610  -628  -643  -654  -642  -571  -429  -285  -224  -246  -297  -343  -359  -342  -307  -273  -270  -321  -419  -525  -598  -632  -659  -707  -756  -729  -597  -470  -499  -718  -943  -777  107  1611  3158  4008  3707  2360  585  -826  -1406  -1240  -748  -342  -230  -340  -468  -511  -501  -490  -492  -497  -486  -454  -416  -386  -364  -353  -351  -353  -355  -357  -356  -347  -325  -284  -222  -155  -109  -77  -35  16  66  111  151  180  206  239  279  330  397  475  562  658  762  863  957  1056  1163  1250  1291  1300  1305  1322  1361  1413  1454  1470  1466  1448  1415  1354  1258  1131  969  753  475  180  -43  -159  -218  -290  -406  -535  -621  -648  -645  -638  -627  -594  -531  -471  -449  -452  -455  -454  -447  -432  -415  -406  -420  -469  -530  -572  -586  -584  -571  -555  -544  -538  -527  -497  -457  -427  -418  -420  -421  -411  -394  -388  -409  -449  -471  -456  -422  -393  -363  -304  -220  -151  -121  -124  -142  -164  -199  -267  -371  -499  -634  -758  -848  -893  -876  -765  -572  -413  -398  -535  -792  -1083  -1168  -739  360  1957  3515  4340  4016  2705  1026  -344  -1037  -1101  -837  -521  -311  -271  -352  -438  -457  -407  -322  -249  -214  -206  -206  -210  -226  -255  -286  -302  -297  -266  -208  -141  -96  -85  -91  -87  -58  -5  52  96  116  107  82  75  132  266  437  584  668  694  697  700  715  755  830  931  1034  1126  1226  1348  1453  1484  1449  1394  1353  1352  1379  1388  1355  1276  1147  965  730  488  311  207  92  -109  -367  -586  -710  -752  -755  -743  -725  -710  -708  -714  -712  -687  -643  -608  -597  -597  -595  -583  -563  -541  -526  -528  -556  -595  -624  -638  -640  -622  -566  -480  -401  -353  -343  -371  -437  -516  -571  -592  -595  -596  -600  -612  -630  -638  -620  -570  -502  -434  -368  -292  -200  -108  -45  -28  -47  -98  -173  -282  -445  -635  -772  -825  -825  -802  -763  -729  -714  -700  -707  -830  -1054  -1138  -747  330  1960  3583  4491  4305  3160  1553  110  -728  -938  -763  -501  -358  -348  -380  -398  -400  -403  -432  -485  -527  -535  -516  -484  -440  -373  -291  -228  -195  -176  -147  -93  -25  23  36  22  -2  -27  -37  -6  92  235  349  394  395  401  439  496  541  578  634  708  769  806  832  870  940  1046  1162  1255  1328  1406  1483  1533  1539  1509  1457  1396  1316  1178  981  783  627  492  342  184  45  -86  -221  -334  -408  -459  -500  -525  -534  -542  -557  -579  -597  -599  -578  -535  -503  -510  -541  -562  -569  -572  -576  -567  -522  -439  -338  -248  -194  -193  -247  -328  -392  -419  -423  -423  -423  -423  -421  -416  -413  -432  -489  -570  -634  -654  -616  -503  -346  -220  -165  -159  -164  -167  -169  -177  -190  -196  -197  -211  -267  -365  -464  -524  -550  -576  -615  -655  -680  -666  -597  -529  -577  -801  -1115  -1258  -834  382  2146  3815  4680  4351  3028  1366  28  -644  -712  -504  -325  -267  -293  -356  -419  -460  -483  -502  -514  -513  -499  -480  -465  -452  -424  -366  -290  -228  -202  -214  -249  -281  -281  -228  -114  22  116  145  131  93  47  18  28  87  172  247  315  398  494  595  712  839  956  1056  1141  1198  1229  1249  1273  1321  1417  1544  1637  1637  1525  1344  1183  1105  1097  1095  1032  859  595  291  -16  -293  -490  -588  -617  -624  -635  -643  -633  -607  -585  -591  -623  -652  -660  -656  -655  -652  -631  -595  -562  -551  -569  -591  -596  -589  -581  -580  -586  -590  -589  -588  -580  -560  -524  -480  -447  -446  -482  -538  -590  -621  -628  -624  -619  -616  -612  -593  -541  -471  -425  -426  -463  -493  -485  -439  -348  -195  -19  94  91  -23  -188  -330  -434  -516  -564  -570  -561  -561  -576  -610  -657  -674  -650  -653  -741  -866  -841  -375  722  2288  3758  4454  4053  2784  1235  21  -548  -593  -444  -344  -339  -379  -417  -436  -438  -423  -384  -333  -295  -282  -287  -292  -287  -267  -241  -230  -228  -201  -151  -118  -115  -120  -107  -62  1  51  76  88  102  120  152  202  258  296  320  363  459  599  738  844  913  950  959  957  989  1099  1266  1418  1515  1567  1590  1597  1599  1598  1569  1480  1330  1148  963  793  633  464  294  161  61  -55  -225  -424  -582  -664  -698  -717  -724  -719  -722  -741  -741  -686  -591  -502  -437  -403  -430  -527  -639  -693  -662  -577  -489  -425  -392  -407  -488  -623  -748  -798  -766  -695  -637  -610  -606  -614  -635  -663  -686  -696  -696  -689  -684  -685  -689  -697  -711  -739  -782  -809  -772  -677  -578  -516  -482  -446  -398  -348  -306  -285  -298  -335  -375  -437  -560  -718  -832  -874  -880  -884  -865  -765  -571  -392  -363  -583  -1050  -1475  -1414  -594  942  2741  4064  4350  3503  1921  323  -706  -1026  -881  -636  -506  -495  -526  -547  -545  -529  -506  -492  -510  -569  -629  -638  -595  -536  -472  -388  -299  -240  -217  -207  -205  -224  -258  -286  -298  -306  -311  -288  -203  -66  61  140  189  243  302  350  374  380  396  469  635  862  1070  1218  1320  1417  1537  1664  1752  1781  1772  1754  1743  1738  1742  1760  1792  1820  1786  1621  1320  954  615  363  210  129  78  7  -106  -230  -311  -339  -338  -330  -324  -320  -315  -311  -317  -341  -375  -399  -403  -392  -379  -383  -405  -422  -429  -437  -442  -424  -391  -370  -377  -408  -429  -408  -348  -270  -202  -162  -149  -161  -204  -282  -374  -447  -472  -441  -372  -299  -253  -234  -233  -254  -307  -373  -402  -352  -238  -111  -4  78  120  82  -63  -272  -436  -505  -515  -513  -514  -519  -538  -576  -629  -699  -799  -896  -946  -956  -848  -410  492  1740  2942  3574  3320  2263  813  -463  -1169  -1311  -1113  -781  -483  -335  -336  -394  -439  -457  -460  -455  -458  -474  -477  -448  -397  -339  -286  -253  -242  -239  -237  -238  -242  -237  -201  -124  -29  39  61  49  36  52  101  163  214  248  296  386  499  586  622  626  645  726  878  1050  1180  1245  1272  1298  1336  1372  1402  1445  1502  1552  1573  1560  1518  1434  1255  946  578  293  144  59  -41  -188  -348  -475  -557  -625  -696  -756  -781  -763  -725  -695  -669  -627  -570  -528  -513  -515  -521  -524  -518  -497  -459  -423  -413  -449  -515  -573  -608  -627  -631  -600  -525  -437  -384  -373  -380  -396  -424  -461  -484  -477  -447  -412  -393  -397  -418  -437  -436  -405  -350  -281  -205  -131  -82  -63  -66  -95  -170  -309  -481  -617  -678  -685  -677  -670  -660  -641  -601  -543  -503  -512  -581  -744  -950  -922  -335  898  2479  3784  4187  3424  1797  53  -1128  -1506  -1225  -670  -225  -23  -25  -157  -302  -369  -356  -300  -241  -206  -199  -209  -216  -197  -134  -41  37  78  86  72  44  13  6  39  84  111  121  126  134  145  160  181  220  283  361  446  529  599  646  664  663  671  738  898  1101  1252  1316  1334  1363  1429  1527  1637  1697  1620  1423  1249  1176  1154  1101  996  864  712  521  293  73  -88  -188  -257  -332  -433  -537  -602  -618  -610  -602  -600  -602  -605  -609  -609  -599  -576  -538  -494  -460  -446  -443  -441  -435  -420  -394  -355  -303  -236  -173  -162  -241  -378  -498  -544  -513  -435  -354  -301  -286  -316  -403  -526  -631  -671  -630  -524  -402  -319  -294  -303  -324  -342  -348  -338  -315  -279  -227  -167  -120  -101  -119  -178  -256  -322  -366  -405  -450  -495  -527  -555  -593  -626  -621  -581  -537  -545  -677  -907  -1053  -843  -52  1312  2854  3939  4112  3331  1919  463  -534  -972  -1033  -932  -821  -751  -695  -628  -561  -514  -492  -486  -487  -494  -505  -518  -531  -545  -552  -534  -478  -393  -313  -267  -247  -235  -229  -231  -235  -235  -233  -227  -219  -204  -173  -120  -36  92  240  353  426  508  609  683  703  699  726  823  963  1085  1171  1235  1274  1286  1282  1279  1286  1303  1315  1311  1296  1276  1232  1112  880  596  374  251  157  20  -159  -331  -459  -548  -638  -744  -837  -886  -895  -868  -806  -731  -681  -671  -683  -693  -666  -577  -448  -342  -298  -324  -410  -523  -603  -622  -592  -537  -480  -438  -416  -408  -401  -395  -399  -430  -494  -569  -612  -604  -551  -475  -405  -360  -340  -347  -380  -429  -457  -437  -384  -321  -260  -220  -216  -250  -308  -342  -319  -250  -174  -115  -73  -36  -8  -17  -76  -162  -238  -296  -343  -380  -406  -436  -476  -517  -549  -570  -586  -565  -474  -379  -408  -604  -872  -946  -490  632  2217  3732  4529  4259  3080  1514  169  -581  -754  -604  -388  -238  -185  -216  -284  -338  -368  -389  -414  -444  -475  -493  -485  -442  -377  -317  -278  -265  -270  -277  -262  -215  -157  -101  -39  15  39  33  15  4  6  21  70  191  373  537  619  626  611  622  687  786  874  932  971  1013  1070  1145  1238  1363  1502  1599  1632  1633  1630  1619  1569  1461  1302  1113  923  764  657  561  404  194  12  -110  -215  -332  -451  -542  -589  -594  -557  -479  -376  -291  -251  -251  -269  -289  -302  -307  -312  -323  -340  -373  -423  -447  -417  -373  -350  -336  -303  -254  -218  -216  -241  -275  -314  -368  -429  -478  -506  -495  -438  -353  -272  -223  -214  -242  -302  -391  -485  -548  -575  -589  -601  -612  -620  -620  -621  -629  -628  -606  -580  -566  -567  -572  -574  -566  -541  -504  -473  -456  -437  -395  -325  -244  -160  -61  51  127  99  -68  -317  -523  -619  -641  -647  -658  -669  -671  -654  -622  -599  -625  -725  -864  -868  -431  616  2071  3449  4213  4051  3062  1677  417  -380  -690  -686  -572  -467  -398  -357  -342  -363  -415  -473  -525  -562  -576  -563  -524  -459  -376  -295  -243  -218  -203  -194  -201  -217  -215  -181  -139  -111  -93  -76  -50  -5  47  86  109  131  169  242  356  471  540  560  568  609  707  853  1015  1151  1222  1237  1257  1328  1434  1503  1497  1460  1443  1445  1437  1400  1318  1173  983  815  703  589  416  204  19  -89  -136  -177  -258  -371  -454  -481  -489  -514  -540  -545  -525  -500  -489  -489  -497  -519  -553  -587  -603  -570  -489  -400  -336  -316  -353  -426  -496  -537  -551  -554  -556  -557  -551  -541  -535  -531  -523  -517  -533  -571  -597  -578  -512  -418  -333  -296  -321  -381  -435  -463  -472  -478  -490  -502  -503  -494  -489  -495  -482  -421  -343  -287  -256  -258  -288  -316  -322  -318  -338  -407  -507  -584  -612  -602  -564  -487  -350  -164  7  101  100  9  -142  -291  -376  -393  -379  -364  -350  -331  -321  -363  -499  -694  -849  -922  -908  -686  -33  1165  2705  4043  4592  4092  2750  1112  -174  -734  -705  -477  -308  -255  -273  -305  -329  -349  -350  -323  -286  -261  -254  -264  -284  -307  -337  -367  -382  -362  -292  -185  -77  7  56  60  32  1  -27  -59  -88  -80  -11  96  202  296  384  447  479  503  540  599  666  736  837  978  1121  1230  1303  1357  1396  1415  1416  1414  1419  1429  1432  1414  1372  1321  1269  1198  1092  968  834  672  478  273  68  -116  -249  -331  -388  -430  -451  -462  -484  -539  -621  -698  -726  -695  -634  -572  -504  -445  -417  -412  -415  -430  -466  -515  -550  -562  -563  -565  -570  -574  -572  -562  -547  -531  -504  -467  -440  -441  -466  -493  -512  -520  -520  -519  -524  -539  -559  -575  -582  -584  -583  -578  -565  -543  -530  -551  -600  -642  -659  -662  -664  -664  -646  -595  -526  -479  -467  -462  -425  -340  -229  -124  -40  33  91  93  -1  -164  -308  -383  -410  -428  -456  -494  -516  -470  -364  -320  -418  -606  -811  -942  -793  -132  1078  2538  3694  4034  3373  1965  397  -732  -1151  -990  -561  -186  -92  -230  -334  -299  -229  -196  -190  -195  -204  -213  -220  -224  -228  -228  -204  -147  -87  -62  -52  -16  40  87  109  113  115  123  134  149  172  206  264  341  404  435  456  499  578  679  777  852  921  1015  1124  1209  1248  1255  1259  1278  1310  1354  1410  1475  1538  1577  1570  1500  1383  1268  1188  1127  1048  930  783  634  489  305  37  -282  -555  -709  -755  -749  -731  -716  -686  -619  -530  -462  -436  -436  -450  -478  -515  -546  -561  -562  -546  -512  -467  -426  -395  -373  -364  -364  -363  -361  -365  -376  -391  -419  -479  -560  -623  -649  -639  -591  -507  -412  -337  -302  -303  -321  -342  -363  -379  -394  -411  -438  -477  -481  -372  -147  72  170  123  -19  -201  -366  -470  -505  -497  -468  -437  -422  -437  -480  -537  -611  -699  -755  -734  -681  -663  -577  -151  783  2057  3191  3646  3114  1722  64  -1177  -1682  -1529  -1043  -596  -358  -283  -282  -296  -299  -294  -287  -271  -230  -178  -155  -171  -203  -221  -214  -192  -159  -107  -45  3  34  56  71  77  74  71  71  75  81  91  105  126  167  242  356  495  635  750  837  920  1013  1100  1161  1209  1264  1330  1404  1495  1589  1644  1640  1602  1561  1519  1458  1383  1322  1279  1212  1062  799  463  161  -11  -64  -78  -113  -182  -282  -417  -578  -722  -796  -798  -776  -771  -785  -785  -730  -615  -489  -409  -389  -405  -422  -418  -405  -418  -459  -492  -491  -464  -446  -459  -494  -536  -571  -585  -581  -570  -559  -550  -544  -534  -509  -475  -450  -453  -487  -544  -602  -640  -639  -585  -498  -411  -336  -272  -230  -223  -248  -284  -309  -315  -315  -328  -368  -443  -542  -635  -694  -718  -724  -713  -686  -666  -682  -780  -960  -1047  -746  107  1412  2786  3691  3734  2890  1523  176  -748  -1111  -994  -683  -482  -465  -534  -608  -666  -699  -704  -682  -637  -582  -537  -517  -515  -514  -496  -456  -393  -322  -270  -250  -246  -235  -220  -219  -234  -254  -272  -291  -302  -282  -213  -116  -33  23  74  146  266  433  588  672  685  680  712  798  911  1010  1088  1153  1201  1230  1256  1296  1359  1425  1453  1418  1334  1201  992  712  421  168  -22  -136  -190  -216  -247  -306  -401  -511  -597  -644  -666  -675  -673  -649  -592  -515  -452  -417  -404  -406  -414  -417  -404  -379  -356  -334  -301  -267  -250  -253  -267  -286  -303  -320  -340  -361  -382  -408  -432  -445  -448  -448  -450  -453  -451  -431  -394  -356  -333  -316  -299  -284  -274  -268  -249  -203  -135  -67  -20  1  2  -30  -118  -244  -347  -391  -393  -383  -380  -389  -408  -432  -455  -469  -474  -506  -643  -877  -983  -611  441  2017  3581  4468  4288  3150  1573  221  -491  -613  -448  -264  -220  -326  -434  -444  -401  -371  -367  -371  -365  -342  -301  -257  -230  -223  -223  -223  -217  -193  -140  -75  -22  10  24  9  -43  -108  -127  -81  1  83  133  141  139  183  301  444  550  622  700  784  854  917  999  1106  1212  1293  1340  1362  1368  1367  1364  1362  1363  1364  1365  1370  1376  1353  1253  1064  827  579  318  35  -229  -404  -472  -481  -490  -518  -557  -589  -613  -637  -673  -713  -740  -748  -745  -739  -725  -700  -662  -621  -594  -583  -580  -579  -580  -587  -595  -596  -587  -571  -556  -545  -529  -504  -483  -487  -523  -564  -589  -607  -624  -636  -641  -643  -652  -676  -712  -735  -724  -686  -647  -622  -588  -513  -403  -301  -235  -203  -193  -199  -223  -272  -344  -423  -492  -556  -622  -681  -728  -752  -745  -706  -636  -593  -676  -899  -1144  -1168  -618  666  2372  3859  4505  4031  2678  1046  -248  -893  -975  -754  -448  -210  -140  -249  -428  -551  -604  -630  -635  -595  -498  -368  -255  -188  -162  -162  -180  -201  -212  -210  -197  -182  -169  -158  -137  -96  -33  36  94  135  165  191  214  239  274  319  371  438  528  636  756  900  1074  1249  1368  1407  1397  1375  1360  1356  1361  1378  1405  1438  1469  1478  1432  1316  1174  1081  1062  1067  999  769  383  -33  -337  -480  -505  -496  -517  -569  -632  -693  -741  -769  -778  -760  -705  -630  -577  -561  -567  -575  -567  -536  -483  -415  -335  -253  -194  -173  -207  -318  -481  -625  -696  -682  -609  -529  -483  -471  -474  -477  -474  -473  -484  -506  -525  -533  -535  -538  -541  -526  -475  -400  -332  -283  -241  -194  -157  -144  -151  -172  -222  -314  -425  -509  -559  -601  -637  -646  -627  -609  -622  -664  -688  -713  -824  -962  -840  -127  1241  2876  4127  4457  3694  2152  502  -646  -1083  -948  -552  -245  -199  -314  -434  -495  -503  -487  -464  -432  -391  -348  -293  -229  -193  -207  -249  -266  -232  -182  -162  -167  -164  -134  -98  -79  -79  -88  -95  -83  -45  14  80  150  232  319  384  410  417  454  562  737  915  1035  1085  1100  1111  1128  1143  1157  1190  1260  1348  1408  1415  1381  1336  1309  1283  1190  969  657  360  154  18  -116  -294  -483  -629  -713  -748  -747  -722  -687  -662  -673  -721  -768  -785  -774  -754  -741  -735  -728  -714  -702  -712  -741  -753  -717  -651  -600  -580  -577  -576  -567  -552  -538  -534  -533  -522  -489  -449  -423  -420  -433  -456  -479  -499  -512  -513  -490  -428  -334  -245  -194  -190  -233  -322  -435  -544  -635  -690  -694  -661  -627  -617  -631  -651  -657  -632  -598  -647  -834  -1040  -982  -354  901  2432  3618  3932  3251  1885  403  -629  -990  -891  -663  -512  -497  -531  -498  -411  -349  -333  -338  -345  -351  -359  -371  -384  -380  -338  -256  -167  -113  -98  -95  -95  -108  -132  -153  -149  -111  -51  25  122  218  285  331  368  393  398  392  392  422  502  632  777  909  1036  1175  1304  1386  1418  1425  1428  1427  1417  1402  1391  1391  1403  1419  1426  1398  1283  1051  758  500  322  207  121  23  -100  -229  -355  -492  -627  -715  -742  -739  -735  -734  -716  -671  -618  -585  -579  -584  -590  -587  -571  -552  -542  -543  -553  -569  -590  -616  -633  -624  -586  -525  -457  -411  -401  -417  -439  -456  -462  -454  -420  -355  -280  -229  -212  -204  -181  -156  -160  -217  -331  -472  -577  -618  -622  -620  -627  -660  -727  -794  -817  -793  -712  -581  -491  -542  -747  -944  -771  67  1469  2921  3767  3598  2484  919  -426  -1120  -1208  -982  -700  -514  -447  -443  -455  -464  -466  -466  -463  -462  -461  -457  -451  -447  -447  -449  -440  -408  -356  -300  -249  -205  -176  -157  -129  -92  -61  -38  -8  41  106  165  205  225  231  229  225  238  294  398  522  636  749  879  1020  1173  1343  1495  1584  1604  1576  1510  1429  1374  1360  1371  1376  1348  1276  1168  1033  862  640  389  157  -26  -161  -249  -299  -345  -434  -562  -684  -759  -761  -688  -581  -503  -461  -408  -325  -243  -200  -191  -200  -219  -254  -297  -329  -345  -357  -376  -401  -431  -469  -499  -493  -444  -381  -334  -310  -297  -270  -225  -182  -163  -167  -176  -178  -172  -157  -138  -126  -128  -143  -175  -234  -321  -420  -496  -534  -543  -540  -533  -527  -527  -529  -515  -467  -436  -548  -846  -1189  -1340  -1008  29  1644  3293  4318  4332  3378  1870  419  -486  -769  -680  -517  -451  -489  -540  -544  -521  -504  -506  -522  -546  -565  -565  -536  -480  -416  -358  -301  -243  -199  -181  -177  -178  -179  -181  -189  -200  -200  -172  -119  -63  -25  -13  -14  -7  34  127  264  402  505  581  658  743  827  918  1035  1170  1282  1340  1352  1347  1340  1333  1328  1334  1350  1362  1340  1251  1092  900  716  560  426  284  97  -143  -388  -562  -641  -661  -661  -664  -678  -703  -726  -737  -733  -716  -686  -651  -627  -624  -638  -655  -658  -636  -595  -560  -542  -521  -494  -477  -474  -476  -475  -472  -472  -489  -519  -543  -554  -568  -600  -647  -685  -698  -678  -617  -528  -441  -376  -326  -274  -211  -146  -87  -42  -29  -80  -211  -395  -573  -690  -734  -740  -741  -733  -671  -542  -430  -422  -527  -724  -966  -1104  -884  -67  1360  3019  4248  4501  3673  2141  582  -414  -692  -486  -163  -1  -59  -213  -332  -381  -389  -382  -353  -290  -210  -165  -187  -260  -336  -379  -383  -360  -316  -254  -181  -115  -74  -54  -41  -31  -16  20  87  165  217  229  221  227  273  356  445  515  567  614  660  706  758  831  937  1055  1156  1227  1282  1345  1421  1493  1550  1581  1561  1495  1435  1399  1330  1162  899  621  387  193  19  -132  -247  -319  -382  -476  -586  -657  -675  -673  -681  -706  -733  -748  -753  -755  -743  -702  -643  -595  -568  -545  -518  -497  -489  -490  -490  -489  -488  -483  -474  -464  -457  -452  -447  -446  -464  -516  -587  -639  -658  -655  -640  -615  -595  -606  -648  -688  -685  -629  -553  -491  -435  -351  -214  -49  64  59  -82  -307  -517  -651  -711  -725  -725  -723  -715  -689  -635  -550  -435  -349  -435  -762  -1138  -1144  -427  1023  2786  4158  4534  3806  2370  821  -290  -700  -579  -298  -118  -105  -207  -344  -432  -435  -392  -351  -326  -310  -290  -267  -249  -233  -209  -173  -132  -104  -100  -119  -143  -138  -86  -18  27  45  51  63  92  128  166  216  273  317  343  366  397  447  535  660  791  894  971  1054  1167  1295  1396  1446  1455  1450  1449  1459  1474  1481  1465  1422  1350  1241  1092  928  770  603  408  204  34  -78  -166  -289  -437  -546  -603  -654  -720  -778  -803  -802  -792  -777  -749  -705  -660  -628  -607  -595  -592  -589  -571  -509  -410  -325  -294  -310  -352  -400  -455  -528  -599  -646  -676  -699  -707  -703  -697  -696  -696  -683  -642  -586  -545  -531  -533  -538  -541  -542  -535  -519  -501  -494  -500  -511  -526  -539  -536  -509  -459  -396  -320  -237  -169  -121  -95  -113  -194  -318  -439  -529  -583  -609  -626  -645  -654  -637  -607  -588  -592  -652  -810  -991  -968  -453  689  2251  3682  4359  3978  2744  1218  6  -571  -615  -433  -285  -288  -390  -473  -493  -484  -475  -473  -476  -476  -455  -397  -321  -264  -233  -207  -172  -129  -79  -24  27  65  86  96  101  109  120  128  133  141  162  206  278  362  435  497  561  623  673  719  794  919  1059  1157  1206  1247  1309  1396  1505  1610  1682  1720  1744  1759  1758  1733  1679  1594  1469  1310  1121  874  555  236  16  -98  -172  -238  -291  -328  -355  -381  -404  -419  -442  -500  -594  -685  -736  -738  -703  -650  -600  -557  -514  -473  -449  -442  -444  -449  -451  -448  -427  -379  -316  -269  -273  -344  -445  -507  -510  -478  -432  -392  -374  -379  -401  -435  -475  -515  -552  -583  -600  -595  -569  -530  -488  -451  -414  -378  -342  -295  -224  -134  -71  -109  -240  -377  -476  -557  -628  -675  -700  -711  -712  -700  -682  -679  -680  -640  -562  -548  -673  -826  -723  -79  1175  2675  3705  3734  2770  1232  -254  -1137  -1284  -991  -627  -383  -305  -333  -366  -366  -354  -339  -313  -276  -240  -211  -188  -175  -164  -145  -119  -101  -104  -121  -129  -117  -95  -73  -42  5  60  98  104  82  48  25  40  119  244  369  461  525  580  640  711  785  866  980  1119  1231  1292  1319  1333  1340  1346  1356  1375  1406  1440  1458  1452  1426  1370  1262  1103  926  733  508  261  21  -198  -378  -484  -515  -511  -513  -530  -555  -574  -586  -602  -629  -662  -673  -646  -599  -568  -566  -580  -599  -619  -623  -585  -496  -396  -331  -313  -321  -343  -375  -410  -445  -480  -518  -541  -533  -508  -494  -501  -519  -525  -502  -461  -421  -389  -364  -353  -364  -394  -436  -474  -488  -456  -368  -243  -124  -63  -80  -157  -258  -354  -439  -507  -546  -554  -544  -534  -546  -606  -709  -797  -801  -737  -730  -828  -850  -495  437  1872  3333  4130  3833  2591  991  -342  -1025  -1050  -733  -439  -324  -357  -440  -495  -506  -494  -473  -453  -441  -444  -452  -441  -379  -263  -140  -63  -39  -43  -55  -70  -83  -88  -83  -76  -67  -46  -6  41  82  113  134  143  151  199  319  478  597  658  702  761  830  893  953  1038  1154  1269  1347  1391  1428  1471  1516  1555  1574  1566  1544  1505  1416  1274  1113  958  803  634  428  184  -65  -276  -411  -470  -484  -501  -555  -645  -738  -798  -816  -798  -754  -699  -647  -610  -591  -575  -555  -538  -531  -529  -525  -514  -489  -459  -441  -440  -449  -455  -451  -440  -431  -421  -406  -386  -369  -359  -352  -350  -362  -402  -467  -537  -595  -631  -635  -603  -540  -461  -385  -331  -309  -332  -383  -422  -433  -426  -402  -342  -236  -108  -13  18  -8  -82  -176  -259  -346  -477  -645  -796  -884  -886  -804  -659  -492  -383  -420  -634  -941  -1076  -664  498  2169  3737  4546  4233  2934  1243  -123  -812  -936  -750  -492  -353  -355  -411  -471  -509  -507  -478  -448  -430  -416  -395  -365  -336  -308  -267  -216  -171  -136  -107  -87  -77  -76  -77  -81  -86  -90  -82  -53  -2  47  79  95  127  217  373  539  656  729  785  830  863  890  925  988  1099  1234  1329  1366  1388  1432  1489  1529  1539  1531  1514  1469  1360  1193  1029  896  765  610  432  235  39  -116  -217  -287  -362  -454  -548  -620  -658  -661  -644  -632  -632  -628  -606  -571  -539  -520  -513  -512  -503  -474  -431  -397  -385  -386  -385  -382  -381  -379  -368  -352  -356  -385  -415  -430  -440  -459  -482  -486  -463  -431  -413  -416  -437  -477  -521  -519  -453  -385  -370  -385  -394  -398  -425  -482  -530  -536  -509  -479  -458  -432  -372  -274  -172  -104  -75  -78  -111  -191  -318  -446  -521  -540  -529  -509  -490  -493  -542  -623  -670  -677  -751  -943  -1105  -955  -229  1121  2783  4151  4621  4007  2655  1132  -38  -590  -645  -497  -353  -309  -348  -394  -415  -420  -420  -408  -375  -328  -289  -273  -276  -292  -317  -332  -306  -213  -77  31  83  98  99  76  7  -80  -115  -60  64  201  293  320  309  290  282  302  363  449  546  669  828  986  1103  1166  1187  1191  1205  1245  1313  1397  1477  1528  1546  1546  1530  1491  1428  1349  1253  1135  994  818  594  354  157  14  -110  -256  -425  -578  -677  -719  -726  -716  -689  -648  -613  -591  -582  -579  -589  -617  -657  -695  -715  -707  -680  -640  -592  -554  -540  -536  -519  -480  -434  -404  -395  -402  -417  -438  -460  -489  -528  -568  -600  -620  -625  -610  -569  -512  -472  -473  -513  -564  -590  -584  -570  -564  -563  -557  -538  -515  -514  -551  -607  -634  -612  -566  -537  -524  -477  -352  -178  -36  21  -3  -98  -246  -392  -465  -464  -445  -446  -472  -514  -561  -607  -642  -656  -655  -683  -783  -894  -790  -181  1046  2625  3965  4480  3923  2555  1005  -125  -590  -534  -324  -248  -326  -429  -482  -495  -500  -499  -474  -415  -355  -345  -374  -378  -334  -275  -231  -205  -193  -190  -194  -202  -209  -212  -212  -196  -144  -59  22  75  114  174  255  320  350  365  388  422  462  515  598  697  763  789  825  923  1075  1216  1299  1328  1344  1377  1428  1473  1496  1505  1510  1501  1438  1288  1086  905  768  634  474  286  71  -159  -371  -530  -629  -681  -705  -721  -734  -736  -728  -722  -723  -721  -693  -629  -557  -528  -549  -571  -549  -488  -430  -398  -390  -392  -393  -392  -391  -391  -390  -388  -388  -397  -428  -481  -536  -568  -567  -532  -475  -421  -399  -415  -449  -477  -490  -485  -452  -387  -318  -287  -313  -367  -412  -434  -446  -449  -436  -409  -378  -349  -298  -192  -49  61  86  4  -174  -384  -533  -593  -597  -569  -517  -465  -440  -448  -465  -452  -426  -486  -691  -912  -832  -137  1205  2807  4010  4266  3451  1920  329  -739  -1097  -915  -538  -280  -228  -294  -372  -416  -430  -429  -420  -391  -342  -295  -274  -277  -287  -295  -303  -309  -290  -221  -120  -50  -47  -82  -99  -68  11  115  208  262  277  275  274  276  284  317  396  505  596  636  642  664  745  882  1035  1160  1250  1335  1440  1544  1612  1635  1631  1622  1611  1583  1525  1444  1359  1279  1194  1093  966  791  555  284  11  -242  -438  -542  -568  -573  -604  -660  -710  -736  -723  -680  -639  -621  -619  -623  -632  -650  -676  -702  -724  -732  -707  -647  -580  -554  -586  -643  -677  -658  -584  -498  -448  -434  -428  -428  -473  -601  -767  -866  -848  -751  -639  -563  -534  -531  -534  -538  -542  -539  -524  -494  -455  -415  -380  -356  -343  -342  -351  -376  -419  -480  -555  -623  -659  -666  -666  -672  -677  -657  -599  -533  -517  -609  -810  -976  -859  -213  1007  2478  3598  3821  3014  1505  -104  -1205  -1521  -1212  -643  -173  10  -42  -183  -307  -377  -407  -408  -368  -281  -191  -159  -188  -230  -261  -289  -311  -305  -258  -177  -81  23  125  194  218  220  213  182  120  67  86  169  245  283  323  414  549  673  748  789  839  936  1065  1172  1238  1285  1338  1412  1498  1568  1601  1607  1607  1614  1629  1629  1565  1389  1120  847  648  536  484  450  359  147  -147  -398  -542  -607  -629  -629  -624  -625  -637  -655  -670  -677  -677  -673  -670  -674  -688  -705  -695  -626  -514  -413  -363  -364  -403  -463  -524  -571  -601  -609  -594  -571  -558  -555  -557  -559  -559  -558  -557  -560  -569  -572  -543  -465  -368  -315  -337  -404  -461  -482  -459  -391  -300  -233  -209  -224  -273  -351  -437  -505  -540  -549  -559  -590  -639  -684  -692  -646  -603  -662  -841  -1008  -879  -142  1252  2912  4148  4374  3497  1959  440  -535  -874  -807  -615  -489  -464  -455  -426  -406  -400  -398  -392  -380  -360  -337  -311  -287  -268  -258  -256  -257  -260  -264  -267  -255  -207  -119  -19  48  69  52  6  -45  -61  -1  126  258  338  364  378  408  463  539  626  737  904  1109  1278  1363  1386  1388  1397  1419  1441  1453  1455  1454  1453  1456  1463  1459  1416  1298  1095  837  584  372  176  -30  -237  -427  -581  -672  -706  -715  -714  -696  -663  -643  -650  -665  -670  -676  -696  -729  -765  -794  -809  -789  -735  -679  -637  -587  -517  -444  -404  -418  -482  -576  -662  -708  -705  -678  -656  -652  -657  -665  -673  -677  -676  -671  -668  -672  -676  -673  -661  -642  -609  -556  -493  -440  -406  -386  -376  -363  -328  -275  -257  -324  -459  -599  -701  -757  -775  -767  -752  -751  -784  -841  -856  -791  -701  -686  -809  -965  -817  -41  1341  2920  4081  4319  3513  2031  526  -477  -810  -644  -373  -271  -314  -378  -406  -390  -356  -332  -323  -320  -320  -320  -321  -321  -322  -321  -319  -315  -311  -308  -313  -324  -320  -274  -179  -71  2  31  34  31  34  53  108  204  325  440  526  588  649  722  795  852  896  962  1078  1221  1325  1364  1370  1383  1418  1466  1513  1546  1536  1482  1424  1387  1368  1333  1222  1009  725  436  209  52  -74  -182  -254  -294  -331  -378  -425  -463  -509  -586  -677  -735  -735  -686  -621  -572  -535  -469  -364  -257  -192  -175  -188  -221  -268  -313  -339  -344  -341  -342  -345  -346  -351  -370  -393  -397  -373  -333  -298  -272  -246  -216  -198  -211  -264  -354  -456  -534  -564  -542  -465  -349  -237  -166  -132  -104  -71  -45  -26  -4  30  69  100  115  105  52  -48  -157  -227  -252  -254  -254  -257  -261  -251  -215  -150  -73  0]
