reading_id,reading_time,wire_id,result_classification,heart_rate,heart_rate_alert,firmware_version,device_app_version,hardware_version,waveform_samples
cec8f100-655e-11ed-8080-808080808080,Wed Nov 16 03:28:58 UTC 2022,8100e3ea1a39,NSR,72,NONE,20001.171.50,2.10.0,Charge 5,[-32768  -32768  -32768  -32768  -13097  26652  32767  32767  32767  32767  32767  32767  32767  32767  32767  32767  32767  32767  32767  32767  32767  32767  32767  32767  32767  32767  32767  32767  32767  32767  32767  32767  32767  32767  32767  32767  32767  32767  32767  32767  32767  32767  32767  32767  32767  32767  32767  32767  32767  32767  32767  32767  32767  32767  32767  32767  32767  32767  32767  32767  32767  32767  32767  32767  32767  32767  32767  32767  32767  32767  32767  32767  32767  32767  32767  32767  32767  32767  32767  32767  32767  32767  32767  32767  32767  32767  32767  32767  32767  32767  32767  32767  32767  32767  32767  32767  32767  32767  32767  32767  32767  32767  32767  32767  32767  32767  32767  32767  32767  32767  32767  32767  32767  32767  32767  32767  32767  32767  32767  32767  32767  32767  32767  32767  32767  32767  32767  32767  32767  32767  32767  32767  32767  32767  32767  32767  32767  32767  32767  32767  32767  32767  32767  32767  32767  32650  32019  31333  30790  30405  30030  29597  29123  28624  28181  27932  27809  27329  26021  24269  23121  22966  23083  22625  21506  20166  18923  18049  18264  19995  21453  19101  12926  10229  18431  32527  32767  5096  -32768  -32768  -32768  -32768  -32768  -32768  -32768  -32768  -32768  -32768  -32768  -32768  -32768  -32768  -32768  -32768  -32768  -32768  -32768  -32768  -32768  -32768  -32768  -32768  -32768  -32768  -32768  -32768  -32768  -32768  -32768  -32768  -32768  -32768  -32768  -32768  -32768  -32768  -31104  -23945  -17212  -10706  -4661  580  5048  9280  13681  17951  21544  24466  27286  30353  32767  32767  32767  32767  32767  32767  32767  32767  32767  32767  32767  32767  32767  32767  32767  32767  32767  32767  32767  32767  32767  32767  32767  32767  32767  32767  32767  32767  32767  32767  32767  32767  32767  32767  32767  32767  32767  32767  32767  32767  32767  32767  32767  32767  32767  32767  32767  32767  32767  32767  32767  32767  32767  32767  32767  32767  32767  32767  32767  32767  32767  32767  32767  32767  32767  32767  32767  32767  32767  32767  32767  32767  32133  31359  30775  30377  30079  29861  29702  29489  29090  28443  27615  26776  26012  25218  24268  23210  22232  21474  20929  20469  19912  19175  18415  17898  17683  17574  17313  16752  15922  15029  14308  13810  13387  12922  12438  12010  11644  11253  10773  10217  9657  9183  8823  8496  8127  7717  7302  6942  6684  6482  6236  5923  5556  5097  4537  3976  3523  3195  2969  2799  2607  2325  1969  1638  1411  1269  1137  955  677  279  -186  -627  -1003  -1314  -1537  -1666  -1770  -1972  -2365  -2877  -3308  -3558  -3712  -3888  -4124  -4398  -4670  -4898  -5062  -5170  -5244  -5303  -5353  -5385  -5431  -5589  -5914  -6316  -6635  -6821  -6931  -7023  -7101  -7151  -7173  -7189  -7219  -7278  -7373  -7480  -7565  -7647  -7773  -7926  -8031  -8051  -8004  -7933  -7886  -7898  -7982  -8103  -8198  -8236  -8235  -8228  -8230  -8237  -8234  -8216  -8197  -8199  -8232  -8290  -8380  -8528  -8710  -8846  -8885  -8831  -8701  -8531  -8383  -8304  -8296  -8328  -8363  -8335  -8170  -7883  -7592  -7390  -7280  -7230  -7216  -7233  -7288  -7360  -7390  -7342  -7251  -7182  -7160  -7164  -7177  -7184  -7162  -7092  -7002  -6946  -6932  -6923  -6891  -6824  -6732  -6644  -6580  -6528  -6448  -6299  -6085  -5872  -5739  -5683  -5643  -5592  -5527  -5401  -5155  -4820  -4504  -4269  -4109  -4009  -3962  -3945  -3940  -3945  -3946  -3924  -3894  -3883  -3899  -3926  -3938  -3908  -3830  -3711  -3564  -3402  -3198  -2859  -2318  -1707  -1279  -1125  -1132  -1192  -1294  -1453  -1653  -1855  -2016  -2103  -2125  -2120  -2106  -2076  -2025  -1969  -1953  -2039  -2265  -2557  -2764  -2817  -2759  -2666  -2566  -2437  -2265  -2098  -2004  -1972  -1921  -1790  -1597  -1400  -1241  -1146  -1120  -1147  -1198  -1242  -1263  -1258  -1228  -1178  -1115  -1039  -962  -915  -903  -892  -846  -766  -683  -615  -569  -553  -557  -542  -495  -441  -399  -356  -298  -234  -187  -172  -175  -181  -187  -211  -264  -322  -347  -343  -358  -420  -507  -571  -608  -624  -608  -588  -613  -679  -730  -726  -685  -660  -661  -654  -631  -615  -620  -627  -579  -428  -214  -44  29  36  7  -46  -93  -95  -55  -10  42  144  285  398  442  441  430  427  427  421  403  384  385  410  428  409  362  314  280  258  232  196  165  152  152  155  157  156  153  151  163  200  254  313  380  465  553  592  535  411  309  266  254  248  272  359  479  567  600  601  592  584  602  675  797  917  978  963  888  770  647  568  545  547  538  504  458  428  429  451  484  535  597  658  719  794  889  1006  1134  1259  1375  1470  1505  1429  1222  933  667  513  475  491  514  529  525  467  339  181  58  -9  -29  3  89  211  313  319  225  96  -12  -87  -141  -192  -241  -271  -278  -272  -264  -259  -261  -261  -234  -137  30  209  338  408  447  476  507  553  624  699  747  765  773  784  792  793  793  808  848  886  882  839  805  817  860  892  888  868  852  822  755  656  554  455  346  226  109  -9  -134  -226  -260  -282  -333  -396  -449  -484  -498  -499  -495  -478  -426  -334  -226  -133  -82  -80  -106  -127  -130  -127  -126  -122  -121  -126  -129  -129  -131  -143  -161  -160  -133  -147  -261  -422  -539  -581  -559  -498  -430  -362  -276  -183  -124  -108  -113  -114  -96  -45  32  105  130  96  31  -14  -17  3  21  18  -25  -112  -209  -276  -293  -251  -140  20  174  263  274  243  220  235  320  493  703  865  957  986  928  777  587  436  358  333  312  263  194  127  64  3  -43  -81  -136  -215  -288  -334  -359  -337  -171  217  780  1353  1737  1813  1616  1297  1023  842  622  291  -2  -131  -115  -12  67  -2  -188  -315  -307  -234  -163  -107  -60  -34  -53  -122  -204  -246  -233  -163  -38  79  129  119  91  82  102  126  129  104  66  40  44  75  105  123  142  170  191  200  215  264  352  444  512  561  608  645  646  604  541  479  432  416  454  557  688  786  828  810  710  515  290  125  39  0  -25  -51  -89  -141  -206  -276  -341  -396  -440  -472  -492  -497  -487  -448  -366  -260  -180  -149  -154  -178  -207  -229  -239  -235  -222  -210  -222  -275  -349  -403  -427  -457  -527  -638  -760  -844  -867  -840  -771  -670  -557  -458  -390  -348  -320  -300  -266  -182  -64  29  49  -11  -115  -198  -229  -228  -219  -201  -166  -122  -90  -69  -31  43  144  249  337  384  362  253  59  -162  -320  -379  -361  -295  -210  -130  -60  1  43  57  57  56  65  86  103  81  -3  -121  -219  -279  -305  -295  -251  -193  -136  -80  -17  39  54  -11  -153  -327  -503  -650  -657  -351  375  1366  2214  2578  2414  1916  1372  1010  810  538  97  -315  -488  -459  -401  -384  -376  -356  -339  -336  -338  -323  -274  -204  -151  -130  -126  -121  -92  -29  47  104  130  137  125  84  21  -29  -51  -51  -36  -4  43  87  104  99  103  140  198  261  317  373  450  546  630  678  704  731  756  767  762  744  700  605  440  251  129  135  269  459  599  614  490  254  -18  -235  -321  -265  -137  -28  20  25  29  53  72  41  -54  -191  -323  -415  -461  -453  -361  -172  46  202  265  264  213  109  -19  -119  -186  -245  -290  -308  -312  -319  -325  -307  -244  -149  -58  2  31  43  58  69  47  -23  -92  -90  -20  44  69  66  62  69  83  86  67  38  8  -23  -58  -90  -107  -109  -108  -117  -138  -156  -156  -151  -151  -135  -92  -50  -31  -22  -1  31  52  29  -48  -136  -188  -219  -254  -294  -321  -306  -255  -214  -196  -184  -174  -175  -190  -206  -211  -210  -215  -228  -238  -233  -195  -138  -121  -140  -158  -261  -490  -692  -661  -231  618  1601  2282  2408  2012  1342  747  456  404  356  164  -119  -348  -462  -498  -498  -463  -385  -295  -218  -143  -79  -49  -54  -82  -122  -174  -252  -342  -410  -444  -450  -434  -405  -373  -329  -256  -162  -93  -78  -102  -132  -140  -118  -66  29  174  329  425  423  324  182  71  28  39  77  120  152  179  229  318  423  498  526  526  526  539  560  561  516  429  340  275  222  157  78  -9  -105  -227  -416  -649  -818  -844  -723  -511  -297  -154  -94  -91  -131  -222  -354  -482  -562  -585  -562  -504  -427  -359  -323  -317  -327  -326  -285  -188  -58  68  169  219  192  84  -56  -155  -186  -181  -169  -157  -148  -165  -249  -409  -586  -697  -718  -686  -641  -597  -544  -470  -385  -313  -263  -227  -199  -172  -133  -71  10  98  170  208  207  159  52  -118  -320  -490  -593  -643  -660  -640  -565  -446  -333  -270  -248  -243  -242  -237  -230  -232  -249  -269  -284  -287  -254  -160  -23  91  141  139  112  75  33  -14  -59  -111  -197  -307  -404  -465  -491  -494  -489  -491  -525  -611  -738  -859  -900  -721  -185  649  1463  1916  1927  1629  1201  866  752  694  468  92  -255  -436  -385  -170  -13  -42  -148  -219  -268  -312  -337  -343  -341  -341  -345  -341  -311  -257  -204  -174  -161  -148  -137  -142  -180  -254  -326  -346  -323  -320  -359  -398  -384  -281  -77  170  355  433  450  455  457  455  475  553  688  838  961  1037  1043  950  754  532  391  385  514  734  965  1147  1252  1263  1198  1087  910  659  401  211  98  39  25  42  63  70  55  15  -45  -107  -145  -152  -137  -116  -98  -84  -80  -102  -169  -263  -335  -355  -322  -244  -154  -89  -64  -56  -48  -39  -34  -37  -35  -10  39  83  85  50  11  -20  -44  -50  -32  -4  0  -43  -105  -145  -150  -137  -123  -116  -116  -118  -119  -121  -128  -138  -141  -118  -61  -6  -6  -61  -118  -143  -146  -142  -139  -132  -119  -105  -107  -162  -287  -441  -546  -542  -405  -167  79  252  332  342  299  201  81  -1  -28  -20  -1  14  3  -62  -182  -303  -375  -394  -382  -367  -369  -398  -434  -441  -397  -291  -111  164  504  795  937  925  807  658  555  526  549  590  614  548  332  22  -224  -340  -389  -435  -468  -458  -406  -328  -241  -179  -172  -222  -299  -358  -384  -389  -380  -358  -323  -274  -205  -121  -18  121  277  392  437  409  300  120  -59  -153  -131  -14  148  296  388  432  460  505  578  678  778  826  772  621  473  453  554  663  710  717  717  716  695  634  535  421  312  211  107  -14  -157  -294  -406  -497  -561  -568  -506  -392  -244  -93  16  66  72  55  20  -26  -69  -98  -114  -118  -111  -107  -136  -217  -312  -348  -300  -211  -124  -54  -16  7  39  72  76  24  -84  -206  -291  -329  -342  -347  -334  -283  -188  -85  -24  -19  -42  -76  -123  -177  -212  -213  -178  -124  -86  -113  -237  -424  -577  -637  -622  -568  -490  -376  -237  -126  -108  -204  -354  -463  -499  -500  -508  -527  -510  -411  -262  -145  -90  -68  -61  -82  -147  -239  -305  -309  -249  -158  -80  -37  -31  -54  -89  -114  -120  -107  -74  -34  -6  -10  -51  -120  -196  -265  -329  -453  -689  -902  -817  -262  690  1712  2392  2500  2071  1324  567  55  -97  36  224  246  92  -80  -166  -182  -177  -170  -159  -145  -134  -129  -129  -131  -137  -142  -131  -94  -44  -8  5  10  26  70  147  228  279  297  303  311  317  315  322  358  400  416  401  369  335  315  315  359  474  631  749  785  745  649  541  492  540  663  803  925  1023  1092  1132  1144  1099  963  771  619  562  566  564  485  286  32  -145  -198  -186  -182  -218  -281  -338  -379  -415  -449  -471  -472  -456  -436  -419  -416  -443  -499  -573  -657  -740  -791  -781  -702  -582  -461  -351  -257  -197  -173  -176  -214  -297  -375  -373  -293  -219  -196  -201  -209  -227  -275  -344  -398  -413  -399  -379  -379  -413  -463  -495  -493  -462  -418  -378  -338  -288  -226  -161  -108  -82  -78  -76  -69  -60  -49  -33  -20  -26  -64  -134  -228  -335  -430  -484  -484  -441  -381  -335  -316  -320  -337  -363  -377  -345  -238  -90  17  45  13  -43  -107  -167  -191  -156  -99  -74  -104  -166  -221  -243  -228  -175  -95  -18  27  34  24  25  47  99  187  281  318  270  167  48  -88  -238  -350  -397  -398  -372  -319  -238  -172  -194  -371  -657  -853  -783  -406  268  1111  1843  2242  2249  1923  1397  851  434  168  -14  -179  -345  -469  -517  -527  -536  -531  -514  -521  -576  -640  -670  -672  -666  -646  -589  -497  -398  -325  -302  -340  -413  -460  -453  -404  -347  -306  -293  -315  -379  -466  -533  -554  -523  -433  -294  -144  -37  -5  -47  -127  -184  -183  -126  -21  116  252  370  501  666  828  934  977  992  1003  1013  1019  1024  1028  1019  974  863  669  418  189  58  13  -11  -49  -86  -101  -98  -92  -94  -95  -79  -34  29  82  86  35  -29  -69  -76  -69  -61  -55  -49  -45  -47  -54  -64  -71  -76  -83  -97  -124  -164  -206  -234  -246  -242  -215  -152  -57  42  115  151  159  155  151  155  171  192  207  212  211  208  207  209  205  181  122  46  -12  -34  -19  36  124  202  234  216  172  129  96  78  82  97  97  76  54  43  40  40  51  84  132  173  187  154  64  -62  -183  -291  -387  -445  -447  -402  -316  -198  -82  -13  -5  -44  -114  -198  -274  -320  -334  -332  -329  -329  -328  -317  -288  -244  -194  -164  -188  -290  -435  -548  -573  -485  -291  -65  90  144  141  127  120  114  92  41  -48  -171  -287  -357  -376  -355  -307  -249  -200  -171  -159  -160  -176  -209  -257  -311  -335  -232  108  661  1256  1743  2039  2070  1825  1444  1054  639  202  -121  -211  -75  194  412  351  -3  -423  -714  -806  -680  -411  -168  -95  -181  -289  -307  -221  -79  59  164  225  247  245  233  218  202  186  178  185  201  211  213  217  232  247  249  247  262  317  407  508  606  707  811  894  936  944  940  940  946  959  980  1006  1024  1029  1024  1023  1040  1080  1113  1079  957  791  648  563  522  493  456  406  316  136  -119  -366  -534  -616  -636  -622  -596  -575  -559  -523  -442  -319  -189  -91  -57  -107  -210  -297  -339  -357  -375  -386  -353  -249  -117  -27  0  7  34  75  85  13  -126  -250  -308  -331  -367  -428  -499  -554  -568  -539  -495  -461  -448  -442  -420  -379  -337  -311  -302  -304  -314  -336  -361  -375  -375  -369  -367  -370  -379  -384  -366  -307  -224  -161  -134  -121  -92  -51  -19  -6  -6  -12  -28  -50  -51  -21  14  29  29  35  63  104  133  127  81  18  -25  -26  20  98  170  210  212  177  108  31  -18  -34  -31  -16  10  41  53  40  18  7  14  27  30  10  -30  -79  -123  -162  -188  -181  -146  -124  -157  -251  -376  -482  -516  -463  -363  -273  -205  -151  -117  -112  -128  -152  -171  -188  -211  -229  -209  -153  -132  -197  -307  -408  -456  -284  296  1150  1935  2438  2533  2184  1605  1096  745  474  273  193  218  265  261  196  102  0  -108  -197  -241  -235  -201  -175  -177  -203  -234  -254  -262  -265  -265  -261  -248  -219  -180  -139  -97  -43  19  71  104  133  173  216  247  261  266  264  251  218  169  122  92  79  80  101  146  190  199  185  199  253  309  349  389  434  456  430  370  311  278  272  284  290  251  137  -20  -147  -224  -277  -326  -369  -382  -353  -309  -293  -316  -364  -431  -529  -644  -725  -752  -751  -750  -751  -732  -680  -609  -547  -506  -487  -501  -563  -670  -773  -817  -789  -714  -632  -570  -540  -549  -594  -656  -703  -726  -737  -740  -714  -636  -525  -434  -394  -397  -422  -461  -522  -598  -669  -721  -737  -713  -674  -650  -649  -664  -690  -724  -765  -802  -828  -842  -832  -791  -733  -675  -632  -617  -635  -674  -712  -733  -742  -745  -738  -718  -682  -630  -565  -493  -422  -351  -279  -209  -143  -87  -48  -25  -10  -5  -18  -45  -73  -90  -96  -99  -102  -103  -96  -73  -40  -11  4  7  2  -3  -5  4  26  46  52  47  35  19  13  31  79  172  306  439  524  561  581  598  602  575  498  380  261  189  187  247  339  430  501  559  613  636  561  359  108  -77  -104  159  809  1678  2389  2658  2392  1712  1014  665  672  800  806  540  113  -199  -290  -258  -207  -163  -126  -109  -115  -101  -42  35  99  140  161  168  164  149  129  123  179  339  560  730  789  770  722  677  647  640  657  700  752  787  799  798  788  769  745  739  769  820  859  872  863  847  839  850  894  981  1097  1203  1266  1294  1308  1318  1330  1344  1333  1240  1033  752  469  247  123  80  56  12  -59  -143  -220  -275  -298  -294  -272  -224  -146  -72  -36  -30  -38  -63  -119  -196  -256  -269  -213  -90  46  108  44  -111  -269  -369  -405  -392  -307  -126  88  189  95  -107  -264  -319  -314  -303  -304  -310  -299  -254  -180  -107  -63  -52  -85  -175  -297  -389  -424  -422  -400  -361  -312  -275  -256  -231  -179  -103  -26  23  28  -23  -124  -229  -292  -310  -305  -297  -294  -298  -308  -308  -273  -191  -89  -27  -35  -91  -184  -323  -471  -564  -569  -488  -352  -211  -112  -83  -122  -196  -257  -281  -280  -277  -291  -353  -488  -655  -773  -806  -783  -738  -701  -689  -694  -670  -562  -372  -172  -32  15  -48  -238  -513  -761  -877  -846  -713  -529  -352  -241  -215  -259  -354  -469  -540  -528  -480  -458  -446  -359  -93  394  993  1458  1619  1474  1105  656  311  159  116  76  16  -101  -291  -470  -555  -544  -449  -295  -145  -55  -26  -26  -43  -85  -143  -190  -206  -181  -105  -6  63  85  81  82  101  131  152  161  162  162  152  128  98  85  96  117  128  123  114  113  132  176  230  267  280  292  326  374  412  439  473  515  549  568  578  582  589  601  615  630  641  639  588  462  274  67  -124  -278  -379  -430  -442  -430  -417  -413  -409  -385  -334  -271  -214  -163  -114  -87  -123  -251  -430  -559  -576  -487  -349  -237  -190  -188  -203  -219  -230  -229  -205  -140  -32  84  145  121  44  -27  -63  -81  -110  -158  -198  -206  -178  -132  -84  -19  76  181  249  249  158  -19  -220  -356  -382  -302  -151  14  120  117  12  -133  -238  -266  -236  -175  -100  -42  -30  -64  -113  -154  -183  -208  -241  -271  -274  -241  -186  -131  -105  -124  -164  -193  -202  -200  -195  -188  -178  -168  -165  -176  -212  -262  -305  -331  -343  -341  -322  -303  -294  -275  -218  -126  -31  48  102  124  116  83  40  10  15  58  119  164  181  178  153  99  33  -9  -13  7  30  41  39  26  3  -27  -44  -37  -19  -11  -23  -48  -69  -71  -93  -207  -416  -600  -588  -255  412  1259  1994  2375  2317  1888  1271  674  239  10  -39  38  155  200  141  11  -134  -238  -283  -293  -292  -291  -294  -304  -315  -305  -257  -180  -109  -65  -44  -40  -63  -128  -221  -296  -326  -319  -287  -232  -166  -120  -119  -170  -254  -333  -369  -325  -178  20  176  258  305  344  375  390  392  392  401  423  439  433  414  403  405  409  405  397  410  459  512  511  453  396  358  287  142  -35  -173  -248  -291  -320  -344  -380  -444  -523  -585  -612  -619  -623  -617  -591  -554  -529  -521  -501  -445  -370  -319  -311  -332  -358  -372  -364  -322  -246  -154  -74  -21  9  29  35  25  6  -11  -16  -14  -29  -68  -92  -75  -39  -11  3  11  2  -42  -109  -162  -184  -190  -199  -216  -225  -212  -189  -183  -207  -252  -294  -325  -358  -406  -433  -387  -281  -193  -161  -163  -167  -157  -128  -80  -28  -4  -16  -39  -52  -63  -69  -57  -34  -14  0  0  -37  -109  -184  -218  -199  -124  22  208  339  326  156  -84  -265  -328  -312  -263  -201  -136  -77  -22  24  26  -16  -31  34  149  250  301  308  287  214  53  -167  -355  -428  -372  -229  -57  104  243  338  372  348  287  208  127  68  46  47  35  -14  -97  -202  -324  -426  -451  -438  -479  -578  -624  -421  153  1026  1988  2738  2961  2579  1810  974  361  84  14  -49  -164  -239  -206  -116  -53  -39  -69  -138  -212  -242  -213  -142  -55  16  65  91  72  -6  -113  -196  -234  -236  -212  -158  -64  50  148  207  232  233  203  137  55  -6  -38  -51  -55  -48  -21  37  131  240  335  401  450  479  460  390  310  261  254  289  374  492  608  703  782  848  904  949  950  834  550  187  -85  -204  -222  -201  -175  -167  -182  -214  -258  -312  -372  -436  -492  -522  -516  -498  -493  -481  -430  -331  -205  -94  -28  -5  -6  -20  -43  -73  -108  -146  -182  -210  -229  -236  -225  -197  -159  -125  -108  -115  -145  -186  -214  -221  -217  -216  -232  -273  -335  -403  -451  -441  -370  -279  -219  -210  -236  -269  -300  -325  -321  -272  -198  -143  -124  -122  -108  -69  -28  -35  -125  -261  -363  -400  -404  -400  -381  -331  -262  -211  -191  -181  -151  -91  -19  43  99  153  196  222  243  269  284  241  99  -113  -294  -367  -342  -281  -237  -221  -222  -229  -247  -279  -310  -323  -317  -301  -262  -181  -76  -1  -4  -91  -219  -314  -334  -276  -156  -18  74  105  102  77  25  -46  -107  -146  -170  -189  -205  -222  -248  -280  -307  -320  -310  -250  -143  -92  -199  -382  -400  -46  681  1545  2212  2427  2143  1568  1004  610  382  229  52  -152  -278  -260  -162  -80  -45  -41  -45  -42  -22  26  97  166  214  243  258  243  169  51  -42  -60  -11  60  110  124  115  102  93  98  125  169  216  260  318  412  527  605  584  444  248  106  88  184  334  475  580  660  723  767  792  802  800  789  778  784  826  905  981  996  918  768  618  514  442  372  293  205  123  67  25  -31  -111  -215  -346  -472  -544  -561  -557  -553  -545  -514  -459  -393  -329  -285  -288  -331  -377  -404  -417  -426  -437  -453  -462  -435  -346  -232  -174  -204  -276  -340  -385  -422  -460  -473  -425  -342  -292  -311  -370  -422  -443  -427  -369  -282  -203  -163  -164  -191  -223  -245  -256  -247  -210  -170  -167  -216  -293  -358  -398  -435  -477  -507  -501  -455  -390  -328  -295  -307  -377  -512  -682  -798  -769  -572  -300  -103  -44  -74  -134  -202  -275  -341  -382  -404  -418  -429  -435  -440  -433  -399  -331  -251  -183  -134  -103  -111  -163  -206  -191  -149  -138  -168  -231  -317  -404  -469  -509  -510  -427  -268  -152  -211  -459  -710  -638  -33  955  1879  2321  2129  1407  503  -139  -347  -249  -9  211  272  183  33  -109  -210  -280  -334  -368  -381  -390  -392  -372  -331  -280  -227  -187  -155  -117  -67  -11  37  56  37  -6  -52  -77  -63  6  119  226  292  330  364  397  418  426  428  431  445  482  534  584  626  660  673  658  631  624  658  719  786  856  923  972  1007  1044  1078  1096  1087  1052  996  928  834  685  484  291  149  53  -23  -92  -172  -269  -351  -390  -405  -425  -452  -470  -455  -388  -287  -203  -170  -176  -195  -208  -214  -218  -221  -217  -206  -188  -166  -145  -138  -146  -159  -162  -153  -138  -121  -116  -132  -157  -183  -227  -294  -355  -377  -361  -344  -352  -362  -342  -301  -276  -289  -336  -366  -315  -172  8  151  216  199  101  -59  -210  -274  -235  -147  -76  -51  -73  -132  -201  -239  -231  -201  -175  -143  -77  13  77  70  -5  -91  -119  -86  -49  -37  -38  -39  -45  -71  -124  -181  -212  -207  -180  -151  -136  -142  -168  -216  -286  -361  -412  -424  -407  -379  -349  -331  -312  -220  -7  353  895  1459  1753  1700  1412  989  584  336  203  57  -135  -302  -391  -416  -386  -302  -190  -77  23  98  133  117  49  -41  -107  -125  -101  -52  1  41  53  19  -79  -213  -312  -333  -291  -219  -153  -112  -90  -67  -18  71  178  259  305  341  382  403  379  319  247  182  146  170  269  407  532  641  762  887  982  1028  1034  1030  1046  1085  1114  1091  1011  879  659  348  46  -128  -168  -149  -136  -154  -201  -275  -353  -391  -359  -286  -225  -204  -233  -322  -458  -580  -629  -607  -552  -491  -435  -391  -373  -410  -504  -580  -534  -372  -210  -123  -103  -109  -109  -86  -52  -39  -74  -135  -186  -232  -316  -435  -523  -519  -405  -225  -65  28  80  116  124  82  3  -77  -133  -159  -163  -158  -154  -151  -149  -153  -177  -239  -336  -425  -451  -401  -329  -305  -325  -328  -293  -253  -237  -237  -235  -218  -189  -168  -169  -190  -211  -206  -174  -140  -119  -108  -99  -86  -71  -51  -15  39  115  218  329  393  388  346  308  284  251  190  98  -1  -82  -129  -149  -144  -113  -51  34  106  60  -210  -640  -989  -1004  -539  347  1365  2193  2651  2682  2364  1853  1273  747  388  199  111  59  -17  -137  -251  -334  -393  -435  -461  -476  -476  -460  -430  -379  -296  -184  -50  84  162  130  19  -90  -162  -208  -235  -236  -207  -149  -75  -9  26  34  39  61  100  140  172  201  228  245  246  228  198  175  183  241  346  458  531  550  539  524  526  562  636  726  799  842  851  813  720  603  492  377  249  145  85  21  -108  -304  -489  -594  -622  -622  -639  -651  -598  -482  -375  -323  -307  -302  -318  -376  -469  -560  -611  -616  -591  -542  -478  -421  -378  -344  -319  -305  -300  -299  -302  -304  -303  -293  -279  -274  -282  -290  -292  -295  -308  -327  -345  -359  -376  -411  -471  -540  -592  -607  -575  -481  -336  -201  -131  -123  -145  -171  -187  -191  -185  -167  -145  -139  -167  -224  -273  -279  -250  -222  -217  -234  -254  -265  -272  -288  -316  -342  -353  -357  -365  -378  -388  -396  -403  -398  -357  -270  -183  -157  -187  -225  -247  -254  -248  -235  -210  -167  -115  -78  -63  -59  -56  -52  -37  -8  27  58  79  86  68  16  -48  -88  -93  -79  -63  -48  -38  -32  -48  -111  -198  -275  -403  -646  -865  -729  -16  1133  2262  2896  2841  2264  1536  955  586  339  138  0  -56  -75  -101  -130  -150  -163  -169  -160  -114  -25  73  142  178  202  216  213  193  171  161  167  179  189  195  198  202  223  270  316  319  288  269  287  336  403  461  492  497  491  487  492  508  532  561  610  701  819  916  970  1011  1069  1138  1185  1198  1184  1154  1109  1049  973  884  784  684  605  556  518  450  313  139  13  -31  -32  -31  -41  -67  -107  -152  -193  -232  -265  -271  -237  -189  -158  -131  -81  -8  44  38  -35  -141  -215  -228  -208  -191  -194  -219  -248  -259  -249  -234  -227  -231  -235  -224  -208  -208  -226  -247  -251  -230  -204  -205  -227  -244  -246  -234  -211  -188  -176  -170  -166  -158  -149  -146  -161  -199  -233  -231  -200  -171  -160  -172  -200  -233  -265  -290  -304  -316  -328  -334  -333  -328  -328  -338  -357  -381  -407  -420  -409  -389  -379  -379  -376  -359  -332  -319  -338  -374  -402  -413  -411  -397  -368  -331  -304  -301  -333  -394  -457  -495  -505  -501  -488  -462  -432  -411  -405  -405  -398  -383  -374  -375  -366  -337  -307  -295  -307  -322  -295  -224  -158  -129  -129  -132  -120  -95  -85  -110  -158  -207  -241  -261  -280  -317  -376  -414  -406  -442  -617  -817  -736  -157  844  1941  2703  2853  2440  1722  1037  633  483  420  349  238  86  -75  -196  -249  -253  -240  -224  -194  -127  -15  106  189  217  207  168  110  54  17  1  -5  -11  -13  -6  21  66  123  182  220  227  218  206  188  163  144  163  237  341  438  508  544  550  541  529  522  517  505  482  452  426  405  394  406  456  543  638  710  741  726  664  583  524  497  476  433  332  148  -76  -261  -362  -393  -381  -354  -331  -318  -316  -321  -329  -334  -339  -355  -389  -436  -479  -491  -458  -402  -360  -346  -341  -323  -291  -251  -195  -118  -43  1  18  20  7  -34  -96  -134  -121  -90  -82  -103  -136  -169  -193  -202  -171  -77  54  157  183  114  -50  -272  -460  -532  -479  -370  -288  -256  -253  -262  -298  -374  -467  -530  -541  -509  -457  -407  -378  -385  -426  -479  -521  -543  -546  -522  -451  -329  -198  -121  -117  -146  -167  -171  -165  -156  -146  -135  -126  -117  -106  -101  -108  -116  -107  -80  -48  -27  -21  -14  6  41  79  110  121  109  86  64  41  10  -30  -72  -105  -132  -156  -171  -173  -171  -181  -215  -264  -306  -343  -395  -462  -488  -393  -126  317  905  1514  1928  1985  1684  1159  619  250  96  73  72  30  -61  -173  -266  -319  -340  -337  -296  -193  -53  55  91  70  0  -126  -279  -386  -394  -313  -193  -97  -51  -38  -15  51  141  194  187  162  166  214  304  411  485  485  406  284  181  132  143  216  348  504  639  719  737  724  721  747  798  851  889  918  950  984  1012  1028  1017  969  875  747  617  493  368  259  196  173  130  14  -142  -258  -297  -292  -279  -272  -273  -288  -319  -344  -333  -290  -250  -239  -252  -270  -285  -293  -296  -288  -275  -264  -262  -275  -307  -349  -379  -376  -331  -260  -195  -165  -169  -199  -238  -274  -301  -320  -315  -282  -235  -200  -199  -220  -251  -289  -324  -339  -337  -331  -328  -331  -344  -364  -381  -386  -364  -309  -250  -227  -246  -287  -327  -348  -349  -344  -335  -301  -224  -129  -67  -63  -92  -117  -125  -123  -117  -115  -125  -165  -241  -329  -369  -321  -207  -89  -3  47  73  80  74  63  48  17  -41  -116  -170  -172  -116  -19  76  139  165  162  133  77  9  -42  -61  -53  -43  -54  -91  -148  -210  -248  -228  -157  -130  -311  -730  -1119  -1093  -498  484  1498  2171  2321  2045  1522  920  429  151  70  131  232  226  27  -287  -528  -592  -518  -395  -289  -220  -179  -163  -171  -193  -212  -220  -211  -178  -123  -61  -5  34  59  76  88  98  107  113  103  66  15  -13  0  50  99  101  59  19  5  5  6  18  66  163  302  454  574  639  670  690  696  676  645  618  599  582  563  535  504  468  428  386  329  242  140  63  16  -31  -99  -164  -202  -212  -201  -185  -180  -209  -282  -363  -399  -384  -344  -304  -279  -271  -271  -273  -279  -291  -306  -318  -324  -327  -330  -333  -337  -343  -349  -340  -290  -195  -88  -7  43  78  103  110  73  -28  -179  -321  -404  -428  -416  -376  -299  -200  -120  -83  -79  -98  -131  -167  -189  -182  -136  -61  14  55  34  -57  -185  -286  -329  -333  -326  -330  -354  -390  -416  -417  -389  -346  -299  -239  -151  -55  6  18  -1  -44  -116  -204  -275  -309  -311  -293  -261  -222  -198  -196  -206  -210  -194  -151  -97  -57  -43  -42  -53  -82  -134  -205  -282  -347  -379  -373  -332  -271  -206  -144  -78  2  117  257  372  394  285  51  -224  -420  -494  -483  -421  -327  -240  -198  -193  -187  -219  -375  -602  -653  -259  635  1752  2603  2829  2419  1672  1001  647  599  706  759  639  402  168  8  -60  -67  -48  -31  -28  -42  -74  -116  -153  -173  -168  -140  -93  -30  39  98  121  99  46  -10  -47  -64  -88  -138  -211  -251  -195  -76  13  58  89  103  87  52  41  87  169  256  347  444  520  571  617  661  689  698  696  713  782  889  965  961  892  822  799  807  796  763  725  688  649  621  610  590  464  145  -281  -594  -695  -668  -610  -553  -505  -480  -477  -469  -441  -408  -380  -350  -314  -284  -266  -259  -263  -277  -303  -333  -352  -350  -326  -288  -252  -229  -219  -215  -214  -216  -229  -262  -301  -326  -321  -285  -223  -160  -127  -144  -218  -317  -389  -417  -418  -400  -350  -272  -196  -154  -143  -145  -138  -112  -75  -43  -24  -8  5  13  17  15  3  -18  -31  -16  16  49  72  78  47  -43  -177  -294  -357  -368  -356  -342  -328  -308  -269  -210  -152  -117  -100  -86  -80  -88  -105  -121  -142  -163  -167  -143  -109  -92  -88  -77  -64  -70  -114  -198  -298  -371  -394  -363  -277  -153  -38  24  33  1  -64  -153  -235  -285  -301  -301  -299  -295  -279  -238  -173  -110  -81  -99  -157  -243  -330  -382  -376  -307  -210  -137  -121  -174  -301  -487  -648  -683  -626  -620  -682  -677  -437  155  1033  1885  2387  2415  2021  1383  774  399  246  172  67  -87  -238  -320  -337  -342  -370  -412  -440  -440  -421  -401  -390  -384  -379  -377  -381  -387  -393  -401  -408  -409  -394  -358  -305  -267  -281  -352  -443  -510  -532  -520  -489  -447  -403  -351  -280  -220  -197  -192  -181  -165  -136  -82  -11  55  92  96  108  157  213  240  239  228  228  266  355  463  539  575  620  705  803  864  881  873  835  738  569  379  238  155  103  69  57  62  81  105  123  131  135  142  164  209  265  307  312  270  185  72  -36  -105  -125  -106  -56  14  87  142  171  180  183  193  210  223  229  228  226  222  216  209  199  186  178  163  110  24  -39  -42  -2  30  43  68  103  110  80  36  19  55  115  131  61  -55  -138  -153  -122  -63  33  157  258  301  274  177  47  -49  -79  -73  -73  -84  -93  -98  -100  -91  -57  -3  49  76  61  -3  -99  -180  -219  -226  -221  -213  -196  -165  -124  -84  -46  -12  12  23  13  -19  -68  -118  -159  -203  -258  -310  -346  -356  -318  -221  -82  73  213  299  307  197  -47  -342  -550  -619  -580  -468  -328  -218  -171  -186  -251  -320  -355  -377  -392  -309  2  585  1284  1800  1901  1550  918  311  -31  -90  4  69  9  -93  -139  -164  -221  -284  -320  -331  -329  -324  -322  -332  -357  -393  -418  -413  -372  -308  -247  -204  -181  -171  -164  -158  -154  -141  -108  -70  -54  -65  -83  -84  -58  -10  54  136  237  337  397  402  378  353  337  331  353  435  573  723  843  911  916  860  771  695  653  644  665  724  813  899  942  912  788  573  320  112  8  -10  -13  -34  -67  -105  -145  -181  -228  -304  -378  -402  -384  -371  -386  -430  -487  -531  -551  -551  -533  -490  -412  -309  -203  -106  -36  -31  -97  -181  -228  -221  -164  -70  31  94  66  -70  -259  -398  -446  -433  -388  -333  -295  -292  -315  -341  -344  -318  -276  -237  -212  -200  -190  -180  -178  -184  -183  -160  -115  -71  -50  -56  -84  -135  -216  -308  -372  -397  -396  -388  -379  -372  -373  -379  -372  -343  -309  -279  -245  -208  -183  -187  -224  -281  -333  -368  -384  -386  -376  -360  -350  -343  -320  -262  -187  -129  -101  -94  -87  -62  -13  42  70  59  25  -8  -30  -41  -46  -52  -66  -99  -164  -268  -396  -509  -550  -483  -373  -332  -395  -481  -404  34  821  1656  2184  2197  1710  971  361  109  125  208  233  141  -21  -126  -137  -121  -118  -132  -151  -165  -165  -146  -109  -67  -32  -15  -20  -51  -106  -165  -201  -204  -181  -139  -88  -36  9  44  62  67  59  43  23  6  2  33  109  221  352  469  534  544  524  495  470  453  448  464  504  556  603  644  682  719  760  803  841  865  875  875  872  863  838  777  661  489  292  126  22  -42  -96  -149  -212  -294  -373  -419  -432  -421  -385  -321  -242  -175  -170  -250  -376  -465  -485  -460  -427  -403  -393  -394  -397  -389  -361  -321  -286  -263  -245  -225  -189  -136  -86  -57  -48  -42  -17  11  -8  -90  -187  -247  -260  -232  -167  -69  27  81  66  -19  -136  -225  -260  -252  -215  -172  -145  -142  -154  -163  -160  -151  -138  -113  -68  -19  14  28  33  32  19  -18  -68  -105  -117  -114  -111  -112  -115  -114  -105  -101  -121  -157  -198  -244  -293  -339  -377  -399  -399  -381  -353  -322  -282  -238  -207  -196  -198  -202  -203  -200  -194  -186  -168  -109  13  168  283  327  321  273  173  52  -25  -31  7  33  15  -28  -61  -73  -68  -55  -58  -93  -151  -235  -364  -469  -452  -247  270  1137  2080  2686  2729  2248  1496  859  619  681  716  525  175  -128  -272  -318  -345  -345  -290  -198  -114  -72  -63  -56  -29  7  24  6  -32  -54  -51  -61  -102  -144  -164  -168  -166  -149  -99  -12  88  167  189  151  86  38  17  10  14  58  164  299  399  442  454  456  453  450  461  504  578  653  700  715  716  721  732  744  748  745  746  762  791  801  743  603  405  186  6  -92  -132  -169  -232  -313  -390  -452  -487  -474  -411  -335  -284  -264  -264  -285  -344  -433  -507  -533  -523  -499  -473  -442  -393  -330  -286  -275  -286  -299  -302  -297  -287  -275  -265  -262  -264  -251  -199  -117  -54  -42  -64  -86  -95  -91  -80  -66  -50  -40  -60  -125  -214  -280  -303  -298  -279  -251  -213  -175  -146  -131  -125  -125  -125  -127  -135  -150  -172  -194  -222  -258  -293  -319  -326  -314  -298  -298  -318  -342  -347  -312  -233  -137  -60  -13  27  75  113  101  34  -44  -92  -104  -98  -90  -83  -78  -85  -104  -123  -120  -85  -29  9  13  1  -7  -11  -12  1  40  96  143  172  188  194  188  177  165  144  107  58  3  -62  -160  -283  -374  -365  -279  -260  -403  -646  -839  -776  -282  568  1467  2118  2368  2167  1641  1064  572  160  -129  -293  -363  -331  -264  -280  -371  -459  -517  -554  -587  -632  -667  -652  -584  -516  -502  -559  -653  -731  -765  -767  -754  -728  -690  -655  -640  -664  -734  -830  -891  -866  -765  -644  -550  -504  -518  -589  -682  -748  -770  -770  -773  -789  -817  -840  -828  -747  -591  -398  -203  -11  178  355  494  585  656  746  847  918  942  942  938  920  867  755  575  373  232  184  201  254  319  362  343  238  77  -64  -145  -178  -190  -195  -200  -196  -160  -85  -37  -107  -274  -417  -472  -471  -459  -451  -446  -443  -440  -433  -421  -417  -430  -453  -462  -423  -313  -153  -12  62  78  72  64  57  50  43  30  7  -15  -22  -9  8  1  -56  -150  -242  -310  -352  -365  -332  -236  -102  5  49  36  -20  -95  -145  -127  -26  115  224  267  267  255  247  248  255  266  282  298  308  310  300  278  250  228  230  290  431  616  744  736  584  371  215  174  229  344  477  580  632  648  649  644  632  615  600  596  602  603  574  485  342  188  65  -11  -36  11  155  349  449  335  57  -207  -276  14  742  1732  2624  3106  3019  2448  1704  1106  795  716  691  584  383  141  -63  -168  -187  -165  -112  -26  73  153  189  185  168  162  166  160  147  143  150  155  153  153  175  232  304  347  339  298  257  228  207  192  182  176  173  171  170  168  158  138  122  147  233  348  428  451  446  448  476  520  562  607  668  748  831  901  953  985  981  894  686  420  211  86  -28  -162  -271  -326  -346  -350  -345  -334  -337  -382  -490  -641  -778  -857  -864  -814  -735  -652  -596  -598  -661  -742  -781  -767  -736  -712  -687  -655  -615  -557  -480  -397  -317  -253  -238  -297  -423  -571  -687  -736  -716  -662  -611  -566  -506  -425  -345  -279  -224  -187  -173  -180  -214  -273  -337  -376  -388  -390  -392  -390  -368  -319  -255  -199  -173  -201  -305  -452  -555  -527  -338  -69  120  120  -72  -347  -540  -552  -400  -188  -39  8  3  -12  -33  -67  -107  -138  -160  -181  -213  -267  -332  -371  -362  -317  -265  -214  -158  -126  -167  -270  -416  -598  -702  -551  -79  669  1506  2065  2113  1723  1073  402  -28  -162  -119  -37  -49  -186  -329  -393  -402  -404  -405  -391  -356  -315  -291  -274  -221  -125  -39  4  12  4  -15  -41  -58  -41  25  126  223  299  353  374  354  313  276  242  193  137  108  129  194  278  354  396  401  387  375  378  405  460  531  594  632  649  663  693  751  833  925  1006  1059  1075  1051  985  883  768  670  600  536  462  388  301  155  -45  -235  -369  -456  -505  -528  -546  -572  -612  -673  -736  -772  -781  -783  -778  -745  -669  -569  -481  -422  -389  -375  -371  -373  -377  -378  -371  -348  -316  -292  -291  -314  -349  -376  -379  -343  -268  -183  -128  -111  -115  -121  -123  -126  -148  -198  -258  -296  -300  -285  -277  -280  -284  -286  -290  -306  -330  -354  -369  -361  -315  -239  -167  -121  -74  14  140  237  239  115  -104  -320  -437  -431  -332  -196  -98  -89  -184  -356  -509  -554  -543  -579  -610  -462  -3  760  1619  2237  2371  2007  1316  584  86  -98  -92  -37  -31  -134  -309  -438  -446  -336  -176  -49  13  32  27  0  -43  -73  -69  -51  -50  -69  -82  -73  -55  -43  -22  28  82  84  35  -4  -11  -3  9  42  103  193  300  394  456  503  546  570  554  503  477  543  690  829  903  925  930  941  964  992  1020  1056  1090  1105  1091  1037  942  822  681  506  309  140  28  -32  -77  -150  -247  -324  -354  -348  -326  -315  -373  -546  -770  -889  -818  -634  -462  -342  -257  -203  -185  -202  -251  -308  -340  -338  -329  -326  -311  -274  -238  -230  -245  -266  -280  -288  -290  -267  -198  -99  -17  25  36  21  -15  -76  -159  -243  -312  -362  -392  -399  -389  -369  -351  -344  -349  -355  -349  -322  -278  -236  -212  -205  -205  -210  -220  -242  -269  -287  -290  -282  -271  -264  -265  -269  -263  -232  -172  -98  -31  -9  -75  -258  -534  -804  -900  -684  -82  865  1888  2583  2735  2374  1682  983  540  357  285  178  -41  -312  -513  -599  -608  -593  -582  -577  -576  -578  -580  -565  -514  -437  -371  -341  -340  -354  -385  -442  -511  -561  -574  -546  -477  -389  -316  -276  -270  -295  -335  -371  -385  -353  -256  -121  -15  21  -20  -142  -303  -422  -456  -410  -285  -88  121  256  296  301  329  381  421  434  428  418  404  382  349  302  221  71  -139  -347  -501  -613  -711  -791  -851  -909  -965  -1009  -1045  -1087  -1126  -1142  -1136  -1129  -1135  -1151  -1159  -1142  -1090  -998  -868  -720  -577  -435  -284  -151  -74  -59  -79  -96  -66  35  182  303  359  370  369  369  366  354  337  324  328  354  390  416  425  425  421  390  300  133  -53  -144  -72  112  289  370  361  325  310  308  299  276  259  261  272  274  267  254  240  228  217  213  219  233  250  262  261  244  210  169  138  123  116  115  132  169  195  175  108  -13  -201  -372  -343  45  814  1787  2616  2989  2846  2338  1698  1178  892  760  665  561  442  321  221  142  71  6  -52  -109  -162  -199  -214  -220  -221  -204  -154  -84  -33  -21  -31  -42  -48  -50  -49  -36  -2  46  92  120  123  108  108  136  174  208  246  284  300  281  244  213  192  185  210  286  405  520  594  620  615  604  615  677  783  891  961  986  962  864  700  536  418  318  192  48  -75  -152  -181  -189  -210  -260  -326  -387  -433  -469  -495  -515  -541  -565  -577  -581  -580  -572  -559  -542  -510  -445  -361  -297  -275  -283  -298  -311  -326  -344  -359  -369  -376  -386  -408  -441  -476  -508  -547  -591  -614  -595  -536  -454  -359  -275  -235  -257  -335  -457  -601  -719  -779  -789  -774  -747  -715  -691  -681  -678  -667  -632  -579  -524  -465  -400  -358  -361  -389  -423  -465  -519  -580  -638  -683  -706  -710  -704  -693  -681  -672  -670  -671  -672  -666  -652  -622  -565  -484  -396  -320  -266  -243  -253  -290  -338  -376  -395  -397  -395  -394  -395  -392  -390  -391  -397  -401  -392  -363  -323  -289  -272  -284  -340  -447  -579  -694  -763  -816  -920  -1067  -1133  -916  -270  725  1748  2444  2649  2419  1932  1393  931  547  167  -172  -352  -391  -388  -368  -330  -285  -246  -223  -219  -239  -296  -366  -401  -375  -291  -178  -74  0  34  36  28  28  44  73  108  140  169  191  203  204  190  170  165  168  150  97  25  -36  -71  -79  -61  -5  85  191  318  497  703  848  895  886  874  885  922  971  1014  1037  1018  937  825  736  679  620  534  425  325  258  210  167  135  119  113  112  119  144  182  225  273  322  357  376  390  398  379  334  310  340  381  374  324  313  402  553  677  738  753  726  618  394  83]
