reading_id,reading_time,wire_id,result_classification,heart_rate,heart_rate_alert,firmware_version,device_app_version,hardware_version,waveform_samples
849bf9d0-6953-11ed-8080-808080808080,Mon Nov 21 04:18:14 UTC 2022,8100e3ea1a39,NSR,89,NONE,20001.171.50,2.10.0,Charge 5,[12867  13002  13052  12840  12225  11396  10742  10365  10081  9810  9614  9503  9428  9353  9239  9065  8865  8706  8622  8605  8629  8663  8693  8726  8769  8789  8757  8700  8668  8686  8728  8732  8620  8345  7933  7429  6837  6183  5545  4960  4399  3843  3301  2705  1935  1088  493  273  237  178  48  -134  -416  -912  -1603  -2258  -2680  -2921  -3202  -3690  -4343  -4983  -5491  -5823  -6018  -6187  -6381  -6547  -6656  -6767  -6951  -7230  -7538  -7754  -7784  -7581  -7123  -6445  -5714  -5175  -4940  -4947  -5147  -5569  -6191  -6842  -7312  -7605  -7891  -8224  -8498  -8644  -8666  -8552  -8284  -7910  -7505  -7123  -6775  -6440  -6116  -5874  -5768  -5785  -5884  -6011  -6108  -6136  -6076  -5915  -5703  -5539  -5471  -5468  -5479  -5491  -5515  -5561  -5621  -5688  -5763  -5834  -5885  -5927  -5996  -6119  -6296  -6504  -6719  -6910  -7061  -7172  -7231  -7198  -7047  -6808  -6533  -6263  -6043  -5904  -5833  -5793  -5766  -5750  -5766  -5852  -6051  -6375  -6778  -7145  -7356  -7377  -7258  -7064  -6841  -6592  -6296  -5946  -5564  -5175  -4756  -4246  -3651  -3088  -2678  -2439  -2294  -2180  -2101  -2081  -2142  -2304  -2533  -2747  -2907  -3057  -3214  -3321  -3329  -3262  -3182  -3114  -3038  -2944  -2789  -2491  -2105  -1820  -1722  -1754  -1841  -1942  -2027  -2083  -2115  -2142  -2237  -2487  -2873  -3283  -3630  -3873  -4013  -4092  -4139  -4149  -4130  -4096  -4010  -3797  -3471  -3153  -2948  -2867  -2872  -2908  -2936  -2960  -3019  -3156  -3370  -3624  -3901  -4205  -4522  -4836  -5205  -5736  -6426  -7063  -7431  -7530  -7479  -7326  -7043  -6565  -5860  -5080  -4511  -4333  -4523  -4916  -5267  -5270  -4660  -3397  -1629  349  2122  3300  3654  3249  2445  1652  1146  941  803  602  440  413  510  675  831  893  797  553  268  58  -57  -156  -316  -509  -627  -612  -509  -410  -389  -443  -514  -595  -749  -1055  -1488  -1872  -2026  -1928  -1706  -1504  -1368  -1279  -1206  -1124  -1031  -966  -944  -945  -942  -936  -955  -1038  -1183  -1324  -1419  -1458  -1406  -1273  -1138  -1042  -966  -908  -897  -970  -1127  -1318  -1486  -1622  -1752  -1893  -2045  -2191  -2320  -2437  -2529  -2573  -2551  -2451  -2292  -2104  -1899  -1703  -1556  -1430  -1199  -725  -60  527  848  989  1125  1318  1540  1760  1963  2138  2280  2394  2489  2575  2657  2730  2773  2778  2754  2718  2694  2708  2774  2872  2951  2976  2917  2755  2544  2388  2341  2380  2467  2571  2661  2713  2771  2934  3238  3580  3739  3520  3019  2564  2338  2280  2281  2290  2288  2270  2234  2187  2133  2063  1969  1859  1767  1726  1728  1725  1648  1459  1238  1178  1397  1761  2001  1991  1827  1653  1512  1383  1253  1143  1099  1152  1271  1390  1473  1541  1618  1662  1631  1566  1525  1523  1639  2099  3130  4642  6110  6872  6541  5171  3293  1691  806  506  435  342  172  19  -35  -23  -13  -32  -72  -116  -162  -219  -269  -292  -325  -448  -688  -987  -1252  -1402  -1405  -1301  -1177  -1081  -962  -700  -250  245  588  770  968  1312  1718  1993  2062  1985  1830  1651  1503  1408  1348  1297  1237  1158  1063  979  924  883  835  772  701  651  636  642  644  613  534  427  313  157  -74  -325  -508  -605  -661  -743  -905  -1141  -1394  -1641  -1888  -2108  -2265  -2373  -2477  -2599  -2719  -2800  -2844  -2867  -2836  -2709  -2519  -2363  -2278  -2201  -2055  -1845  -1665  -1582  -1561  -1506  -1343  -1069  -735  -418  -188  -51  45  139  223  277  314  373  461  562  701  911  1152  1320  1338  1165  822  463  306  436  739  1026  1192  1248  1249  1255  1310  1396  1414  1309  1171  1092  1060  1037  1019  1009  998  977  948  914  859  766  657  567  506  454  403  368  356  365  376  345  230  59  -58  -97  -189  -418  -632  -567  -8  1084  2400  3397  3638  2974  1600  31  -1123  -1454  -951  8  941  1543  1746  1626  1381  1201  1119  1094  1100  1129  1174  1223  1264  1288  1269  1209  1156  1159  1241  1390  1550  1678  1788  1911  2051  2182  2273  2320  2340  2315  2211  2033  1846  1722  1686  1741  1871  2021  2119  2147  2139  2129  2125  2129  2136  2132  2079  1940  1750  1579  1417  1203  960  756  603  473  342  191  27  -134  -281  -396  -488  -602  -771  -978  -1171  -1291  -1328  -1326  -1352  -1448  -1560  -1563  -1396  -1144  -945  -837  -752  -642  -526  -441  -393  -344  -246  -88  84  212  274  293  296  295  278  220  103  -39  -146  -193  -210  -218  -220  -218  -221  -236  -254  -254  -240  -242  -257  -259  -249  -240  -232  -216  -204  -240  -367  -567  -760  -868  -894  -904  -955  -1035  -1095  -1116  -1139  -1207  -1311  -1415  -1513  -1605  -1651  -1616  -1501  -1324  -1102  -880  -707  -605  -549  -508  -452  -382  -371  -422  -331  141  1094  2356  3414  3673  2949  1589  105  -1072  -1720  -1922  -1904  -1777  -1538  -1303  -1242  -1325  -1429  -1540  -1671  -1784  -1840  -1849  -1841  -1841  -1864  -1898  -1912  -1863  -1726  -1514  -1288  -1114  -994  -895  -795  -668  -510  -361  -268  -272  -378  -523  -616  -633  -616  -605  -615  -628  -591  -448  -201  85  349  539  631  631  542  353  116  -62  -122  -58  130  376  543  543  386  125  -161  -394  -528  -581  -595  -612  -679  -840  -1078  -1303  -1429  -1457  -1444  -1431  -1427  -1435  -1468  -1522  -1585  -1661  -1761  -1869  -1954  -1985  -1959  -1913  -1872  -1821  -1742  -1629  -1467  -1270  -1096  -985  -922  -865  -792  -707  -610  -516  -460  -459  -498  -545  -572  -580  -602  -632  -629  -562  -457  -382  -346  -254  -11  340  660  857  934  940  922  902  882  886  967  1157  1402  1588  1656  1605  1449  1220  986  811  722  696  689  662  583  448  289  128  -11  -107  -198  -365  -598  -703  -373  597  2133  3830  5110  5510  4930  3697  2335  1259  629  368  274  203  165  162  92  -78  -270  -415  -489  -501  -485  -466  -427  -338  -231  -206  -326  -515  -617  -570  -464  -393  -358  -316  -213  -26  181  319  366  352  269  87  -149  -322  -372  -334  -263  -202  -167  -137  -79  9  102  186  282  392  488  558  617  690  799  949  1129  1302  1415  1453  1442  1367  1185  926  709  602  557  491  388  287  217  176  156  145  134  128  127  104  27  -98  -227  -322  -381  -424  -466  -496  -496  -461  -403  -341  -279  -212  -146  -87  -39  -5  20  55  100  139  166  184  192  192  198  230  276  273  181  51  -32  -52  -59  -94  -170  -275  -368  -418  -430  -421  -396  -356  -311  -282  -289  -345  -436  -525  -582  -594  -565  -525  -493  -467  -444  -429  -432  -464  -528  -610  -688  -728  -710  -656  -592  -523  -445  -353  -240  -143  -143  -267  -450  -581  -503  18  1180  2774  4125  4663  4271  3092  1550  270  -456  -746  -699  -418  -203  -258  -440  -538  -512  -444  -447  -547  -648  -677  -663  -653  -664  -677  -666  -615  -527  -416  -319  -268  -261  -266  -249  -196  -132  -86  -45  20  122  235  321  364  373  363  350  366  442  557  654  720  790  880  975  1067  1161  1247  1298  1311  1294  1246  1163  1050  905  737  584  455  328  193  61  -56  -151  -208  -227  -230  -238  -255  -264  -259  -253  -251  -233  -202  -217  -331  -502  -623  -646  -612  -574  -547  -525  -505  -494  -501  -530  -583  -648  -687  -663  -565  -388  -142  104  271  334  301  187  42  -61  -122  -208  -342  -470  -526  -501  -443  -399  -375  -343  -294  -245  -215  -203  -204  -209  -210  -202  -196  -217  -274  -358  -449  -501  -478  -421  -386  -380  -386  -390  -389  -382  -366  -347  -332  -320  -302  -270  -219  -153  -100  -76  -79  -101  -121  -113  -68  -1  45  46  4  -88  -220  -302  -258  -170  -208  -425  -583  -241  838  2436  3986  4839  4646  3615  2255  1032  249  -74  -189  -263  -258  -175  -106  -77  -77  -110  -152  -170  -168  -158  -145  -142  -183  -303  -462  -558  -525  -379  -183  -23  51  59  42  35  78  211  429  650  783  808  767  694  608  527  465  441  500  678  921  1097  1130  1049  928  839  798  771  721  639  532  420  335  299  294  275  207  104  6  -65  -114  -156  -211  -271  -323  -384  -472  -577  -672  -738  -760  -729  -659  -574  -504  -468  -453  -416  -322  -198  -107  -73  -75  -104  -163  -240  -299  -325  -332  -331  -323  -320  -337  -375  -417  -459  -518  -597  -687  -774  -829  -827  -778  -732  -734  -780  -831  -869  -911  -967  -1028  -1077  -1094  -1081  -1064  -1067  -1108  -1206  -1367  -1551  -1674  -1710  -1701  -1685  -1658  -1614  -1594  -1668  -1846  -2038  -2151  -2178  -2166  -2145  -2120  -2094  -2076  -2083  -2144  -2283  -2459  -2593  -2667  -2708  -2734  -2754  -2785  -2830  -2885  -2943  -2983  -2980  -2922  -2825  -2720  -2580  -2364  -2154  -2046  -1938  -1597  -829  418  1887  3034  3349  2640  1182  -390  -1496  -1994  -2134  -2231  -2448  -2732  -2906  -2904  -2805  -2669  -2499  -2305  -2102  -1879  -1615  -1306  -983  -680  -386  -43  350  700  916  1007  1043  1065  1042  937  785  658  582  535  461  334  192  78  19  50  150  251  333  450  694  1135  1744  2421  3054  3564  3949  4250  4457  4552  4568  4545  4475  4293  3927  3392  2854  2482  2279  2137  1935  1593  1185  901  800  750  622  420  238  134  106  153  297  525  756  900  940  923  894  858  802  738  693  672  649  655  832  1314  1985  2556  2918  3169  3382  3537  3593  3551  3452  3333  3217  3109  2996  2870  2755  2675  2620  2579  2552  2540  2540  2519  2468  2442  2468  2526  2627  2789  3032  3363  3744  4101  4397  4686  5052  5519  6037  6484  6751  6843  6802  6594  6163  5544  4896  4415  4192  4153  4188  4266  4381  4480  4490  4377  4159  3878  3528  3060  2507  2013  1683  1492  1330  1101  849  616  247  -318  -779  -738  12  1348  2729  3501  3301  2130  374  -1297  -2408  -2934  -3031  -2921  -2877  -2972  -3082  -3144  -3181  -3205  -3220  -3247  -3308  -3377  -3400  -3363  -3285  -3194  -3135  -3131  -3151  -3147  -3096  -3014  -2931  -2856  -2789  -2737  -2686  -2608  -2500  -2375  -2263  -2193  -2171  -2183  -2221  -2286  -2379  -2508  -2653  -2754  -2778  -2730  -2618  -2473  -2354  -2287  -2234  -2116  -1857  -1475  -1124  -938  -896  -906  -944  -1065  -1307  -1615  -1879  -2077  -2265  -2452  -2574  -2614  -2624  -2661  -2756  -2895  -3027  -3104  -3138  -3169  -3209  -3223  -3200  -3170  -3151  -3129  -3097  -3071  -3065  -3077  -3086  -3065  -3013  -2951  -2899  -2871  -2865  -2864  -2835  -2759  -2676  -2672  -2781  -2936  -3046  -3081  -3073  -3061  -3069  -3106  -3158  -3197  -3214  -3215  -3198  -3151  -3079  -2993  -2884  -2736  -2529  -2262  -2006  -1862  -1826  -1800  -1702  -1548  -1424  -1377  -1369  -1348  -1298  -1231  -1159  -1064  -876  -516  -48  335  532  597  615  621  622  621  625  641  664  686  701  707  696  659  579  449  320  318  654  1480  2584  3475  3875  3765  3086  1888  622  -186  -442  -415  -355  -330  -324  -334  -370  -421  -451  -444  -416  -367  -285  -188  -127  -121  -146  -163  -146  -101  -55  -28  -16  2  46  122  226  346  461  550  598  610  600  571  523  470  422  369  307  252  223  259  419  717  1090  1436  1667  1769  1787  1738  1617  1457  1325  1237  1154  1080  1205  1847  3108  4646  5958  6759  7025  6919  6751  6709  6691  6532  6163  5617  5040  4599  4356  4242  4118  3888  3570  3237  2941  2717  2586  2516  2434  2289  2093  1883  1670  1450  1236  1051  900  763  632  528  468  431  374  281  159  -13  -257  -517  -703  -786  -806  -809  -828  -869  -892  -858  -770  -646  -519  -436  -426  -483  -577  -678  -765  -819  -817  -728  -542  -330  -199  -169  -184  -209  -250  -344  -529  -804  -1088  -1265  -1284  -1183  -1042  -939  -897  -895  -926  -1020  -1168  -1279  -1305  -1334  -1438  -1558  -1505  -1017  87  1676  3226  4065  3829  2676  1114  -299  -1201  -1514  -1359  -1000  -757  -753  -856  -924  -958  -1005  -1081  -1151  -1189  -1198  -1168  -1095  -1008  -912  -785  -640  -527  -465  -429  -401  -387  -401  -438  -468  -462  -438  -439  -486  -557  -614  -650  -680  -710  -730  -738  -737  -721  -681  -624  -563  -498  -412  -299  -171  -39  83  158  139  19  -146  -271  -319  -315  -285  -235  -187  -181  -228  -326  -505  -784  -1055  -1153  -1075  -957  -883  -871  -916  -984  -1043  -1075  -1081  -1072  -1056  -1034  -1012  -991  -965  -914  -828  -725  -621  -503  -365  -251  -191  -180  -208  -279  -375  -457  -498  -510  -516  -513  -458  -309  -108  36  51  -50  -197  -314  -378  -407  -397  -324  -180  -15  113  192  224  211  146  19  -156  -314  -397  -418  -433  -468  -484  -432  -316  -190  -95  -44  -21  2  25  -4  -100  -198  -241  -241  -228  -221  -223  -226  -216  -183  -139  -120  -154  -211  -240  -322  -589  -930  -1037  -671  270  1701  3252  4413  4793  4255  2990  1470  197  -546  -765  -696  -605  -568  -527  -465  -400  -351  -353  -434  -563  -668  -704  -664  -546  -388  -263  -210  -205  -229  -283  -364  -452  -521  -558  -563  -548  -522  -495  -479  -480  -493  -511  -526  -535  -538  -520  -464  -379  -294  -212  -122  -28  50  104  149  219  316  409  482  535  563  544  466  350  240  155  88  42  22  27  45  67  89  93  36  -121  -336  -500  -560  -556  -534  -517  -512  -519  -532  -538  -525  -499  -477  -456  -420  -371  -318  -265  -216  -182  -157  -120  -64  -26  -59  -169  -300  -397  -431  -404  -347  -284  -221  -170  -138  -115  -83  -43  -13  0  13  40  77  102  96  63  42  62  114  174  222  244  207  85  -80  -201  -235  -207  -155  -90  -19  24  19  -1  -13  -25  -28  -8  45  139  235  285  298  300  301  299  297  304  330  355  352  318  261  198  149  126  120  121  126  135  149  172  212  238  172  6  -99  -35  111  208  208  234  606  1600  3148  4785  5907  6098  5278  3791  2256  1165  713  761  992  1171  1144  868  515  275  146  49  -29  -69  -69  -42  -13  0  10  47  131  234  293  272  172  12  -159  -295  -379  -415  -418  -407  -391  -382  -408  -504  -647  -755  -754  -618  -387  -161  -13  72  151  261  422  666  970  1233  1379  1440  1493  1564  1618  1617  1554  1458  1378  1329  1281  1207  1102  986  888  826  788  751  699  621  516  407  331  312  340  373  389  393  390  374  330  267  225  229  232  196  169  204  273  309  264  142  25  -22  -44  -81  -105  -82  -19  48  92  120  142  153  145  108  45  -18  -45  -23  19  57  87  109  110  86  36  -43  -158  -303  -455  -569  -601  -569  -516  -457  -393  -319  -219  -90  69  241  368  405  348  232  120  55  23  -20  -85  -141  -166  -165  -156  -153  -157  -150  -112  -44  23  66  89  102  77  -15  -150  -256  -303  -313  -312  -297  -268  -238  -222  -233  -293  -381  -417  -401  -459  -653  -897  -982  -609  398  1947  3599  4654  4628  3561  1903  333  -619  -948  -966  -872  -721  -586  -515  -477  -442  -430  -489  -606  -698  -725  -717  -712  -722  -741  -755  -760  -759  -758  -758  -762  -763  -740  -673  -565  -456  -383  -354  -351  -339  -294  -223  -162  -129  -119  -124  -145  -175  -163  -48  144  312  393  402  364  279  171  89  66  90  141  197  237  232  156  6  -174  -348  -501  -619  -692  -740  -790  -860  -965  -1131  -1352  -1564  -1705  -1803  -1923  -2079  -2221  -2305  -2340  -2379  -2455  -2530  -2536  -2470  -2397  -2353  -2322  -2284  -2236  -2177  -2107  -2050  -2032  -2051  -2081  -2099  -2125  -2186  -2247  -2271  -2266  -2257  -2259  -2272  -2311  -2395  -2514  -2649  -2816  -2996  -3124  -3177  -3192  -3192  -3167  -3125  -3087  -3070  -3066  -3038  -2960  -2869  -2834  -2865  -2937  -3089  -3372  -3706  -3943  -4046  -4079  -4091  -4087  -4067  -4040  -4017  -4003  -3999  -4026  -4106  -4220  -4305  -4335  -4344  -4380  -4468  -4581  -4662  -4699  -4735  -4814  -4922  -5012  -5067  -5120  -5174  -5087  -4572  -3382  -1508  747  2866  4481  5647  6551  7225  7635  7766  7642  7529  7834  8569  9242  9254  8284  6477  4390  2659  1533  853  466  462  1107  2573  4578  6469  7745  8357  8545  8555  8529  8512  8509  8530  8606  8777  9017  9226  9339  9368  9315  9090  8542  7651  6632  5706  4891  4139  3469  2902  2444  2078  1722  1289  788  334  28  -129  -158  0  423  1131  2105  3300  4571  5672  6415  6789  6909  6839  6526  5923  5086  4142  3206  2311  1401  465  -390  -1043  -1470  -1763  -2049  -2372  -2670  -2912  -3137  -3371  -3603  -3836  -4092  -4368  -4605  -4737  -4770  -4764  -4776  -4835  -4932  -5011  -5022  -4991  -4976  -4989  -4978  -4860  -4598  -4257  -3927  -3637  -3375  -3112  -2810  -2469  -2155  -1940  -1822  -1743  -1679  -1641  -1635  -1645  -1642  -1589  -1449  -1216  -896  -478  -13  404  776  1154  1522  1823  2017  2098  2100  2066  2028  1993  1944  1867  1782  1718  1670  1592  1440  1205  913  631  417  284  218  175  91  -57  -247  -423  -529  -544  -489  -401  -291  -157  4  236  532  786  932  884  546  278  774  2160  3728  4621  4311  2756  582  -1219  -2104  -2239  -2044  -1866  -1925  -2240  -2663  -3043  -3353  -3640  -3903  -4089  -4186  -4241  -4270  -4175  -3808  -3123  -2131  -814  702  2186  3476  4433  4979  5209  5251  5165  4994  4779  4524  4220  3906  3660  3542  3613  3947  4511  5122  5638  6058  6415  6740  7119  7615  8110  8413  8501  8500  8483  8377  8061  7521  6868  6227  5644  5051  4389  3693  2981  2227  1456  778  313  26  -249  -589  -928  -1197  -1413  -1667  -2036  -2479  -2854  -3056  -3114  -3152  -3294  -3553  -3829  -4041  -4230  -4448  -4662  -4823  -4926  -4988  -5027  -5039  -5013  -4955  -4887  -4813  -4730  -4649  -4587  -4537  -4490  -4449  -4434  -4473  -4585  -4732  -4840  -4882  -4911  -4992  -5139  -5299  -5424  -5514  -5583  -5624  -5638  -5631  -5599  -5513  -5364  -5195  -5058  -4945  -4823  -4683  -4517  -4320  -4104  -3876  -3639  -3443  -3343  -3352  -3455  -3616  -3773  -3881  -3962  -4071  -4210  -4333  -4414  -4447  -4416  -4312  -4160  -4066  -4189  -4433  -4324  -3493  -2045  -401  870  1188  418  -996  -2529  -3768  -4355  -4143  -3204  -1717  -47  1328  2180  2631  2923  3243  3676  4177  4699  5319  6051  6734  7254  7655  7993  8238  8352  8371  8360  8335  8263  8120  7895  7538  6989  6289  5581  4989  4511  4034  3535  3155  2971  2892  2779  2555  2236  1855  1418  958  559  283  96  -64  -249  -530  -942  -1357  -1600  -1659  -1662  -1734  -1923  -2231  -2677  -3268  -3897  -4403  -4733  -4955  -5171  -5453  -5783  -6082  -6288  -6397  -6447  -6480  -6485  -6422  -6280  -6100  -5925  -5712  -5385  -4979  -4627  -4401  -4277  -4216  -4180  -4133  -4064  -3947  -3749  -3509  -3340  -3290  -3304  -3308  -3262  -3160  -3017  -2856  -2702  -2577  -2468  -2342  -2171  -1973  -1791  -1658  -1585  -1582  -1679  -1891  -2144  -2316  -2366  -2345  -2295  -2228  -2136  -2008  -1858  -1727  -1625  -1528  -1405  -1212  -968  -753  -611  -517  -432  -318  -156  71  404  823  1224  1537  1781  1988  2167  2349  2562  2777  2924  2934  2773  2505  2210  1958  2003  2665  3980  5652  7169  7963  7737  6704  5361  4136  3306  2955  2962  3106  3198  3196  3186  3210  3262  3360  3505  3644  3728  3760  3771  3783  3793  3801  3807  3807  3784  3717  3609  3491  3401  3370  3405  3486  3579  3672  3773  3869  3949  3991  3938  3788  3633  3544  3519  3524  3524  3510  3497  3500  3504  3478  3418  3361  3345  3361  3360  3273  3057  2743  2425  2192  2074  2039  2035  2036  2034  2010  1939  1830  1721  1632  1555  1466  1351  1238  1170  1151  1153  1169  1219  1310  1419  1510  1567  1593  1599  1585  1539  1457  1354  1276  1251  1261  1278  1286  1286  1287  1296  1313  1316  1282  1223  1174  1160  1184  1226  1249  1247  1240  1242  1255  1271  1287  1303  1317  1327  1334  1337  1311  1236  1133  1055  1025  1022  1023  1014  1002  1003  1035  1097  1192  1362  1632  1919  2115  2213  2260  2241  2097  1859  1654  1555  1532  1526  1516  1514  1533  1527  1406  1118  671  195  7  401  1353  2579  3576  3736  2815  1084  -905  -2546  -3511  -3908  -4092  -4290  -4482  -4679  -4960  -5255  -5436  -5494  -5501  -5506  -5515  -5515  -5502  -5448  -5304  -5039  -4683  -4338  -4116  -4029  -3982  -3861  -3624  -3335  -3078  -2824  -2502  -2156  -1893  -1711  -1512  -1289  -1141  -1110  -1143  -1185  -1215  -1224  -1195  -1114  -1009  -938  -944  -1025  -1139  -1233  -1299  -1356  -1410  -1461  -1520  -1606  -1731  -1878  -2007  -2088  -2115  -2097  -2077  -2141  -2365  -2703  -2993  -3113  -3010  -2664  -2189  -1797  -1550  -1287  -825  -183  466  1022  1461  1756  1932  2060  2167  2239  2302  2422  2609  2792  2896  2918  2881  2798  2701  2633  2608  2594  2554  2475  2367  2236  2061  1814  1500  1199  996  869  720  503  277  115  20  -43  -84  -81  -29  53  137  189  197  170  125  76  25  -29  -76  -94  -105  -170  -317  -504  -677  -838  -1011  -1191  -1400  -1690  -2046  -2365  -2576  -2721  -2894  -3108  -3257  -3254  -3142  -3014  -2881  -2618  -2029  -966  454  1748  2339  1900  455  -1539  -3341  -4448  -4805  -4581  -4136  -3895  -3940  -4051  -4095  -4068  -3948  -3719  -3451  -3265  -3196  -3173  -3109  -2972  -2785  -2599  -2434  -2270  -2121  -2021  -1946  -1801  -1468  -926  -352  38  216  284  316  353  439  603  800  938  980  972  971  1016  1118  1237  1318  1345  1339  1312  1260  1194  1146  1145  1199  1291  1385  1427  1383  1284  1209  1187  1177  1114  979  800  612  441  310  232  190  145  82  17  -32  -67  -97  -134  -176  -205  -186  -99  27  117  91  -79  -329  -528  -614  -626  -620  -619  -649  -792  -1103  -1483  -1732  -1723  -1464  -1096  -816  -701  -675  -652  -622  -626  -668  -690  -644  -536  -409  -293  -204  -139  -70  12  96  181  278  380  465  517  558  616  663  637  550  484  465  414  227  -73  -342  -470  -484  -463  -458  -482  -531  -612  -686  -657  -594  -700  -955  -1210  -1329  -1015  -17  1498  2994  3835  3608  2336  516  -1094  -1961  -2047  -1642  -1082  -609  -321  -183  -126  -111  -95  -19  151  391  613  752  820  869  934  1020  1130  1279  1445  1572  1634  1654  1662  1674  1698  1731  1756  1763  1763  1762  1719  1579  1343  1092  924  862  866  892  917  933  942  953  966  976  987  1021  1091  1180  1246  1270  1265  1255  1259  1280  1294  1267  1186  1040  817  564  377  289  260  249  248  262  295  331  355  354  321  270  231  219  223  234  253  291  341  379  395  396  405  440  495  544  570  573  568  562  535  479  415  355  297  252  234  237  230  169  36  -146  -323  -430  -443  -389  -315  -265  -249  -249  -247  -234  -202  -162  -130  -113  -103  -97  -107  -158  -255  -362  -433  -466  -486  -514  -551  -602  -666  -698  -668  -646  -721  -873  -970  -939  -898  -958  -992  -706  168  1650  3344  4545  4648  3582  1832  135  -888  -1075  -706  -266  -108  -187  -269  -266  -219  -204  -263  -365  -449  -496  -518  -516  -462  -330  -153  -9  62  83  83  60  23  10  29  56  71  57  26  12  23  42  57  66  82  115  152  188  250  351  472  580  651  696  745  810  877  925  947  952  947  939  919  883  840  791  718  621  524  455  392  285  117  -66  -208  -294  -337  -353  -376  -444  -556  -673  -755  -785  -762  -712  -669  -653  -657  -658  -640  -606  -564  -525  -481  -415  -325  -215  -99  -24  -22  -59  -88  -94  -96  -111  -142  -202  -314  -461  -597  -715  -817  -883  -904  -903  -899  -891  -865  -818  -759  -693  -631  -592  -594  -637  -701  -752  -776  -769  -723  -631  -503  -385  -365  -500  -742  -978  -1132  -1205  -1227  -1231  -1230  -1218  -1198  -1173  -1128  -1001  -802  -713  -914  -1331  -1686  -1673  -1022  365  2151  3613  4116  3432  1829  78  -1056  -1418  -1313  -1116  -1133  -1378  -1572  -1541  -1399  -1301  -1265  -1242  -1210  -1181  -1173  -1174  -1163  -1142  -1132  -1157  -1219  -1286  -1334  -1358  -1336  -1259  -1170  -1115  -1099  -1097  -1093  -1103  -1155  -1241  -1308  -1303  -1215  -1091  -1003  -964  -894  -699  -405  -151  -30  16  126  383  730  1016  1165  1228  1287  1355  1407  1431  1435  1416  1349  1236  1117  1040  998  905  671  344  82  -28  -36  -10  10  -3  -82  -204  -302  -341  -338  -310  -242  -119  34  156  212  237  278  328  326  245  146  106  130  167  180  169  166  209  306  436  553  618  626  602  574  550  517  475  423  358  292  236  186  141  106  104  153  228  284  310  316  312  298  274  248  230  219  218  248  329  448  561  635  683  736  803  859  891  893  855  753  555  272  -1  -162  -207  -197  -178  -163  -148  -131  -113  -106  -133  -213  -406  -700  -835  -486  484  1997  3697  4968  5266  4501  3020  1374  127  -432  -444  -249  -94  -90  -302  -678  -1005  -1133  -1084  -940  -781  -669  -612  -581  -564  -559  -561  -568  -584  -614  -657  -722  -816  -910  -959  -919  -766  -554  -393  -325  -306  -281  -235  -187  -152  -125  -80  0  79  119  153  255  436  632  780  860  887  889  877  845  788  724  687  682  690  694  692  682  662  622  545  442  352  291  245  202  151  68  -58  -197  -292  -326  -328  -324  -322  -321  -315  -297  -276  -260  -242  -205  -144  -62  30  98  93  15  -81  -143  -164  -162  -154  -139  -112  -73  -38  -31  -83  -210  -365  -466  -459  -344  -186  -71  -33  -50  -98  -157  -195  -181  -104  2  81  102  72  10  -60  -115  -142  -147  -147  -149  -150  -149  -150  -155  -164  -171  -174  -178  -188  -194  -188  -174  -160  -151  -148  -146  -138  -125  -111  -101  -89  -73  -57  -45  -36  -22  1  42  101  161  213  270  320  340  340  352  395  456  488  454  359  230  85  -48  -115  -60  77  124  -61  -392  -678  -763  -430  565  2132  3786  4967  5263  4489  2885  1139  -80  -580  -552  -325  -243  -431  -669  -719  -630  -582  -627  -692  -708  -684  -664  -660  -664  -667  -671  -677  -671  -642  -596  -553  -510  -449  -362  -271  -211  -212  -261  -312  -340  -349  -321  -221  -46  151  323  439  472  434  379  339  322  345  445  632  848  1017  1108  1139  1145  1148  1131  1053  907  752  661  636  634  621  600  576  546  497  399  245  78  -56  -158  -246  -316  -353  -355  -350  -355  -362  -365  -367  -371  -373  -357  -309  -243  -195  -180  -184  -188  -169  -114  -38  25  68  104  140  178  206  198  158  115  88  80  82  80  63  30  -20  -76  -116  -129  -127  -121  -121  -143  -207  -313  -448  -583  -678  -713  -699  -654  -589  -504  -405  -323  -269  -227  -214  -264  -361  -447  -482  -476  -432  -333  -191  -68  -19  -48  -100  -129  -130  -118  -98  -69  -37  -23  -37  -46  -24  -3  -24  -85  -149  -190  -208  -211  -185  -99  45  195  296  339  341  301  202  56  -85  -174  -207  -215  -227  -255  -269  -193  0  178  140  -148  -553  -884  -933  -471  680  2421  4207  5299  5261  4191  2577  1080  186  -80  -20  71  99  100  110  128  130  93  29  -32  -97  -172  -220  -213  -183  -169  -169  -168  -164  -173  -219  -302  -387  -430  -424  -398  -381  -378  -365  -316  -228  -137  -88  -90  -120  -151  -162  -127  -24  114  216  254  265  283  310  334  350  372  401  414  388  346  321  320  333  352  363  326  203  14  -172  -319  -426  -507  -598  -738  -921  -1112  -1292  -1461  -1595  -1659  -1650  -1605  -1557  -1507  -1430  -1320  -1207  -1109  -1006  -904  -858  -893  -970  -1033  -1068  -1104  -1153  -1179  -1150  -1094  -1054  -1025  -961  -838  -709  -619  -536  -442  -377  -358  -363  -368  -369  -368  -365  -356  -339  -325  -343  -422  -546  -655  -715  -737  -743  -742  -726  -681  -613  -550  -516  -514  -536  -562  -587  -634  -713  -793  -831  -819  -798  -801  -820  -853  -929  -1063  -1202  -1271  -1243  -1144  -1015  -886  -799  -797  -860  -927  -964  -982  -985  -938  -803  -617  -465  -388  -377  -415  -475  -507  -464  -341  -211  -155  -191  -283  -377  -459  -530  -540  -465  -322  -28  619  1725  3109  4319  4804  4247  2826  1108  -259  -902  -893  -561  -218  -29  9  -46  -160  -283  -365  -395  -394  -388  -393  -407  -417  -404  -378  -350  -321  -295  -271  -232  -172  -112  -76  -76  -111  -169  -220  -245  -256  -261  -234  -128  29  153  199  193  174  163  186  275  437  636  809  903  919  901  885  882  880  876  874  855  784  661  513  344  134  -105  -341  -531  -636  -660  -644  -621  -604  -612  -674  -800  -939  -1026  -1046  -1027  -998  -972  -952  -942  -949  -979  -1030  -1075  -1074  -1026  -973  -926  -835  -647  -409  -235  -159  -121  -79  -31  38  161  324  467  552  593  625  643  591  426  209  67  54  127  229  334  404  402  357  347  395  463  522  571  603  613  606  585  555  537  566  658  774  837  828  788  735  673  679  960  1700  2814  3967  4863  5422  5749  5986  6197  6392  6571  6724  6808  6812  6781  6754  6725  6670  6571  6422  6215  5953  5630  5183  4592  3967  3416  3052  3064  3541  4405  5369  5905  5633  4614  3170  1710  590  -90  -408  -372  0  494  832  946  957  960  946  877  746  595  477  391  283  116  -78  -225  -303  -388  -579  -916  -1295  -1536  -1586  -1534  -1469  -1426  -1400  -1374  -1345  -1325  -1313  -1296  -1272  -1263  -1285  -1306  -1285  -1231  -1182  -1161  -1171  -1176  -1134  -1051  -955  -886  -875  -901  -917  -923  -955  -1050  -1198  -1330  -1396  -1413  -1427  -1460  -1511  -1585  -1685  -1814  -1995  -2240  -2478  -2606  -2623  -2604  -2596  -2601  -2611  -2624  -2647  -2687  -2724  -2720  -2652  -2534  -2412  -2325  -2272  -2210  -2110  -1987  -1879  -1806  -1772  -1755  -1727  -1681  -1640  -1610  -1568  -1510  -1470  -1473  -1523  -1611  -1713  -1793  -1821  -1792  -1732  -1673  -1619  -1553  -1468  -1384  -1336  -1337  -1359  -1376  -1390  -1403  -1386  -1283  -1091  -894  -791  -795  -848  -892  -911  -907  -876  -805  -694  -573  -524  -593  -718  -825  -906  -971  -1007  -1000  -962  -934  -944  -959  -950  -935  -913  -829  -668  -527  -540  -724  -913  -818  -199  971  2404  3541  3907  3409  2275  873  -377  -1143  -1348  -1153  -814  -566  -528  -673  -876  -1015  -1067  -1079  -1069  -1039  -1012  -1023  -1065  -1092  -1070  -1024  -994  -976  -950  -906  -856  -822  -810  -805  -772  -687  -569  -473  -425  -415  -431  -463  -507  -555  -573  -539  -472  -400  -305  -146  56  220  311  349  335  268  171  82  30  14  23  50  94  136  136  55  -102  -286  -433  -507  -506  -446  -335  -200  -93  -16  83  220  348  437  500  547  567  553  513  453  368  261  155  90  76  84  90  89  100  153  245  302  274  208  149  111  102  104  83  50  28  15  -4  -25  -17  19  24  -61  -225  -420  -596  -700  -723  -699  -643  -562  -493  -468  -478  -507  -544  -583  -621  -658  -690  -708  -698  -650  -577  -517  -509  -594  -781  -987  -1106  -1132  -1137  -1161  -1202  -1265  -1359  -1467  -1546  -1574  -1551  -1472  -1347  -1214  -1107  -1042  -1005  -993  -1038  -1160  -1339  -1498  -1422  -795  479  2052  3364  3966  3656  2562  1146  -18  -650  -864  -889  -903  -995  -1097  -1115  -1056  -957  -851  -767  -710  -663  -626  -626  -663  -698  -711  -722  -765  -870  -1027  -1182  -1284  -1341  -1395  -1470  -1536  -1568  -1581  -1578  -1519  -1369  -1170  -1013  -926  -857  -736  -530  -272  -38  140  299  443  537  582  601  608  608  613  641  704  789  859  891  897  907  959  1063  1186  1280  1327  1345  1360  1372  1350  1270  1155  1055  994  976  1004  1070  1148  1212  1251  1260  1214  1087  916  786  723  678  602  499  411  365  382  486  648  790  862  870  840  820  845  903  954  983  1002  1030  1093  1225  1429  1640  1769  1798  1783  1770  1757  1724  1663  1592  1548  1542  1555  1562  1541  1484  1394  1283  1181  1104  1031  949  881  836  808  807  852  943  1062  1170  1235  1253  1244  1235  1233  1200  1066  812  513  276  148  111  116  110  61  -17  -89  -146  -217  -284  -274  -247  -396  -780  -1194  -1272  -657  731  2505  3979  4575  4067  2656  911  -565  -1503  -1898  -1885  -1726  -1617  -1585  -1619  -1740  -1932  -2117  -2227  -2266  -2246  -2126  -1883  -1599  -1409  -1389  -1519  -1710  -1855  -1903  -1845  -1679  -1463  -1302  -1233  -1220  -1225  -1250  -1289  -1263  -1098  -853  -635  -453  -286  -157  -52  105  359  669  957  1210  1492  1821  2123  2354  2530  2660  2740  2789  2832  2868  2859  2777  2663  2579  2525  2447  2303  2110  1921  1740  1514  1240  973  729  507  355  295  281  257  213  176  159  151  141  130  120  114  110  106  103  102  99  83  41  -28  -115  -204  -283  -349  -418  -487  -530  -536  -523  -499  -451  -371  -278  -208  -168  -110  21  204  350  422  459  487  508  529  556  581  598  606  593  536  421  266  117  18  -15  28  162  340  466  490  435  355  297  272  272  298  367  490  644  787  889  954  1015  1093  1153  1103  846  416  13  -198  -238  -210  -176  -138  -86  -55  -109  -216  -271  -282  -289  -230  12  632  1763  3208  4486  5036  4521  3147  1569  394  -93  12  241  167  -104  -241  -198  -130  -107  -108  -117  -133  -166  -195  -179  -98  9  90  116  68  -63  -231  -347  -374  -352  -327  -318  -324  -344  -368  -386  -396  -408  -421  -398  -286  -109  30  72  49  16  2  33  133  274  368  377  358  376  422  441  397  314  249  228  239  260  263  192  9  -232  -417  -509  -574  -676  -793  -872  -923  -995  -1088  -1164  -1219  -1278  -1386  -1552  -1715  -1811  -1843  -1833  -1761  -1592  -1376  -1218  -1154  -1135  -1113  -1077  -1035  -1004  -993  -999  -1007  -1002  -973  -905  -800  -681  -588  -578  -690  -881  -1056  -1159  -1195  -1194  -1193  -1212  -1238  -1240  -1205  -1153  -1109  -1088  -1085  -1086  -1080  -1066  -1062  -1088  -1149  -1225  -1304  -1389  -1467  -1506  -1444  -1231  -928  -687  -584  -573  -599  -648  -715  -781  -829  -853  -861  -843  -800  -766  -733  -662  -581  -562  -629  -738  -818  -853  -919  -1064  -1207  -1250  -1128  -671  234  1430  2618  3453  3598  2954  1709  247  -935  -1514  -1531  -1209  -803  -590  -628  -696  -654  -553  -440  -331  -256  -220  -195  -160  -111  -54  -18  -14  -16  -5  6  10  11  5  -8  -29  -46  -57  -61  -54  -16  61  121  94  10  -51  -73  -70  -51  10  164  396  616  761  865  1008  1194  1342  1406  1416  1422  1451  1481  1464  1380  1261  1151  1043  889  707  582  547  558  565  523  386  164  -50  -168  -186  -153  -108  -84  -119  -239  -405  -532  -584  -574  -508  -403  -311  -264  -246  -224  -158  -17  170  319  394  433  460  482  522  603  684  693  616  492  347  198  91  49  52  72  91  104  109  111  106  82  39  -2  -34  -64  -95  -120  -145  -179  -231  -291  -343  -378  -399  -410  -401  -356  -284  -205  -115  -8  95  152  150  126  127  146  146  97  10  -68  -105  -101  -82  -107  -190  -298  -438  -586  -597  -260  582  1865  3211  4090  4115  3263  1904  579  -329  -721  -723  -581  -448  -316  -217  -205  -273  -390  -528  -645  -714  -730  -705  -658  -612  -588  -577  -555  -516  -477  -460  -467  -473  -462  -429  -368  -291  -225  -181  -160  -149  -127  -91  -67  -73  -93  -98  -49  90  290  458  540  555  541  518  494  474  465  473  518  608  716  790  798  741  651  571  515  455  360  226  68  -108  -301  -473  -578  -610  -607  -599  -596  -592  -586  -584  -599  -615  -586  -507  -428  -397  -412  -431  -419  -373  -310  -242  -171  -106  -80  -118  -191  -259  -318  -374  -424  -472  -520  -558  -576  -572  -531  -440  -301  -153  -59  -46  -84  -137  -192  -252  -333  -421  -455  -391  -228  -9  174  253  255  242  238  220  151  36  -73  -130  -116  -37  75  182  274  365  446  501  532  536  471  287  40  -140  -203  -208  -215  -240  -274  -306  -326  -304  -186  11  127  -4  -349  -682  -647  54  1375  2900  4066  4433  3882  2606  1086  -96  -596  -474  -86  155  81  -139  -268  -269  -233  -198  -132  -26  76  130  142  164  234  318  316  178  -3  -100  -85  -9  83  179  277  357  402  414  412  417  447  504  575  644  692  714  731  768  819  856  873  897  963  1057  1128  1150  1154  1163  1173  1170  1145  1092  1006  875  677  415  162  3  -56  -116  -282  -547  -797  -951  -1023  -1061  -1090  -1118  -1148  -1184  -1240  -1336  -1467  -1603  -1710  -1763  -1746  -1652  -1473  -1247  -1055  -954  -924  -922  -918  -887  -802  -670  -535  -438  -396  -393  -405  -418  -428  -435  -437  -432  -421  -401  -370  -348  -352  -374  -392  -401  -407  -415  -429  -448  -459  -441  -386  -298  -234  -267  -385  -495  -546  -558  -561  -568  -570  -550  -503  -444  -395  -380  -412  -460  -490  -496  -491  -488  -495  -519  -549  -554  -506  -418  -337  -302  -309  -315  -299  -267  -239  -243  -268  -280  -284  -311  -357  -395  -396  -368  -336  -313  -297  -300  -350  -462  -590  -689  -816  -1011  -1056  -582  504  1891  3149  3891  3842  3080  1965  801  -187  -801  -987  -861  -643  -586  -735  -872  -876  -829  -805  -802  -798  -779  -755  -746  -757  -772  -783  -789  -796  -801  -793  -763  -720  -685  -657  -625  -594  -567  -530  -483  -433  -374  -290  -169  -35  55  84  74  59  59  84  134  227  395  600  748  811  844  883  917  933  942  958  983  997  964  846  662  482  354  280  240  216  199  175  102  -53  -251  -396  -448  -449  -436  -413  -377  -340  -320  -317  -313  -282  -233  -221  -265  -298  -266  -193  -137  -123  -129  -121  -98  -76  -54  -31  -14  0  13  22  19  10  2  8  35  62  67  58  53  59  76  109  164  230  280  323  391  479  547  571  567  559  556  556  559  571  603  638  610  444  160  -109  -248  -242  -135  6  114  157  159  153  155  170  200  241  285  335  392  437  461  475  491  510  531  548  561  575  590  595  579  545  525  562  670  811  925  978  989  977  931  825  657  461  307  233  219  228  251  310  408  495  518  448  225  -100  -203  307  1535  3200  4729  5522  5247  4024  2371  872  -63  -285  -1  382  569  467  180  -67  -148  -99  -4  79  136  170  185  186  186  196  211  215  200  178  184  228  257  231  169  127  127  145  148  144  189  328  521  664  712  698  660  624  614  650  720  787  821  835  864  922  985  1017  1014  1011  1026  1047  1060  1062  1048  989  867  713  583  484  398  320  241  143  27  -96  -215  -324  -422  -489  -517  -530  -551  -572  -593  -627  -667  -703  -733  -747  -749  -749  -750  -740  -704  -646  -617  -674  -783  -877  -937  -953  -906  -826  -764  -730  -722  -730  -741  -750  -752  -752  -753  -748  -724  -682  -632  -593  -565  -540  -523  -531  -582  -683  -796  -850  -813  -721  -628  -572  -557  -564  -579  -597  -624  -673  -746  -828  -902  -942  -931  -895  -873  -876  -889  -888  -846  -751  -635  -554  -526  -528  -532  -531  -528  -529  -538  -555  -573  -575  -535  -433  -291  -163  -88  -67  -109  -236  -422  -580  -653  -658  -638  -617  -599  -590  -601  -651  -712  -712  -662  -661  -713  -731  -597  -125  834  2141  3355  4009  3790  2671  1091  -278  -1061  -1238  -974  -587  -377  -396  -490  -525  -495  -456  -444  -454  -459  -445  -422  -420  -442  -454  -447  -448  -475  -518  -552  -561  -547  -517  -469  -397  -306  -205  -90  34  138  199  222  243  302  405  507  565  593  634  701  773  831  874  926  1015  1140  1265  1363  1414  1396  1295  1135  978  871  806  748  684  627  568  478  339  172  20  -89  -154  -194  -239  -287  -324  -363  -428  -499  -528  -507  -470  -449  -458  -492  -524  -534  -520  -481  -417  -340  -270  -213  -167  -140  -137  -144  -145  -136  -120  -109  -106  -106  -102  -93  -84  -85  -90  -89  -81  -74  -81  -112  -166  -220  -250  -251  -245  -252  -269  -275  -255  -214  -177  -158  -151  -149  -164  -216  -303  -400  -470  -488  -466  -450  -491  -585  -672  -700  -677  -606  -458  -256  -91  -10  10  7  2  14  50  93  118  117  93  41  -49  -160  -248  -288  -293  -282  -261  -209  -79  151  361  302  -148  -719  -904  -375  850  2421  3700  4141  3674  2579  1223  39  -658  -918  -937  -793  -574  -422  -349  -296  -255  -236  -238  -267  -324  -386  -413  -389  -344  -307  -288  -283  -285  -284  -272  -241  -193  -139  -92  -49  -3  44  85  110  118  118  117  125  146  176  209  255  331  436  557  693  849  1004  1117  1167  1132  996  810  672  626  643  691  748  799  829  818  736  562  312  65  -97  -171  -210  -267  -339  -376  -345  -278  -243  -276  -352  -422  -474  -526  -600  -689  -768  -821  -845  -837  -794  -720  -645  -601  -592  -600  -606  -592  -541  -464  -400  -378  -392  -421  -443  -452  -452  -437  -398  -342  -313  -339  -393  -435  -454  -452  -443  -425  -390  -362  -369  -417  -497  -577  -614  -611  -600  -598  -602  -588  -522  -393  -249  -157  -132  -141  -158  -177  -198  -212  -217  -217  -213  -207  -205  -228  -305  -436  -569  -652  -676  -654  -589  -485  -356  -227  -194  -368  -677  -844  -581  277  1683  3256  4355  4448  3489  1956  478  -508  -842  -687  -429  -338  -398  -492  -548  -524  -416  -279  -159  -81  -51  -59  -80  -99  -119  -150  -188  -207  -193  -165  -149  -147  -147  -147  -142  -121  -65  30  144  241  300  320  317  308  300  299  307  336  411  538  678  787  860  921  992  1068  1119  1136  1136  1135  1121  1073  993  912  858  815  741  619  460  285  122  11  -36  -52  -74  -114  -160  -188  -190  -179  -164  -155  -157  -190  -279  -404  -500  -506  -395  -213  -64  7  42  74  103  118  118  114  113  113  120  147  207  289  361  400  401  371  317  251  196  164  153  146  114  32  -76  -156  -180  -166  -137  -106  -88  -84  -87  -90  -86  -72  -52  -35  -22  -10  1  8  5  -11  -37  -64  -93  -122  -133  -109  -55  0  38  52  24  -71  -231  -408  -547  -618  -632  -627  -628  -638  -643  -628  -590  -538  -527  -623  -791  -904  -765  -92  1219  2796  3992  4315  3651  2302  868  -103  -498  -552  -530  -596  -735  -786  -696  -577  -518  -502  -494  -501  -541  -597  -628  -616  -584  -550  -515  -489  -487  -517  -577  -637  -669  -676  -678  -676  -651  -574  -445  -319  -258  -264  -297  -329  -359  -389  -420  -450  -462  -398  -207  57  266  351  345  289  204  118  61  38  33  33  27  11  -15  -49  -96  -177  -294  -421  -533  -655  -838  -1060  -1219  -1270  -1259  -1240  -1213  -1141  -1014  -872  -759  -675  -582  -465  -357  -285  -250  -241  -250  -264  -271  -260  -224  -145  -14  130  225  251  244  235  229  227  243  279  317  346  376  406  421  407  355  275  193  126  93  102  128  145  155  165  160  114  20  -67  -83  -57  -70  -117  -148  -153  -148  -150  -169  -198  -220  -224  -222  -238  -292  -370  -434  -463  -454  -411  -358  -310  -266  -242  -248  -264  -270  -275  -307  -382  -499  -646  -803  -942  -1054  -1141  -1195  -1229  -1268  -1314  -1341  -1290  -1118  -943  -946  -1144  -1361  -1270  -534  870  2546  3906  4509  4202  3129  1708  449  -298  -502  -371  -143  34  90  19  -91  -153  -158  -139  -121  -117  -129  -150  -180  -217  -247  -255  -244  -222  -201  -183  -169  -162  -163  -159  -154  -163  -183  -195  -179  -132  -77  -42  -30  -31  -47  -85  -136  -164  -142  -64  72  269  472  601  638  627  601  579  584  634  710  772  794  767  688  583  505  475  479  486  462  369  217  74  -1  -21  -38  -89  -164  -226  -249  -241  -239  -261  -281  -248  -144  -1  123  187  199  190  177  165  154  135  103  75  70  93  136  178  201  202  186  155  113  72  44  31  27  28  44  71  87  81  79  94  104  86  42  13  49  143  240  295  311  306  274  196  86  -11  -68  -85  -77  -51  -16  9  18  10  -13  -47  -80  -93  -54  67  247  416  540  623  669  703  764  874  1003  1093  1123  1118  1103  1090  1083  1080  1080  1088  1109  1134  1135  1090  1016  974  989  999  960  906  887  924  1012  1114  1164  1064  769  452  467  1107  2394  4015  5414  6065  5796  4830  3539  2269  1243  595  386  517  796  1051  1151  1116  1074  1092  1144  1186  1202  1202  1199  1196  1195  1205  1223  1232  1217  1195  1197  1232  1282  1313  1318  1308  1292  1271  1251  1238  1234  1235  1236  1240  1255  1299  1396  1531  1632  1657  1627  1592  1584  1595  1597  1598  1633  1722  1845  1949  2010  2040  2053  2056  2048  2017  1935  1781  1574  1368  1206  1075  932  773  625  496  368  249  171  148  157  155  109  17  -67  -61  39  139  166  127  56  -26  -131  -242  -307  -314  -291  -261  -236  -225  -215  -180  -116  -75  -109  -209  -339  -461  -530  -543  -531  -526  -540  -575  -615  -641  -650  -649  -646  -642  -633  -628  -654  -745  -910  -1096  -1237  -1314  -1348  -1366  -1382  -1409  -1445  -1481  -1539  -1644  -1774  -1866  -1912  -1960  -2033  -2114  -2181  -2226  -2253  -2277  -2305  -2343  -2412  -2531  -2689  -2846  -2962  -3038  -3105  -3189  -3313  -3497  -3726  -3932  -4053  -4101  -4123  -4150  -4178  -4190  -4191  -4201  -4178  -3987  -3506  -2768  -1952  -1251  -748  -384]
