reading_id,reading_time,wire_id,result_classification,heart_rate,heart_rate_alert,firmware_version,device_app_version,hardware_version,waveform_samples
12ad5420-688d-11ed-8080-808080808080,Sun Nov 20 04:37:43 UTC 2022,8100e3ea1a39,UNCLASSIFIABLE,101,NONE,20001.171.50,2.10.0,Charge 5,[26656  28160  30366  32767  32767  32767  32767  32767  32767  32767  32767  32767  32767  32767  32767  32767  32767  32767  32767  32767  32767  32767  32767  32767  32767  32767  32767  32767  32767  32767  32767  26645  20520  14804  9493  4384  -589  -5418  -9975  -13596  -15584  -16165  -16188  -16243  -16293  -15685  -13403  -8534  -826  8998  19679  30101  32767  32767  32767  32767  32767  32767  32767  32767  32767  32767  32767  32767  32767  32767  32767  32767  32767  32767  32767  32767  32767  31987  30476  29543  28603  26945  24094  20129  15801  12165  9916  9095  9432  10677  12319  13541  13690  12437  9854  6641  3674  1331  -534  -2299  -4372  -6909  -9540  -11580  -12625  -12707  -11827  -9941  -7573  -5851  -5713  -7321  -10166  -13472  -16484  -18752  -20452  -22216  -24616  -27771  -31112  -32768  -32768  -32073  -28336  -23667  -18903  -14662  -11236  -8620  -6806  -5820  -5495  -5496  -5537  -5518  -5523  -5817  -6768  -8647  -11386  -14475  -17175  -18936  -19727  -19932  -19769  -18928  -16888  -13474  -9156  -4936  -1730  157  954  1104  1109  1452  2422  3922  5507  6709  7330  7401  6852  5406  2791  -1030  -5686  -10488  -14881  -18651  -21729  -24059  -25693  -26737  -27216  -27120  -26521  -25708  -25081  -24828  -24958  -25539  -26547  -27665  -28533  -29033  -29246  -29293  -29179  -28723  -27673  -25868  -23304  -20150  -16870  -14156  -12456  -11609  -11172  -10915  -10817  -10833  -10863  -10856  -10799  -10543  -9718  -8041  -5659  -2968  -219  2648  5994  10108  14792  19470  23556  26706  28882  30280  31106  31311  30593  28635  25335  20862  15578  9958  4544  -206  -4093  -7110  -9369  -11100  -12455  -13401  -13923  -14145  -14222  -14174  -13889  -13298  -12497  -11558  -10423  -9155  -8032  -7296  -6973  -6919  -6992  -7162  -7424  -7731  -8015  -8207  -8244  -8039  -7511  -6751  -6056  -5688  -5677  -5900  -6186  -6383  -6450  -6439  -6420  -6607  -7431  -9145  -11397  -13452  -14812  -15510  -15843  -16006  -15911  -15229  -13771  -11818  -9886  -8380  -7514  -7213  -7176  -7182  -7290  -7748  -8636  -9613  -10241  -10469  -10554  -10669  -10820  -11035  -11380  -11833  -12251  -12489  -12470  -12178  -11689  -11203  -10892  -10774  -10771  -10802  -10861  -11090  -11738  -12927  -14387  -15571  -16170  -16343  -16401  -16494  -16605  -16691  -16798  -17102  -17783  -18860  -20184  -21544  -22767  -23769  -24529  -25033  -25300  -25382  -25216  -24563  -23239  -21344  -19196  -17132  -15340  -13818  -12577  -11748  -11343  -11218  -11395  -12166  -13687  -15645  -17488  -18830  -19582  -19862  -19813  -19469  -18823  -17985  -17098  -16160  -15052  -13751  -12428  -11221  -10114  -9108  -8211  -7331  -6417  -5566  -4858  -4223  -3500  -2491  -914  1368  4072  6660  8807  10636  12534  14854  17838  21450  25224  28598  31240  32767  32767  32767  31022  27099  21344  14251  6707  -299  -5946  -9789  -11861  -12482  -11983  -10557  -8294  -5390  -2289  466  2515  3785  4489  4993  5559  6201  6749  7054  7147  7132  6983  6560  5852  5114  4643  4490  4497  4480  4303  3858  3154  2404  1913  1889  2436  3464  4537  5192  5364  5258  5092  5293  6626  9530  13399  17040  19725  21503  22807  24004  25224  26464  27695  28965  30365  31777  32767  32767  32767  32767  32767  32767  32353  30984  29036  26725  24335  22339  21166  20763  20743  20783  20591  19779  18193  16163  14085  12061  10108  8407  7220  6637  6484  6491  6523  6669  7178  8283  9933  11736  13287  14397  15008  15163  15035  14837  14703  14642  14599  14556  14511  14332  13697  12260  9934  6998  3873  877  -1701  -3554  -4582  -4944  -4687  -3577  -1604  634  2425  3495  4009  4342  4803  5407  5953  6349  6714  7150  7651  8247  9001  9831  10515  10896  10985  10816  10327  9491  8440  7412  6583  5899  5197  4479  3902  3561  3397  3289  3158  2997  2845  2697  2465  2074  1545  948  337  -273  -848  -1338  -1728  -2034  -2261  -2419  -2590  -2905  -3389  -3960  -4595  -5295  -5924  -6315  -6482  -6601  -6840  -7255  -7798  -8322  -8643  -8701  -8580  -8403  -8256  -8170  -8155  -8251  -8507  -8900  -9242  -9203  -8585  -7530  -6434  -5750  -5767  -6340  -7029  -7567  -8043  -8747  -9924  -11460  -12806  -13203  -12067  -9394  -5855  -2501  -265  600  537  41  -666  -1460  -2248  -3073  -4039  -5099  -6005  -6545  -6754  -6804  -6800  -6761  -6716  -6707  -6728  -6716  -6571  -6236  -5743  -5145  -4417  -3489  -2432  -1520  -965  -752  -861  -1456  -2616  -4028  -5235  -6022  -6397  -6409  -6039  -5234  -4077  -2833  -1810  -1182  -923  -894  -1032  -1417  -2136  -3140  -4255  -5288  -6100  -6633  -6950  -7161  -7300  -7360  -7353  -7277  -7066  -6653  -6128  -5715  -5530  -5487  -5451  -5390  -5358  -5393  -5484  -5623  -5795  -5950  -6044  -6005  -5684  -5014  -4187  -3527  -3189  -3109  -3187  -3376  -3615  -3806  -3890  -3825  -3528  -3008  -2475  -2137  -1969  -1793  -1465  -956  -397  14  180  -1  -723  -1990  -3447  -4653  -5416  -5881  -6304  -6790  -7315  -7786  -8073  -8160  -8146  -8101  -8001  -7805  -7554  -7348  -7206  -7055  -6875  -6743  -6738  -6876  -7104  -7331  -7463  -7356  -6784  -5602  -3792  -1356  1530  4321  6327  7242  7337  7048  6616  6148  5726  5408  5210  5057  4837  4501  4046  3493  2893  2293  1713  1185  747  413  188  81  45  10  -44  -89  -107  -110  -106  -91  -53  9  99  261  571  986  1338  1510  1479  1191  633  -3  -441  -518  -126  758  1820  2577  2885  2895  2597  1836  781  -58  -420  -436  -229  241  928  1574  1966  2112  2050  1645  754  -485  -1706  -2603  -3062  -3029  -2326  -839  1106  2837  3879  4259  4263  4005  3387  2480  1663  1231  1157  1324  1700  2208  2653  2879  2820  2419  1683  759  -92  -619  -716  -372  407  1488  2538  3228  3475  3398  3131  2809  2578  2496  2550  2751  3093  3520  4007  4606  5309  5930  6266  6284  6087  5817  5620  5615  5885  6456  7242  8008  8479  8558  8346  7994  7605  7188  6758  6424  6251  6173  6095  5963  5712  5287  4775  4407  4402  4895  5811  6767  7347  7376  6819  5748  4480  3467  2940  2737  2537  2207  1838  1512  1210  919  664  389  7  -492  -1070  -1625  -1993  -2107  -2055  -1962  -1896  -1865  -1849  -1831  -1791  -1694  -1528  -1345  -1217  -1176  -1228  -1381  -1595  -1772  -1848  -1796  -1581  -1193  -699  -237  51  126  12  -280  -708  -1162  -1583  -2012  -2430  -2715  -2798  -2696  -2433  -2069  -1728  -1498  -1403  -1450  -1617  -1818  -1970  -2064  -2124  -2164  -2188  -2180  -2083  -1833  -1452  -1066  -796  -650  -557  -476  -420  -401  -408  -428  -443  -420  -307  -63  357  1013  1845  2638  3197  3486  3572  3421  2852  1851  769  0  -373  -496  -521  -564  -696  -885  -1037  -1106  -1091  -961  -664  -220  277  731  1089  1327  1445  1478  1476  1491  1573  1735  1915  2037  2079  2045  1902  1597  1103  403  -460  -1299  -1888  -2194  -2377  -2635  -3094  -3689  -4195  -4456  -4523  -4539  -4583  -4567  -4202  -3215  -1773  -495  159  204  -196  -912  -1699  -2280  -2602  -2768  -2859  -2964  -3207  -3602  -4022  -4365  -4650  -4920  -5157  -5319  -5385  -5355  -5260  -5116  -4922  -4722  -4599  -4573  -4555  -4421  -4096  -3582  -2951  -2361  -1974  -1803  -1715  -1597  -1446  -1309  -1201  -1136  -1130  -1145  -1115  -1020  -830  -423  347  1433  2524  3325  3763  3931  3951  3877  3679  3355  2972  2577  2189  1885  1774  1890  2143  2381  2499  2471  2315  2088  1842  1544  1121  577  22  -387  -576  -603  -553  -437  -209  136  512  813  1042  1261  1469  1609  1666  1634  1450  1031  415  -176  -521  -605  -558  -477  -397  -332  -287  -257  -237  -205  -135  -37  55  151  292  465  592  637  638  646  694  827  1122  1619  2192  2589  2593  2097  1198  262  -360  -634  -718  -720  -660  -564  -517  -648  -1031  -1538  -1921  -2042  -1855  -1345  -689  -214  -91  -277  -670  -1127  -1526  -1877  -2247  -2625  -2925  -3080  -3114  -3119  -3153  -3209  -3311  -3619  -4258  -5031  -5568  -5748  -5695  -5499  -5150  -4593  -3798  -2878  -2067  -1532  -1286  -1222  -1221  -1236  -1250  -1245  -1193  -1054  -807  -524  -334  -273  -263  -226  -135  30  291  617  931  1175  1349  1500  1703  2033  2504  3062  3667  4240  4634  4810  4874  4892  4847  4720  4511  4227  3867  3436  3012  2686  2437  2181  1898  1648  1526  1590  1852  2351  3114  3991  4724  5168  5339  5327  5216  5065  4918  4776  4589  4308  3995  3783  3732  3794  3896  3984  4030  4019  3919  3673  3253  2710  2122  1525  898  205  -535  -1215  -1705  -1945  -1929  -1624  -1045  -398  38  189  181  146  125  105  101  208  560  1171  1826  2235  2214  1704  811  -195  -1130  -1962  -2636  -3048  -3071  -2446  -952  1191  3355  4964  5822  6093  6021  5636  4824  3587  2066  425  -1084  -2144  -2647  -2663  -2045  -484  1942  4652  6991  8553  9262  9337  9016  8356  7404  6295  5100  3766  2325  1127  769  1692  3788  6362  8448  9297  8741  7196  5358  3786  2677  1949  1364  649  -281  -1231  -1941  -2329  -2466  -2444  -2316  -2122  -1941  -1841  -1814  -1807  -1785  -1774  -1871  -2179  -2655  -3128  -3489  -3809  -4307  -5153  -6265  -7347  -8111  -8446  -8432  -8182  -7797  -7432  -7211  -7134  -7120  -7083  -6963  -6734  -6414  -5998  -5472  -4901  -4381  -3943  -3596  -3380  -3318  -3382  -3509  -3639  -3750  -3844  -3919  -3953  -3917  -3790  -3544  -3116  -2433  -1538  -623  127  635  896  974  961  892  760  598  493  536  758  1069  1310  1403  1353  1144  778  335  -79  -397  -586  -640  -569  -391  -140  144  407  571  590  456  174  -237  -738  -1242  -1633  -1831  -1851  -1747  -1560  -1348  -1176  -1042  -864  -524  -11  497  802  883  838  730  586  442  321  214  107  -14  -153  -265  -221  180  1016  2037  2848  3233  3190  2726  1885  880  2  -538  -585  -7  1151  2631  4160  5597  6904  8048  8887  9125  8443  6739  4258  1462  -1217  -3528  -5363  -6635  -7190  -6850  -5648  -3935  -2213  -950  -353  -258  -406  -721  -1233  -1918  -2657  -3260  -3591  -3693  -3696  -3622  -3340  -2760  -2067  -1593  -1470  -1600  -1847  -2090  -2240  -2263  -2146  -1885  -1547  -1269  -1126  -1093  -1113  -1144  -1167  -1176  -1177  -1157  -1077  -900  -640  -368  -157  16  307  846  1555  2192  2595  2793  2886  2915  2869  2752  2595  2416  2215  2011  1852  1787  1840  2002  2259  2599  2942  3178  3290  3348  3391  3406  3366  3247  3047  2798  2536  2285  2052  1828  1601  1366  1141  954  820  723  612  460  292  121  -132  -560  -1067  -1427  -1558  -1538  -1388  -1009  -374  324  821  1022  959  628  52  -629  -1289  -1922  -2444  -2582  -2119  -1059  391  1810  2728  2889  2297  1177  -116  -1254  -2021  -2410  -2640  -2919  -3217  -3344  -3095  -2297  -1072  48  609  565  105  -479  -879  -974  -858  -678  -569  -657  -1007  -1490  -1863  -2037  -2097  -2136  -2266  -2686  -3552  -4772  -6023  -6973  -7490  -7645  -7470  -6850  -5795  -4584  -3514  -2747  -2348  -2316  -2660  -3397  -4392  -5381  -6179  -6717  -6987  -7044  -6953  -6688  -6182  -5469  -4684  -3967  -3429  -3122  -3015  -3045  -3162  -3306  -3415  -3476  -3510  -3516  -3496  -3457  -3366  -3092  -2462  -1438  -294  556  934  941  719  335  -148  -644  -1083  -1464  -1838  -2193  -2434  -2523  -2518  -2421  -2126  -1606  -1065  -740  -638  -594  -505  -383  -270  -179  -97  -1  129  293  470  662  895  1197  1647  2314  3108  3908  4725  5535  6181  6563  6718  6749  6743  6727  6674  6560  6391  6173  5891  5590  5378  5300  5303  5316  5307  5280  5251  5227  5220  5283  5488  5875  6378  6835  7106  7181  7133  7015  6842  6625  6391  6138  5840  5508  5180  4888  4678  4569  4538  4569  4623  4564  4249  3729  3362  3624  4682  6197  7516  7971  7256  5649  3755  2078  848  17  -617  -1234  -1869  -2405  -2735  -2895  -2974  -3005  -2975  -2865  -2706  -2584  -2585  -2769  -3121  -3532  -3879  -4119  -4282  -4405  -4505  -4578  -4595  -4505  -4256  -3823  -3253  -2711  -2374  -2240  -2153  -1987  -1746  -1525  -1392  -1325  -1281  -1248  -1188  -1025  -746  -459  -283  -255  -377  -656  -1060  -1486  -1821  -2014  -2093  -2102  -2023  -1784  -1389  -979  -707  -584  -502  -388  -247  -112  -7  47  50  11  -79  -266  -564  -895  -1153  -1332  -1492  -1648  -1760  -1783  -1707  -1563  -1388  -1172  -890  -577  -326  -214  -305  -622  -1047  -1355  -1452  -1410  -1317  -1230  -1175  -1131  -1048  -917  -771  -628  -475  -293  -83  169  526  1021  1589  2113  2517  2785  2923  2952  2903  2770  2489  2009  1427  953  692  594  576  589  611  621  571  415  167  -88  -280  -374  -357  -196  204  952  2045  3295  4369  4915  4722  3877  2749  1819  1438  1603  1957  2064  1754  1179  591  170  -15  -20  61  164  248  292  278  177  -11  -238  -435  -561  -615  -622  -614  -602  -545  -357  8  508  1061  1562  1890  2030  2093  2172  2274  2358  2401  2408  2370  2266  2104  1946  1856  1840  1865  1909  1949  1925  1735  1350  903  572  405  364  504  940  1611  2260  2683  2856  2852  2749  2609  2469  2346  2241  2148  2078  2024  1925  1748  1548  1379  1213  986  696  424  257  199  182  138  55  -54  -212  -464  -779  -1031  -1133  -1109  -1033  -928  -762  -542  -345  -244  -277  -480  -839  -1244  -1566  -1775  -1940  -2083  -2098  -1886  -1456  -878  -271  213  493  572  408  -98  -952  -2052  -3265  -4334  -4944  -4987  -4494  -3549  -2387  -1304  -501  -79  -13  -229  -682  -1241  -1696  -1936  -1939  -1598  -828  110  744  854  579  194  -67  -143  -112  -56  -42  -166  -509  -1020  -1545  -1967  -2245  -2382  -2371  -2168  -1758  -1275  -935  -837  -939  -1194  -1531  -1818  -1939  -1890  -1756  -1608  -1420  -1116  -691  -273  -6  91  96  68  10  -82  -182  -247  -278  -302  -320  -275  -90  245  634  946  1113  1164  1170  1168  1158  1125  1058  964  850  703  542  443  439  486  541  646  883  1256  1659  1970  2145  2219  2255  2295  2337  2360  2358  2340  2312  2281  2251  2192  2053  1810  1514  1257  1064  903  760  654  592  556  522  488  461  432  364  241  109  23  -12  -28  -31  16  167  398  612  739  780  751  657  525  395  267  83  -204  -551  -861  -1102  -1328  -1586  -1860  -2096  -2260  -2366  -2449  -2538  -2636  -2741  -2867  -3035  -3240  -3459  -3660  -3775  -3724  -3474  -3118  -2789  -2495  -2182  -1883  -1638  -1408  -1166  -959  -834  -796  -874  -1119  -1513  -1965  -2394  -2724  -2880  -2822  -2559  -2211  -1963  -1900  -1968  -2085  -2226  -2420  -2658  -2860  -2957  -2935  -2774  -2438  -1955  -1460  -1101  -933  -894  -880  -845  -794  -739  -678  -633  -641  -708  -794  -860  -889  -861  -739  -525  -270  -15  235  469  664  795  840  763  541  228  -52  -235  -370  -583  -948  -1364  -1657  -1781  -1813  -1815  -1795  -1752  -1695  -1647  -1611  -1575  -1542  -1517  -1472  -1365  -1188  -960  -704  -437  -183  21  142  181  182  192  237  338  510  713  877  985  1038  980  771  482  236  99  68  123  246  404  578  799  1100  1424  1661  1770  1789  1722  1527  1213  850  464  66  -269  -472  -548  -560  -552  -547  -596  -779  -1097  -1432  -1664  -1700  -1355  -436  926  2199  2913  3008  2609  1833  909  163  -254  -449  -574  -676  -759  -851  -986  -1174  -1398  -1627  -1848  -2068  -2273  -2415  -2474  -2460  -2367  -2161  -1866  -1578  -1363  -1207  -1085  -981  -878  -779  -710  -681  -679  -689  -708  -725  -693  -536  -248  72  317  469  576  714  951  1282  1631  1922  2124  2242  2296  2308  2286  2202  2029  1788  1564  1420  1358  1342  1361  1440  1593  1766  1885  1941  1970  1993  1999  1951  1816  1613  1413  1265  1162  1082  1024  997  978  917  791  642  516  367  112  -207  -449  -547  -562  -591  -695  -865  -1045  -1194  -1296  -1345  -1346  -1317  -1290  -1296  -1348  -1453  -1613  -1791  -1910  -1890  -1671  -1275  -824  -452  -228  -142  -181  -397  -844  -1404  -1833  -1965  -1690  -896  315  1557  2439  2825  2832  2649  2372  2037  1641  1086  240  -896  -2036  -2637  -2203  -610  1731  4021  5480  5801  5300  4544  3809  3080  2338  1612  948  427  129  40  60  130  261  470  691  789  689  464  230  -11  -316  -645  -879  -965  -920  -751  -449  -34  444  909  1303  1629  1908  2120  2251  2337  2432  2536  2607  2627  2616  2583  2515  2410  2289  2188  2128  2112  2118  2125  2120  2100  2078  2083  2170  2378  2670  2923  3046  3059  3034  3015  3014  3054  3159  3307  3433  3503  3532  3538  3511  3437  3342  3272  3217  3112  2921  2671  2360  1929  1391  914  655  594  618  669  753  856  931  939  875  761  635  517  391  218  -36  -363  -686  -915  -1024  -1051  -1044  -996  -836  -541  -221  -16  44  4  -125  -349  -625  -887  -1113  -1342  -1607  -1894  -2147  -2308  -2361  -2320  -2190  -2000  -1802  -1604  -1357  -1046  -738  -531  -460  -477  -490  -371  49  836  1739  2361  2575  2506  2217  1702  1044  437  26  -217  -421  -640  -819  -907  -915  -879  -826  -767  -725  -736  -833  -1018  -1269  -1545  -1813  -2080  -2333  -2496  -2524  -2440  -2301  -2164  -2056  -1964  -1888  -1847  -1847  -1860  -1848  -1795  -1710  -1626  -1580  -1582  -1613  -1639  -1628  -1578  -1514  -1459  -1418  -1396  -1391  -1387  -1368  -1329  -1262  -1147  -1007  -907  -873  -876  -888  -899  -905  -892  -836  -735  -619  -525  -473  -442  -380  -251  -73  89  172  164  93  6  -59  -108  -170  -254  -346  -436  -527  -610  -665  -687  -686  -653  -564  -414  -249  -139  -108  -128  -174  -243  -337  -464  -618  -765  -869  -922  -930  -896  -812  -690  -575  -505  -472  -462  -486  -562  -670  -755  -787  -780  -761  -744  -733  -747  -832  -1006  -1208  -1350  -1400  -1357  -1218  -1026  -868  -795  -770  -738  -696  -672  -597  -266  436  1278  1853  1944  1530  718  -157  -730  -938  -966  -942  -889  -841  -836  -863  -889  -898  -900  -908  -930  -973  -1047  -1134  -1202  -1248  -1299  -1371  -1442  -1485  -1477  -1401  -1262  -1094  -931  -794  -707  -662  -605  -475  -245  53  338  546  663  696  639  481  248  3  -210  -378  -480  -515  -513  -478  -380  -202  2  149  207  211  200  179  138  107  199  564  1214  1959  2553  2864  2946  2928  2854  2680  2409  2154  2009  1949  1873  1704  1462  1239  1100  1037  1004  977  958  949  946  954  983  1038  1096  1126  1112  1047  924  729  496  307  210  195  262  454  788  1196  1563  1812  1931  1951  1893  1750  1553  1384  1303  1309  1357  1389  1391  1366  1273  1054  741  454  271  174  97  -4  -130  -238  -279  -275  -356  -560  -731  -801  -832  -725  -241  718  2002  3256  4019  3914  2944  1592  447  -246  -578  -822  -1340  -2218  -3110  -3707  -4053  -4281  -4414  -4461  -4483  -4553  -4672  -4786  -4847  -4863  -4868  -4889  -4915  -4893  -4761  -4520  -4246  -4004  -3768  -3480  -3157  -2841  -2511  -2162  -1870  -1683  -1571  -1499  -1450  -1407  -1346  -1272  -1209  -1144  -1000  -702  -260  192  489  596  606  597  571  483  321  144  28  -4  13  44  65  55  -17  -158  -313  -413  -437  -386  -251  -40  170  272  231  94  -57  -154  -166  -98  44  278  634  1104  1592  1978  2236  2442  2683  3001  3354  3642  3822  3936  4023  4075  4080  4046  4038  4173  4483  4808  4922  4744  4402  4138  4054  3820  2869  965  -1507  -3554  -4095  -2916  -880  864  1652  1539  1040  586  248  -132  -671  -1246  -1619  -1713  -1636  -1517  -1417  -1323  -1166  -900  -583  -338  -234  -221  -153  188  981  2177  3449  4402  4845  4769  4162  3129  2073  1399  1127  1019  910  803  732  688  655  643  636  564  361  59  -225  -415  -534  -638  -752  -863  -946  -980  -983  -1025  -1169  -1395  -1594  -1697  -1718  -1685  -1574  -1361  -1074  -767  -489  -277  -146  -93  -118  -220  -358  -455  -445  -310  -105  78  189  235  245  238  219  196  208  303  464  608  679  690  676  658  632  576  490  397  307  242  243  315  410  490  543  567  569  551  504  421  322  248  219  225  248  297  384  489  562  585  573  544  504  451  375  276  169  66  -38  -157  -283  -399  -523  -678  -854  -1009  -1094  -1076  -962  -803  -673  -588  -508  -408  -312  -249  -210  -175  -147  -153  -225  -370  -579  -828  -1066  -1233  -1320  -1356  -1364  -1346  -1295  -1205  -1064  -859  -620  -447  -398  -362  -81  694  1985  3464  4661  5204  4889  3823  2468  1325  588  207  52  -81  -350  -670  -861  -916  -953  -1051  -1221  -1400  -1512  -1547  -1539  -1508  -1455  -1395  -1364  -1376  -1413  -1449  -1477  -1484  -1419  -1228  -970  -782  -721  -733  -748  -737  -691  -599  -450  -272  -126  -47  -26  -29  -29  -15  16  75  171  295  406  456  429  353  274  222  198  190  196  225  277  345  424  498  548  583  635  709  769  751  595  306  -24  -296  -465  -535  -536  -484  -377  -227  -62  87  200  270  309  316  295  269  253  228  139  -65  -370  -661  -834  -892  -906  -945  -1067  -1286  -1535  -1713  -1764  -1681  -1453  -1089  -669  -282  33  267  402  457  492  557  645  709  731  727  720  722  733  744  722  617  401  118  -151  -356  -480  -548  -597  -638  -678  -719  -791  -952  -1222  -1542  -1746  -1576  -811  586  2369  4011  4971  4982  4129  2797  1497  546  -54  -458  -814  -1175  -1478  -1641  -1686  -1698  -1719  -1730  -1702  -1635  -1538  -1417  -1295  -1215  -1212  -1317  -1525  -1753  -1898  -1947  -1975  -2052  -2175  -2267  -2250  -2101  -1876  -1681  -1570  -1490  -1355  -1139  -870  -575  -301  -125  -98  -209  -421  -669  -882  -1023  -1100  -1137  -1144  -1085  -909  -619  -316  -119  -50  -52  -66  -72  -71  -72  -80  -98  -129  -188  -287  -408  -512  -581  -628  -657  -620  -418  2  553  1064  1429  1631  1712  1716  1632  1393  962  437  11  -197  -205  -66  184  478  730  892  958  929  796  564  279  1  -215  -348  -400  -347  -116  297  776  1177  1432  1547  1526  1313  877  329  -148  -460  -611  -646  -586  -395  -76  254  466  540  541  521  491  451  407  365  335  308  274  255  319  538  887  1139  1041  575  -89  -740  -1075  -795  202  1732  3353  4523  4867  4376  3343  2174  1242  706  429  179  -151  -477  -665  -737  -795  -868  -952  -1044  -1121  -1160  -1154  -1104  -1020  -921  -816  -713  -633  -596  -597  -631  -700  -786  -847  -855  -801  -694  -547  -377  -208  -81  -38  -121  -337  -605  -811  -904  -895  -789  -576  -245  181  645  1048  1292  1361  1308  1168  979  818  730  704  733  860  1103  1381  1584  1685  1726  1731  1687  1577  1413  1245  1124  1041  962  879  817  790  788  796  799  788  754  689  579  431  275  137  30  -30  -46  -40  -33  -34  -44  -58  -67  -70  -68  -67  -74  -90  -102  -87  -38  41  154  293  430  515  491  359  205  107  69  54  45  36  8  -62  -187  -360  -543  -696  -802  -866  -910  -953  -1000  -1029  -1008  -896  -676  -385  -121  2  -38  -171  -333  -422  -209  518  1775  3327  4709  5401  5150  4114  2716  1444  612  218  93  104  175  268  357  415  451  472  435  268  -46  -417  -709  -852  -877  -845  -797  -736  -619  -400  -122  97  215  299  425  603  812  1017  1171  1236  1187  980  610  147  -307  -661  -850  -889  -847  -763  -649  -536  -487  -540  -679  -845  -981  -1069  -1121  -1167  -1220  -1264  -1282  -1296  -1324  -1345  -1337  -1326  -1375  -1529  -1745  -1915  -1953  -1793  -1410  -905  -461  -181  -56  -31  -75  -183  -323  -436  -495  -527  -557  -574  -540  -416  -194  54  210  224  136  -19  -245  -504  -717  -842  -895  -902  -892  -901  -936  -974  -994  -997  -981  -946  -906  -884  -879  -855  -773  -634  -473  -324  -212  -145  -120  -146  -242  -384  -499  -545  -526  -438  -256  -28  138  209  234  225  117  -115  -425  -738  -935  -853  -313  759  2117  3287  3856  3559  2439  1017  -86  -599  -549  -180  121  162  76  39  74  140  218  296  354  383  391  392  382  337  249  130  -19  -190  -341  -443  -511  -568  -615  -636  -591  -439  -210  -4  108  142  143  140  127  75  -47  -213  -337  -374  -358  -330  -300  -248  -141  14  171  312  465  648  821  927  937  857  732  627  580  594  666  779  895  993  1082  1162  1198  1173  1077  892  671  521  491  547  659  812  980  1122  1215  1243  1175  1002  794  654  608  605  598  579  552  506  413  260  71  -98  -208  -261  -281  -289  -290  -286  -279  -267  -236  -158  -7  218  472  695  866  1003  1122  1227  1297  1304  1211  1003  715  394  48  -299  -567  -700  -730  -718  -705  -709  -730  -749  -740  -683  -541  -205  449  1299  1971  2246  2238  2136  1994  1775  1492  1244  1093  984  811  510  128  -195  -371  -424  -415  -375  -343  -377  -537  -833  -1190  -1501  -1711  -1821  -1864  -1845  -1699  -1358  -898  -502  -281  -209  -201  -215  -289  -470  -710  -895  -985  -1020  -1029  -1015  -988  -973  -984  -1007  -1025  -1043  -1061  -1031  -874  -577  -262  -69  -10  -1  0  -39  -171  -396  -644  -834  -937  -943  -828  -598  -315  -59  115  197  202  126  -38  -236  -374  -423  -419  -397  -364  -320  -266  -199  -138  -111  -121  -146  -160  -142  -100  -68  -51  -39  -26  -6  27  65  81  60  11  -44  -92  -126  -136  -107  -20  99  193  227  222  211  206  196  189  203  234  265  278  237  94  -156  -427  -604  -664  -688  -751  -863  -980  -1076  -1123  -1073  -997  -1065  -1303  -1551  -1510  -861  414  1913  3062  3431  2927  1845  706  -101  -549  -830  -1108  -1407  -1619  -1639  -1511  -1364  -1259  -1171  -1077  -1013  -1049  -1236  -1522  -1779  -1938  -2027  -2065  -2039  -1949  -1830  -1711  -1558  -1314  -1004  -726  -551  -484  -485  -508  -529  -544  -551  -540  -493  -406  -291  -170  -46  104  289  472  609  694  737  739  711  683  669  668  683  722  770  805  836  913  1064  1250  1406  1469  1390  1187  943  699  425  104  -216  -477  -656  -753  -781  -759  -697  -618  -564  -570  -638  -732  -799  -819  -810  -796  -788  -789  -798  -812  -823  -824  -802  -754  -700  -668  -672  -704  -730  -711  -635  -510  -326  -79  168  326  377  377  371  352  284  178  91  47  21  -9  -54  -122  -201  -229  -146  40  257  415  462  377  192  -2  -166  -392  -764  -1179  -1359  -970  152  1755  3244  4033  3843  2802  1346  -26  -994  -1537  -1858  -2162  -2506  -2869  -3227  -3531  -3700  -3685  -3516  -3288  -3058  -2821  -2563  -2274  -1957  -1662  -1462  -1360  -1294  -1209  -1053  -758  -343  54  340  536  718  947  1218  1457  1593  1630  1622  1630  1725  1958  2311  2705  3058  3299  3404  3420  3411  3402  3373  3299  3203  3132  3105  3104  3081  2951  2643  2198  1773  1500  1360  1275  1239  1275  1366  1459  1528  1601  1708  1822  1895  1890  1784  1574  1273  921  590  310  18  -356  -755  -1029  -1130  -1137  -1133  -1138  -1145  -1151  -1162  -1188  -1212  -1191  -1096  -958  -841  -734  -587  -416  -302  -274  -284  -270  -196  -87  4  72  162  311  527  808  1130  1427  1638  1760  1826  1857  1860  1831  1718  1461  1129  891  811  831  885  940  943  827  580  281  14  -219  -419  -548  -550  -247  585  1918  3418  4617  5088  4611  3360  1856  568  -300  -744  -944  -1119  -1256  -1287  -1295  -1348  -1414  -1471  -1518  -1561  -1650  -1844  -2167  -2591  -3044  -3424  -3644  -3690  -3571  -3269  -2812  -2327  -1922  -1560  -1176  -810  -501  -218  57  292  444  507  485  352  103  -170  -351  -408  -397  -361  -315  -264  -213  -171  -145  -132  -116  -86  -40  20  103  206  308  379  417  432  428  387  289  141  -25  -177  -287  -343  -357  -354  -350  -339  -314  -277  -241  -205  -167  -136  -118  -106  -101  -108  -119  -113  -74  -9  54  107  155  201  243  282  307  318  318  306  274  226  187  170  179  212  268  345  441  545  629  677  702  708  662  514  276  35  -129  -206  -232  -250  -271  -282  -276  -265  -259  -261  -269  -290  -318  -340  -328  -267  -165  -44  96  244  321  239  -23  -401  -692  -597  107  1398  2937  4184  4653  4244  3239  2026  1008  420  149  -18  -129  -188  -245  -296  -320  -338  -359  -370  -349  -278  -178  -99  -77  -123  -253  -480  -772  -1032  -1174  -1188  -1112  -983  -825  -649  -482  -357  -286  -246  -208  -155  -115  -124  -169  -208  -229  -251  -284  -323  -354  -359  -308  -175  6  149  207  204  176  143  111  91  99  135  183  234  308  421  564  694  773  801  808  815  818  788  686  511  315  153  50  24  83  199  322  411  444  422  369  300  224  161  119  81  38  -8  -64  -149  -274  -409  -510  -556  -564  -563  -559  -537  -481  -409  -352  -296  -202  -79  11  43  40  29  14  -4  -25  -41  -48  -44  -40  -63  -133  -232  -307  -356  -442  -606  -808  -968  -1043  -1057  -1051  -1032  -980  -887  -771  -657  -568  -536  -569  -634  -666  -549  -123  611  1357  1790  1823  1524  1024  550  281  203  201  204  192  155  89  8  -62  -91  -52  67  237  390  479  507  482  393  235  8  -287  -597  -821  -909  -872  -740  -568  -414  -304  -244  -231  -257  -306  -355  -392  -434  -508  -622  -752  -868  -981  -1123  -1283  -1404  -1472  -1501  -1489  -1426  -1318  -1185  -1064  -984  -937  -878  -775  -648  -548  -477  -368  -161  118  394  626  805  920  972  962  871  686  450  240  123  135  247  374  468  534  567  536  412  220  34  -101  -201  -288  -369  -419  -400  -312  -191  -69  24  75  76  36  -28  -95  -165  -246  -341  -442  -533  -584  -572  -488  -365  -256  -170  -84  12  98  152  171  175  181  191  204  218  220  165  12  -196  -347  -359  -227  -13  186  309  347  329  292  241  107  -196  -639  -1038  -1128  -702  216  1362  2351  2790  2512  1713  759  -11  -393  -451  -403  -388  -433  -503  -547  -528  -445  -340  -253  -195  -150  -118  -109  -136  -210  -360  -589  -836  -1037  -1189  -1308  -1375  -1374  -1317  -1243  -1182  -1133  -1090  -1063  -1070  -1122  -1216  -1329  -1427  -1484  -1494  -1473  -1451  -1460  -1507  -1566  -1619  -1678  -1754  -1843  -1926  -1979  -2001  -2018  -2050  -2113  -2207  -2315  -2412  -2491  -2557  -2594  -2523  -2223  -1688  -1068  -518  -110  150  322  509  764  1030  1211  1293  1338  1392  1436  1414  1271  1028  792  654  598  558  503  448  409  387  387  465  688  1032  1362  1587  1727  1824  1878  1885  1869  1843  1802  1738  1658  1581  1515  1454  1400  1364  1338  1287  1181  1049  957  931  937  937  908  858  803  738  655  589  623  793  1032  1238  1370  1430  1422  1362  1282  1178  996  686  266  -211  -683  -974  -801  6  1307  2694  3690  3964  3484  2533  1504  658  88  -239  -431  -568  -688  -757  -739  -669  -588  -501  -424  -372  -318  -225  -106  -18  9  -15  -80  -162  -221  -223  -154  -26  129  292  451  592  704  799  883  947  998  1060  1144  1253  1401  1595  1797  1940  2007  2030  2031  2005  1952  1897  1871  1884  1915  1910  1835  1726  1641  1587  1537  1500  1521  1583  1596  1529  1420  1292  1154  1046  997  992  1001  1007  1009  1008  1007  1006  1004  1007  1015  991  881  703  538  411  280  121  -45  -177  -236  -211  -123  -14  76  130  133  100  53  -4  -74  -155  -241  -297  -298  -261  -209  -152  -100  -59  -38  -65  -168  -324  -468  -555  -590  -616  -680  -806  -989  -1191  -1335  -1367  -1298  -1170  -1025  -905  -830  -804  -848  -995  -1216  -1415  -1530  -1573  -1573  -1522  -1403  -1245  -1132  -1102  -1121  -1207  -1379  -1441  -1017  98  1660  3077  3757  3383  2157  739  -286  -786  -953  -1067  -1376  -1875  -2276  -2369  -2224  -1991  -1775  -1640  -1592  -1600  -1668  -1828  -2081  -2345  -2520  -2581  -2543  -2387  -2110  -1797  -1546  -1374  -1254  -1164  -1084  -997  -904  -815  -747  -713  -708  -714  -718  -720  -721  -723  -725  -723  -716  -704  -688  -661  -633  -626  -641  -662  -671  -662  -650  -661  -695  -717  -698  -643  -584  -553  -559  -573  -573  -563  -538  -470  -333  -160  -29  23  20  -23  -114  -238  -388  -586  -817  -1002  -1105  -1153  -1176  -1184  -1182  -1174  -1154  -1102  -1018  -934  -888  -892  -938  -1003  -1062  -1104  -1123  -1108  -1057  -959  -797  -590  -405  -282  -178  -25  199  468  751  1007  1188  1276  1314  1345  1353  1313  1252  1212  1193  1161  1090  997  924  867  781  662  550  462  387  326  290  274  252  209  144  61  -17  -69  -90  -91  -70  -21  44  95  105  59  -29  -136  -289  -557  -883  -1067  -892  -187  1088  2662  3981  4536  4154  3102  1931  1115  807  868  952  774  410  114  -45  -160  -286  -403  -478  -509  -525  -557  -601  -638  -682  -778  -953  -1157  -1311  -1388  -1408  -1360  -1189  -889  -558  -316  -199  -171  -195  -255  -328  -390  -427  -428  -365  -217  -12  212  474  801  1174  1564  1920  2164  2265  2255  2160  2000  1825  1676  1547  1402  1218  993  777  643  604  611  628  658  706  758  793  808  814  806  753  610  353  -12  -432  -798  -1010  -1066  -1016  -888  -712  -542  -397  -253  -109  -1  32  -8  -78  -129  -166  -246  -395  -559  -659  -674  -632  -544  -404  -232  -84  7  53  64  34  -38  -145  -264  -363  -416  -432  -431  -413  -367  -293  -209  -127  -30  89  197  260  300  360  435  475  452  395  337  271  193  115  49  -9  -69  -126  -164  -178  -173  -153  -112  -18  171  414  593  648  606  503  359  199  52  -79  -247  -495  -773  -958  -974  -862  -777  -874  -1171  -1546  -1789  -1678  -1001  285  1845  3150  3807  3664  2870  1787  782  91  -271  -461  -603  -715  -787  -825  -829  -793  -720  -628  -536  -455  -391  -358  -363  -415  -550  -784  -1044  -1208  -1226  -1135  -1010  -927  -909  -920  -893  -783  -610  -449  -336  -250  -174  -119  -93  -83  -74  -46  53  279  585  843  980  1023  1022  1009  1016  1044  1069  1079  1089  1104  1115  1123  1149  1219  1328  1449  1571  1698  1816  1888  1859  1682  1380  1078  885  802  769  747  723  669  545  364  205  122  103  103  98  86  91  147  247  327  334  266  169  104  86  83  49  -21  -97  -132  -111  -54  9  63  90  55  -67  -245  -400  -502  -576  -650  -747  -881  -1036  -1186  -1313  -1426  -1565  -1750  -1939  -2063  -2111  -2120  -2108  -2055  -1931  -1740  -1526  -1345  -1218  -1130  -1039  -903  -700  -458  -230  -64  17  13  -59  -166  -266  -342  -398  -439  -462  -465  -442  -383  -296  -206  -113  0  122  185  68  -292  -649  -529  283  1633  3150  4275  4547  3972  2888  1693  726  120  -183  -296  -295  -202  -25  171  298  325  287  229  178  144  110  48  -52  -181  -318  -435  -505  -533  -541  -536  -490  -368  -187  -24  71  118  155  199  232  240  230  215  195  180  222  394  684  964  1120  1164  1166  1169  1172  1161  1118  1022  871  705  574  503  479  480  490  503  512  496  429  319  228  206  244  294  322  327  324  321  312  291  263  242  237  242  246  231  182  97  -7  -113  -213  -323  -469  -666  -880  -1046  -1133  -1145  -1087  -981  -858  -741  -644  -558  -460  -353  -277  -252  -275  -341  -426  -475  -441  -309  -97  146  363  517  596  600  519  342  85  -200  -468  -681  -815  -866  -844  -742  -564  -369  -223  -156  -173  -259  -373  -466  -516  -534  -546  -556  -544  -466  -286  -29  230  390  341  96  -113  24  652  1642  2643  3171  2897  1905  600  -545  -1209  -1383  -1298  -1214  -1239  -1314  -1344  -1314  -1261  -1217  -1191  -1180  -1172  -1154  -1117  -1059  -994  -949  -937  -962  -1021  -1096  -1155  -1155  -1085  -997  -939  -894  -841  -781  -714  -646  -598  -579  -577  -575  -556  -518  -470  -419  -341  -201  -9  168  284  345  380  422  469  495  485  448  405  378  373  374  360  313  232  142  70  16  -41  -123  -230  -317  -320  -247  -166  -114  -68  8  106  156  114  27  -41  -89  -129  -160  -198  -264  -348  -411  -439  -441  -401  -280  -77  155  363  529  651  719  738  731  725  721  691  603  453  288  170  122  124  150  185  232  309  442  636  836  967  1009  986  918  814  692  577  483  408  339  257  169  106  76  66  77  107  110  11  -180  -313  -285  -208  -257  -452  -570  -269  636  2023  3449  4300  4212  3299  1972  728  -69  -348  -314  -268  -353  -529  -739  -930  -1041  -1071  -1068  -1065  -1068  -1064  -1036  -991  -943  -891  -823  -749  -698  -671  -651  -625  -571  -460  -315  -206  -163  -141  -63  108  314  454  495  484  464  439  391  326  278  281  360  503  667  810  915  973  994  998  1001  994  943  812  609  384  207  129  147  201  255  325  413  478  492  460  394  295  147  -53  -270  -449  -569  -630  -625  -576  -531  -520  -538  -568  -602  -644  -695  -740  -782  -826  -847  -825  -787  -762  -726  -637  -508  -395  -326  -286  -264  -254  -248  -232  -195  -125  -37  45  119  199  280  349  399  426  441  459  490  528  565  584  559  470  328  183  87  41  7  -26  -49  -56  -59  -66  -61  -10  104  224  217  -2  -356  -579  -336  559  1975  3471  4519  4791  4305  3301  2122  1104  413  35  -126  -192  -241  -289  -333  -366  -383  -390  -386  -355  -287  -221  -218  -292  -397  -491  -556  -584  -585  -576  -566  -554  -541  -531  -528  -514  -470  -404  -356  -343  -346  -335  -292  -222  -136  -42  41  106  160  198  216  242  300  378  437  461  465  465  462  449  417  374  337  311  282  238  186  135  86  45  21  14  16  36  94  201  338  460  500  418  253  92  -12  -66  -115  -206  -333  -447  -528  -596  -661  -719  -775  -855  -987  -1144  -1250  -1256  -1166  -1030  -913  -840  -797  -760  -723  -691  -660  -618  -560  -488  -408  -329  -244  -160  -99  -64  -27  46  146  230  288  334  358  345  309  269  217  142  60  -5  -63  -123  -179  -240  -341  -473  -568  -583  -530  -437  -397  -568  -967  -1407  -1638  -1412  -569  813  2368  3580  4060  3706  2708  1479  443  -208  -530  -697  -851  -1017  -1094  -997  -825  -728  -732  -805  -939  -1117  -1292  -1422  -1505  -1555  -1589  -1619  -1639  -1617  -1517  -1342  -1154  -1022  -979  -1015  -1081  -1119  -1108  -1068  -1019  -942  -802  -616  -439  -285  -135  6  97  82  -56  -267  -461  -577  -615  -603  -536  -398  -211  -40  59  94  107  129  170  216  255  269  228  142  69  43  43  29  -22  -98  -158  -178  -165  -126  -79  -43  -28  -24  -28  -46  -82  -111  -83  13  140  250  314  348  384  438  503  579  673  746  705  521  293  143  93  99  128  172  222  257  267  250  204  133  53  -13  -54  -75  -89  -93  -73  -16  78  196  303  365  386  392  391  364  261  38  -281  -578  -742  -779  -760  -730  -694  -654  -619  -575  -471  -333  -300  -481  -769  -823  -310  832  2364  3819  4651  4587  3797  2679  1647  969  632  438  244  56  -86  -192  -277  -324  -319  -278  -223  -146  -46  45  82  49  -30  -113  -171  -206  -222  -222  -202  -139  -7  181  393  601  763  825  771  640  491  364  261  163  97  126  275  504  753  967  1109  1179  1209  1234  1250  1225  1131  964  764  599  510  483  479  474  473  481  497  524  577  663  747  758  684  582  509  476  463  446  407  330  204  34  -148  -300  -397  -430  -397  -292  -128  49  186  263  285  236  94  -93  -235  -292  -303  -326  -383  -449  -478  -480  -496  -524  -541  -546  -550  -549  -525  -463  -382  -327  -314  -318  -300  -232  -113  37  197  347  467  544  581  597  603  587  519  386  236  129  82  69  58  27  -22  -87  -170  -247  -267  -246  -288  -468  -710  -770  -322  826  2441  3948  4813  4745  3796  2402  1108  234  -148  -155  -74  -178  -471  -747  -889  -958  -1022  -1089  -1143  -1165  -1146  -1098  -1041  -995  -990  -1032  -1098  -1165  -1217  -1244  -1260  -1284  -1316  -1329  -1288  -1192  -1074  -967  -857  -728  -586  -453  -362  -353  -437  -582  -729  -820  -846  -840  -831  -817  -766  -617  -354  -66  117  171  159  127  76  8  -48  -79  -93  -120  -197  -338  -509  -631  -639  -557  -475  -437  -426  -419  -413  -412  -413  -426  -485  -613  -778  -918  -1015  -1095  -1156  -1178  -1150  -1070  -963  -838  -675  -490  -353  -285  -245  -211  -197  -223  -277  -334  -385  -430  -466  -497  -526  -548  -563  -574  -580  -579  -574  -570  -559  -512  -396  -215  -24  127  235  294  284  211  109  1  -112  -237  -362  -467  -537  -565  -520  -378  -182  -30  15  -49  -217  -437  -613  -636  -371  239  983  1499  1605  1312  722  89  -300  -389  -305  -180  -88  -58  -78  -119  -160  -202  -249  -317  -462  -753  -1190  -1659  -1997  -2140  -2156  -2111  -2007  -1829  -1596  -1361  -1162  -995  -842  -694  -549  -408  -289  -202  -139  -91  -58  -28  27  133  291  468  602  648  614  547  489  476  531  674  891  1110  1261  1342  1385  1391  1339  1240  1138  1066  1018  966  908  879  901  948  993  1036  1090  1156  1214  1245  1252  1231  1158  1027  873  733  622  554  520  491  453  416  391  375  365  365  389  458  577  700  767  753  678  586  511  465  441  428  414  397  393  424  500  604  690  734  751  762  772  780  787  791  777  702  520  219  -146  -461  -639  -693  -696  -699  -699  -675  -621  -527  -388  -211  -21  129  160  13  -250  -409  -135  755  2063  3301  4021  4027  3400  2429  1465  756  357  173  73  -26  -154  -296  -437  -562  -659  -726  -766  -776  -749  -674  -562  -447  -351  -284  -250  -243  -257  -295  -369  -471  -547  -542  -440  -286  -152  -75  -41  -35  -50  -78  -112  -162  -229  -292  -326  -321  -287  -234  -162  -68  67  273  511  686  758  775  801  852  906  944  961  953  901  791  632  460  303  185  125  113  120  129  140  149  138  93  22  -48  -101  -150  -213  -274  -299  -276  -233  -216  -230  -242  -237  -225  -219  -222  -227  -216  -170  -94  -24  13  20  14  4  -12  -35  -60  -81  -98  -110  -122  -137  -149  -136  -71  60  250  474  709  921  1079  1159  1150  1052  894  739  633  569  509  414  287  167  79  4  -94  -195  -221  -201  -311  -585  -734  -343  745  2225  3476  3921  3413  2343  1278  495  -149  -919  -1745  -2259  -2224  -1780  -1314  -1086  -1061  -1099  -1127  -1134  -1122  -1089  -1049  -1033  -1065  -1134  -1204  -1254  -1279  -1274  -1214  -1076  -875  -666  -483  -346  -275  -266  -291  -322  -342  -343  -320  -273  -208  -145  -106  -100  -110  -117  -96  -23  99  244  372  453  466  380  201  0  -137  -190  -206  -231  -273  -319  -353  -367  -371  -393  -452  -516  -510  -409  -278  -200  -189  -209  -231  -257  -320  -458  -635  -763  -802  -790  -783  -828  -949  -1103  -1211  -1245  -1239  -1227  -1218  -1215  -1227  -1259  -1297  -1289  -1177  -960  -734  -598  -539  -481  -400  -335  -310  -311  -317  -326  -340  -351  -338  -301  -277  -288  -302  -291  -275  -286  -322  -373  -446  -555  -683  -793  -858  -883  -890  -891  -878  -832  -745  -644  -562  -513  -529  -678  -949  -1172  -1062  -334  1060  2759  4168  4797  4500  3517  2313  1328  732  432  264  112  -49  -180  -261  -299  -290  -230  -150  -94  -79  -87  -89  -74  -49  -30  -23  -23  -29  -45  -68  -91  -111  -122  -98  -4  152  331  501  635  683  621  502  406  365  352  346  348  359  376  390  404  430  473  524  562  582  589  588  581  573  570  571  567  551  521  469  395  313  239  181  131  68  -18  -113  -192  -254  -305  -338  -348  -329  -275  -203  -147  -114  -86  -57  -42  -54  -88  -137  -205  -277  -324  -336  -324  -300  -267  -228  -193  -168  -154  -155  -172  -200  -232  -252  -241  -195  -122  -38  47  127  190  223  230  227  226  232  247  278  328  390  446  466  424  343  274  218  122  -29  -196  -332  -429  -491  -529  -548  -529  -471  -407  -366  -366  -439  -632  -953  -1242  -1149  -377  1012  2611  3874  4368  3983  2959  1693  553  -234  -637  -767  -751  -682  -656  -718  -822  -892  -895  -824  -703  -582  -499  -447  -407  -369  -336  -328  -356  -432  -567  -736  -865  -905  -851  -700  -451  -165  59  180  224  222  181  124  76  43  20  10  18  48  93  134  158  173  208  293  416  528  591  606  599  596  606  618  610  576  501  366  196  58  -18  -56  -88  -145  -231  -281  -248  -164  -86  -32  -4  -4  -30  -85  -162  -247  -315  -350  -370  -394  -422  -439  -441  -437  -427  -406  -369  -335  -339  -377  -409  -397  -336  -255  -196  -176  -177  -184  -193  -206  -215  -190  -102  28  147  220  255  276  307  348  388  416  419  405  392  394  424  488  576  661  718  736  688  531  290  71  -49  -87  -97  -119  -160  -189  -181  -145  -97  -48  -7  -40  -238  -514  -513  130  1487  3206  4639  5197  4710  3491  2095  1004  403  191  156  138  61  -89  -264  -382  -401  -340  -238  -120  22  183  309  352  302  188  84  30  -2  -23  -12  18  51  75  94  131  204  297  374  422  449  461  462  457  452  450  449  452  463  488  521  549  560  560  565  571  569  567  583  619  653  669  672  672  661  628  569  496  414  326  245  198  204  261  344  418  461  459  387  230  44  -90  -162  -218  -292  -382  -478  -570  -639  -667  -642  -567  -457  -336  -224  -140  -96  -86  -93  -92  -51  40  152  232  263  261  252  246  253  282  329  370  365  267  63  -169  -329  -397  -416  -421  -410  -363  -272  -155  -40  46  80  36  -69  -196  -327  -475  -641  -785  -867  -887  -867  -818  -757  -710  -677  -619  -516  -473  -621  -898  -1048  -796  22  1292  2561  3288  3197  2382  1198  108  -577  -870  -955  -960  -922  -861  -786  -687  -591  -569  -634  -725  -797  -855  -931  -1027  -1112  -1165  -1186  -1183  -1157  -1119  -1082  -1057  -1029  -974  -892  -810  -759  -740  -735  -729  -718  -703  -688  -674  -663  -650  -639  -636  -633  -618  -588  -548  -499  -439  -367  -284  -188]
