reading_id,reading_time,wire_id,result_classification,heart_rate,heart_rate_alert,firmware_version,device_app_version,hardware_version,waveform_samples
f3dd99c0-5e59-11ed-8080-808080808080,Mon Nov 07 05:06:35 UTC 2022,8100e3ea1a39,NSR,81,NONE,20001.171.50,2.10.0,Charge 5,[584  2164  3426  4178  4442  4348  3958  3356  2751  2346  2181  2157  2137  2028  1849  1698  1639  1649  1665  1630  1538  1446  1401  1417  1485  1573  1636  1659  1656  1635  1595  1547  1515  1504  1508  1516  1523  1511  1460  1365  1247  1118  1020  1016  1107  1226  1340  1459  1562  1599  1566  1519  1497  1478  1452  1436  1436  1446  1457  1464  1466  1464  1467  1487  1517  1537  1538  1517  1474  1407  1321  1222  1105  987  903  849  788  685  527  347  196  82  -16  -124  -247  -364  -448  -497  -542  -599  -640  -614  -492  -278  -76  -46  -191  -357  -438  -449  -439  -432  -428  -425  -417  -399  -360  -300  -237  -186  -158  -151  -155  -152  -125  -65  8  47  26  -8  -24  -37  -54  -67  -71  -73  -75  -69  -47  -27  -44  -116  -211  -282  -305  -291  -250  -194  -146  -111  -59  30  98  54  -81  -198  -238  -231  -220  -216  -212  -202  -171  -96  26  147  210  197  127  41  -58  -188  -317  -406  -463  -494  -520  -579  -621  -544  -340  -175  -213  -475  -900  -1274  -1254  -629  507  1799  2834  3319  3171  2555  1756  1023  443  -17  -359  -547  -587  -505  -346  -197  -126  -121  -144  -175  -207  -226  -225  -218  -244  -329  -435  -487  -463  -395  -308  -227  -175  -148  -119  -79  -40  -21  -28  -54  -94  -140  -174  -183  -176  -166  -143  -87  0  85  138  156  175  253  402  568  688  757  804  840  849  844  874  932  969  960  916  854  772  660  527  386  256  163  124  127  145  145  95  9  -67  -123  -190  -305  -485  -715  -933  -1060  -1052  -920  -732  -586  -527  -529  -567  -633  -708  -764  -784  -764  -701  -609  -513  -421  -360  -371  -429  -459  -436  -390  -340  -297  -270  -256  -246  -234  -222  -227  -257  -297  -321  -325  -317  -310  -316  -330  -339  -345  -360  -377  -378  -352  -311  -278  -260  -255  -263  -288  -326  -351  -348  -332  -315  -290  -238  -162  -99  -74  -87  -152  -290  -463  -587  -624  -596  -530  -443  -360  -302  -272  -253  -242  -250  -255  -191  -39  123  218  247  237  204  148  56  -66  -172  -227  -266  -348  -464  -556  -590  -582  -534  -416  -205  4  -19  -376  -836  -1106  -970  -220  1058  2360  3180  3309  2757  1750  769  197  9  1  18  -38  -139  -202  -238  -276  -305  -329  -365  -419  -467  -473  -446  -419  -378  -309  -248  -241  -309  -438  -583  -696  -745  -699  -530  -287  -91  -4  9  5  1  -1  8  56  149  262  351  379  346  299  288  313  332  338  396  573  825  1020  1097  1098  1084  1081  1089  1084  1027  906  766  672  650  691  785  889  940  903  801  666  476  200  -101  -303  -365  -350  -331  -345  -410  -526  -662  -764  -801  -768  -668  -537  -440  -408  -429  -488  -558  -590  -548  -446  -336  -265  -241  -245  -264  -291  -324  -358  -388  -404  -408  -405  -376  -308  -230  -178  -160  -175  -200  -219  -245  -265  -256  -241  -219  -166  -104  -64  -54  -70  -99  -134  -168  -187  -198  -217  -229  -234  -255  -283  -301  -337  -420  -505  -492  -368  -231  -145  -109  -100  -100  -94  -65  -24  -17  -62  -116  -130  -89  -19  34  51  48  41  34  30  40  84  169  279  379  432  428  373  276  161  61  -18  -97  -174  -221  -235  -249  -293  -362  -425  -437  -332  -153  -100  -302  -647  -827  -522  347  1523  2586  3173  3126  2534  1679  926  482  315  304  322  240  21  -232  -389  -427  -404  -361  -306  -250  -228  -255  -288  -278  -225  -163  -121  -111  -136  -195  -259  -294  -297  -292  -295  -303  -297  -254  -167  -68  -24  -67  -139  -165  -130  -72  -33  -22  -17  3  68  210  399  552  628  640  609  575  560  545  532  557  619  689  746  775  771  737  690  649  627  623  616  559  440  292  142  7  -117  -244  -363  -450  -508  -558  -606  -653  -695  -719  -718  -701  -685  -668  -623  -558  -506  -478  -456  -437  -427  -422  -416  -415  -418  -403  -342  -266  -231  -226  -203  -169  -154  -156  -154  -137  -105  -54  7  50  60  54  49  50  51  43  20  -11  -43  -84  -135  -172  -154  -79  -13  -18  -61  -84  -79  -69  -64  -67  -80  -96  -80  19  180  305  333  302  270  258  255  245  229  211  195  181  165  149  158  214  293  345  354  328  267  176  86  17  -26  -53  -61  -49  -31  -22  -20  -17  -6  25  71  53  -92  -312  -499  -538  -315  214  1029  1994  2789  3070  2679  1733  636  -195  -558  -436  -70  173  157  -5  -157  -225  -235  -233  -229  -212  -191  -193  -219  -241  -242  -230  -220  -215  -206  -185  -151  -101  -42  3  22  26  29  33  36  34  29  26  26  36  54  72  79  79  94  148  233  315  396  514  659  763  798  799  800  817  848  878  889  879  847  805  772  753  740  732  717  692  679  663  601  486  332  149  -24  -136  -184  -211  -246  -302  -388  -493  -572  -612  -644  -691  -736  -762  -761  -721  -628  -499  -395  -344  -319  -284  -216  -113  -44  -102  -269  -418  -475  -477  -490  -550  -640  -675  -588  -444  -349  -295  -251  -220  -205  -199  -198  -193  -184  -175  -164  -157  -166  -185  -200  -210  -217  -220  -240  -290  -337  -338  -304  -271  -252  -245  -246  -253  -263  -271  -274  -270  -258  -239  -220  -204  -180  -147  -129  -141  -156  -156  -156  -179  -223  -253  -246  -235  -266  -337  -410  -468  -527  -581  -552  -403  -274  -330  -500  -471  80  1167  2346  3039  2946  2151  1080  254  -120  -203  -206  -266  -434  -562  -495  -334  -246  -240  -235  -175  -66  32  83  93  79  43  -27  -126  -212  -251  -252  -235  -205  -159  -106  -56  -17  -4  -36  -100  -153  -144  -57  53  127  147  131  105  93  104  133  167  206  264  335  402  456  494  523  565  635  720  779  796  792  796  827  890  952  953  880  774  653  501  310  97  -106  -255  -319  -318  -301  -323  -425  -586  -727  -792  -781  -726  -660  -612  -588  -577  -568  -564  -571  -586  -597  -602  -604  -609  -618  -612  -552  -420  -255  -121  -53  -54  -138  -313  -521  -673  -740  -744  -676  -508  -270  -56  55  68  29  -20  -73  -141  -205  -242  -257  -264  -260  -246  -240  -255  -280  -292  -285  -270  -263  -264  -266  -268  -276  -288  -294  -275  -209  -96  32  134  194  233  274  310  301  207  24  -178  -310  -353  -349  -327  -306  -296  -298  -308  -318  -301  -235  -137  -84  -191  -453  -623  -487  -119  414  1132  1866  2418  2724  2695  2246  1500  765  263  81  207  409  389  143  -98  -180  -142  -102  -120  -174  -227  -259  -266  -246  -205  -165  -145  -146  -158  -170  -181  -183  -167  -142  -124  -122  -127  -137  -152  -163  -155  -124  -87  -59  -23  55  166  258  299  299  292  321  415  543  638  668  655  636  638  692  800  912  1000  1085  1144  1136  1079  998  916  859  812  725  588  447  343  275  221  160  63  -89  -289  -484  -607  -643  -631  -601  -567  -537  -515  -498  -482  -452  -395  -324  -270  -252  -268  -316  -382  -438  -473  -501  -528  -536  -509  -455  -389  -304  -206  -127  -88  -98  -175  -282  -341  -344  -338  -341  -326  -271  -176  -73  -14  -44  -179  -365  -498  -507  -402  -253  -146  -111  -127  -170  -224  -265  -268  -216  -126  -46  -4  3  -18  -68  -133  -178  -175  -145  -124  -116  -100  -56  3  51  75  77  46  -36  -147  -226  -246  -234  -227  -239  -261  -262  -228  -184  -146  -97  -32  22  32  -22  -125  -236  -376  -571  -710  -572  6  999  2168  3085  3326  2815  1860  879  239  60  133  204  186  125  71  1  -114  -236  -303  -345  -437  -571  -637  -535  -287  -32  100  106  61  12  -28  -52  -60  -59  -55  -47  -38  -26  -6  20  47  67  75  73  64  60  80  136  226  324  393  427  459  518  569  564  533  543  609  710  819  902  946  962  963  955  935  904  881  878  889  894  870  806  724  640  538  410  285  176  61  -96  -273  -410  -480  -479  -426  -361  -309  -288  -308  -355  -401  -429  -437  -439  -453  -486  -527  -557  -557  -512  -440  -377  -342  -361  -433  -511  -554  -561  -540  -484  -380  -250  -147  -105  -113  -173  -315  -511  -664  -685  -590  -502  -499  -520  -484  -405  -343  -326  -326  -314  -297  -291  -300  -323  -366  -429  -490  -525  -529  -513  -494  -487  -484  -473  -467  -493  -551  -573  -475  -285  -131  -88  -134  -213  -282  -324  -341  -340  -328  -305  -265  -209  -152  -113  -94  -80  -69  -84  -146  -237  -309  -334  -324  -302  -285  -283  -287  -274  -243  -275  -475  -798  -1053  -1081  -771  -17  1124  2370  3363  3784  3488  2635  1583  692  169  -21  -42  -67  -165  -215  -115  12  14  -101  -187  -147  -48  14  39  58  79  96  100  81  34  -35  -97  -123  -119  -109  -108  -103  -38  146  402  594  662  649  614  589  573  556  536  517  512  526  560  623  710  783  815  818  810  807  824  870  945  1054  1185  1288  1331  1332  1320  1312  1309  1297  1273  1234  1152  978  706  428  241  139  37  -94  -209  -294  -379  -462  -509  -501  -444  -367  -311  -293  -305  -339  -383  -433  -510  -618  -711  -741  -708  -652  -624  -608  -546  -438  -329  -250  -209  -186  -150  -102  -97  -187  -358  -522  -611  -628  -613  -587  -553  -514  -473  -429  -371  -303  -256  -247  -269  -300  -322  -327  -325  -325  -333  -351  -387  -446  -502  -520  -525  -559  -602  -593  -507  -378  -249  -128  -13  63  59  -41  -210  -382  -500  -536  -491  -399  -304  -227  -168  -132  -131  -192  -322  -470  -562  -574  -536  -467  -357  -215  -98  -78  -155  -231  -239  -222  -241  -287  -310  -277  -228  -239  -311  -370  -379  -375  -419  -547  -690  -726  -690  -689  -605  -133  850  2077  3086  3513  3224  2388  1387  542  26  -138  -102  -18  44  32  -52  -160  -278  -402  -497  -518  -450  -315  -184  -147  -197  -252  -284  -303  -298  -267  -234  -233  -269  -311  -334  -341  -331  -276  -142  42  189  259  292  312  300  244  173  138  146  166  170  160  153  196  331  530  671  699  700  733  756  745  723  708  702  701  695  690  694  718  758  779  712  533  320  182  146  164  186  178  106  -27  -175  -287  -352  -384  -398  -429  -503  -591  -635  -623  -588  -550  -519  -491  -429  -316  -213  -207  -298  -401  -471  -524  -573  -597  -587  -571  -562  -539  -481  -400  -328  -276  -232  -187  -132  -54  30  96  132  140  116  48  -47  -117  -137  -140  -168  -239  -324  -386  -407  -372  -267  -113  26  132  224  303  348  351  327  293  269  269  298  352  406  438  447  445  431  398  358  342  362  373  307  192  160  248  365  429  408  329  255  213  163  46  -137  -309  -415  -424  -234  213  849  1573  2252  2644  2541  2004  1252  479  -119  -408  -435  -347  -280  -305  -382  -412  -381  -334  -291  -260  -253  -268  -294  -314  -295  -204  -54  89  164  157  107  80  104  140  150  147  160  189  207  188  143  105  92  97  101  77  1  -112  -211  -262  -267  -247  -227  -219  -210  -172  -81  61  220  361  480  604  762  938  1079  1146  1136  1074  999  948  917  864  771  658  555  450  287  31  -273  -555  -769  -893  -945  -968  -977  -963  -931  -912  -928  -964  -992  -1006  -1005  -980  -910  -789  -642  -512  -407  -277  -108  43  157  276  413  521  539  458  346  283  275  283  284  279  273  250  192  114  57  42  50  52  21  -53  -142  -201  -218  -214  -212  -220  -235  -249  -262  -285  -328  -385  -416  -366  -228  -75  32  105  155  177  167  121  42  -53  -139  -190  -204  -205  -224  -275  -348  -441  -557  -646  -608  -416  -247  -271  -429  -592  -633  -330  421  1423  2299  2719  2549  1868  937  127  -304  -358  -162  118  266  186  -5  -167  -258  -298  -306  -284  -231  -168  -117  -89  -84  -95  -122  -168  -223  -274  -317  -346  -340  -298  -235  -157  -80  -35  -31  -44  -66  -109  -149  -133  -28  113  199  223  244  274  297  317  339  357  373  404  458  521  587  679  798  896  950  984  1013  1039  1069  1104  1124  1103  1030  915  791  672  542  396  260  138  30  -38  -63  -80  -136  -251  -412  -591  -748  -841  -860  -800  -654  -469  -329  -273  -279  -339  -470  -627  -700  -624  -461  -326  -271  -271  -282  -282  -269  -251  -234  -219  -205  -200  -218  -277  -361  -430  -461  -467  -465  -454  -410  -316  -213  -182  -232  -294  -322  -326  -329  -331  -311  -252  -178  -127  -112  -125  -152  -186  -221  -237  -208  -135  -45  28  66  69  49  1  -90  -196  -270  -307  -346  -421  -518  -593  -634  -655  -632  -485  -206  -14  -173  -623  -1101  -1364  -1157  -342  886  2131  3032  3359  3072  2325  1387  580  160  107  146  99  11  -71  -165  -274  -358  -334  -203  -82  -57  -104  -159  -192  -202  -196  -171  -117  -35  50  99  99  73  54  56  58  26  -59  -171  -250  -252  -180  -71  25  90  110  77  17  -36  -69  -75  -50  11  111  233  357  464  557  652  754  848  923  982  1020  1022  974  877  750  624  533  501  522  547  527  457  350  206  14  -195  -358  -430  -430  -417  -423  -446  -489  -538  -571  -584  -587  -590  -599  -624  -658  -672  -631  -527  -405  -324  -295  -291  -298  -312  -332  -341  -328  -326  -365  -407  -401  -353  -297  -254  -222  -182  -140  -110  -93  -83  -77  -75  -93  -145  -216  -262  -253  -202  -165  -181  -237  -298  -324  -298  -251  -212  -179  -142  -106  -81  -86  -136  -228  -336  -431  -495  -502  -426  -274  -98  36  92  63  -29  -121  -163  -176  -198  -233  -255  -248  -224  -213  -231  -269  -300  -309  -299  -293  -340  -466  -607  -682  -684  -524  -9  866  1881  2778  3304  3241  2608  1702  857  296  118  236  384  350  175  15  -62  -68  -24  41  95  115  82  -20  -168  -295  -365  -396  -400  -369  -304  -235  -176  -121  -74  -53  -60  -64  -32  23  73  115  128  88  36  36  104  177  180  112  58  87  204  373  541  658  726  770  800  823  848  881  924  977  1035  1082  1103  1076  976  825  686  621  625  647  651  631  584  503  378  210  30  -123  -236  -305  -365  -458  -564  -622  -623  -608  -601  -597  -581  -545  -489  -409  -310  -214  -163  -172  -196  -190  -170  -172  -203  -239  -261  -269  -271  -272  -277  -286  -301  -323  -352  -378  -391  -397  -415  -452  -488  -505  -514  -518  -489  -401  -277  -195  -192  -225  -252  -280  -314  -343  -356  -353  -342  -331  -319  -304  -283  -261  -259  -276  -272  -212  -114  -55  -81  -159  -225  -249  -246  -244  -251  -252  -221  -162  -126  -148  -194  -216  -214  -204  -193  -161  -78  43  144  171  119  37  -13  -19  -22  -98  -294  -518  -607  -541  -443  -404  -458  -590  -725  -833  -927  -868  -436  425  1588  2773  3548  3553  2855  1857  966  441  272  194  31  -101  -134  -209  -374  -497  -497  -410  -324  -302  -325  -332  -312  -295  -299  -309  -306  -276  -217  -146  -91  -68  -64  -67  -79  -108  -148  -177  -185  -177  -165  -161  -155  -100  43  241  389  426  384  334  324  376  487  609  687  718  736  747  732  699  679  685  700  712  743  814  911  984  1016  1021  996  911  768  625  535  484  430  354  266  170  25  -205  -463  -634  -686  -674  -646  -609  -562  -513  -476  -459  -455  -444  -407  -353  -313  -299  -297  -297  -307  -332  -336  -292  -243  -241  -275  -294  -275  -239  -202  -160  -124  -120  -162  -234  -286  -282  -222  -116  9  105  139  101  -20  -198  -359  -445  -442  -382  -331  -328  -362  -386  -365  -308  -258  -267  -337  -402  -416  -402  -393  -392  -380  -339  -278  -227  -204  -204  -212  -223  -241  -273  -293  -263  -194  -136  -107  -79  -33  11  29  19  7  27  98  180  214  202  186  181  169  131  69  -8  -111  -232  -332  -394  -433  -456  -462  -450  -409  -324  -237  -295  -528  -679  -523  -51  716  1640  2397  2725  2551  1980  1215  446  -158  -500  -610  -509  -232  12  63  -7  -116  -263  -428  -546  -581  -552  -491  -425  -370  -320  -267  -226  -203  -194  -193  -193  -189  -188  -201  -225  -243  -247  -235  -201  -135  -37  67  142  180  200  209  194  148  99  88  123  199  336  542  756  905  974  994  996  999  1001  972  882  756  661  629  647  702  773  837  881  893  822  627  368  173  83  45  14  -25  -87  -189  -324  -447  -527  -565  -579  -589  -614  -641  -620  -543  -474  -448  -424  -359  -261  -169  -117  -104  -106  -114  -135  -175  -224  -274  -330  -386  -416  -412  -388  -350  -309  -278  -259  -251  -255  -272  -299  -322  -316  -258  -146  -30  21  -18  -117  -227  -317  -380  -409  -400  -355  -297  -253  -224  -185  -124  -64  -37  -42  -63  -100  -146  -179  -189  -177  -149  -114  -83  -61  -51  -49  -52  -57  -73  -115  -186  -274  -361  -422  -430  -385  -340  -359  -446  -551  -620  -638  -616  -556  -451  -313  -102  315  995  1746  2248  2270  1793  1000  204  -311  -433  -276  -100  -56  -106  -181  -245  -268  -256  -232  -218  -220  -230  -241  -249  -253  -238  -192  -126  -72  -47  -42  -43  -41  -33  -19  11  67  125  159  166  156  145  148  180  223  209  102  -20  -49  16  102  176  282  466  692  875  971  988  962  945  965  1012  1069  1124  1159  1167  1149  1094  977  813  664  584  568  583  593  560  466  332  201  80  -49  -179  -273  -321  -336  -332  -322  -319  -328  -366  -458  -604  -730  -736  -622  -472  -336  -218  -140  -110  -108  -111  -115  -129  -158  -185  -194  -176  -131  -74  -28  0  15  24  27  18  -7  -42  -65  -69  -65  -75  -115  -180  -244  -291  -323  -351  -373  -373  -339  -278  -213  -173  -175  -221  -289  -344  -349  -270  -101  86  188  159  57  -14  -5  42  81  103  110  74  -33  -191  -324  -390  -399  -379  -347  -315  -286  -261  -260  -270  -220  -147  -213  -409  -560  -469  64  1026  2081  2851  3091  2726  1925  1076  518  321  370  459  376  134  -33  -38  5  -2  -75  -169  -244  -279  -250  -167  -88  -54  -50  -55  -57  -50  -28  10  64  116  150  165  174  181  174  140  84  24  -32  -83  -123  -152  -182  -216  -244  -256  -240  -188  -128  -96  -98  -115  -124  -111  -81  -41  26  158  338  496  600  660  685  675  635  585  543  501  439  353  256  169  86  -11  -99  -122  -104  -119  -178  -250  -333  -419  -476  -493  -500  -524  -557  -571  -556  -542  -555  -577  -578  -551  -506  -461  -434  -426  -426  -420  -408  -404  -420  -444  -453  -448  -442  -441  -439  -427  -401  -357  -293  -218  -152  -113  -116  -158  -214  -255  -267  -268  -275  -279  -260  -226  -211  -236  -281  -317  -340  -373  -421  -467  -500  -515  -484  -376  -220  -91  -28  -16  -31  -49  -55  -39  5  66  118  148  161  154  115  32  -72  -153  -192  -214  -231  -235  -221  -198  -180  -172  -164  -151  -164  -275  -519  -775  -880  -815  -647  -336  275  1225  2304  3156  3406  2931  1992  997  267  -27  39  149  104  10  -76  -240  -402  -433  -374  -316  -287  -278  -276  -271  -265  -261  -259  -257  -254  -252  -253  -267  -299  -335  -344  -304  -233  -166  -120  -92  -77  -70  -69  -73  -77  -78  -79  -88  -96  -78  -8  109  240  358  471  577  653  691  710  718  713  698  693  733  816  904  959  970  929  837  722  617  541  504  503  515  501  418  246  29  -157  -278  -343  -375  -393  -407  -415  -401  -338  -205  -42  60  36  -97  -246  -300  -251  -177  -138  -135  -144  -146  -129  -90  -45  -11  5  13  9  -11  -49  -97  -138  -156  -155  -148  -141  -136  -131  -126  -124  -125  -126  -127  -122  -106  -82  -74  -114  -206  -282  -279  -228  -199  -203  -212  -202  -173  -148  -139  -139  -158  -230  -344  -442  -494  -507  -489  -448  -382  -289  -191  -123  -79  -25  51  127  174  191  192  173  132  85  52  38  36  34  26  13  -2  -26  -72  -140  -210  -254  -269  -286  -330  -390  -422  -386  -302  -277  -426  -710  -888  -703  -109  757  1728  2576  3058  3068  2601  1795  984  427  158  99  136  177  157  50  -102  -241  -334  -377  -384  -378  -367  -350  -331  -316  -310  -308  -310  -320  -334  -345  -344  -325  -278  -187  -54  88  190  232  216  141  27  -75  -137  -172  -187  -140  -2  172  301  359  378  395  433  504  592  641  623  573  537  515  505  543  670  858  1019  1101  1120  1097  1019  877  724  632  618  633  598  450  197  -55  -196  -218  -191  -193  -275  -412  -524  -570  -573  -565  -551  -520  -471  -441  -462  -509  -543  -555  -555  -540  -502  -451  -413  -399  -403  -417  -432  -428  -386  -338  -317  -304  -270  -226  -198  -198  -214  -230  -238  -246  -270  -318  -363  -360  -309  -256  -229  -225  -234  -251  -273  -288  -295  -299  -298  -280  -234  -180  -148  -142  -140  -140  -175  -278  -418  -522  -553  -540  -518  -500  -482  -449  -384  -270  -131  -20  40  57  25  -71  -205  -300  -280  -128  85  239  264  178  47  -57  -113  -147  -182  -205  -214  -242  -319  -415  -475  -487  -462  -400  -292  -134  37  70  -180  -558  -720  -482  216  1307  2378  2923  2781  2168  1453  923  620  380  77  -251  -480  -475  -260  -34  67  77  64  54  35  -14  -81  -135  -168  -190  -211  -251  -330  -440  -532  -566  -519  -380  -195  -36  80  171  231  253  251  230  182  120  76  60  55  45  36  40  51  72  144  298  482  594  588  513  441  413  467  627  842  998  1039  996  924  863  831  824  827  835  841  828  777  692  598  494  351  165  -32  -190  -274  -323  -403  -517  -623  -686  -709  -708  -686  -633  -563  -507  -474  -443  -387  -303  -219  -155  -120  -122  -144  -151  -136  -127  -143  -168  -179  -169  -148  -127  -106  -81  -60  -53  -55  -58  -58  -56  -57  -64  -81  -100  -117  -135  -152  -164  -179  -207  -233  -226  -187  -142  -113  -98  -95  -120  -191  -287  -353  -361  -323  -271  -231  -215  -222  -253  -305  -366  -409  -418  -391  -324  -226  -136  -104  -135  -185  -223  -237  -212  -133  -11  110  200  253  240  130  -34  -165  -230  -266  -308  -365  -432  -500  -556  -597  -587  -440  -205  -118  -250  -382  -279  272  1301  2329  2815  2672  2073  1279  630  283  104  -75  -264  -405  -472  -483  -470  -442  -394  -336  -286  -251  -228  -222  -255  -348  -470  -557  -567  -507  -417  -338  -271  -173  -26  130  245  306  327  295  175  0  -136  -176  -147  -111  -106  -129  -150  -111  42  273  484  617  673  681  671  661  652  645  640  647  682  744  799  800  735  631  535  485  506  600  731  823  828  743  609  480  382  283  139  -36  -173  -237  -259  -277  -312  -377  -458  -522  -555  -568  -565  -529  -445  -347  -274  -213  -150  -109  -124  -197  -260  -248  -182  -128  -109  -91  -45  10  12  -69  -179  -238  -220  -150  -82  -51  -47  -44  -33  -24  -35  -80  -162  -264  -355  -401  -404  -389  -366  -330  -280  -230  -195  -186  -210  -227  -188  -112  -49  -17  -7  0  10  30  67  121  177  225  265  297  292  208  44  -131  -253  -322  -372  -416  -440  -444  -438  -441  -467  -507  -504  -443  -426  -510  -630  -774  -866  -639  38  1005  1981  2600  2549  1853  848  -42  -528  -604  -458  -307  -276  -320  -341  -328  -316  -322  -340  -344  -323  -295  -273  -272  -330  -442  -540  -584  -577  -544  -502  -436  -327  -190  -77  -21  -11  -5  28  83  128  149  152  148  141  129  116  119  150  205  277  355  423  475  527  599  692  775  820  828  820  814  823  855  897  923  921  898  855  779  674  564  466  390  325  244  158  94  42  -13  -62  -87  -91  -102  -149  -242  -354  -441  -486  -513  -539  -561  -571  -572  -559  -526  -485  -458  -456  -460  -437  -362  -259  -180  -146  -135  -128  -124  -129  -133  -131  -146  -182  -206  -204  -189  -174  -166  -162  -159  -155  -141  -103  -45  4  29  34  34  33  20  -26  -113  -204  -268  -293  -266  -202  -155  -151  -166  -176  -179  -179  -179  -174  -158  -138  -125  -126  -137  -153  -169  -185  -202  -224  -247  -261  -266  -269  -280  -298  -310  -305  -314  -402  -591  -819  -1020  -1073  -771  -37  975  1979  2649  2799  2468  1829  1124  551  167  -9  -9  19  -48  -181  -289  -342  -369  -400  -433  -453  -445  -399  -309  -192  -99  -66  -78  -104  -141  -197  -271  -336  -348  -304  -247  -201  -163  -112  -23  94  193  239  236  211  186  168  166  183  213  261  317  368  406  431  442  450  463  480  506  557  623  668  671  644  616  603  600  594  585  579  581  589  584  540  440  310  191  106  51  -11  -109  -214  -275  -292  -302  -323  -343  -348  -360  -424  -565  -730  -803  -725  -566  -443  -403  -413  -436  -463  -483  -453  -335  -163  -25  25  -1  -82  -188  -283  -340  -362  -359  -338  -301  -252  -207  -194  -225  -278  -316  -323  -314  -308  -311  -320  -327  -335  -346  -356  -348  -315  -268  -232  -221  -222  -221  -209  -188  -168  -165  -185  -203  -201  -200  -211  -218  -206  -174  -139  -110  -84  -69  -73  -97  -144  -212  -284  -339  -366  -372  -368  -358  -342  -336  -361  -416  -478  -529  -569  -609  -667  -742  -744  -477  188  1185  2262  3030  3183  2708  1824  887  230  -46  -36  91  176  158  65  -44  -122  -154  -157  -141  -103  -70  -75  -103  -119  -127  -149  -188  -207  -182  -152  -164  -202  -237  -261  -267  -240  -183  -110  -32  37  78  77  36  -31  -96  -139  -151  -113  5  178  332  431  485  509  513  523  559  613  667  726  805  897  972  1018  1049  1060  1035  979  904  800  676  565  468  373  290  217  135  43  -34  -90  -135  -167  -180  -196  -245  -307  -350  -378  -392  -381  -332  -255  -217  -265  -344  -382  -381  -369  -360  -357  -355  -350  -333  -293  -241  -205  -196  -199  -202  -210  -229  -245  -219  -123  8  104  137  137  131  111  62  -11  -78  -118  -138  -154  -177  -213  -272  -344  -398  -418  -410  -379  -327  -276  -237  -196  -137  -69  -13  26  37  -11  -147  -325  -462  -524  -529  -482  -367  -210  -76  -7  7  0  -3  6  33  82  139  178  191  186  166  124  64  11  -13  -23  -38  -64  -90  -101  -84  -36  17  37  -18  -176  -382  -500  -359  215  1256  2476  3405  3709  3352  2584  1806  1298  1044  860  619  329  110  36  57  92  110  110  99  85  75  79  110  164  215  245  250  236  227  274  417  613  756  801  794  781  768  740  692  646  628  640  670  714  770  835  900  944  964  976  984  987  1003  1058  1163  1313  1473  1594  1662  1696  1712  1725  1737  1735  1690  1565  1344  1078  853  703  592  460  282  89  -81  -245  -476  -821  -1207  -1503  -1667  -1766  -1875  -1998  -2087  -2123  -2131  -2131  -2131  -2141  -2168  -2204  -2235  -2256  -2246  -2186  -2079  -1952  -1834  -1732  -1647  -1583  -1507  -1378  -1228  -1126  -1085  -1059  -1019  -980  -963  -969  -976  -968  -952  -943  -948  -959  -969  -976  -986  -1007  -1032  -1054  -1064  -1048  -1006  -961  -925  -896  -877  -861  -836  -810  -815  -866  -945  -1004  -1006  -947  -856  -748  -637  -561  -535  -537  -545  -553  -563  -567  -529  -414  -243  -97  -41  -83  -179  -269  -337  -394  -430  -422  -360  -271  -191  -129  -75  -23  33  91  133  146  132  96  52  23  18  29  38  13  -65  -161  -223  -253  -277  -296  -303  -295  -269  -243  -270  -376  -499  -443  29  966  2162  3246  3791  3596  2838  1882  1054  539  337  276  211  137  71  10  -22  -11  39  105  153  169  168  164  162  163  168  176  175  147  96  52  37  45  62  72  65  47  22  -7  -24  7  100  228  352  456  537  596  646  699  748  784  820  861  888  896  914  960  1007  1028  1033  1038  1050  1071  1114  1183  1269  1347  1396  1416  1418  1389  1303  1177  1063  977  896  811  721  589  400  198  37  -62  -103  -106  -98  -94  -104  -133  -170  -196  -205  -203  -199  -198  -203  -219  -245  -269  -279  -282  -267  -209  -114  -22  21  -9  -97  -187  -246  -270  -261  -232  -199  -158  -110  -68  -39  -25  -45  -121  -232  -319  -357  -356  -318  -227  -110  -26  -19  -87  -194  -289  -347  -370  -371  -368  -374  -393  -410  -390  -302  -170  -64  -32  -67  -116  -139  -141  -148  -174  -211  -237  -232  -193  -138  -98  -85  -88  -97  -109  -131  -167  -203  -204  -157  -86  -20  22  57  113  190  262  310  323  290  213  127  72  58  56  19  -89  -257  -395  -444  -455  -498  -587  -656  -601  -454  -403  -516  -625  -519  -44  858  1974  2848  3104  2664  1744  750  101  -81  -17  52  60  5  -121  -286  -410  -458  -459  -451  -446  -431  -400  -373  -375  -379  -342  -274  -207  -148  -100  -71  -74  -113  -171  -222  -261  -305  -354  -393  -415  -425  -407  -322  -166  -16  42  30  19  40  73  103  131  182  252  312  355  404  464  513  541  565  589  611  642  700  789  905  1031  1120  1122  1040  919  779  593  370  192  110  100  115  130  133  124  111  89  32  -74  -225  -381  -483  -504  -471  -422  -383  -355  -332  -317  -311  -308  -306  -305  -304  -295  -269  -237  -222  -236  -267  -286  -280  -262  -239  -187  -96  8  99  161  166  80  -85  -257  -359  -370  -309  -219  -142  -86  -42  -11  -17  -93  -236  -390  -493  -524  -499  -441  -374  -327  -312  -323  -349  -375  -382  -367  -341  -310  -264  -218  -195  -195  -204  -216  -232  -249  -257  -246  -225  -205  -190  -181  -176  -174  -182  -209  -254  -293  -315  -336  -376  -446  -533  -605  -652  -688  -709  -702  -657  -570  -513  -633  -953  -1241  -1239  -870  -145  852  1816  2353  2249  1523  468  -468  -977  -1022  -800  -569  -459  -454  -499  -562  -624  -678  -716  -734  -736  -734  -733  -725  -699  -657  -618  -603  -608  -607  -583  -539  -495  -463  -429  -360  -258  -166  -130  -145  -161  -146  -112  -88  -84  -85  -58  35  202  385  494  505  483  483  501  523  574  693  864  1023  1128  1179  1179  1142  1091  1048  1024  1015  1012  1011  1016  1033  1058  1084  1098  1074  965  768  558  418  341  289  259  256  254  229  188  159  157  162  150  129  123  148  194  233  268  310  340  338  314  294  293  315  352  396  418  379  293  204  128  73  57  88  158  231  272  298  332  363  365  335  284  225  157  84  28  -6  -33  -62  -91  -112  -124  -127  -134  -157  -198  -241  -260  -235  -166  -77  17  128  244  327  365  387  414  437  416  301  93  -136  -314  -405  -417  -385  -345  -319  -309  -311  -329  -366  -396  -380  -308  -221  -232  -423  -680  -740  -391  434  1552  2495  2848  2538  1714  717  30  -176  -153  -121  -120  -158  -202  -226  -257  -300  -313  -286  -262  -258  -261  -254  -228  -187  -152  -144  -164  -193  -213  -222  -225  -224  -217  -203  -175  -135  -99  -79  -75  -75  -67  -45  -17  3  25  71  151  240  297  302  268  240  250  305  395  497  576  623  655  678  688  691  698  711  726  726  705  680  662  654  661  666  613  446  200  -9  -115  -145  -178  -285  -473  -679  -828  -898  -894  -807  -629  -424  -287  -253  -292  -379  -498  -623  -721  -775  -789  -772  -735  -695  -665  -638  -590  -510  -419  -350  -309  -276  -244  -227  -252  -314  -365  -378  -364  -343  -325  -308  -270  -205  -143  -102  -55  0  6  -56  -130  -165  -169  -164  -165  -182  -221  -285  -360  -418  -440  -423  -371  -295  -213  -149  -115  -109  -117  -126  -124  -91  -17  68  127  147  143  122  78  13  -64  -156  -247  -306  -323  -319  -312  -308  -306  -310  -326  -363  -441  -540  -561  -472  -390  -419  -477  -332  197  1069  2038  2778  3015  2667  1903  1033  325  -82  -200  -117  11  61  29  -58  -173  -293  -425  -545  -599  -548  -386  -170  0  65  47  3  -24  -33  -36  -40  -61  -112  -179  -212  -176  -84  15  90  140  174  186  176  161  155  153  154  159  165  170  179  227  349  518  650  694  675  659  690  757  819  860  911  995  1088  1148  1164  1137  1046  879  683  552  514  504  440  300  129  -10  -96  -155  -200  -221  -221  -213  -202  -211  -277  -405  -551  -649  -652  -587  -526  -503  -489  -445  -373  -308  -267  -237  -210  -192  -188  -200  -206  -206  -234  -276  -288  -276  -267  -267  -282  -307  -334  -361  -385  -392  -366  -305  -230  -170  -130  -94  -65  -64  -127  -269  -437  -548  -580  -572  -556  -518  -433  -320  -242  -228  -257  -292  -322  -359  -401  -417  -368  -266  -179  -148  -155  -170  -182  -184  -170  -132  -76  -25  -3  -15  -43  -74  -102  -126  -142  -157  -193  -254  -302  -315  -320  -333  -332  -307  -295  -352  -455  -567  -737  -940  -959  -617  118  1179  2291  3036  3191  2818  2120  1394  844  462  252  224  236  189  109  -20  -227  -459  -637  -725  -728  -662  -543  -395  -293  -292  -336  -337  -286  -232  -210  -212  -212  -192  -161  -128  -97  -65  -23  24  41  1  -30  16  109  183  219  219  199  190  220  295  385  453  491  517  558  624  699  770  843  914  962  978  976  964  940  903  872  872  896  915  917  889  808  664  487  315  148  -36  -196  -263  -290  -390  -552  -646  -596  -462  -356  -313  -296  -269  -229  -191  -173  -186  -224  -280  -346  -421  -497  -557  -585  -577  -536  -475  -410  -340  -254  -164  -100  -64  -35  -23  -58  -140  -232  -294  -313  -292  -231  -146  -73  -33  -25  -40  -86  -173  -279  -359  -401  -420  -427  -425  -420  -417  -408  -375  -325  -287  -273  -273  -272  -265  -255  -243  -233  -230  -232  -235  -237  -239  -238  -237  -245  -274  -320  -372  -414  -439  -452  -466  -471  -420  -265  -49  109  144  82  -4  -62  -88  -90  -40  81  229  309  260  106  -94  -290  -428  -480  -457  -391  -307  -233  -189  -172  -169  -172  -189  -220  -262  -358  -563  -778  -765  -299  726  2094  3246  3716  3389  2411  1229  430  218  322  386  220  -120  -417  -519  -475  -416  -394  -402  -425  -442  -425  -355  -252  -164  -122  -124  -156  -204  -252  -286  -302  -294  -239  -128  -24  -26  -130  -230  -240  -156  -38  47  90  108  105  82  60  89  198  352  482  551  568  558  538  520  523  571  675  797  879  914  939  974  1016  1062  1108  1129  1102  1031  937  824  690  567  491  443  376  252  60  -165  -365  -478  -481  -402  -304  -255  -261  -291  -329  -392  -472  -534  -561  -563  -531  -444  -328  -246  -225  -237  -246  -248  -263  -297  -318  -299  -280  -301  -335  -341  -334  -334  -338  -340  -337  -334  -330  -325  -321  -327  -349  -366  -337  -257  -180  -144  -137  -141  -145  -145  -140  -130  -121  -118  -119  -133  -194  -318  -462  -561  -599  -584  -501  -338  -153  -38  -25  -76  -136  -185  -238  -289  -305  -260  -159  -66  -43  -98  -199  -284  -318  -325  -307  -249  -179  -142  -135  -139  -143  -148  -158  -164  -131  -20  153  318  423  468  479  483  473  405  235  -3  -220  -353  -400  -394  -376  -360  -332  -278  -209  -144  -97  -105  -220  -423  -622  -694  -486  136  1140  2216  2962  3138  2677  1714  681  7  -221  -137  62  134  -37  -285  -398  -394  -388  -419  -461  -471  -435  -380  -335  -304  -268  -233  -224  -266  -346  -393  -335  -187  -17  119  198  228  229  204  144  65  9  3  41  95  140  168  184  192  207  259  353  453  515  533  532  533  536  542  564  619  695  758  800  833  862  877  879  877  883  893  871  785  643  477  319  208  169  186  224  258  274  249  139  -62  -286  -450  -541  -600  -650  -689  -718  -748  -772  -784  -806  -866  -940  -961  -875  -685  -465  -310  -239  -203  -163  -119  -89  -81  -97  -135  -203  -294  -368  -396  -389  -366  -334  -292  -240  -212  -232  -270  -296  -309  -316  -318  -319  -326  -347  -376  -398  -410  -417  -415  -402  -390  -387  -383  -363  -334  -330  -361  -374  -332  -260  -192  -134  -89  -65  -63  -73  -80  -76  -63  -52  -49  -53  -56  -43  1  67  122  147  151  149  150  150  139  111  71  28  -31  -120  -212  -258  -237  -181  -137  -129  -158  -203  -231  -286  -486  -797  -1033  -1025  -610  320  1580  2661  3083  2779  2008  1075  334  28  36  36  -120  -308  -375  -338  -270  -199  -122  -57  -34  -54  -67  -29  36  78  55  -28  -115  -156  -174  -198  -210  -194  -152  -111  -97  -103  -112  -117  -119  -108  -78  -35  3  34  54  59  48  26  -2  -26  -24  17  99  237  458  725  922  994  978  904  762  588  473  465  539  625  673  689  698  708  710  685  600  438  244  94  14  -30  -75  -129  -198  -293  -402  -485  -547  -631  -743  -829  -845  -809  -767  -733  -694  -641  -575  -493  -411  -347  -308  -309  -349  -405  -466  -505  -492  -440  -381  -344  -333  -334  -343  -364  -395  -418  -421  -399  -353  -297  -246  -201  -163  -151  -168  -206  -257  -297  -329  -374  -414  -421  -403  -390  -412  -475  -550  -600  -601  -566  -522  -483  -448  -425  -420  -428  -443  -478  -557  -676  -781  -797  -690  -521  -370  -254  -179  -173  -242  -347  -429  -457  -454  -474  -558  -685  -793  -854  -887  -912  -939  -946  -860  -692  -632  -826  -1181  -1399  -1115  -179  1092  2135  2525  2192  1343  320  -488  -880  -931  -785  -565  -430  -477  -659  -849  -962  -990  -965  -932  -914  -908  -896  -858  -774  -661  -571  -543  -593  -722  -867  -945  -945  -903  -833  -752  -694  -667  -652  -641  -649  -678  -711  -734  -741  -704  -595  -444  -328  -290  -306  -329  -318  -257  -169  -106  -87  -97  -109  -95  -29  78  189  269  319  346  353  336  291  232  193  183  184  169  117  22  -103  -239  -370  -487  -578  -636  -678  -720  -759  -778  -772  -759  -753  -755  -759  -762  -764  -768  -765  -743  -692  -624  -569  -541  -527  -490  -383  -218  -90  -41  -35  -64  -127  -182  -192  -166  -152  -161  -135  -48  42  95  123  155  214  294  361  396  422  476  554  619  643  635  628  678  837  1068  1275  1431  1566  1663  1711  1755  1848  2003  2186  2349  2501  2683  2889  3070  3177  3219  3250  3304  3382  3489  3635  3822  4030  4220  4379  4538  4712  4859  4933  4918  4840  4763  4729  4742  4790  4862  4944  5015  5048  5017  4930  4840  4784  4776  4800  4761  4620  4592  5029  6016  7205  8121  8406  7926  6952  6002  5404  5147  5070  5010  4887  4785  4800  4878  4925  4928  4922  4942  5018  5171  5408  5759  6254  6792  7185  7413  7617  7861  8087  8282  8483  8692  8873  9010  9114  9207  9283  9323  9341  9356  9350  9283  9093  8760  8398  8165  8091  8110  8189  8344  8527  8618  8543  8358  8168  8032  7942  7827  7581  7189  6762  6401  6115  5814  5350  4712  4113  3759  3654  3672  3700  3691  3655  3617  3584  3579  3659  3849  4118  4395  4609  4724  4768  4812  4929  5119  5310  5443  5521  5547  5505  5401  5227  4906  4301  3350  2238  1303  680  102  -953  -2905  -5650  -8473  -10591  -11735  -12188  -12392  -12594  -12862  -13307  -14216  -15910  -18438  -21434  -24310  -26716  -28824  -30965  -32768  -32768  -32768  -32768  -32768  -32768  -32768  -32768  -32768  -32768  -32768  -32768  -32768  -32768  -32768  -32768  -31405  -25826  -20489  -16266  -13427  -11604  -10187  -8878  -7820  -7233  -7065  -7074  -7101  -7128  -7157  -7141  -7037  -6898  -6796  -6685  -6451  -6074  -5660  -5298  -4980  -4690  -4481  -4389  -4331  -4215  -4108  -4181  -4470  -4804  -5018  -5143  -5282  -5433  -5643  -6143  -6993  -7837  -8433  -9421  -11898  -15489  -17754  -17222  -17357  -26701  -32768  -32768  -32768  -32768  -32768  -32768  -32768  -32768  -29599  -4628  8934  17538  24420  29754  32767  32767  32767  32767  32767  32767  32767  32767  32767  32767  32767  32767  32767  32386  31486  30463  29412  28594  28141  27914  27605  26964  25977  24947  24270  24030  24011  24015  24001  23995  23982  23856  23524  23061  22674  22465  22376  22287  22052  21581  21009  20609  20476  20496  20558  20632  20711  20770  20797  20799  20759  20622  20359  20015  19675  19391  19194  19053  18788  18193  17344  16578  16088  15778  15471  15039  14417  13700  13103  12701  12385  12096  11870  11696  11514  11295  11062  10862  10675  10382  9936  9475  9158  9007  8941  8857  8672  8398  8146  7977  7819  7564  7217  6887  6643  6473  6340  6224  6105  5953  5740  5458  5158  4929  4803  4712  4561  4340  4123  3977  3894  3788  3602  3393  3271  3255  3265  3237  3173  3086  2953  2749  2487  2233  2066  1989  1913  1740  1449  1141  949  893  876  811  713  668  722  807  807  677  473  282  153  78  12  -71  -157  -207  -218  -236  -310  -441  -585  -710  -812  -914  -1068  -1287  -1508  -1686  -1835  -1965  -2062  -2103  -2106  -2146  -2300  -2554  -2821  -3029  -3158  -3227  -3274  -3277  -3069  -2447  -1495  -630  -200  -287  -849  -1686  -2416  -2789  -2882  -2909  -2987  -3106  -3234  -3352  -3397  -3347  -3311  -3349  -3405  -3438  -3443  -3408  -3359  -3330  -3321  -3318  -3316  -3316  -3313  -3301  -3277  -3246  -3216  -3200  -3201  -3208  -3203  -3174  -3130  -3080  -3031  -3008  -3021  -3044  -3049  -3039  -3029  -3020  -2990  -2943  -2898  -2827  -2680  -2477  -2306  -2194  -2105  -2021  -1955  -1903  -1855  -1817  -1794  -1775  -1751  -1741  -1763  -1795  -1802  -1781  -1769  -1793  -1840  -1934  -2173  -2620  -3170  -3628  -3886  -3984  -4013  -4032  -4058  -4077  -4068  -4024  -3964  -3921  -3906  -3904  -3897  -3884  -3876  -3873  -3861  -3825  -3779  -3751  -3749  -3738  -3667  -3515  -3325  -3171  -3098  -3086  -3074  -3019  -2933  -2858  -2795  -2733  -2707  -2731  -2728  -2630  -2467  -2309  -2208  -2162  -2137  -2111  -2081  -2055  -2040  -2036  -2040  -2040  -2022  -1981  -1939  -1925  -1927  -1918  -1903  -1905  -1925  -1938  -1914  -1816  -1618  -1378  -1211  -1161  -1176  -1199  -1208  -1195  -1156  -1105  -1066  -1044  -1023  -988  -943  -909  -891  -880  -874  -877  -878  -876  -878  -876  -875  -888  -913  -938  -957  -970  -962  -910  -825  -755  -728  -728  -735  -741  -731  -671  -513  -197  349  1080  1757  2155  2238  2015  1478  804  295  39  -103  -220  -292  -312  -316  -338  -380  -422  -454  -476  -489  -491  -484  -483  -498  -515  -503  -471  -454  -457  -465  -478  -509  -552  -588  -602  -588  -548  -489  -428  -365  -292  -215  -145  -54  87  255  384  454  512  616  767  911  1019  1104  1177  1228  1260  1297  1361  1448  1532  1592  1631  1669  1721  1775  1804  1793  1746  1681  1625  1597  1590  1580  1551  1511  1473  1413  1297  1146  1029  978  973  965  918  830  726  625  538  486  481  526  616  734  847  918  937  926  909  897  892  897  926  985  1045  1057  1018  977  957  933  870  773  672  583  551  613  715  776  765  689  583  481  383  286  219  196  197  206  225  258  296  314  282  183  52  -47  -82  -62  0  105  234  342  395  404  397  389  387  388  370  317  245  188  165  164  167  154  106  22  -87  -201  -293  -350  -373  -371  -358  -344  -332  -320  -309  -313  -341  -357  -236  180  866  1538  1913  1886  1442  690  -36  -439  -525  -480  -433  -405  -383  -375  -390  -413  -421  -408  -380  -358  -354  -368  -398  -412  -373  -295  -199  -86  20  82  90  62  16  -33  -79  -109  -113  -101  -92  -99  -119  -134  -119  -60  16  73  91  86  71  58  72  143  262  382  467  531  614  717  794  824  823  813  800  776  719  631  548  509  521  564  611  643  645  574  393  148  -40  -123  -153  -183  -215  -236  -263  -345  -497  -663  -771  -829  -886  -937  -950  -923  -849  -703  -519  -378  -307  -286  -302  -348  -396  -414  -403  -381  -351  -316  -264  -171  -62  -8  -44  -135  -225  -313  -432  -566  -654  -658  -578  -445  -294  -144  -37  -40  -146  -276  -388  -478  -539  -568  -573  -555  -513  -450  -379  -325  -308  -310  -280  -170  -5  128  184  185  171  157  145  138  140  151  165  165  136  58  -58  -169  -242  -275  -279  -254  -197  -129  -85  -78  -100  -137  -126  81  617  1356  1961  2227  2182  1904  1470  995  597  359  280  287  310  319  305  260  174  56  -51  -110  -113  -71  0]
