reading_id,reading_time,wire_id,result_classification,heart_rate,heart_rate_alert,firmware_version,device_app_version,hardware_version,waveform_samples
f0f595e0-6247-11ed-8080-808080808080,Sat Nov 12 05:07:44 UTC 2022,8100e3ea1a39,NSR,83,NONE,20001.171.50,2.10.0,Charge 5,[6311  6408  6341  5913  5035  3783  2272  565  -1294  -3222  -5113  -6937  -8770  -10731  -12864  -14989  -16750  -17925  -18544  -18755  -18638  -18147  -17292  -16232  -15033  -13590  -11722  -9219  -6096  -2737  350  2742  4196  4782  4818  4552  3983  3029  1713  176  -1374  -2773  -4042  -5287  -6431  -7260  -7654  -7655  -7360  -6870  -6320  -5787  -5268  -4787  -4404  -4110  -3839  -3558  -3279  -2962  -2444  -1590  -479  756  2070  3313  4206  4601  4500  3877  2768  1334  -385  -2442  -4755  -7273  -10056  -13005  -15776  -17943  -19138  -19210  -18354  -16912  -15099  -13056  -10934  -8860  -7030  -5557  -4229  -2757  -1006  992  2876  4135  4617  4528  4068  3382  2656  1999  1395  771  -17  -1041  -2127  -3104  -4070  -5221  -6600  -8079  -9430  -10449  -11145  -11675  -12112  -12412  -12573  -12688  -12850  -13071  -13290  -13445  -13493  -13438  -13340  -13269  -13221  -13095  -12725  -11997  -10941  -9650  -8143  -6503  -4949  -3636  -2631  -1992  -1645  -1359  -880  -101  848  1795  2731  3723  4856  6228  7800  9327  10474  11027  11039  10710  10228  9682  9021  8233  7456  6842  6456  6264  6117  5835  5354  4796  4355  4110  3963  3808  3647  3535  3468  3362  3158  2884  2508  1831  715  -788  -2578  -4471  -6163  -7441  -8278  -8742  -8980  -9195  -9484  -9772  -9962  -10033  -9926  -9507  -8709  -7608  -6349  -5132  -4106  -3216  -2205  -885  677  2303  3714  4578  4870  4881  4844  4796  4693  4532  4372  4297  4469  5067  5995  6860  7386  7580  7428  6735  5413  3677  1877  284  -1093  -2453  -3864  -5247  -6555  -7720  -8649  -9374  -10120  -11156  -12581  -14382  -16541  -18953  -21518  -24245  -27083  -29924  -32712  -32768  -32768  -32768  -32768  -32768  -32768  -32768  -32768  -32768  -32768  -32768  -32768  -32768  -32768  -32768  -32768  -32768  -32768  -32768  -32768  -32768  -32768  -32768  -32768  -32768  -32768  -32768  -32768  -32768  -32768  -32768  -32768  -32768  -32768  -31942  -28832  -25471  -21921  -18059  -13883  -9569  -5327  -1459  1722  4145  6000  7574  9035  10379  11591  12657  13500  14054  14354  14533  14734  15059  15648  16635  17975  19535  21306  23320  25468  27492  29048  29973  30499  31011  31717  32585  32767  32767  32767  32767  32767  32767  32767  32767  32767  32767  32767  32767  32767  32767  32767  25736  11414  -6666  -24002  -32768  -32768  -30781  -13121  8596  25527  29649  16745  -11770  -32768  -32768  -32768  -32768  -32768  -32768  -27366  -22673  -17486  -8459  3759  16811  29257  32767  32767  32767  32767  32767  32767  32767  25365  15029  3742  -9201  -22882  -32768  -32768  -32768  -32768  -32768  -32768  -32768  -32768  -32768  -32768  -32768  -32768  -32768  -29229  -25239  -20749  -15273  -8801  -1931  4277  8702  10908  11483  11394  11202  10988  10698  10382  10131  9934  9786  10066  11637  15195  20567  26744  32410  32767  32767  32767  32767  32767  32767  32767  32767  32767  32767  32767  32371  31634  31719  32419  32767  32767  32767  32767  30621  27013  23414  20782  19498  19382  20191  21845  24064  26255  27936  29050  29832  30485  31030  31430  31698  31887  32022  32063  31974  31793  31539  31180  30769  30439  30216  29922  29372  28637  27942  27353  26754  25824  24051  21344  18385  15878  13797  11607  8837  5209  809  -3610  -7148  -9405  -10489  -10813  -10831  -10758  -10504  -9755  -8233  -6032  -3578  -1401  49  810  1410  2295  3480  4663  5489  5845  5909  5892  5818  5556  5035  4398  3887  3578  3293  2671  1397  -473  -2589  -4634  -6336  -7519  -8317  -9014  -9753  -10528  -11317  -12056  -12578  -12757  -12643  -12380  -12074  -11727  -11346  -11026  -10803  -10568  -10246  -9919  -9657  -9394  -9012  -8457  -7779  -6990  -5944  -4544  -2907  -1220  229  1109  1385  1305  1013  512  -70  -486  -702  -891  -1097  -1256  -1536  -2321  -3701  -5206  -6231  -6556  -6360  -5926  -5446  -4996  -4631  -4399  -4287  -4232  -4184  -4133  -4060  -3897  -3572  -3154  -2799  -2556  -2380  -2280  -2309  -2486  -2730  -2906  -2956  -2924  -2865  -2809  -2764  -2733  -2722  -2743  -2803  -2894  -2997  -3091  -3160  -3191  -3191  -3170  -3154  -3197  -3356  -3605  -3839  -3979  -4026  -4025  -4005  -3927  -3739  -3485  -3283  -3195  -3183  -3189  -3190  -3188  -3205  -3254  -3333  -3414  -3464  -3479  -3476  -3472  -3472  -3473  -3468  -3459  -3471  -3535  -3645  -3777  -3947  -4158  -4342  -4440  -4468  -4474  -4466  -4389  -4203  -3963  -3783  -3690  -3616  -3520  -3428  -3388  -3414  -3473  -3527  -3563  -3575  -3528  -3384  -3176  -3011  -2951  -2979  -3048  -3114  -3154  -3162  -3137  -3075  -2987  -2902  -2837  -2802  -2797  -2824  -2870  -2887  -2836  -2741  -2660  -2630  -2651  -2696  -2738  -2772  -2795  -2806  -2808  -2801  -2789  -2794  -2844  -2913  -2926  -2852  -2728  -2596  -2478  -2397  -2353  -2303  -2196  -2040  -1906  -1838  -1814  -1804  -1811  -1870  -1976  -2033  -1990  -1964  -2054  -2215  -2353  -2422  -2428  -2401  -2362  -2248  -1885  -1150  -211  554  928  962  734  236  -439  -1028  -1330  -1379  -1319  -1242  -1181  -1159  -1211  -1348  -1518  -1631  -1636  -1549  -1430  -1352  -1339  -1350  -1314  -1183  -996  -847  -766  -724  -699  -688  -683  -688  -717  -774  -824  -812  -732  -628  -508  -332  -107  92  211  239  199  139  95  69  68  125  270  460  609  694  771  866  957  1021  1058  1071  1066  1051  1041  1037  1036  1038  1045  1056  1052  996  842  589  315  135  92  138  215  277  264  100  -231  -599  -829  -889  -868  -839  -821  -787  -688  -508  -294  -96  57  146  172  151  80  -42  -154  -162  -71  0  -27  -123  -204  -231  -213  -144  3  196  331  314  117  -181  -433  -556  -571  -491  -297  -43  144  206  174  93  0  -81  -167  -284  -396  -450  -439  -395  -356  -344  -355  -370  -376  -374  -366  -364  -384  -422  -422  -336  -178  -16  93  153  191  220  249  287  323  352  425  611  867  1061  1116  1057  916  709  466  248  100  27  3  -1  0  33  125  252  347  365  308  225  287  778  1794  2956  3723  3877  3456  2559  1481  660  304  275  341  391  422  459  500  538  572  596  599  595  619  698  815  928  1025  1110  1166  1178  1157  1127  1107  1108  1134  1178  1227  1267  1281  1263  1217  1154  1095  1053  1037  1048  1105  1217  1375  1561  1740  1855  1883  1851  1801  1788  1844  1945  2044  2114  2147  2155  2161  2173  2180  2178  2169  2158  2149  2143  2146  2154  2129  2013  1770  1443  1126  873  698  606  586  606  642  672  633  437  85  -271  -481  -556  -610  -704  -808  -873  -886  -844  -743  -605  -465  -338  -238  -190  -197  -237  -263  -243  -186  -117  -62  -33  -25  -16  9  51  94  111  98  79  86  137  233  351  446  504  526  495  419  345  301  281  264  199  23  -248  -509  -688  -818  -949  -1084  -1192  -1259  -1327  -1455  -1642  -1827  -1964  -2041  -2061  -2050  -2039  -2039  -2031  -1982  -1854  -1640  -1349  -1006  -692  -486  -369  -286  -235  -226  -225  -186  -84  71  244  383  451  451  431  417  380  272  86  -137  -375  -641  -919  -1172  -1427  -1735  -2075  -2340  -2453  -2481  -2498  -2351  -1777  -701  666  1908  2560  2418  1612  461  -589  -1186  -1315  -1177  -986  -901  -935  -997  -1015  -986  -931  -867  -814  -775  -726  -665  -615  -588  -575  -573  -585  -604  -610  -576  -482  -354  -248  -208  -241  -328  -434  -520  -565  -530  -354  -38  279  440  419  312  214  151  107  88  119  202  320  456  608  758  863  905  892  847  813  842  948  1091  1203  1253  1260  1242  1182  1038  812  585  445  393  368  337  300  265  226  178  126  79  34  -13  -72  -157  -263  -355  -411  -443  -473  -507  -538  -550  -517  -441  -363  -301  -237  -154  -49  60  135  143  100  47  2  -47  -110  -176  -245  -310  -355  -375  -373  -304  -111  156  349  359  191  -51  -232  -296  -277  -220  -158  -116  -103  -104  -114  -132  -156  -173  -180  -190  -220  -272  -335  -395  -434  -434  -392  -326  -257  -194  -142  -105  -76  -46  -5  68  185  277  205  -89  -466  -726  -816  -813  -773  -688  -545  -369  -221  -142  -114  -90  -53  -26  -27  -45  -68  -113  -194  -289  -360  -388  -390  -383  -363  -298  -167  -9  120  239  399  581  701  700  575  383  210  102  54  46  51  50  27  -36  -145  -276  -402  -497  -532  -448  -207  85  236  264  477  1137  2204  3294  3832  3503  2504  1247  143  -479  -585  -429  -237  -70  18  -21  -122  -185  -203  -208  -212  -215  -216  -218  -222  -224  -226  -232  -243  -241  -182  -34  158  303  356  335  251  112  -29  -113  -116  -47  63  194  334  448  491  505  543  555  500  431  405  432  498  587  678  753  813  875  937  977  993  1007  1035  1063  1071  1059  1048  1054  1071  1084  1073  1007  858  645  439  297  225  184  140  92  50  6  -42  -82  -115  -163  -230  -308  -402  -499  -550  -531  -481  -442  -423  -414  -394  -358  -310  -269  -256  -278  -302  -291  -245  -200  -171  -151  -149  -195  -291  -375  -371  -283  -189  -143  -137  -143  -156  -180  -213  -236  -234  -210  -185  -199  -274  -392  -500  -543  -489  -358  -215  -127  -106  -121  -140  -153  -159  -172  -231  -380  -601  -797  -872  -780  -537  -253  -68  -31  -103  -225  -338  -405  -436  -443  -403  -320  -268  -306  -411  -509  -549  -520  -433  -315  -200  -100  -9  88  191  278  320  268  79  -204  -448  -567  -590  -565  -499  -406  -333  -340  -459  -632  -762  -848  -887  -657  140  1451  2790  3592  3548  2759  1651  663  -12  -428  -701  -878  -941  -896  -804  -707  -584  -444  -343  -298  -274  -246  -224  -215  -214  -209  -204  -219  -259  -296  -311  -314  -315  -310  -277  -199  -89  2  35  33  48  85  124  157  178  170  116  40  0  22  81  142  206  285  371  456  548  642  717  760  765  729  676  643  652  701  787  889  952  929  830  702  581  471  368  287  235  179  80  -54  -173  -239  -266  -289  -339  -436  -558  -648  -690  -711  -722  -704  -662  -632  -644  -686  -724  -729  -689  -597  -479  -389  -354  -354  -372  -404  -439  -448  -413  -353  -307  -291  -292  -298  -301  -301  -293  -277  -262  -260  -274  -290  -300  -303  -296  -282  -264  -250  -244  -254  -289  -340  -385  -408  -413  -397  -350  -275  -197  -140  -126  -167  -244  -323  -374  -389  -365  -307  -220  -114  -13  34  15  -27  -52  -56  -52  -46  -47  -65  -105  -154  -207  -262  -295  -268  -199  -174  -256  -403  -585  -780  -788  -353  574  1801  2923  3477  3264  2416  1212  32  -761  -1089  -1084  -886  -643  -476  -389  -310  -203  -98  -38  -23  -29  -43  -65  -92  -111  -120  -120  -111  -82  -28  23  31  -5  -47  -56  -15  73  197  323  410  446  451  447  443  440  439  441  449  466  489  522  581  672  760  819  868  951  1075  1196  1268  1291  1293  1294  1285  1247  1170  1086  1036  1019  1015  1000  952  856  686  436  170  -22  -115  -135  -129  -154  -244  -371  -464  -491  -474  -446  -428  -428  -448  -487  -538  -580  -577  -508  -408  -356  -394  -486  -566  -605  -612  -594  -548  -472  -375  -283  -225  -206  -202  -201  -216  -264  -319  -338  -318  -300  -301  -299  -273  -229  -184  -163  -183  -244  -330  -413  -453  -436  -395  -370  -364  -369  -382  -404  -428  -449  -479  -542  -617  -641  -571  -450  -357  -327  -333  -346  -346  -321  -258  -156  -46  18  17  -18  -49  -59  -56  -45  -36  -53  -133  -280  -435  -529  -552  -544  -531  -511  -485  -456  -414  -383  -462  -678  -854  -777  -322  597  1909  3189  3877  3684  2694  1236  -182  -1096  -1387  -1219  -820  -429  -217  -179  -179  -147  -106  -79  -61  -46  -37  -53  -118  -223  -322  -378  -390  -365  -295  -188  -79  10  73  110  118  91  12  -107  -227  -303  -314  -274  -215  -148  -72  13  125  288  482  637  719  747  747  719  647  549  475  462  524  652  812  951  1036  1074  1105  1160  1251  1360  1403  1286  1038  773  536  330  184  96  31  -23  -79  -168  -291  -422  -536  -593  -564  -492  -441  -431  -455  -491  -527  -564  -602  -628  -624  -573  -471  -342  -225  -149  -112  -102  -115  -166  -268  -391  -471  -477  -435  -375  -297  -195  -96  -40  -35  -48  -62  -94  -173  -290  -401  -471  -495  -482  -454  -437  -442  -457  -465  -465  -467  -477  -491  -485  -442  -382  -333  -296  -265  -243  -233  -230  -231  -239  -260  -289  -317  -339  -358  -368  -364  -338  -267  -132  41  183  234  177  32  -129  -231  -257  -247  -235  -236  -256  -292  -325  -320  -265  -222  -257  -399  -699  -1060  -1084  -423  861  2371  3578  3999  3474  2323  1045  24  -510  -565  -398  -267  -228  -249  -309  -372  -406  -420  -430  -440  -442  -415  -346  -259  -178  -103  -51  -45  -68  -96  -118  -132  -141  -150  -153  -152  -160  -181  -200  -192  -145  -73  -3  57  115  168  205  230  262  306  358  412  464  525  615  722  802  839  854  869  877  874  891  964  1073  1156  1185  1177  1149  1109  1058  995  925  852  749  576  353  154  22  -52  -93  -107  -107  -123  -199  -346  -506  -605  -632  -626  -616  -606  -588  -568  -560  -559  -527  -428  -289  -185  -164  -216  -307  -388  -426  -419  -386  -351  -323  -293  -266  -251  -243  -236  -229  -221  -214  -208  -201  -189  -162  -121  -99  -141  -248  -371  -456  -488  -492  -486  -456  -401  -354  -336  -342  -356  -361  -364  -381  -396  -411  -453  -505  -537  -554  -576  -602  -614  -595  -531  -427  -326  -262  -214  -142  -33  96  217  291  311  297  266  218  165  153  185  171  57  -94  -205  -245  -232  -213  -240  -330  -417  -421  -378  -367  -325  -139  86  74  -281  -666  -578  230  1593  2997  3839  3795  2939  1620  306  -598  -907  -726  -400  -216  -177  -168  -167  -197  -236  -254  -258  -279  -354  -473  -577  -603  -537  -422  -318  -260  -245  -255  -270  -271  -245  -179  -89  -16  17  7  -55  -170  -289  -349  -330  -263  -158  18  272  547  769  887  888  799  675  580  547  581  681  812  919  993  1069  1156  1242  1314  1367  1393  1359  1208  946  685  541  510  508  467  372  242  99  -23  -95  -115  -115  -146  -263  -496  -800  -1059  -1188  -1179  -1059  -875  -709  -619  -597  -605  -600  -543  -425  -300  -242  -276  -355  -416  -436  -433  -425  -410  -382  -360  -373  -415  -440  -415  -357  -305  -279  -277  -305  -374  -463  -528  -553  -559  -569  -589  -603  -582  -505  -395  -310  -278  -299  -378  -500  -614  -677  -686  -646  -558  -445  -346  -273  -214  -163  -119  -90  -117  -259  -512  -771  -920  -921  -800  -621  -457  -343  -269  -229  -204  -159  -89  -13  64  145  186  140  35  -64  -122  -135  -134  -170  -269  -401  -506  -569  -623  -690  -752  -752  -606  -311  -31  60  -92  -378  -487  -145  661  1744  2799  3505  3620  3009  1717  154  -1061  -1547  -1282  -537  156  368  174  -63  -165  -178  -177  -189  -215  -246  -273  -288  -287  -268  -232  -186  -127  -43  66  171  243  256  187  67  -24  -40  8  79  130  146  139  118  93  77  91  143  216  281  337  410  514  679  942  1245  1449  1478  1363  1191  1047  975  982  1062  1173  1254  1282  1279  1265  1239  1207  1174  1121  1005  827  642  493  386  316  271  222  147  46  -60  -153  -254  -391  -538  -633  -648  -608  -547  -488  -434  -389  -350  -306  -266  -249  -249  -256  -268  -295  -347  -426  -513  -581  -627  -652  -633  -543  -400  -263  -179  -151  -170  -241  -351  -462  -547  -594  -597  -553  -480  -409  -364  -349  -365  -416  -486  -538  -548  -509  -428  -340  -289  -299  -371  -488  -605  -675  -675  -612  -515  -425  -348  -266  -204  -200  -224  -217  -183  -151  -128  -119  -148  -243  -382  -502  -569  -592  -594  -592  -588  -577  -552  -511  -465  -447  -513  -660  -772  -627  -3  1082  2307  3232  3467  2884  1741  451  -625  -1221  -1313  -1116  -825  -517  -276  -170  -159  -162  -155  -138  -106  -59  -17  4  10  14  6  -32  -89  -129  -143  -140  -133  -123  -113  -107  -107  -113  -119  -107  -51  41  126  179  213  234  246  260  269  269  280  319  375  422  466  541  652  772  894  1008  1079  1100  1109  1148  1231  1344  1435  1439  1343  1190  1030  901  817  746  625  425  190  -2  -115  -176  -223  -259  -277  -283  -285  -295  -328  -394  -466  -511  -524  -520  -516  -514  -510  -501  -488  -481  -489  -513  -534  -520  -458  -366  -280  -228  -207  -184  -136  -85  -70  -91  -120  -137  -137  -134  -146  -169  -191  -222  -297  -446  -633  -758  -742  -573  -332  -135  -31  -8  -60  -172  -310  -407  -400  -310  -225  -190  -190  -199  -204  -207  -207  -207  -208  -205  -192  -163  -109  -17  99  199  244  199  45  -171  -354  -461  -510  -513  -474  -414  -350  -273  -179  -81  -17  -50  -127  5  586  1556  2569  3195  3097  2203  852  -349  -961  -954  -581  -230  -213  -443  -614  -632  -587  -524  -440  -340  -250  -198  -191  -210  -226  -218  -179  -134  -104  -89  -86  -91  -98  -101  -96  -86  -75  -59  -38  -19  -13  -19  -27  -19  22  99  191  271  320  342  368  430  529  633  728  819  906  984  1046  1087  1114  1139  1154  1146  1127  1124  1135  1127  1079  1000  906  787  657  556  470  330  117  -111  -301  -427  -492  -514  -511  -490  -454  -430  -451  -524  -610  -668  -697  -720  -734  -715  -659  -593  -542  -515  -492  -448  -395  -359  -353  -367  -386  -398  -399  -394  -389  -384  -370  -335  -294  -288  -347  -437  -481  -438  -341  -262  -230  -226  -226  -221  -212  -210  -230  -270  -330  -398  -432  -401  -345  -308  -290  -282  -280  -284  -296  -319  -356  -405  -442  -444  -401  -332  -271  -231  -200  -166  -141  -141  -164  -196  -222  -246  -283  -342  -408  -459  -491  -512  -528  -548  -591  -634  -609  -517  -469  -484  -407  -102  515  1489  2633  3496  3660  2964  1581  56  -978  -1247  -938  -480  -225  -228  -320  -357  -331  -287  -241  -189  -145  -128  -132  -118  -67  1  72  135  173  178  150  81  -12  -93  -140  -159  -156  -125  -60  21  92  144  185  217  224  197  169  201  332  538  736  847  856  792  700  640  636  665  718  839  1029  1218  1334  1374  1379  1384  1393  1385  1340  1267  1203  1170  1147  1054  808  432  72  -151  -240  -260  -268  -290  -321  -346  -368  -400  -446  -496  -562  -647  -721  -747  -718  -652  -585  -538  -510  -493  -479  -461  -445  -438  -440  -443  -444  -443  -440  -440  -446  -455  -454  -419  -345  -254  -171  -107  -66  -42  -31  -32  -66  -158  -276  -348  -353  -326  -308  -313  -336  -367  -389  -392  -386  -393  -408  -416  -417  -417  -418  -401  -352  -281  -220  -178  -139  -103  -108  -191  -341  -485  -564  -569  -506  -372  -174  44  219  298  251  68  -175  -348  -375  -282  -151  -59  -30  -34  -46  -63  -89  -113  -139  -193  -290  -397  -462  -464  -428  -399  -397  -380  -254  118  866  1930  2965  3576  3562  2890  1737  528  -353  -772  -771  -534  -294  -131  -37  -34  -95  -148  -168  -168  -167  -171  -178  -171  -145  -115  -95  -86  -85  -88  -96  -110  -127  -133  -125  -111  -98  -67  8  115  204  261  301  331  343  326  261  153  51  27  110  248  382  504  625  730  824  939  1079  1200  1266  1287  1295  1308  1320  1303  1242  1166  1120  1107  1080  986  820  620  419  253  154  120  114  107  82  28  -73  -203  -310  -374  -412  -442  -468  -487  -501  -507  -502  -482  -438  -368  -293  -244  -230  -233  -244  -259  -270  -274  -273  -280  -301  -326  -347  -353  -332  -290  -252  -226  -209  -194  -168  -140  -125  -123  -123  -122  -138  -187  -260  -313  -300  -202  -55  59  89  41  -34  -88  -111  -128  -155  -199  -268  -350  -412  -433  -410  -342  -252  -186  -168  -190  -245  -327  -414  -472  -487  -468  -433  -407  -409  -435  -461  -447  -388  -331  -308  -310  -321  -335  -351  -363  -371  -377  -376  -364  -344  -329  -324  -328  -340  -352  -344  -289  -196  -108  -60  -43  -39  -34  -23  -17  -43  -116  -228  -352  -453  -506  -496  -415  -301  -232  -265  -412  -670  -931  -929  -434  561  1901  3261  4111  4064  3203  1904  593  -333  -701  -672  -545  -483  -475  -468  -457  -453  -454  -440  -395  -325  -254  -192  -137  -98  -79  -68  -67  -85  -95  -76  -61  -93  -163  -222  -234  -217  -208  -192  -130  -39  37  102  176  250  302  334  365  394  409  412  433  497  589  667  720  775  850  934  1014  1084  1140  1171  1164  1129  1093  1091  1124  1167  1196  1208  1196  1132  989  801  651  563  488  366  171  -58  -241  -327  -342  -339  -352  -387  -426  -441  -432  -423  -426  -442  -466  -502  -551  -576  -543  -472  -404  -361  -340  -331  -326  -327  -345  -390  -452  -503  -531  -550  -561  -521  -387  -203  -82  -79  -148  -223  -279  -334  -405  -471  -487  -444  -384  -347  -347  -361  -344  -284  -228  -218  -255  -312  -352  -365  -362  -355  -350  -365  -417  -499  -580  -638  -670  -677  -650  -569  -442  -320  -256  -262  -305  -332  -314  -271  -231  -201  -190  -200  -225  -257  -300  -360  -434  -497  -518  -502  -472  -425  -361  -293  -231  -181  -141  -110  -91  -79  -64  -56  -68  -101  -148  -205  -275  -352  -429  -508  -592  -670  -715  -647  -403  -115  -19  -136  -305  -331  51  996  2205  3130  3432  3060  2147  1023  99  -447  -692  -715  -588  -454  -411  -430  -438  -398  -296  -150  -14  62  71  37  -10  -48  -68  -74  -81  -98  -122  -139  -140  -128  -95  -30  51  113  148  178  212  238  245  239  235  250  288  332  361  372  378  385  389  386  405  494  663  849  974  1028  1057  1088  1114  1118  1094  1056  1027  1014  1014  1025  1055  1097  1128  1120  1049  902  711  531  376  228  84  -39  -146  -250  -345  -431  -512  -575  -604  -603  -582  -551  -509  -446  -368  -306  -295  -334  -390  -422  -421  -412  -409  -411  -418  -435  -455  -451  -399  -324  -273  -253  -255  -277  -303  -311  -299  -277  -262  -256  -252  -245  -236  -232  -247  -296  -364  -421  -446  -431  -353  -213  -67  10  -4  -90  -202  -297  -358  -395  -419  -436  -452  -463  -470  -489  -530  -566  -545  -460  -363  -296  -258  -232  -211  -198  -191  -173  -141  -103  -66  -57  -100  -165  -223  -303  -423  -524  -513  -394  -269  -205  -202  -270  -413  -581  -718  -802  -795  -636  -255  456  1498  2607  3338  3306  2454  1136  -146  -1008  -1296  -1151  -899  -754  -679  -591  -515  -486  -466  -399  -284  -162  -59  18  63  70  53  26  2  -8  -12  -35  -106  -206  -281  -291  -231  -128  -28  34  55  50  27  -3  -26  -7  100  319  569  730  749  663  543  456  425  440  504  611  718  784  819  873  977  1107  1209  1262  1272  1244  1188  1119  1046  975  907  834  750  653  566  501  417  248  8  -218  -370  -443  -470  -482  -490  -492  -489  -487  -492  -494  -487  -479  -474  -464  -453  -455  -476  -498  -497  -459  -390  -317  -265  -240  -226  -208  -184  -164  -153  -134  -101  -85  -122  -184  -214  -210  -205  -206  -203  -196  -192  -195  -206  -221  -233  -244  -282  -379  -501  -562  -521  -418  -321  -275  -266  -247  -229  -249  -285  -291  -258  -203  -172  -191  -232  -257  -255  -232  -189  -134  -80  -45  -47  -101  -199  -300  -355  -355  -321  -284  -257  -260  -365  -593  -796  -823  -665  -296  344  1176  2044  2767  3053  2726  1910  851  -171  -868  -1120  -1028  -760  -429  -142  -11  -34  -115  -197  -266  -298  -288  -265  -255  -252  -226  -152  -65  -22  -22  -34  -48  -65  -88  -118  -145  -161  -153  -107  -17  83  154  188  210  219  199  147  76  4  -30  39  266  574  805  898  916  922  924  916  926  984  1052  1085  1106  1172  1297  1434  1522  1529  1445  1291  1122  981  834  625  386  220  167  181  197  162  40  -140  -301  -386  -412  -420  -423  -423  -424  -438  -478  -542  -613  -670  -703  -713  -702  -671  -621  -563  -505  -455  -425  -427  -445  -446  -425  -401  -384  -374  -369  -371  -378  -380  -352  -280  -192  -133  -108  -89  -68  -60  -92  -172  -271  -343  -367  -361  -351  -350  -356  -368  -390  -421  -455  -479  -486  -478  -463  -450  -443  -437  -419  -382  -335  -298  -283  -283  -285  -287  -295  -320  -359  -393  -411  -422  -435  -446  -450  -450  -472  -541  -641  -738  -805  -814  -787  -842  -1007  -1121  -945  -296  826  2140  3151  3408  2787  1587  321  -598  -1077  -1248  -1211  -1022  -803  -658  -600  -625  -706  -773  -795  -789  -773  -746  -713  -690  -687  -694  -699  -695  -685  -669  -641  -601  -566  -551  -557  -571  -571  -535  -473  -410  -352  -299  -265  -255  -255  -251  -236  -199  -131  -44  22  49  52  59  98  189  324  477  648  819  937  988  1011  1027  1020  996  980  972  955  915  822  650  425  220  87  25  -2  -44  -109  -183  -244  -278  -277  -246  -201  -167  -169  -224  -328  -452  -552  -604  -610  -580  -525  -454  -359  -226  -88  -10  4  6  18  36  62  104  158  199  212  205  189  172  155  127  78  31  41  124  240  334  380  382  345  280  208  153  124  114  115  118  119  119  112  97  78  56  29  -4  -48  -87  -99  -80  -32  60  183  280  310  288  255  233  221  218  228  246  264  276  276  268  255  242  233  230  232  236  232  195  98  -28  -115  -133  -110  -85  -66  -50  -54  -132  -328  -576  -684  -469  148  1143  2348  3408  3928  3747  2948  1722  432  -509  -929  -884  -512  -55  233  256  70  -198  -416  -517  -509  -422  -299  -176  -63  38  117  140  82  -33  -149  -232  -281  -304  -309  -301  -277  -234  -172  -87  0  62  89  99  109  126  134  117  80  49  52  103  185  277  388  535  691  813  873  885  879  876  886  928  1022  1150  1254  1297  1280  1208  1098  964  797  606  445  357  315  252  111  -96  -294  -431  -541  -669  -789  -861  -886  -876  -828  -749  -669  -614  -594  -599  -615  -640  -664  -659  -627  -606  -616  -648  -689  -737  -797  -854  -854  -742  -519  -299  -226  -291  -359  -372  -374  -408  -463  -501  -509  -502  -494  -482  -459  -425  -398  -400  -431  -469  -498  -516  -532  -539  -524  -480  -422  -366  -338  -365  -448  -548  -620  -641  -598  -478  -318  -203  -190  -274  -403  -516  -581  -609  -618  -622  -628  -619  -559  -426  -277  -210  -249  -334  -408  -451  -462  -425  -324  -187  -84  -44  -43  -53  -61  -56  -39  -23  -20  -31  -52  -78  -106  -143  -201  -272  -307  -244  -86  35  -39  -315  -640  -763  -369  714  2265  3698  4382  4045  2917  1515  376  -239  -466  -544  -565  -535  -457  -345  -236  -171  -152  -159  -174  -180  -146  -47  88  184  195  130  38  -27  -52  -50  -38  -21  0  20  39  57  86  149  256  371  443  461  453  444  440  444  460  485  506  528  563  612  671  751  841  915  966  1016  1071  1134  1207  1279  1330  1351  1343  1318  1289  1259  1220  1180  1129  1025  852  669  545  473  374  185  -47  -217  -285  -306  -345  -414  -487  -550  -607  -668  -732  -784  -810  -803  -762  -695  -600  -461  -297  -187  -207  -374  -609  -783  -833  -776  -643  -482  -360  -308  -306  -313  -307  -288  -286  -336  -438  -539  -574  -520  -425  -350  -314  -306  -322  -367  -443  -533  -600  -635  -653  -664  -672  -680  -688  -696  -707  -713  -678  -570  -415  -288  -226  -210  -215  -241  -304  -398  -492  -545  -542  -493  -422  -352  -300  -268  -253  -255  -274  -311  -366  -426  -457  -434  -363  -275  -212  -187  -179  -178  -186  -198  -187  -135  -62  -2  34  41  4  -68  -143  -189  -206  -216  -245  -294  -344  -377  -405  -447  -434  -237  82  209  -77  -637  -1013  -709  432  2053  3474  4115  3808  2791  1448  140  -818  -1239  -1130  -689  -230  3  6  -78  -155  -200  -218  -220  -215  -212  -225  -253  -278  -290  -292  -289  -264  -196  -95  -9  34  46  47  46  58  91  128  150  156  152  139  129  139  183  250  315  377  448  523  571  577  562  564  616  732  897  1057  1155  1183  1191  1214  1240  1241  1236  1251  1246  1161  1011  869  781  743  731  703  624  511  400  278  114  -69  -232  -356  -435  -466  -473  -483  -505  -533  -575  -637  -700  -740  -750  -720  -639  -531  -453  -426  -432  -449  -470  -494  -511  -513  -503  -492  -470  -421  -350  -286  -247  -234  -241  -254  -261  -274  -303  -342  -372  -380  -369  -342  -304  -262  -224  -217  -264  -351  -442  -510  -540  -537  -510  -470  -442  -442  -450  -451  -451  -457  -459  -424  -327  -207  -151  -200  -300  -368  -380  -366  -338  -279  -173  -44  49  82  57  -16  -119  -213  -288  -354  -408  -437  -442  -436  -439  -476  -543  -571  -490  -337  -197  -74  162  701  1602  2619  3291  3229  2342  916  -455  -1256  -1402  -1140  -755  -464  -339  -297  -257  -215  -182  -168  -184  -233  -306  -372  -374  -279  -138  -53  -74  -154  -222  -246  -232  -192  -142  -98  -54  12  119  262  398  481  510  503  448  330  218  222  352  503  597  632  633  621  610  609  631  688  790  935  1102  1243  1309  1295  1248  1223  1232  1241  1219  1177  1137  1088  991  825  627  459  344  269  208  129  13  -128  -266  -386  -490  -567  -593  -574  -532  -478  -437  -428  -446  -477  -518  -568  -615  -634  -604  -535  -466  -424  -401  -375  -342  -322  -330  -348  -358  -367  -354  -297  -230  -197  -194  -192  -171  -127  -78  -46  -47  -89  -180  -294  -377  -405  -400  -389  -380  -374  -371  -366  -353  -325  -287  -256  -242  -251  -299  -390  -495  -569  -582  -537  -450  -344  -252  -188  -135  -68  12  74  73  11  -72  -159  -251  -332  -387  -420  -436  -435  -412  -359  -267  -145  -41  -79  -383  -842  -1069  -758  99  1327  2594  3418  3449  2687  1416  85  -847  -1143  -884  -395  -56  -40  -214  -368  -436  -458  -458  -427  -365  -296  -245  -213  -182  -149  -125  -111  -105  -106  -115  -122  -126  -134  -148  -154  -130  -64  17  74  111  171  260  338  376  394  430  484  532  563  577  584  614  690  791  897  1011  1115  1178  1193  1185  1177  1169  1164  1172  1202  1245  1273  1270  1254  1214  1085  835  553  361  277  235  163  23  -158  -305  -377  -400  -409  -414  -412  -406  -413  -452  -519  -584  -635  -677  -704  -716  -721  -718  -696  -643  -560  -470  -408  -378  -360  -340  -322  -315  -328  -364  -412  -451  -455  -414  -339  -261  -208  -183  -171  -174  -217  -299  -385  -437  -449  -445  -444  -446  -447  -442  -436  -426  -413  -404  -403  -402  -392  -382  -384  -387  -371  -344  -329  -326  -307  -260  -208  -158  -97  -33  6  -1  -59  -140  -214  -287  -391  -517  -605  -615  -554  -464  -383  -317  -265  -250  -295  -420  -616  -826  -919  -699  -14  1096  2349  3297  3561  3080  2092  914  -130  -774  -974  -881  -658  -442  -334  -331  -365  -390  -394  -384  -373  -362  -337  -280  -186  -81  -15  -4  -27  -62  -88  -97  -102  -117  -143  -197  -288  -390  -448  -390  -177  111  321  389  378  357  353  363  377  384  385  398  448  550  679  780  820  817  807  809  842  936  1084  1230  1318  1347  1347  1345  1343  1326  1275  1195  1088  927  714  510  342  166  -44  -243  -363  -384  -343  -298  -277  -277  -292  -326  -370  -398  -404  -402  -405  -405  -384  -344  -319  -339  -388  -425  -438  -439  -437  -425  -395  -353  -316  -280  -234  -185  -153  -139  -135  -135  -152  -197  -255  -287  -269  -223  -185  -175  -198  -252  -321  -371  -386  -380  -376  -403  -471  -551  -569  -468  -266  -53  88  134  72  -112  -355  -529  -571  -513  -419  -335  -270  -223  -203  -224  -289  -376  -447  -472  -418  -257  -38  125  173  118  -5  -145  -248  -303  -326  -331  -321  -302  -287  -282  -289  -342  -504  -795  -1085  -1070  -416  931  2565  3825  4193  3581  2353  1034  39  -478  -643  -639  -559  -466  -406  -375  -344  -305  -284  -310  -363  -410  -452  -500  -537  -514  -414  -287  -201  -171  -173  -188  -218  -271  -335  -380  -390  -372  -334  -285  -225  -150  -72  -8  47  105  147  158  150  140  145  189  289  430  571  675  734  778  855  977  1099  1174  1198  1195  1188  1192  1218  1269  1331  1367  1310  1110  805  530  389  367  371  321  196  36  -103  -204  -277  -345  -429  -528  -604  -632  -625  -611  -612  -617  -607  -593  -590  -597  -606  -610  -595  -550  -486  -437  -418  -418  -422  -418  -405  -388  -378  -376  -367  -344  -337  -363  -383  -362  -316  -269  -232  -206  -203  -252  -371  -523  -627  -634  -552  -431  -323  -251  -229  -271  -360  -455  -514  -521  -496  -468  -444  -426  -419  -419  -416  -405  -388  -365  -336  -309  -292  -277  -247  -198  -139  -100  -104  -153  -224  -276  -284  -243  -165  -87  -45  -40  -52  -62  -74  -107  -169  -237  -284  -307  -325  -349  -374  -389  -400  -438  -541  -701  -810  -709  -257  650  1928  3179  3909  3825  2972  1713  538  -239  -579  -607  -498  -382  -333  -381  -467  -497  -447  -363  -304  -287  -285  -263  -208  -135  -68  -14  15  -24  -141  -260  -303  -256  -169  -103  -76  -76  -103  -170  -255  -289  -211  -31  160  283  339  383  437  479  494  490  485  489  518  600  757  950  1094  1154  1157  1143  1125  1106  1090  1080  1085  1121  1197  1288  1346  1322  1193  1000  843  764  705  572  325  33  -179  -266  -281  -285  -305  -328  -322  -279  -228  -207  -242  -335  -468  -593  -667  -687  -684  -682  -682  -677  -636  -527  -380  -272  -234  -237  -251  -273  -310  -360  -409  -433  -409  -327  -203  -81  -9  -13  -89  -204  -299  -342  -344  -327  -303  -272  -229  -185  -166  -196  -268  -348  -396  -413  -423  -440  -453  -449  -424  -389  -360  -339  -325  -319  -320  -320  -308  -279  -249  -240  -248  -257  -260  -260  -256  -246  -233  -221  -214  -210  -209  -220  -248  -285  -311  -321  -327  -346  -380  -416  -446  -476  -481  -416  -298  -272  -472  -834  -1106  -977  -264  938  2275  3248  3531  3175  2390  1390  419  -383  -969  -1226  -1132  -849  -571  -402  -332  -309  -307  -312  -316  -309  -288  -257  -234  -222  -213  -200  -188  -183  -185  -189  -195  -204  -216  -223  -225  -222  -218  -217  -220  -219  -191  -110  23  159  242  263  250  230  223  260  365  505  607  655  702  783  879  945  970  968  958  946  940  953  1001  1075  1147  1193  1203  1169  1067  867  580  264  0  -152  -205  -207  -169  -98  -73  -183  -425  -678  -822  -839  -782  -710  -665  -653  -657  -657  -647  -631  -619  -615  -617  -621  -623  -609  -569  -513  -465  -440  -444  -492  -596  -722  -800  -767  -603  -376  -210  -151  -165  -219  -303  -387  -423  -385  -291  -188  -114  -77  -73  -99  -165  -282  -418  -512  -542  -539  -530  -521  -510  -494  -462  -398  -302  -194  -97  -25  8  0  -27  -34  -7  22  22  -4  -35  -55  -66  -84  -115  -148  -178  -216  -263  -305  -335  -344  -320  -294  -306  -362  -445  -501  -378  108  993  2112  3137  3589  3151  1983  551  -640  -1235  -1230  -920  -604  -419  -348  -329  -323  -321  -319  -309  -277  -237  -215  -222  -251  -281  -294  -285  -256  -218  -193  -187  -185  -167  -125  -88  -87  -104  -94  -71  -101  -185  -234  -172  -15  141  219  230  244  323  463  607  710  767  803  845  911  988  1049  1099  1169  1262  1340  1375  1372  1344  1297  1235  1170  1120  1092  1054  957  802  643  527  436  325  163  -32  -215  -341  -393  -390  -367  -366  -397  -439  -471  -490  -505  -520  -534  -550  -571  -581  -571  -557  -532  -488  -435  -364  -257  -143  -94  -161  -333  -524  -640  -639  -542  -414  -324  -297  -304  -317  -323  -324  -323  -322  -320  -319  -320  -323  -324  -317  -300  -284  -278  -280  -283  -269  -227  -169  -118  -92  -106  -172  -271  -363  -418  -423  -370  -270  -155  -68  -19  7  20  -6  -104  -242  -347  -387  -390  -398  -437  -499  -551  -574  -557  -485  -368  -248  -190  -281  -539  -765  -606  176  1479  2848  3731  3777  2929  1448  -107  -1195  -1608  -1391  -755  -113  189  131  -98  -303  -391  -372  -281  -156  -47  9  4  -39  -83  -106  -112  -113  -117  -126  -139  -156  -175  -192  -183  -116  -12  63  80  62  38  24  25  42  73  113  157  238  387  581  751  853  895  916  945  1001  1099  1216  1299  1330  1337  1346  1357  1366  1374  1385  1384  1332  1195  996  795  641  543  482  426  343  207  35  -109  -194  -252  -313  -369  -412  -462  -533  -615  -696  -766  -812  -829  -820  -785  -734  -690  -673  -675  -661  -595  -480  -362  -292  -273  -286  -325  -387  -452  -493  -505  -492  -455  -404  -356  -328  -321  -325  -319  -282  -209  -122  -88  -129  -166  -134  -72  -58  -151  -360  -600  -755  -788  -739  -659  -582  -515  -439  -358  -304  -287  -288  -287  -288  -314  -386  -485  -562  -588  -567  -510  -448  -417  -419  -428  -415  -353  -231  -67  117  287  387  371  236  45  -107  -183  -211  -230  -260  -289  -316  -357  -417  -477  -523  -541  -519  -468  -452  -469  -320  260  1318  2578  3539  3739  3072  1834  565  -249  -496  -420  -300  -264  -298  -327  -322  -309  -306  -311  -313  -288  -221  -139  -98  -105  -136  -178  -228  -278  -303  -270  -196  -136  -118  -122  -116  -75  6  104  172  185  150  91  40  22  44  105  187  261  316  355  376  378  380  415  521  695  875  986  1015  1005  999  1010  1034  1062  1100  1150  1202  1244  1270  1281  1270  1217  1094  881  584  262  11  -124  -188  -248  -323  -400  -470  -528  -545  -494  -392  -303  -286  -340  -427  -507  -555  -569  -559  -520  -449  -386  -394  -477  -566  -602  -583  -546  -517  -488  -432  -356  -297  -275  -275  -270  -239  -180  -121  -101  -135  -196  -241  -252  -244  -236  -235  -244  -266  -308  -373  -445  -489  -476  -393  -265  -147  -83  -94  -172  -287  -412  -517  -563  -524  -430  -333  -261  -215  -194  -193  -200  -206  -212  -229  -269  -325  -375  -414  -451  -483  -497  -480  -430  -363  -300  -254  -239  -256  -295  -333  -339  -288  -204  -140  -115  -117  -135  -156  -159  -123  -41  77  200  277  284  225  108  -34  -144  -199  -216  -223  -226  -229  -230  -220  -194  -161  -148  -177  -234  -277  -307  -400  -578  -654  -366  417  1637  2997  4006  4221  3543  2276  891  -180  -698  -742  -558  -342  -220  -239  -321  -372  -383  -379  -363  -327  -278  -241  -224  -218  -211  -202  -195  -194  -198  -201  -192  -158  -105  -57  -36  -50  -104  -177  -230  -236  -188  -103  0  97  183  256  313  354  387  419  458  504  553  595  626  646  675  738  841  959  1055  1105  1116  1109  1103  1103  1105  1104  1099  1076  1021  941  853  753  644  547  468  375  232  47  -121  -224  -263  -285  -340  -443  -553  -619  -626  -592  -546  -508  -480  -457  -442  -437  -439  -437  -429  -418  -410  -410  -416  -416  -392  -335  -284  -295  -351  -378  -352  -315  -298  -297  -301  -304  -308  -316  -320  -303  -250  -176  -118  -100  -121  -172  -233  -274  -287  -285  -283  -287  -302  -331  -372  -411  -427  -414  -392  -380  -377  -372  -357  -328  -298  -289  -316  -367  -414  -439  -436  -398  -324  -252  -243  -294  -345  -363  -365  -373  -399  -443  -490  -519  -530  -530  -510  -458  -386  -331  -305  -299  -310  -345  -390  -412  -392  -350  -325  -342  -391  -450  -501  -537  -549  -521  -435  -310  -203  -148  -131  -129  -130  -133  -146  -171  -198  -221  -255  -324  -413  -474  -477  -425  -350  -290  -250  -233  -262  -357  -535  -786  -933  -687  76  1259  2595  3632  3946  3422  2232  775  -427  -1062  -1138  -846  -441  -138  -12  -8  -39  -69  -104  -138  -158  -178  -223  -294  -354  -369  -334  -278  -237  -224  -226  -223  -206  -178  -147  -112  -64  -5  46  79  97  114  144  195  256  320  379  424  452  479  512  545  583  642  719  788  845  911  999  1089  1142  1153  1149  1165  1229  1326  1411  1448  1425  1337  1210  1101  1041  1016  1005  986  914  728  445  186  34  -51  -153  -271  -352  -376  -370  -356  -338  -317  -297  -282  -279  -308  -384  -485  -560  -589  -592  -596  -597  -563  -462  -321  -210  -163  -161  -188  -244  -306  -330  -307  -261  -204  -133  -61  -26  -46  -100  -165  -231  -274  -266  -207  -146  -145  -202  -260  -281  -273  -255  -234  -208  -185  -189  -237  -313  -374  -376  -328  -280  -268  -293  -338  -385  -424  -455  -477  -483  -458  -395  -318  -267  -252  -254  -254  -254  -273  -319  -379  -424  -444  -431  -369  -259  -149  -101  -134  -209  -272  -296  -270  -187  -71  22  63  61  39  10  -11  -19  -11  3  10  -5  -49  -101  -141  -172  -212  -247  -256  -261  -306  -424  -598  -770  -890  -861  -485  371  1591  2792  3497  3380  2468  1150  -53  -789  -994  -805  -453  -224  -246  -377  -430  -364  -249  -170  -158  -179  -200  -217  -238  -271  -321  -366  -364  -297  -191  -88  -18  17  32  28  1  -42  -97  -146  -171  -148  -53  99  247  306  253  148  77  73  112  171  265  404  551  657  724  805  947  1121  1243  1285  1282  1270  1252  1227  1210  1215  1238  1250  1215  1125  1017  940  891  805  632  422  269  183  92  -55  -226  -345  -381  -373  -372  -413  -504  -620  -708  -726  -687  -644  -625  -616  -593  -552  -504  -457  -407  -332  -239  -174  -184  -277  -409  -503  -522  -476  -403  -338  -304  -304  -323  -343  -357  -359  -332  -262  -168  -101  -87  -115  -158  -201  -247  -294  -327  -336  -333  -336  -353  -379  -403  -423  -440  -451  -450  -438  -419  -404  -396  -392  -386  -371  -340  -300  -265  -246  -242  -248  -261  -278  -291  -288  -254  -184  -94  -23  3  -5  -41  -116  -218  -309  -368  -399  -408  -404  -408  -444  -503  -520  -454  -389  -440  -604  -707  -450  392  1731  3103  3900  3746  2685  1115  -350  -1204  -1354  -1044  -592  -242  -102  -135  -228  -305  -344  -344  -323  -312  -314  -306  -280  -236  -183  -145  -134  -139  -148  -151  -140  -110  -60  -2  40  60  68  69  65  58  50  53  79  131  191  232  251  271  303  334  356  390  471  607  763  889  960  979  967  952  960  1000  1074  1175  1275  1338  1351  1316  1222  1064  870  709  619  578  544  471  312  83  -122  -240  -296  -351  -419  -478  -529  -583  -631  -651  -638  -610  -589  -579  -575  -572  -568  -559  -537  -494  -436  -390  -372  -372  -375  -376  -370  -355  -330  -302  -284  -277  -272  -270  -281  -316  -370  -421  -459  -485  -501  -509  -508  -487  -435  -368  -318  -296  -292  -295  -299  -311  -340  -384  -426  -447  -441  -403  -329  -239  -175  -167  -223  -322  -415  -459  -461  -443  -407  -344  -268  -214  -197  -198  -191  -174  -163  -152  -125  -100  -110  -148  -187  -219  -259  -312  -366  -410  -464  -551  -618  -589  -492  -443  -488  -508  -263  449  1611  2887  3736  3747  2887  1459  -26  -1038  -1327  -1039  -550  -215  -153  -241  -324  -354  -351  -337  -321  -309  -310  -324  -342  -357  -362  -345  -301  -249  -222  -225  -234  -230  -200  -128  -21  75  127  136  122  99  77  62  55  52  57  89  167  282  404  512  602  679  763  873  992  1076  1106  1092  1062  1048  1060  1090  1122  1143  1156  1183  1239  1309  1366  1389  1358  1238  1012  723  433  195  45  -30  -79  -129  -193  -286  -394  -477  -514  -517  -497  -456  -413  -408  -455  -540  -629  -690  -715  -727  -736  -723  -655  -526  -375  -251  -182  -180  -238  -317  -368  -372  -338  -291  -258  -244  -239  -240  -269  -348  -456  -533  -552  -529  -495  -467  -438  -392  -323  -250  -204  -207  -258  -329  -380  -391  -374  -350  -334  -330  -333  -336  -330  -309  -281  -260  -255  -263  -277  -286  -272  -222  -153  -99  -80  -98  -153  -228  -283  -285  -224  -127  -46  -8  -7  -33  -73  -124  -187  -248  -282  -264  -182  -66  19  22  -79  -268  -472  -573  -496  -324  -214  -186  -98  260  1030  2077  3009  3450  3212  2353  1173  104  -538  -720  -625  -480  -399  -360  -297  -198  -107  -52  -34  -58  -130  -228  -305  -335  -322  -272  -206  -150  -115  -108  -139  -195  -227  -197  -102  23  126  159  115  43  19  83  194  278  313  336  376  424  459  484  513  544  567  584  608  639  672  728  839  1009  1209  1385  1491  1520  1498  1446  1386  1346  1333  1333  1325  1292  1206  1042  792  494  220  19  -99  -162  -212  -266  -314  -364  -438  -525  -582  -592  -565  -526  -496  -484  -483  -476  -453  -418  -384  -363  -351  -344  -342  -346  -362  -387  -409  -419  -396  -324  -217  -122  -69  -58  -68  -80  -88  -108  -132  -128  -87  -41  -18  -34  -98  -206  -327  -404  -409  -369  -326  -305  -295  -273  -220  -141  -69  -43  -61  -90  -111  -136  -170  -209  -251  -292  -321  -335  -345  -346  -321  -268  -213  -199  -245  -329  -407  -459  -489  -504  -501  -448  -306  -86  133  277  344  368  362  313  212  78  -43  -130  -198  -260  -305  -321  -318  -311  -304  -278  -209  -110  -11]
