reading_id,reading_time,wire_id,result_classification,heart_rate,heart_rate_alert,firmware_version,device_app_version,hardware_version,waveform_samples
3069f040-688d-11ed-8080-808080808080,Sun Nov 20 04:38:33 UTC 2022,8100e3ea1a39,NSR,99,NONE,20001.171.50,2.10.0,Charge 5,[5914  6413  7089  7897  8737  9554  10243  10741  11118  11476  11879  12336  12802  13278  13835  14461  15047  15521  15902  16221  16454  16577  16603  16521  16284  15924  15540  15188  14896  14711  14635  14608  14568  14484  14338  14095  13724  13283  12920  12723  12620  12488  12312  12136  11901  11480  10882  10263  9758  9421  9212  8966  8501  7821  7119  6577  6226  5986  5845  5868  5992  6117  6206  6109  5712  5128  4496  3887  3401  3086  2871  2679  2442  2031  1461  972  723  630  510  230  -202  -655  -1005  -1260  -1539  -1935  -2390  -2750  -2938  -3019  -3105  -3261  -3489  -3734  -3924  -4038  -4036  -3756  -3064  -2172  -1506  -1275  -1484  -2167  -3192  -4151  -4737  -4988  -5083  -5133  -5168  -5180  -5162  -5124  -5094  -5106  -5187  -5347  -5542  -5683  -5732  -5735  -5763  -5864  -6041  -6236  -6365  -6403  -6369  -6275  -6133  -5977  -5838  -5735  -5664  -5595  -5500  -5398  -5318  -5252  -5169  -5071  -4993  -4953  -4937  -4904  -4813  -4678  -4543  -4431  -4363  -4341  -4319  -4278  -4240  -4209  -4173  -4117  -4031  -3923  -3824  -3761  -3739  -3741  -3768  -3846  -3992  -4164  -4282  -4322  -4326  -4336  -4357  -4375  -4372  -4343  -4275  -4176  -4087  -4042  -4027  -4022  -4024  -4031  -4011  -3925  -3771  -3589  -3398  -3196  -3012  -2888  -2832  -2828  -2847  -2832  -2760  -2677  -2622  -2594  -2574  -2552  -2535  -2535  -2555  -2585  -2613  -2624  -2596  -2509  -2384  -2258  -2134  -2017  -1954  -1973  -2045  -2114  -2125  -2051  -1901  -1714  -1550  -1455  -1433  -1482  -1592  -1720  -1807  -1821  -1763  -1655  -1535  -1448  -1421  -1477  -1622  -1783  -1827  -1767  -1737  -1675  -1367  -786  59  1174  2216  2673  2365  1417  147  -920  -1403  -1375  -1157  -1000  -996  -1067  -1066  -922  -703  -544  -531  -652  -827  -950  -959  -863  -718  -604  -553  -543  -542  -539  -535  -525  -501  -462  -416  -356  -270  -175  -94  -9  117  279  432  550  628  677  728  806  891  949  976  993  1013  1033  1046  1045  1022  987  958  943  931  903  856  808  778  761  710  564  321  75  -75  -139  -182  -235  -279  -300  -305  -305  -292  -256  -199  -145  -119  -139  -198  -259  -279  -249  -187  -112  -45  12  71  128  169  190  194  193  198  216  247  281  303  311  309  305  303  316  360  425  470  455  373  264  186  158  162  172  180  204  273  403  580  746  811  728  541  336  178  95  75  87  117  165  213  225  170  76  28  18  -59  -206  -331  -334  -16  830  2159  3572  4531  4664  3930  2654  1374  462  -44  -243  -261  -238  -228  -213  -191  -186  -225  -310  -396  -407  -306  -137  -1  56  66  73  97  132  164  189  215  238  235  188  110  55  83  173  247  269  267  274  301  340  390  478  623  792  926  1008  1057  1077  1061  1023  988  964  927  866  802  749  717  703  671  585  468  358  267  191  126  68  19  -14  -32  -42  -46  -45  -41  -42  -61  -113  -183  -246  -293  -317  -306  -264  -224  -203  -192  -167  -119  -55  6  48  64  60  47  30  19  38  104  198  275  317  336  339  306  211  65  -60  -112  -102  -71  -55  -51  -28  8  34  52  72  99  146  208  259  290  320  367  426  457  399  243  60  -76  -158  -223  -292  -345  -368  -375  -378  -354  -279  -219  -325  -637  -992  -1118  -729  340  1922  3500  4494  4585  3806  2520  1277  447  42  -90  -138  -240  -356  -409  -457  -552  -637  -657  -638  -623  -623  -616  -560  -427  -260  -141  -99  -97  -93  -78  -63  -56  -56  -60  -65  -73  -74  -40  46  158  243  292  338  386  403  384  362  365  379  377  360  358  394  452  493  508  524  574  651  721  748  714  618  502  419  382  360  324  255  137  -23  -179  -284  -343  -376  -384  -383  -396  -423  -448  -462  -468  -469  -454  -411  -351  -304  -286  -287  -294  -294  -284  -273  -275  -288  -302  -310  -312  -304  -277  -236  -199  -177  -168  -177  -203  -230  -247  -256  -264  -269  -268  -261  -250  -243  -247  -265  -297  -336  -363  -349  -281  -181  -103  -73  -77  -86  -98  -127  -172  -204  -214  -219  -243  -292  -345  -377  -385  -383  -384  -387  -383  -345  -249  -109  -22  -116  -443  -907  -1215  -999  -79  1438  3134  4373  4710  4119  2889  1536  561  103  -21  -80  -259  -497  -604  -568  -518  -502  -479  -410  -314  -250  -244  -269  -295  -317  -333  -345  -359  -364  -343  -300  -245  -193  -158  -140  -115  -65  3  66  115  143  138  107  79  71  78  106  181  314  452  531  551  563  614  699  775  817  830  825  796  736  658  586  522  448  353  241  123  27  -31  -63  -79  -76  -60  -47  -51  -75  -116  -196  -360  -576  -723  -742  -684  -610  -547  -503  -467  -432  -403  -376  -352  -339  -338  -338  -333  -330  -336  -353  -374  -400  -434  -470  -504  -542  -575  -582  -562  -520  -457  -378  -299  -242  -213  -203  -201  -200  -201  -219  -283  -386  -445  -402  -318  -273  -272  -288  -298  -277  -203  -89  7  53  61  61  68  65  10  -131  -327  -491  -573  -596  -596  -581  -533  -453  -377  -337  -309  -292  -392  -660  -905  -811  -136  1204  2937  4391  4963  4524  3344  1892  705  91  -74  -141  -290  -465  -554  -529  -455  -391  -349  -319  -307  -316  -326  -303  -241  -173  -130  -118  -121  -108  -78  -73  -128  -217  -273  -253  -170  -73  -23  -39  -70  -67  -38  -23  -28  5  120  274  400  473  503  521  566  645  731  807  881  950  998  1021  1023  984  876  733  620  551  483  404  330  250  140  9  -106  -188  -239  -266  -275  -276  -271  -251  -210  -170  -155  -153  -137  -120  -129  -164  -206  -240  -270  -299  -311  -289  -251  -224  -218  -219  -211  -198  -191  -191  -194  -211  -265  -344  -402  -419  -413  -395  -363  -323  -295  -290  -300  -307  -301  -284  -268  -261  -267  -279  -292  -305  -324  -350  -372  -370  -311  -182  -34  61  91  92  89  67  -5  -134  -290  -432  -526  -566  -578  -583  -581  -558  -501  -443  -476  -643  -850  -965  -850  -284  823  2144  3181  3605  3299  2391  1278  399  -86  -286  -343  -376  -454  -528  -523  -448  -355  -287  -262  -273  -286  -291  -308  -343  -367  -352  -300  -249  -238  -263  -286  -283  -262  -241  -228  -201  -143  -64  7  81  161  202  186  193  268  349  383  381  375  391  435  498  556  587  592  594  613  654  696  719  724  726  736  744  709  582  382  201  103  68  46  0  -85  -195  -307  -398  -452  -472  -473  -463  -437  -405  -380  -372  -375  -379  -358  -286  -176  -86  -55  -76  -112  -141  -171  -202  -217  -213  -193  -161  -117  -63  -11  22  32  2  -86  -212  -317  -370  -365  -319  -274  -257  -258  -254  -228  -173  -101  -40  0  30  66  103  135  153  141  81  -20  -133  -251  -380  -498  -570  -591  -583  -560  -521  -471  -433  -425  -450  -510  -614  -755  -817  -573  136  1266  2514  3397  3560  2950  1766  411  -610  -1025  -953  -689  -447  -300  -252  -269  -289  -284  -263  -248  -255  -284  -321  -353  -369  -336  -238  -123  -52  -36  -48  -76  -124  -180  -219  -235  -252  -284  -296  -231  -87  74  199  267  298  314  321  317  312  336  421  553  674  740  758  759  758  758  761  767  770  751  693  613  555  533  517  484  425  325  191  59  -59  -179  -296  -379  -419  -438  -463  -501  -544  -579  -589  -569  -540  -523  -518  -512  -497  -474  -453  -443  -439  -433  -428  -429  -434  -439  -434  -406  -344  -263  -200  -162  -132  -108  -97  -96  -100  -107  -117  -122  -120  -118  -119  -115  -94  -57  -20  2  11  28  76  146  201  204  135  -3  -169  -296  -354  -366  -372  -391  -419  -451  -483  -505  -482  -407  -373  -469  -621  -629  -257  607  1848  3120  3907  3812  2903  1612  386  -463  -810  -817  -739  -640  -504  -392  -348  -343  -340  -331  -330  -359  -429  -535  -639  -697  -701  -668  -624  -592  -579  -574  -553  -496  -410  -324  -248  -170  -85  8  106  168  144  73  52  105  175  236  298  368  441  518  622  762  899  985  1012  993  931  830  723  650  619  611  605  601  605  604  545  384  166  2  -62  -76  -85  -106  -152  -231  -336  -448  -546  -621  -675  -710  -707  -649  -564  -504  -490  -489  -447  -342  -206  -102  -51  -39  -49  -75  -110  -138  -151  -152  -150  -149  -146  -135  -115  -88  -61  -42  -41  -65  -103  -131  -145  -150  -153  -154  -141  -85  28  164  262  299  291  249  164  42  -94  -220  -324  -409  -478  -524  -552  -572  -554  -452  -338  -369  -584  -853  -954  -617  327  1781  3334  4386  4491  3653  2284  926  -34  -511  -668  -706  -663  -513  -335  -231  -209  -223  -240  -256  -272  -277  -258  -229  -215  -235  -279  -306  -283  -230  -183  -153  -142  -141  -131  -93  -35  15  46  61  67  65  63  76  106  133  139  137  144  170  236  352  485  574  601  605  621  652  679  691  695  697  691  654  568  458  380  359  379  404  378  229  -46  -327  -470  -463  -400  -359  -361  -395  -454  -531  -606  -653  -653  -599  -508  -413  -351  -332  -340  -352  -345  -297  -206  -102  -30  -15  -34  -48  -43  -22  -4  -1  -1  1  -2  -21  -50  -78  -100  -120  -132  -134  -134  -137  -142  -137  -98  -14  95  179  181  67  -128  -325  -472  -568  -642  -704  -743  -760  -777  -803  -848  -937  -1066  -1161  -1185  -1194  -1199  -1124  -828  -85  1185  2680  3875  4375  4009  2900  1537  443  -179  -352  -205  18  75  -64  -238  -337  -386  -412  -412  -389  -355  -311  -247  -169  -102  -62  -46  -38  -27  -15  -19  -69  -169  -279  -347  -368  -365  -345  -301  -234  -163  -105  -51  29  158  299  394  428  426  415  408  410  434  488  555  607  636  649  656  663  657  608  499  368  276  228  175  82  -48  -192  -308  -377  -416  -455  -489  -498  -493  -505  -540  -590  -636  -636  -575  -509  -493  -527  -580  -627  -657  -677  -695  -697  -662  -604  -553  -527  -515  -504  -494  -495  -504  -508  -500  -467  -401  -305  -207  -142  -116  -115  -144  -214  -287  -303  -264  -207  -139  -76  -43  -31  -25  -21  -23  -36  -66  -120  -195  -267  -308  -318  -309  -293  -281  -296  -355  -433  -477  -479  -508  -652  -891  -1034  -819  -28  1352  2946  4155  4551  4006  2766  1405  402  -123  -259  -227  -294  -464  -526  -435  -332  -295  -299  -307  -312  -324  -349  -373  -377  -360  -335  -311  -293  -285  -283  -297  -338  -396  -439  -424  -335  -203  -89  -21  4  -4  -37  -68  -72  -34  42  130  215  316  435  525  568  605  668  741  790  811  826  847  866  875  868  840  792  731  663  592  521  442  342  213  68  -72  -183  -251  -281  -286  -277  -261  -243  -234  -246  -275  -281  -235  -180  -167  -198  -252  -309  -350  -363  -348  -306  -240  -166  -104  -66  -56  -69  -102  -144  -175  -187  -184  -160  -104  -32  13  16  0  -12  -14  -12  -12  -23  -51  -88  -121  -156  -189  -185  -105  24  138  199  220  219  179  79  -62  -180  -234  -241  -232  -219  -201  -176  -151  -139  -160  -244  -389  -573  -787  -911  -652  219  1634  3224  4433  4794  4203  2919  1442  295  -287  -433  -409  -423  -535  -707  -906  -1087  -1184  -1170  -1053  -875  -719  -643  -631  -641  -654  -669  -681  -667  -622  -579  -557  -524  -448  -332  -197  -68  22  46  23  -5  -25  -42  -50  -31  22  99  180  253  307  332  341  380  487  635  743  768  726  659  606  585  589  605  618  610  555  439  287  154  75  27  -36  -137  -241  -319  -378  -435  -494  -555  -618  -677  -722  -748  -758  -760  -745  -696  -622  -561  -536  -537  -547  -551  -545  -524  -491  -464  -454  -450  -423  -371  -327  -316  -321  -315  -292  -261  -232  -214  -203  -196  -202  -243  -327  -406  -408  -337  -264  -231  -228  -230  -230  -231  -244  -273  -309  -334  -325  -270  -162  -36  46  70  67  53  31  4  -27  -74  -131  -185  -230  -273  -309  -327  -331  -335  -348  -354  -323  -307  -447  -787  -1157  -1212  -583  826  2661  4261  5004  4648  3455  2017  908  342  144  35  -133  -334  -467  -505  -518  -553  -583  -583  -562  -538  -504  -429  -313  -206  -142  -103  -62  -23  5  24  34  34  33  40  56  72  80  82  89  120  183  242  259  250  239  229  240  283  343  420  522  635  739  813  848  843  810  772  754  763  783  798  793  737  608  440  297  220  193  166  103  9  -101  -227  -332  -354  -298  -240  -242  -305  -393  -462  -490  -493  -487  -475  -455  -442  -458  -499  -536  -548  -544  -538  -531  -511  -477  -447  -433  -426  -418  -402  -381  -375  -401  -448  -483  -496  -496  -498  -498  -481  -431  -363  -312  -290  -288  -292  -299  -304  -307  -310  -317  -333  -358  -396  -430  -411  -326  -230  -165  -115  -71  -57  -92  -159  -217  -244  -247  -241  -234  -228  -236  -278  -358  -442  -494  -506  -495  -467  -439  -493  -719  -1046  -1211  -867  199  1796  3358  4305  4327  3479  2154  886  24  -374  -429  -352  -308  -314  -346  -388  -412  -411  -396  -379  -367  -375  -414  -460  -485  -489  -484  -482  -486  -485  -456  -378  -257  -123  -12  48  57  29  -9  -10  54  157  261  365  461  521  538  524  494  458  439  450  486  549  657  794  882  880  846  835  846  869  892  909  916  901  829  667  445  251  128  52  -17  -103  -202  -284  -338  -375  -416  -473  -528  -546  -522  -494  -491  -507  -523  -521  -482  -396  -297  -236  -230  -251  -269  -276  -277  -279  -285  -287  -280  -286  -329  -385  -411  -394  -349  -301  -265  -237  -218  -219  -244  -281  -306  -308  -296  -278  -245  -201  -165  -153  -158  -168  -168  -157  -138  -115  -81  -27  47  147  255  334  353  298  178  15  -145  -262  -331  -383  -435  -473  -483  -476  -446  -363  -257  -294  -581  -932  -1008  -536  599  2170  3593  4287  4004  2890  1414  162  -512  -614  -399  -196  -148  -189  -247  -293  -312  -310  -305  -309  -328  -359  -389  -419  -454  -489  -499  -469  -431  -417  -427  -436  -424  -388  -356  -343  -342  -340  -322  -276  -216  -175  -157  -126  -63  15  105  207  307  391  461  519  576  636  683  713  742  789  849  898  905  858  787  731  707  698  679  615  474  264  52  -88  -155  -186  -206  -224  -259  -331  -437  -546  -620  -649  -650  -643  -632  -615  -592  -565  -530  -470  -387  -309  -264  -258  -299  -394  -497  -519  -444  -337  -252  -199  -175  -174  -185  -217  -286  -375  -439  -461  -460  -460  -468  -478  -482  -471  -427  -354  -290  -258  -242  -219  -174  -107  -36  23  90  178  275  357  390  328  156  -72  -260  -348  -362  -344  -316  -275  -232  -212  -231  -253  -205  -97  -68  -240  -495  -449  221  1446  2813  3781  3918  3159  1872  600  -267  -607  -545  -400  -406  -485  -473  -389  -330  -322  -344  -371  -390  -402  -408  -390  -333  -256  -198  -175  -165  -146  -115  -76  -41  -19  -13  -13  -15  -19  -29  -34  -18  10  33  48  66  100  153  215  285  367  470  613  800  968  1023  962  871  816  803  819  838  839  817  775  714  635  547  461  374  269  150  37  -69  -168  -233  -255  -256  -252  -246  -246  -275  -356  -462  -531  -528  -469  -396  -349  -340  -348  -356  -363  -377  -397  -414  -411  -390  -369  -363  -366  -360  -314  -211  -84  4  36  34  17  -10  -44  -67  -68  -55  -34  -4  29  54  63  59  58  68  80  72  31  -30  -81  -108  -121  -127  -119  -93  -52  -22  -40  -108  -204  -316  -419  -477  -487  -479  -468  -450  -462  -576  -793  -998  -968  -448  620  2026  3356  4073  3856  2855  1512  322  -349  -462  -295  -178  -233  -372  -471  -501  -502  -501  -502  -505  -506  -510  -523  -541  -539  -494  -421  -354  -312  -293  -288  -288  -287  -286  -286  -289  -289  -273  -234  -184  -141  -105  -67  -35  -23  -30  -29  4  62  116  175  283  440  584  663  680  648  566  456  362  314  320  362  375  314  227  181  180  195  205  196  160  95  -17  -210  -471  -710  -811  -739  -567  -403  -306  -274  -273  -281  -290  -303  -323  -346  -361  -366  -364  -359  -355  -353  -353  -352  -342  -326  -311  -307  -313  -317  -302  -250  -157  -61  -6  -8  -54  -115  -158  -170  -164  -159  -168  -200  -244  -282  -316  -354  -366  -307  -181  -35  77  133  146  131  87  6  -102  -207  -274  -308  -344  -392  -431  -450  -463  -475  -481  -461  -379  -267  -262  -452  -756  -995  -922  -311  854  2290  3552  4235  4092  3183  1920  814  157  -42  22  82  20  -78  -132  -153  -188  -245  -298  -332  -363  -402  -439  -449  -414  -345  -279  -243  -236  -244  -250  -237  -194  -133  -83  -51  -23  19  84  165  245  309  346  359  360  356  354  363  390  424  461  514  592  673  727  750  758  772  794  804  783  735  672  597  527  491  478  434  309  134  -9  -95  -160  -219  -268  -313  -363  -420  -471  -507  -530  -549  -571  -594  -613  -618  -599  -546  -479  -429  -410  -407  -409  -409  -406  -404  -413  -433  -449  -449  -441  -428  -398  -349  -294  -250  -228  -243  -303  -386  -447  -457  -423  -363  -295  -238  -201  -171  -136  -120  -170  -299  -448  -523  -483  -375  -278  -229  -215  -212  -202  -179  -148  -114  -88  -90  -134  -196  -236  -252  -283  -357  -437  -462  -431  -374  -293  -186  -81  -73  -261  -581  -767  -511  372  1781  3258  4244  4413  3780  2646  1447  565  112  -78  -167  -178  -140  -123  -142  -175  -213  -260  -317  -380  -431  -458  -471  -483  -491  -493  -500  -508  -491  -424  -291  -126  -9  11  -41  -118  -175  -202  -207  -184  -135  -88  -59  -34  2  57  135  238  345  433  498  540  561  575  599  642  693  731  746  747  734  705  669  645  634  597  490  320  151  29  -53  -122  -207  -319  -435  -525  -576  -591  -582  -576  -580  -573  -569  -604  -659  -690  -676  -616  -538  -484  -468  -464  -449  -424  -404  -401  -412  -426  -441  -459  -468  -443  -368  -262  -173  -136  -160  -229  -309  -362  -382  -386  -386  -381  -362  -326  -292  -286  -306  -326  -337  -339  -332  -315  -288  -255  -222  -188  -156  -136  -131  -126  -109  -78  -41  -8  14  20  -7  -84  -186  -271  -331  -387  -441  -484  -517  -549  -567  -544  -482  -426  -452  -637  -932  -1071  -678  421  2026  3661  4727  4791  3897  2506  1180  318  -6  -52  -146  -378  -578  -597  -501  -435  -437  -469  -492  -502  -515  -538  -546  -499  -403  -312  -260  -245  -247  -251  -248  -236  -220  -207  -184  -125  -29  66  122  140  152  182  229  273  299  307  302  294  308  377  514  684  821  888  901  890  869  840  820  839  917  1031  1117  1107  965  713  440  230  100  30  -4  -25  -48  -82  -123  -158  -174  -178  -192  -237  -301  -347  -368  -382  -407  -445  -492  -533  -555  -559  -557  -557  -558  -539  -482  -395  -317  -271  -255  -254  -255  -252  -253  -269  -304  -352  -396  -419  -420  -420  -433  -453  -466  -464  -462  -491  -568  -658  -701  -667  -566  -445  -372  -369  -394  -411  -418  -422  -423  -415  -389  -339  -260  -164  -81  -35  -20  -12  2  10  -8  -57  -116  -169  -209  -241  -269  -297  -318  -312  -249  -140  -80  -168  -435  -803  -1045  -876  -75  1377  3112  4503  5026  4541  3327  1878  663  -67  -350  -361  -292  -275  -317  -358  -377  -386  -394  -401  -397  -371  -314  -235  -158  -98  -57  -47  -66  -98  -132  -175  -251  -367  -470  -482  -406  -304  -207  -123  -84  -107  -167  -218  -240  -231  -182  -73  99  295  451  539  581  623  699  798  872  903  906  900  892  876  850  812  758  693  626  547  453  369  305  240  155  60  -23  -92  -157  -223  -292  -356  -395  -392  -352  -301  -272  -270  -276  -277  -274  -278  -287  -299  -319  -348  -369  -375  -371  -363  -357  -357  -362  -365  -341  -272  -194  -157  -175  -221  -256  -266  -275  -305  -362  -427  -471  -459  -383  -297  -256  -255  -268  -280  -284  -259  -186  -87  -15  16  33  58  87  112  131  144  128  57  -48  -138  -185  -207  -231  -259  -284  -316  -388  -495  -550  -502  -495  -696  -941  -777  106  1588  3171  4188  4131  3063  1590  356  -339  -552  -504  -427  -460  -552  -573  -502  -405  -339  -319  -331  -356  -385  -414  -439  -467  -504  -539  -542  -488  -390  -283  -185  -94  -14  41  67  70  47  0  -47  -50  16  117  186  198  177  170  210  286  365  423  461  498  542  586  624  676  759  861  949  1007  1026  993  905  786  667  565  475  373  230  50  -123  -249  -313  -335  -353  -404  -481  -530  -531  -508  -484  -461  -440  -420  -406  -401  -418  -471  -542  -595  -613  -603  -576  -544  -515  -466  -363  -228  -129  -95  -91  -91  -106  -167  -277  -399  -482  -488  -415  -294  -167  -73  -34  -47  -101  -172  -228  -251  -250  -238  -221  -196  -153  -93  -41  -22  -29  -42  -50  -61  -101  -182  -295  -419  -531  -606  -632  -623  -588  -532  -484  -477  -554  -768  -1032  -1062  -629  321  1645  2880  3479  3235  2307  1073  15  -569  -732  -673  -561  -500  -493  -481  -442  -387  -330  -290  -273  -265  -244  -207  -168  -142  -133  -141  -170  -222  -274  -300  -291  -266  -244  -226  -195  -148  -100  -67  -37  21  139  308  447  462  372  276  225  215  268  415  629  814  903  917  907  899  885  851  805  773  762  749  703  628  554  492  426  350  274  192  108  51  37  47  49  9  -86  -215  -338  -428  -474  -483  -479  -490  -534  -599  -650  -666  -651  -626  -597  -559  -503  -430  -340  -244  -178  -157  -160  -171  -181  -191  -208  -231  -233  -195  -137  -87  -67  -69  -72  -73  -89  -125  -161  -176  -163  -134  -104  -74  -42  -3  53  121  167  155  75  -35  -126  -192  -274  -378  -463  -500  -496  -470  -437  -396  -322  -209  -147  -302  -697  -1100  -1125  -420  1025  2722  3961  4264  3594  2306  993  91  -350  -451  -382  -343  -377  -407  -405  -397  -413  -469  -548  -606  -613  -578  -528  -492  -484  -496  -504  -475  -379  -241  -133  -89  -86  -90  -88  -86  -105  -164  -240  -280  -254  -179  -60  98  251  352  399  411  410  416  441  488  559  653  746  800  808  785  753  718  682  651  626  601  576  539  460  339  219  131  59  -37  -171  -320  -444  -517  -543  -550  -562  -585  -608  -623  -634  -652  -670  -664  -623  -566  -523  -504  -493  -473  -444  -413  -390  -383  -395  -409  -402  -375  -334  -273  -199  -133  -89  -72  -97  -175  -277  -355  -400  -428  -433  -414  -372  -311  -250  -194  -118  -37  14  42  78  118  124  84  27  -11  -25  -35  -74  -156  -261  -346  -389  -415  -464  -541  -592  -550  -439  -416  -572  -787  -845  -481  515  2001  3441  4238  4067  3048  1677  540  -45  -143  -49  -39  -164  -309  -411  -481  -530  -556  -564  -566  -566  -546  -487  -408  -350  -330  -325  -308  -267  -212  -161  -131  -133  -158  -185  -203  -217  -232  -236  -209  -139  -39  69  167  238  282  315  341  353  360  391  469  577  671  728  754  765  770  764  750  739  737  727  685  623  573  547  521  453  307  107  -77  -216  -321  -398  -436  -428  -394  -384  -436  -514  -547  -531  -507  -496  -494  -503  -531  -584  -644  -691  -712  -700  -660  -619  -600  -601  -615  -619  -591  -531  -461  -400  -350  -301  -258  -244  -276  -326  -350  -328  -282  -214  -116  -17  35  14  -73  -170  -217  -215  -195  -172  -137  -78  3  81  106  57  -31  -97  -117  -113  -127  -182  -260  -320  -343  -347  -349  -344  -325  -332  -450  -714  -1027  -1203  -1031  -290  1074  2746  4180  4854  4493  3272  1748  490  -188  -296  -151  -122  -245  -347  -387  -405  -402  -385  -380  -406  -465  -541  -609  -654  -669  -652  -603  -525  -430  -341  -297  -307  -337  -348  -338  -324  -317  -313  -299  -257  -176  -75  8  56  81  116  199  321  428  484  511  556  637  722  772  784  776  764  759  763  780  803  827  837  802  697  549  424  333  231  96  -32  -111  -160  -238  -354  -464  -541  -594  -632  -646  -613  -529  -425  -352  -330  -351  -403  -465  -511  -532  -542  -555  -574  -591  -579  -528  -462  -403  -344  -284  -240  -215  -204  -203  -206  -204  -188  -161  -144  -157  -195  -232  -252  -254  -246  -232  -212  -187  -167  -160  -177  -222  -282  -323  -313  -244  -150  -84  -65  -62  -34  39  138  207  200  111  -19  -128  -190  -225  -259  -299  -322  -305  -259  -192  -113  -96  -245  -557  -930  -1207  -1111  -388  920  2487  3817  4434  4192  3297  2112  1037  338  -1  -142  -213  -295  -398  -477  -518  -541  -549  -539  -527  -527  -531  -522  -488  -447  -426  -426  -424  -401  -344  -265  -220  -243  -297  -332  -344  -353  -362  -343  -269  -148  -37  24  55  98  175  275  363  410  420  422  442  495  583  689  786  858  908  935  938  906  840  762  703  664  630  593  558  529  504  461  366  209  19  -175  -343  -449  -490  -492  -480  -468  -463  -475  -507  -546  -574  -582  -581  -580  -578  -567  -538  -500  -472  -467  -478  -489  -492  -479  -434  -356  -301  -315  -376  -434  -469  -479  -467  -435  -395  -365  -354  -355  -368  -395  -428  -447  -436  -398  -341  -267  -197  -156  -157  -190  -234  -265  -278  -283  -281  -266  -232  -188  -156  -147  -151  -153  -136  -90  -43  -50  -129  -250  -374  -471  -522  -517  -469  -409  -365  -360  -383  -383  -387  -508  -771  -1027  -988  -323  1062  2781  4179  4753  4334  3132  1699  609  62  -81  -72  -99  -193  -278  -324  -350  -371  -383  -387  -385  -383  -381  -381  -389  -415  -460  -496  -481  -405  -298  -200  -149  -149  -168  -183  -201  -227  -241  -217  -157  -76  5  69  120  178  250  327  389  428  458  497  553  628  719  809  877  918  935  941  945  942  922  883  840  811  787  749  673  538  354  188  95  38  -36  -124  -197  -254  -304  -351  -388  -401  -391  -372  -360  -350  -340  -338  -361  -403  -424  -399  -354  -330  -329  -334  -332  -313  -280  -251  -233  -218  -200  -180  -158  -142  -132  -132  -156  -214  -275  -299  -298  -325  -394  -475  -535  -567  -575  -556  -494  -393  -292  -225  -194  -191  -213  -241  -244  -209  -151  -106  -88  -89  -103  -140  -199  -264  -328  -399  -478  -548  -592  -596  -533  -382  -188  -42  1  -75  -294  -624  -911  -907  -363  779  2228  3444  3964  3626  2602  1335  323  -223  -416  -431  -410  -401  -378  -355  -345  -332  -315  -303  -297  -294  -301  -330  -382  -419  -392  -313  -244  -213  -195  -161  -119  -91  -85  -97  -112  -110  -85  -57  -44  -40  -32  -14  18  80  162  241  316  405  504  583  624  642  674  743  830  898  931  943  948  946  919  842  708  562  458  410  392  370  324  259  190  117  24  -98  -226  -319  -375  -418  -456  -494  -537  -585  -622  -632  -625  -622  -622  -601  -540  -456  -395  -372  -366  -356  -352  -367  -393  -412  -422  -423  -398  -327  -226  -147  -114  -115  -139  -189  -253  -308  -338  -349  -357  -380  -417  -445  -428  -346  -225  -124  -62  -9  75  207  345  425  404  278  94  -65  -161  -206  -231  -263  -328  -417  -489  -526  -544  -564  -601  -657  -696  -666  -588  -541  -554  -507  -160  654  1846  3056  3777  3642  2724  1443  253  -565  -926  -909  -732  -608  -567  -530  -477  -442  -434  -426  -386  -323  -247  -159  -88  -63  -68  -85  -109  -147  -199  -231  -233  -230  -217  -165  -108  -97  -120  -130  -104  -52  -7  23  67  149  255  351  430  505  580  648  697  731  774  841  916  967  988  995  993  973  925  854  780  716  652  571  475  389  301  165  -29  -240  -413  -510  -540  -537  -511  -455  -385  -358  -410  -497  -540  -512  -457  -428  -429  -423  -393  -355  -336  -352  -385  -405  -410  -403  -373  -309  -227  -160  -129  -129  -153  -194  -238  -270  -293  -314  -334  -349  -355  -349  -331  -300  -257  -206  -132  -21  87  164  210  207  150  76  24  4  9  10  -15  -52  -82  -114  -172  -248  -302  -316  -309  -319  -377  -488  -600  -609  -466  -296  -316  -576  -805  -602  258  1673  3160  4084  4096  3274  1999  774  -56  -437  -515  -486  -443  -398  -365  -358  -363  -363  -352  -338  -331  -338  -362  -394  -421  -435  -435  -404  -319  -198  -95  -45  -39  -62  -114  -180  -229  -240  -213  -150  -74  -22  -7  -17  -27  -9  58  163  263  343  420  502  584  661  737  812  878  927  950  931  858  753  672  637  613  556  464  379  330  310  298  281  223  73  -150  -356  -483  -539  -556  -559  -557  -556  -563  -576  -576  -542  -482  -460  -517  -602  -636  -595  -496  -384  -311  -293  -310  -337  -362  -385  -407  -417  -399  -344  -255  -144  -40  15  -15  -147  -327  -460  -505  -489  -436  -358  -270  -197  -159  -150  -138  -92  -21  48  115  181  227  231  192  115  3  -139  -277  -358  -371  -340  -299  -267  -247  -234  -232  -271  -379  -513  -585  -603  -641  -705  -755  -648  -93  1030  2429  3613  4164  3853  2818  1554  544  -25  -203  -154  -99  -146  -245  -322  -358  -364  -356  -352  -368  -414  -476  -527  -548  -542  -523  -495  -456  -412  -369  -333  -310  -291  -244  -160  -72  -22  -14  -24  -26  -25  -29  -31  -21  8  67  160  278  401  503  574  616  633  634  628  621  618  619  623  630  642  654  652  635  619  613  609  590  551  512  466  357  133  -167  -453  -655  -734  -697  -594  -485  -405  -359  -339  -337  -352  -385  -428  -459  -465  -453  -440  -425  -392  -338  -287  -258  -249  -243  -240  -249  -267  -276  -272  -275  -295  -329  -362  -377  -364  -320  -257  -203  -174  -165  -167  -176  -197  -235  -285  -330  -358  -380  -418  -471  -514  -535  -539  -526  -478  -381  -255  -139  -47  30  93  129  125  57  -97  -305  -472  -558  -597  -625  -639  -614  -538  -429  -341  -323  -414  -651  -924  -950  -440  716  2303  3801  4679  4647  3789  2509  1283  420  -29  -231  -359  -446  -450  -367  -254  -191  -206  -271  -371  -494  -594  -611  -529  -397  -301  -276  -290  -312  -330  -342  -354  -364  -359  -327  -272  -211  -148  -77  -6  53  109  161  189  186  173  176  206  263  345  444  543  629  699  753  784  792  788  782  791  830  892  940  926  827  686  577  526  485  384  203  -4  -174  -283  -349  -387  -412  -431  -442  -438  -423  -411  -407  -405  -398  -386  -377  -386  -421  -468  -504  -513  -487  -416  -319  -244  -213  -212  -225  -255  -309  -377  -434  -473  -505  -533  -537  -475  -329  -157  -43  -16  -45  -94  -147  -198  -247  -288  -297  -258  -204  -170  -162  -178  -210  -246  -274  -288  -281  -254  -201  -126  -55  -1  55  113  155  180  197  192  133  8  -151  -288  -374  -429  -479  -515  -529  -540  -574  -616  -623  -618  -695  -898  -1075  -875  -13  1423  3006  4198  4589  4109  3042  1802  726  14  -307  -394  -428  -452  -430  -381  -353  -351  -366  -395  -442  -502  -563  -606  -592  -492  -348  -238  -189  -185  -206  -229  -235  -215  -175  -130  -97  -81  -71  -46  3  67  134  190  211  191  154  133  147  205  293  379  466  565  662  726  758  783  817  845  852  847  837  818  798  773  721  633  533  444  378  312  198  10  -205  -375  -460  -479  -472  -460  -445  -427  -414  -410  -423  -451  -481  -492  -480  -458  -454  -481  -509  -502  -456  -382  -299  -243  -232  -250  -272  -281  -276  -264  -249  -230  -207  -189  -182  -197  -241  -302  -352  -379  -393  -402  -405  -397  -385  -374  -358  -339  -319  -294  -272  -255  -235  -205  -173  -144  -103  -33  57  129  162  167  148  102  36  -28  -78  -117  -150  -173  -183  -179  -156  -113  -112  -235  -446  -639  -802  -912  -847  -437  472  1796  3087  3845  3793  2949  1669  475  -303  -637  -638  -481  -353  -319  -324  -325  -321  -320  -318  -312  -304  -300  -303  -313  -317  -303  -275  -247  -230  -227  -233  -242  -260  -285  -302  -289  -233  -152  -86  -49  -15  44  125  189  225  262  311  362  410  451  472  484  514  557  601  663  763  859  884  835  778  749  737  710  653  583  535  513  484  421  330  242  182  152  129  81  -3  -112  -221  -315  -379  -413  -439  -498  -607  -730  -817  -846  -817  -734  -615  -487  -380  -309  -266  -234  -212  -204  -204  -206  -212  -224  -240  -251  -254  -250  -241  -236  -260  -332  -426  -486  -492  -470  -431  -366  -274  -175  -104  -72  -63  -71  -107  -186  -292  -377  -401  -335  -164  59  234  303  277  180  19  -191  -391  -511  -548  -545  -531  -515  -521  -573  -619  -564  -432  -386  -526  -754  -789  -319  734  2065  3141  3505  3025  1968  834  24  -374  -494  -500  -518  -565  -591  -582  -546  -491  -430  -391  -384  -405  -437  -459  -446  -389  -305  -234  -200  -196  -204  -207  -182  -116  -33  28  60  67  58  38  21  15  30  76  156  253  334  388  422  446  467  499  560  672  828  976  1067  1096  1084  1024  906  775  702  691  700  712  716  686  608  506  416  331  206  27  -148  -258  -301  -310  -309  -306  -307  -314  -328  -339  -340  -335  -341  -367  -407  -442  -474  -505  -527  -509  -424  -292  -179  -135  -159  -214  -268  -301  -312  -312  -306  -294  -270  -238  -214  -209  -221  -242  -258  -260  -255  -251  -250  -250  -252  -258  -282  -329  -356  -316  -209  -69  61  135  136  82  8  -48  -78  -95  -109  -130  -181  -261  -330  -361  -366  -364  -378  -442  -546  -601  -557  -498  -522  -660  -841  -769  -73  1272  2850  4057  4376  3653  2260  859  -98  -544  -600  -448  -300  -260  -292  -332  -354  -361  -363  -363  -356  -341  -323  -302  -284  -290  -342  -420  -477  -496  -498  -496  -469  -387  -258  -139  -74  -61  -68  -62  -26  27  69  87  99  126  167  206  242  301  405  528  616  652  658  665  692  739  784  811  819  814  790  736  642  509  367  257  180  114  60  26  2  -42  -131  -252  -361  -419  -422  -400  -379  -371  -380  -411  -460  -503  -524  -527  -524  -522  -519  -513  -502  -488  -474  -454  -419  -372  -331  -298  -270  -248  -242  -258  -296  -337  -360  -375  -400  -429  -441  -420  -378  -342  -328  -329  -334  -339  -334  -310  -261  -197  -137  -103  -106  -133  -154  -147  -111  -52  15  64  84  87  79  50  -10  -91  -172  -235  -269  -277  -273  -265  -259  -266  -290  -286  -236  -280  -543  -891  -1056  -768  183  1694  3265  4339  4559  3872  2600  1307  413  -20  -123  -64  -60  -216  -400  -474  -450  -399  -368  -368  -382  -392  -400  -413  -430  -434  -399  -302  -157  -26  15  -45  -146  -231  -295  -338  -338  -285  -206  -140  -92  -50  -3  64  148  217  249  259  274  310  379  487  622  748  830  853  827  781  748  734  731  730  738  757  768  743  668  561  453  353  240  102  -34  -126  -164  -178  -194  -222  -263  -312  -373  -443  -504  -527  -508  -477  -463  -462  -459  -441  -410  -383  -376  -401  -458  -520  -565  -588  -577  -533  -459  -346  -224  -150  -128  -131  -141  -167  -218  -279  -322  -340  -348  -350  -346  -348  -364  -389  -422  -454  -470  -465  -446  -423  -389  -337  -277  -235  -228  -244  -258  -250  -204  -125  -35  37  76  79  61  28  -32  -131  -240  -320  -363  -392  -419  -440  -452  -455  -465  -470  -448  -495  -724  -983  -928  -275  1055  2760  4180  4735  4280  3085  1680  624  143  24  -44  -196  -408  -578  -640  -628  -606  -595  -595  -595  -589  -575  -538  -456  -340  -236  -187  -197  -235  -276  -309  -317  -293  -260  -235  -221  -207  -176  -119  -48  12  57  98  146  205  274  340  379  386  389  423  505  616  721  798  870  968  1081  1165  1199  1188  1121  985  805  628  487  384  303  233  179  131  72  0  -70  -116  -130  -126  -143  -221  -366  -523  -609  -595  -530  -464  -408  -355  -305  -269  -249  -239  -237  -261  -325  -415  -503  -589  -668  -690  -621  -501  -408  -368  -349  -329  -312  -303  -304  -311  -322  -328  -307  -245  -168  -137  -191  -311  -442  -539  -572  -540  -469  -396  -330  -263  -207  -179  -177  -185  -201  -221  -239  -230  -164  -38  101  193  201  105  -84  -292  -432  -489  -502  -503  -503  -506  -513  -512  -475  -395  -334  -393  -615  -899  -959  -513  496  1894  3303  4218  4316  3651  2496  1250  329  -149  -337  -388  -405  -436  -469  -484  -476  -462  -455  -459  -480  -526  -590  -636  -625  -543  -427  -332  -280  -262  -271  -284  -266  -226  -208  -229  -261  -269  -228  -133  -14  92  185  263  309  322  331  362  412  459  493  539  613  705  799  890  964  1005  1013  999  970  933  899  871  841  794  737  697  667  597  439  214  13  -92  -121  -149  -225  -334  -423  -463  -468  -462  -454  -435  -398  -357  -332  -343  -398  -465  -497  -493  -480  -474  -476  -483  -485  -467  -419  -357  -313  -297  -296  -301  -321  -369  -449  -529  -566  -546  -497  -449  -418  -404  -401  -402  -414  -447  -492  -527  -534  -515  -477  -425  -340  -216  -90  -13  8  9  9  -11  -93  -251  -446  -608  -690  -703  -686  -653  -609  -578  -561  -499  -408  -426  -597  -771  -710  -170  924  2261  3276  3558  3032  1910  643  -321  -804  -858  -654  -406  -220  -127  -158  -265  -349  -381  -382  -376  -364  -344  -324  -301  -258  -192  -136  -127  -169  -218  -223  -191  -168  -175  -190  -184  -134  -65  -27  -21  -13  7  44  124  256  392  484  538  588  641  679  690  681  678  718  828  972  1070  1069  975  846  753  717  715  719  712  683  638  582  512  409  260  83  -67  -172  -268  -374  -456  -491  -496  -493  -491  -494  -500  -504  -502  -498  -499  -504  -505  -495  -475  -452  -418  -359  -289  -240  -222  -223  -232  -235  -218  -171  -94  -15  34  35  -14  -101  -189  -250  -284  -307  -328  -343  -328  -267  -167  -50  57  135  182  197  178  134  74  2  -74  -148  -212  -260  -296  -335  -378  -403  -403  -410  -462  -547  -577  -529  -511  -601  -713  -638  -150  863  2205  3337  3740  3240  2039  636  -431  -935  -958  -705  -406  -216  -166  -203  -263  -312  -334  -329  -311  -295  -283  -270  -265  -281  -319  -360  -382  -378  -355  -321  -272  -204  -132  -84  -59  -36  -8  9  20  59  149  257  330  349  345  349  377  430  498  562  619  687  758  803  821  833  853  870  878  874  861  841  794  696  572  479  429  375  252  26  -249  -465  -563  -566  -523  -475  -446  -436  -432  -422  -409  -407  -430  -474  -517  -548  -558  -545  -528  -517  -508  -498  -497  -496  -474  -414  -341  -301  -302  -311  -309  -290  -244  -167  -83  -25  -13  -43  -90  -124  -134  -133  -130  -128  -127  -124  -119  -106  -83  -46  -3  32  29  -58  -209  -333  -382  -381  -373  -379  -398  -418  -427  -421  -401  -377  -385  -456  -604  -823  -969  -798  -179  890  2224  3384  3934  3660  2655  1352  277  -316  -498  -473  -451  -508  -552  -521  -469  -432  -401  -385  -399  -429  -454  -467  -472  -472  -467  -450  -418  -376  -339  -325  -325  -317  -291  -260  -225  -174  -114  -68  -48  -42  -33  -14  6  31  88  209  364  482  538  568  601  643  689  741  816  903  952  925  837  739  670  624  585  552  519  472  420  378  339  275  142  -64  -285  -451  -540  -571  -576  -572  -567  -567  -580  -616  -665  -700  -704  -684  -655  -628  -600  -558  -501  -440  -396  -379  -375  -366  -348  -326  -305  -289  -277  -272  -272  -272  -263  -238  -205  -182  -179  -188  -201  -214  -221  -202  -140  -50  30  85  108  84  22  -40  -78  -95  -113  -156  -234  -329  -415  -483  -541  -586  -608  -598  -535  -399  -236  -157  -262  -582  -985  -1097  -461  1001  2786  4198  4717  4129  2744  1256  174  -366  -427  -235  -96  -132  -235  -286  -281  -266  -265  -274  -283  -287  -290  -302  -329  -365  -396  -420  -437  -438  -406  -341  -264  -196  -131  -55  26  94  135  152  155  157  157  148  138  151  206  285  359  423  485  537  579  640  742  853  922  941  940  945  962  977  977  952  888  779  646  523  434  381  335  247  87  -102  -244  -318  -358  -388  -407  -407  -387  -351  -309  -272  -245  -233  -243  -269  -306  -351  -392  -420  -448  -489  -524  -516  -453  -358  -291  -283  -296  -293  -273  -242  -208  -180  -152  -121  -110  -153  -232  -293  -315  -318  -315  -316  -322  -330  -337  -342  -338  -310  -245  -156  -68  15  112  211  263  224  81  -144  -402  -591  -626  -540  -446  -405  -408  -432  -457  -484  -556  -698  -870  -1026  -977  -394  800  2305  3655  4383  4231  3346  2164  1101  360  -27  -165  -259  -399  -519  -583  -607  -584  -524  -446  -361  -305  -304  -347  -403  -439  -441  -412  -370  -330  -294  -259  -236  -224  -211  -193  -175  -162  -153  -147  -145  -143  -132  -109  -72  -25  23  73  140  233  335  415  473  541  637  739  816  844  821  771  726  702  697  696  676  614  506  382  288  234  198  152  58  -106  -324  -534  -665  -702  -687  -657  -628  -600  -562  -509  -457  -451  -502  -551  -538  -485  -443  -432  -443  -467  -505  -552  -585  -579  -518  -412  -293  -199  -152  -154  -183  -212  -229  -237  -246  -263  -285  -302  -306  -304  -318  -353  -395  -426  -443  -447  -416  -323  -189  -74  -13  -2  -25  -51  -56  -40  -18  4  26  48  61  44  -26  -142  -271  -393  -495  -562  -590  -594  -584  -552  -484  -395  -348  -420  -626  -907  -1080  -829  75  1539  3135  4274  4511  3801  2517  1227  359  -19  -113  -134  -173  -250  -346  -429  -485  -514  -510  -497  -513  -547  -560  -543  -517  -483  -429  -362  -310  -292  -297  -307  -316  -328  -339  -332  -289  -223  -181  -187  -217  -234  -221  -174  -100  -9  95  222  365  497  589  641  675  705  736  767  778  758  717  682  665  665  671  674  662  625  575  528  466  359  225  123  75  59  49  16  -81  -256  -453  -593  -651  -656  -645  -639  -641  -655  -678  -698  -695  -649  -567  -488  -429  -379  -350  -358  -385  -406  -424  -447  -475  -498  -506  -487  -434  -363  -313  -298  -302  -309  -323  -347  -375  -391  -393  -385  -378  -374  -370  -363  -355  -354  -361  -369  -376  -372  -327  -219  -83  14  55  81  125  175  197  178  120  19  -151  -395  -637  -755  -699  -545  -411  -355  -334  -288  -251  -304  -443  -551  -447  70  1095  2428  3593  4132  3848  2868  1586  448  -276  -569  -584  -479  -318  -154  -85  -120  -182  -231  -249  -210  -141  -93  -85  -98  -106  -103  -93  -74  -62  -55  -28  16  48  55  46  38  51  110  207  304  362  381  387  411  469  548  622  682  745  832  947  1068  1168  1238  1291  1334  1367  1391  1404  1404  1392  1373  1350  1315  1254  1175  1105  1062  1040  1013  943  821  671  521  383  267  187  153  152  162  169  175  183  184  164  116  60  37  69  131  187  228  265  313  373  422  444  445  448  475  526  576  607  620  645  709  801  870  872  803  706  640  619  608  576  534  526  583  677  754  787  797  820  875  966  1077  1145  1127  1069  1035  1015  955  816  619  456  398  448  553  645  691  688  649  636  687  735  702  637  747  1321  2460  3816  4766  4871  4104  2831  1594  770  456  531  745  906  979  988  977  990  1006  992  971  968  968  926  819  713  716  830  947  993  989  991  1034  1114  1183  1214  1227  1255  1302  1340  1347  1334  1318  1298  1277  1264  1272  1319  1410  1529  1645  1733  1793  1841  1878  1907  1936  1953  1929  1856  1762  1693  1665  1656  1634  1576  1472  1348  1252  1192  1125  1010  850  679  541  454  401  354  272  118  -89  -281  -408  -474  -508  -534  -563  -590  -611  -630  -652  -665  -664  -650  -638  -648  -691  -765  -849  -907  -924  -919  -920  -945  -1000  -1078  -1173  -1274  -1365  -1454  -1567  -1705  -1820  -1871  -1859  -1813  -1785  -1843  -2027  -2287  -2512  -2644  -2702  -2722  -2722  -2704  -2661  -2612  -2612  -2709  -2875  -3044  -3195  -3354  -3534  -3739  -3992  -4287  -4539  -4670  -4717  -4767  -4852  -4951  -5061  -5202  -5375  -5550  -5666  -5565  -5019  -4016  -2938  -2181  -1791  -1586]
