reading_id,reading_time,wire_id,result_classification,heart_rate,heart_rate_alert,firmware_version,device_app_version,hardware_version,waveform_samples
07c500e0-66f7-11ed-8080-808080808080,Fri Nov 18 04:11:09 UTC 2022,8100e3ea1a39,UNCLASSIFIABLE,109,NONE,20001.171.50,2.10.0,Charge 5,[32767  32767  32767  32767  32767  32767  32767  32767  32767  32767  32767  32767  32767  32767  32767  -32768  -32768  -32768  -32768  -32768  -32768  -32768  -32768  -32768  -32768  -32768  -32768  -32768  -32768  -32768  -32768  -32768  -32768  -32768  -32768  -32768  -32768  -32768  -32768  -32768  -32768  -32768  -32768  -32768  -32768  -32768  -32768  -32768  -32768  -32768  -32768  -32768  -32768  -32768  -32768  -32768  -32768  -25310  -19121  -14895  -12278  -10910  -10253  -9651  -8588  -6743  -4044  -702  3266  8100  13443  18455  22768  26425  29526  32281  32767  32767  32767  32767  32767  32767  32767  32767  32767  32767  32767  32767  32767  32767  32767  32767  32767  32767  32767  32767  32767  32767  32767  32767  32767  32767  32767  32767  32767  32767  32767  32767  32767  32767  32767  32767  32767  32767  32767  32767  32767  32767  32767  32767  32767  32767  32767  32767  32767  32767  32767  32767  32767  32767  32767  32767  32767  32767  32767  32767  32767  32767  32767  32767  32767  32767  32767  32767  32767  32767  32018  31352  30956  30669  30127  29107  27811  26704  26051  25747  25509  25086  24385  23581  22951  22528  22113  21591  20935  20081  19133  18427  18140  18129  18206  18314  18429  18385  17859  16688  15156  13734  12636  11845  11323  11018  10823  10608  10309  9973  9671  9430  9225  8977  8647  8283  7921  7491  6930  6347  5926  5668  5415  5045  4514  3862  3215  2712  2440  2403  2536  2721  2736  2432  1960  1575  1357  1246  1186  1159  1156  1152  1132  1106  1057  932  707  428  135  -186  -529  -821  -1014  -1153  -1296  -1458  -1626  -1757  -1882  -2142  -2602  -3122  -3488  -3600  -3539  -3471  -3510  -3648  -3815  -3957  -4046  -4080  -4082  -4073  -4060  -4039  -4011  -3998  -4039  -4180  -4408  -4628  -4748  -4771  -4750  -4729  -4735  -4799  -4950  -5202  -5526  -5816  -5988  -6075  -6138  -6185  -6200  -6192  -6192  -6235  -6335  -6450  -6509  -6477  -6397  -6333  -6309  -6307  -6311  -6329  -6380  -6451  -6505  -6513  -6480  -6420  -6341  -6232  -6102  -6005  -5978  -5990  -5986  -5914  -5756  -5537  -5335  -5252  -5341  -5596  -5947  -6253  -6379  -6311  -6139  -5968  -5850  -5786  -5756  -5748  -5768  -5816  -5836  -5742  -5507  -5148  -4644  -4041  -3543  -3315  -3360  -3615  -3965  -4267  -4499  -4753  -5035  -5256  -5396  -5501  -5559  -5481  -5211  -4852  -4600  -4520  -4528  -4552  -4594  -4686  -4821  -4945  -5004  -4934  -4686  -4339  -4065  -3943  -3910  -3876  -3800  -3696  -3601  -3552  -3546  -3540  -3480  -3337  -3123  -2897  -2737  -2664  -2629  -2594  -2566  -2555  -2541  -2500  -2416  -2293  -2150  -2018  -1910  -1829  -1790  -1801  -1826  -1832  -1826  -1821  -1817  -1797  -1739  -1671  -1697  -1870  -2134  -2428  -2692  -2814  -2746  -2553  -2343  -2186  -2085  -2008  -1911  -1777  -1663  -1647  -1748  -1905  -2016  -2031  -1983  -1912  -1829  -1757  -1719  -1720  -1747  -1783  -1806  -1804  -1780  -1749  -1713  -1625  -1433  -1182  -990  -917  -959  -1136  -1428  -1677  -1713  -1555  -1354  -1189  -1059  -971  -943  -997  -1150  -1342  -1425  -1294  -1020  -795  -714  -709  -717  -732  -764  -816  -862  -830  -654  -368  -115  -10  -48  -139  -203  -222  -229  -258  -312  -359  -369  -344  -322  -339  -388  -436  -412  -197  322  1147  2084  2800  3066  2866  2307  1584  959  593  423  334  332  403  383  193  -29  -156  -205  -228  -223  -143  39  267  443  532  557  521  425  309  231  206  210  229  262  307  371  490  672  866  983  976  913  898  916  897  857  875  984  1120  1185  1173  1156  1148  1119  1093  1108  1148  1139  1033  871  747  699  696  692  654  576  469  331  166  20  -56  -68  -56  -53  -57  -58  -61  -81  -112  -131  -133  -145  -191  -249  -271  -222  -108  -15  -43  -177  -310  -363  -347  -313  -303  -321  -349  -369  -392  -445  -528  -604  -633  -609  -570  -549  -552  -568  -575  -528  -383  -177  -5  89  130  154  175  186  189  193  185  156  129  157  282  460  609  729  868  1020  1123  1149  1124  1092  1075  1069  1050  990  892  802  742  652  476  291  196  126  -37  -245  -274  137  1087  2373  3614  4401  4381  3500  2129  846  93  -34  269  716  1044  1089  835  439  90  -139  -250  -230  -85  130  321  419  413  331  228  159  137  129  100  50  2  -16  27  164  359  518  585  547  401  194  25  -55  -60  13  185  417  639  848  1045  1173  1205  1191  1186  1194  1178  1103  986  877  796  724  643  563  525  587  688  648  422  178  55  42  66  75  60  18  -55  -144  -206  -215  -156  -35  94  153  114  14  -94  -197  -304  -405  -468  -483  -457  -413  -390  -412  -457  -447  -313  -123  -21  -37  -82  -80  -26  23  21  -31  -115  -209  -299  -397  -520  -643  -713  -693  -602  -518  -501  -547  -601  -611  -596  -591  -583  -560  -531  -487  -438  -411  -412  -428  -442  -460  -502  -562  -598  -581  -532  -495  -470  -408  -317  -297  -419  -617  -776  -861  -893  -757  -182  900  2075  2799  2859  2316  1396  498  -48  -243  -267  -250  -240  -241  -240  -206  -122  -34  -1  -6  -7  -21  -58  -88  -96  -86  -79  -94  -120  -144  -182  -255  -357  -452  -472  -369  -171  40  202  300  360  403  413  372  304  251  228  224  237  288  382  481  539  525  446  383  412  516  621  678  689  672  645  614  572  493  366  215  79  -38  -182  -396  -638  -793  -791  -650  -437  -218  -31  104  182  224  256  266  153  -180  -639  -974  -1051  -931  -741  -562  -376  -145  86  241  284  173  -138  -558  -875  -983  -909  -697  -432  -254  -241  -356  -475  -469  -333  -191  -157  -252  -406  -522  -562  -539  -469  -373  -297  -269  -281  -313  -345  -366  -361  -318  -249  -188  -147  -110  -95  -146  -286  -490  -655  -661  -525  -383  -317  -306  -320  -359  -431  -487  -361  135  942  1690  2052  1927  1366  629  91  -130  -212  -303  -402  -452  -437  -390  -331  -253  -155  -72  -47  -77  -110  -102  -57  -8  25  35  13  -55  -154  -233  -245  -154  43  276  455  565  631  673  692  663  599  532  439  307  196  147  159  251  449  708  908  970  899  773  677  629  587  540  535  610  732  828  875  899  899  794  504  113  -186  -329  -404  -467  -481  -398  -245  -121  -86  -105  -127  -134  -134  -133  -129  -115  -84  -40  -11  -32  -126  -289  -444  -462  -309  -82  88  135  94  20  -93  -260  -451  -617  -721  -740  -674  -556  -436  -357  -343  -388  -433  -394  -258  -104  27  164  273  268  135  -21  -69  0  83  107  75  2  -103  -224  -326  -399  -478  -575  -638  -627  -578  -544  -517  -452  -320  -106  236  745  1344  1858  2116  1969  1330  402  -355  -696  -755  -730  -657  -483  -228  -23  18  -92  -269  -431  -523  -524  -442  -317  -212  -166  -172  -194  -207  -203  -190  -176  -159  -137  -116  -101  -61  44  200  346  453  541  612  624  543  394  243  131  84  161  410  745  988  1068  1062  1052  1048  1014  949  891  847  762  589  340  87  -76  -126  -109  -82  -69  -68  -80  -128  -243  -399  -518  -563  -560  -539  -495  -410  -298  -198  -117  -46  0  1  -41  -109  -181  -259  -355  -446  -498  -502  -458  -358  -226  -129  -100  -128  -188  -249  -303  -363  -411  -411  -357  -304  -311  -376  -435  -440  -381  -278  -164  -50  73  201  290  287  157  -80  -328  -482  -529  -514  -479  -449  -439  -441  -386  -208  -41  -160  -575  -996  -1157  -834  51  1183  2059  2398  2207  1658  1012  514  181  -96  -285  -345  -315  -206  -88  -66  -137  -249  -361  -425  -434  -431  -446  -458  -438  -392  -348  -314  -274  -214  -130  -28  72  136  155  150  143  139  134  137  183  297  439  527  530  492  454  419  404  443  549  677  736  683  586  541  591  731  899  1007  1010  917  770  596  374  105  -130  -275  -347  -384  -393  -347  -220  -52  42  -4  -165  -365  -542  -663  -737  -776  -769  -719  -657  -600  -552  -519  -489  -431  -323  -178  -44  36  68  94  132  143  89  -6  -103  -200  -290  -331  -279  -130  63  222  298  308  296  298  334  408  492  530  495  412  325  238  122  -39  -228  -395  -498  -534  -508  -384  -161  -18  -179  -646  -1199  -1527  -1376  -726  251  1345  2257  2658  2406  1604  509  -457  -895  -817  -616  -571  -625  -629  -574  -523  -489  -465  -449  -434  -408  -358  -288  -211  -138  -93  -91  -126  -189  -263  -320  -344  -342  -330  -306  -262  -204  -162  -146  -124  -34  146  352  482  506  466  414  380  366  352  320  274  230  202  183  166  153  168  246  374  483  499  395  214  22  -143  -260  -323  -369  -430  -469  -415  -257  -71  51  91  88  77  56  13  -53  -122  -171  -198  -209  -208  -191  -156  -116  -89  -81  -80  -83  -97  -124  -141  -113  -38  39  82  89  83  83  86  70  9  -99  -212  -283  -295  -256  -181  -63  108  300  422  379  136  -212  -490  -616  -646  -648  -656  -669  -653  -590  -580  -730  -920  -903  -582  -51  636  1500  2352  2840  2784  2232  1358  427  -243  -472  -406  -308  -249  -225  -273  -368  -439  -467  -460  -434  -411  -398  -393  -395  -404  -416  -423  -433  -454  -472  -461  -408  -311  -207  -142  -114  -94  -78  -74  -77  -65  -11  92  224  362  486  576  639  699  770  859  970  1097  1218  1295  1316  1302  1250  1121  899  655  495  448  455  453  415  355  303  272  245  193  111  1  -151  -318  -414  -378  -246  -118  -64  -80  -136  -219  -321  -408  -425  -343  -213  -143  -184  -289  -387  -464  -544  -635  -713  -746  -727  -687  -645  -594  -545  -532  -572  -640  -687  -690  -674  -670  -684  -698  -698  -689  -684  -687  -691  -684  -656  -618  -590  -580  -588  -633  -745  -894  -989  -951  -805  -678  -646  -691  -834  -1024  -939  -300  746  1815  2532  2555  1826  769  -69  -465  -509  -407  -345  -376  -443  -527  -652  -788  -896  -979  -1047  -1091  -1076  -953  -726  -494  -384  -423  -532  -614  -639  -632  -601  -522  -392  -264  -192  -177  -184  -188  -179  -139  -40  105  250  375  497  622  725  796  870  984  1112  1177  1148  1081  1044  1057  1094  1120  1119  1076  973  817  651  502  369  266  228  254  281  255  193  138  111  117  148  171  134  4  -179  -321  -375  -346  -231  -50  118  195  174  113  66  35  -10  -77  -132  -150  -148  -178  -276  -434  -602  -722  -764  -704  -513  -238  -13  71  38  -34  -88  -106  -91  -40  37  118  192  271  351  394  351  204  -13  -213  -303  -262  -140  -5  96  129  60  -107  -293  -392  -348  -202  -131  -227  -195  313  1270  2395  3227  3272  2549  1546  671  137  -22  -49  -193  -408  -515  -469  -330  -144  36  122  79  -46  -197  -315  -387  -442  -465  -406  -265  -95  35  92  95  88  82  66  29  -21  -66  -78  -45  25  142  326  536  682  737  752  765  757  680  555  473  440  391  331  330  425  583  721  771  713  591  469  338  149  -76  -243  -294  -266  -209  -147  -106  -126  -217  -327  -381  -383  -404  -464  -516  -524  -509  -495  -467  -381  -230  -77  8  18  -18  -74  -128  -169  -190  -194  -190  -191  -215  -271  -330  -344  -311  -286  -301  -338  -364  -383  -396  -384  -348  -305  -249  -168  -55  70  158  157  55  -116  -297  -435  -510  -527  -507  -456  -387  -331  -304  -296  -280  -240  -192  -172  -214  -334  -509  -715  -986  -1279  -1328  -849  86  1101  1906  2404  2500  2172  1597  927  191  -475  -852  -913  -792  -586  -351  -181  -142  -177  -200  -205  -210  -213  -210  -205  -225  -287  -367  -447  -538  -608  -580  -416  -182  3  101  148  171  178  180  181  165  110  42  65  214  380  460  464  449  441  446  458  467  463  451  444  463  505  541  564  594  639  669  632  492  295  114  -48  -222  -374  -455  -472  -464  -457  -456  -457  -455  -450  -450  -474  -527  -562  -495  -321  -137  -35  -13  -27  -54  -99  -162  -237  -313  -354  -307  -191  -94  -57  -56  -51  -43  -69  -165  -331  -532  -709  -802  -793  -696  -510  -283  -112  -34  -9  -7  -25  -50  -68  -84  -100  -112  -113  -100  -82  -88  -143  -232  -308  -336  -322  -307  -325  -363  -392  -380  -330  -322  -436  -658  -841  -703  -18  1115  2252  2807  2473  1470  332  -482  -810  -785  -609  -366  -121  12  3  -53  -79  -79  -79  -91  -117  -169  -238  -299  -323  -271  -109  111  275  321  272  173  73  11  -8  -13  -15  10  93  221  343  436  498  517  497  471  456  449  446  466  535  645  758  837  876  899  944  1013  1063  1044  934  777  664  649  728  856  950  901  618  153  -275  -496  -535  -499  -446  -388  -335  -301  -283  -272  -260  -243  -224  -211  -208  -209  -203  -189  -174  -162  -151  -148  -176  -250  -353  -438  -486  -508  -522  -527  -484  -344  -140  15  35  -75  -239  -361  -419  -458  -498  -518  -510  -497  -478  -417  -312  -206  -120  -46  1  15  3  -28  -92  -202  -336  -445  -500  -507  -521  -623  -773  -736  -403  -14  140  -1  -236  -136  553  1546  2260  2282  1608  638  -158  -561  -580  -366  -124  18  -7  -216  -469  -609  -634  -591  -482  -328  -200  -159  -186  -236  -295  -351  -382  -383  -360  -305  -191  -22  147  270  328  336  328  346  419  518  550  448  260  124  109  159  230  366  587  797  886  873  847  854  870  830  714  589  515  487  475  457  417  366  315  235  65  -179  -400  -525  -558  -539  -523  -533  -545  -529  -484  -442  -431  -452  -488  -536  -590  -631  -643  -619  -554  -472  -413  -394  -413  -465  -527  -570  -585  -593  -610  -620  -611  -615  -671  -749  -772  -697  -560  -440  -383  -370  -366  -365  -382  -429  -480  -500  -509  -541  -558  -477  -273  -23  165  277  365  436  464  433  339  208  78  -51  -200  -387  -604  -746  -697  -385  353  1568  2828  3530  3473  2810  1856  1047  627  453  293  94  -75  -144  -116  -66  -41  -39  -59  -105  -167  -218  -234  -181  -34  164  315  376  372  332  257  162  116  165  254  303  280  189  69  -15  -15  100  319  561  753  900  990  950  780  618  587  667  749  762  713  640  568  511  474  451  432  420  423  438  444  430  405  389  377  337  242  102  -57  -215  -344  -428  -466  -466  -446  -410  -352  -273  -197  -145  -122  -119  -122  -120  -110  -103  -133  -243  -439  -651  -769  -734  -575  -389  -265  -203  -153  -103  -87  -133  -216  -294  -366  -452  -522  -518  -444  -369  -322  -257  -135  15  134  195  213  210  171  57  -150  -393  -563  -624  -620  -601  -576  -528  -437  -330  -260  -230  -152  27  69  -301  -828  -924  -283  920  2198  3039  3133  2475  1460  615  131  -109  -205  -268  -414  -553  -554  -481  -442  -432  -404  -341  -263  -209  -183  -158  -124  -91  -62  -39  -23  -23  -36  -55  -68  -64  -35  6  43  63  66  51  19  -15  -21  33  169  376  608  810  934  954  873  745  622  507  395  312  281  298  346  403  454  487  463  361  200  21  -126  -206  -227  -226  -222  -223  -234  -250  -248  -216  -179  -180  -227  -325  -496  -706  -862  -915  -875  -760  -602  -463  -384  -356  -355  -373  -426  -527  -651  -737  -728  -600  -393  -213  -147  -189  -261  -289  -268  -242  -230  -205  -136  -24  62  48  -38  -96  -89  -45  6  56  97  123  132  117  65  -20  -110  -185  -262  -344  -403  -426  -436  -454  -455  -380  -250  -230  -448  -753  -792  -343  552  1669  2660  3166  3034  2396  1480  501  -268  -623  -582  -329  -110  -79  -170  -244  -265  -261  -256  -260  -277  -300  -309  -284  -227  -160  -95  -16  75  147  180  182  171  156  144  135  125  106  92  121  196  262  277  261  248  260  312  402  495  552  581  625  699  776  827  850  825  703  477  237  93  62  95  153  216  263  269  204  53  -142  -290  -336  -303  -249  -185  -106  -83  -200  -409  -577  -639  -613  -516  -372  -241  -173  -161  -170  -179  -185  -185  -169  -128  -83  -75  -125  -228  -361  -483  -563  -612  -640  -619  -519  -358  -201  -102  -66  -66  -96  -167  -261  -333  -353  -317  -234  -127  -38  -1  -18  -56  -100  -182  -322  -478  -577  -581  -501  -383  -294  -296  -433  -671  -845  -777  -514  -330  -444  -760  -908  -466  713  2246  3390  3581  2763  1374  72  -674  -800  -574  -368  -340  -392  -399  -340  -255  -190  -168  -174  -184  -187  -185  -188  -206  -237  -270  -295  -318  -343  -354  -307  -166  27  181  252  264  243  204  183  245  398  550  639  677  694  699  696  679  647  612  600  619  647  639  575  475  396  380  439  551  676  758  741  594  344  70  -148  -271  -315  -335  -377  -468  -588  -681  -727  -749  -765  -770  -761  -740  -691  -598  -472  -348  -254  -202  -179  -173  -213  -344  -532  -674  -722  -716  -714  -742  -804  -878  -925  -915  -846  -758  -706  -700  -708  -717  -737  -775  -806  -807  -782  -753  -743  -758  -765  -715  -583  -411  -285  -252  -305  -424  -548  -609  -610  -597  -574  -501  -367  -269  -304  -395  -396  -300  -238  -347  -553  -525  59  1246  2630  3441  3161  1982  516  -604  -1010  -826  -494  -356  -451  -609  -680  -643  -537  -397  -265  -188  -172  -180  -175  -163  -174  -231  -322  -379  -340  -262  -248  -263  -208  -97  -3  38  36  37  82  145  190  235  325  452  581  713  879  1068  1237  1357  1414  1423  1416  1420  1441  1468  1494  1511  1494  1433  1345  1241  1123  1013  923  839  756  676  594  513  443  371  259  118  8  -46  -69  -79  -79  -78  -89  -122  -166  -198  -208  -206  -202  -203  -213  -230  -250  -272  -296  -323  -347  -359  -357  -348  -343  -352  -380  -438  -522  -604  -651  -648  -594  -502  -409  -345  -310  -288  -273  -255  -210  -140  -100  -136  -217  -296  -363  -444  -584  -774  -926  -984  -988  -1016  -1050  -946  -679  -512  -669  -1080  -1421  -1173  -17  1665  3085  3660  3223  2031  627  -431  -894  -876  -543  -62  263  261  67  -143  -310  -403  -404  -328  -207  -77  35  119  164  177  181  188  176  100  -31  -104  -56  18  30  -41  -192  -346  -397  -293  -60  196  376  488  587  659  652  564  464  417  435  494  565  626  659  661  640  612  580  516  381  206  72  15  -3  -28  -63  -81  -66  -39  -30  -43  -76  -162  -350  -626  -890  -1037  -1043  -960  -855  -771  -715  -670  -614  -525  -398  -270  -189  -160  -149  -140  -140  -160  -207  -271  -309  -297  -264  -244  -212  -124  10  133  194  189  150  120  112  114  106  84  57  36  16  0  -30  -100  -210  -307  -324  -241  -115  -21  25  61  120  156  18  -334  -707  -916  -853  -423  366  1408  2503  3301  3460  2893  1795  602  -166  -331  -149  45  33  -186  -365  -338  -208  -103  -36  20  85  136  132  84  51  47  16  -65  -142  -163  -137  -101  -82  -81  -82  -60  0  84  146  168  162  145  121  102  114  203  393  627  794  853  853  847  839  793  683  546  452  416  403  386  371  369  381  389  352  231  56  -83  -134  -134  -153  -213  -278  -312  -309  -291  -297  -370  -527  -703  -791  -750  -631  -531  -516  -543  -506  -404  -338  -355  -389  -378  -333  -298  -292  -300  -305  -305  -303  -307  -325  -357  -379  -371  -339  -316  -318  -338  -362  -389  -405  -349  -144  183  486  650  660  506  169  -275  -662  -894  -1003  -1066  -1143  -1183  -993  -524  -75  8  -334  -818  -953  -403  793  2188  3095  3079  2289  1258  472  142  111  22  -281  -595  -679  -551  -385  -274  -203  -173  -225  -338  -402  -347  -215  -98  -36  -18  -31  -85  -159  -178  -106  2  94  135  99  19  -39  -56  -41  -11  20  56  102  163  263  420  599  732  785  760  673  567  494  475  487  491  459  414  417  510  650  751  791  806  786  628  263  -178  -455  -481  -366  -252  -194  -178  -176  -167  -156  -176  -251  -356  -436  -468  -477  -469  -408  -265  -85  41  85  80  48  -27  -168  -339  -464  -513  -523  -527  -500  -423  -336  -285  -275  -282  -282  -265  -230  -185  -135  -73  2  77  124  134  108  48  -45  -145  -217  -260  -305  -374  -452  -510  -539  -549  -536  -462  -335  -245  -286  -455  -605  -492  61  1050  2205  2961  2869  2058  1015  165  -263  -356  -401  -498  -507  -339  -78  113  133  -5  -204  -345  -383  -354  -299  -244  -210  -213  -244  -272  -276  -259  -224  -169  -101  -48  -26  -22  -21  -23  -41  -88  -165  -255  -309  -246  -12  313  552  596  463  244  55  -36  -47  -23  5  29  41  35  7  -44  -106  -152  -162  -135  -86  -61  -97  -175  -252  -306  -343  -392  -478  -599  -717  -788  -807  -803  -797  -789  -754  -668  -551  -445  -357  -272  -200  -165  -168  -189  -193  -175  -148  -121  -97  -81  -80  -92  -112  -146  -199  -262  -314  -374  -477  -598  -655  -602  -483  -377  -325  -318  -325  -312  -251  -146  -35  47  74  35  -54  -173  -311  -440  -514  -527  -534  -600  -751  -938  -1059  -1074  -1032  -1004  -1067  -1201  -1126  -558  426  1460  2111  2096  1437  419  -583  -1248  -1458  -1339  -1065  -778  -655  -726  -810  -799  -755  -734  -717  -636  -440  -201  -69  -67  -102  -134  -166  -194  -208  -173  -43  168  380  510  546  530  507  507  569  711  881  1012  1091  1145  1183  1203  1210  1204  1182  1141  1090  1053  1045  1070  1121  1176  1212  1219  1192  1123  1007  873  765  693  626  541  440  326  217  142  109  79  21  -55  -114  -142  -157  -164  -162  -161  -156  -133  -103  -83  -94  -155  -263  -373  -446  -485  -514  -539  -553  -550  -502  -375  -204  -79  -49  -91  -160  -228  -281  -299  -269  -219  -194  -221  -278  -285  -178  3  166  257  277  259  222  180  151  143  152  173  184  123  -63  -324  -524  -588  -522  -329  -49  178  208  -22  -490  -978  -1138  -780  64  1303  2634  3431  3270  2396  1248  117  -638  -847  -769  -611  -319  28  214  205  83  -87  -231  -296  -306  -294  -260  -189  -98  -31  3  31  36  -11  -90  -165  -201  -133  56  288  485  598  573  444  324  276  266  257  264  351  530  714  814  833  821  815  826  840  828  773  713  671  619  555  505  484  505  542  524  415  245  83  -12  -77  -180  -315  -445  -575  -708  -820  -872  -811  -598  -268  37  182  152  45  -37  -67  -77  -109  -185  -270  -311  -332  -434  -608  -676  -505  -201  21  88  76  54  15  -71  -192  -281  -307  -284  -243  -219  -267  -425  -645  -813  -871  -832  -700  -476  -207  36  213  308  314  228  59  -129  -277  -390  -484  -533  -532  -537  -573  -615  -719  -975  -1254  -1322  -1079  -444  555  1614  2434  2818  2519  1515  273  -640  -957  -670  -72  297  145  -280  -600  -722  -760  -769  -714  -607  -523  -498  -479  -390  -215  0  190  307  347  331  266  160  34  -99  -223  -294  -280  -204  -122  -60  30  209  432  581  609  572  535  520  517  513  508  512  531  540  494  408  353  338  317  296  301  322  314  240  118  14  -54  -126  -205  -261  -286  -303  -314  -281  -193  -112  -107  -198  -341  -470  -548  -577  -558  -493  -407  -345  -322  -320  -325  -342  -383  -437  -474  -480  -469  -460  -460  -468  -481  -502  -533  -563  -545  -441  -283  -153  -104  -152  -303  -505  -647  -645  -495  -280  -119  -55  -47  -53  -75  -127  -196  -249  -278  -298  -320  -324  -285  -206  -117  -41  -17  -67  -150  -272  -484  -578  -149  903  2185  3160  3469  2983  1945  928  300  2  -89  -40  35  60  57  55  55  57  66  92  129  159  170  154  105  39  -7  -12  17  60  93  123  162  202  235  274  319  364  403  423  422  410  389  361  341  344  368  395  408  409  406  412  431  456  476  502  554  633  717  776  778  702  561  400  271  188  128  70  18  -39  -126  -236  -344  -455  -562  -624  -629  -613  -602  -585  -540  -475  -424  -407  -410  -408  -392  -372  -362  -355  -334  -300  -289  -333  -408  -460  -463  -433  -418  -437  -450  -415  -364  -365  -424  -476  -476  -437  -409  -419  -449  -461  -420  -298  -95  118  254  285  230  119  -1  -79  -101  -87  -54  -17  12  30  42  58  75  77  34  -125  -484  -922  -1053  -557  520  1839  2896  3230  2729  1702  626  -209  -763  -985  -844  -566  -409  -400  -435  -415  -347  -323  -351  -358  -313  -258  -231  -221  -202  -174  -155  -181  -262  -352  -404  -418  -419  -412  -379  -312  -243  -175  -45  149  305  364  370  376  394  413  429  444  463  483  512  554  605  646  665  650  578  443  290  174  115  99  106  129  162  183  135  -33  -282  -491  -592  -602  -566  -521  -489  -469  -463  -477  -507  -543  -591  -661  -728  -729  -651  -562  -524  -531  -547  -547  -546  -580  -651  -711  -707  -644  -568  -513  -485  -477  -460  -386  -195  104  399  579  636  624  597  583  593  623  652  661  652  638  611  551  451  321  195  138  170  217  218  181  106  -29  -235  -450  -586  -631  -670  -777  -839  -580  176  1320  2414  2949  2729  1940  954  167  -210  -255  -135  -24  -80  -250  -381  -435  -450  -459  -479  -511  -531  -522  -496  -450  -361  -235  -124  -65  -53  -66  -92  -129  -177  -227  -269  -299  -320  -336  -350  -356  -334  -250  -67  167  337  394  382  354  332  328  348  385  424  461  491  507  498  462  391  285  174  85  -10  -151  -315  -445  -510  -510  -456  -357  -227  -111  -64  -101  -182  -255  -300  -325  -339  -344  -338  -308  -246  -156  -61  14  73  153  297  504  714  853  894  821  613  328  98  -10  -33  -23  -11  -6  -17  -47  -85  -100  -73  -19  39  97  154  189  156  28  -152  -293  -343  -289  -130  75  218  232  143  19  -71  -105  -110  -126  -178  -291  -492  -697  -677  -380  -108  -90  -214  -178  376  1559  2893  3644  3428  2383  1004  -90  -544  -483  -228  -16  -33  -273  -492  -533  -433  -277  -136  -56  -30  -33  -53  -86  -120  -141  -149  -155  -163  -159  -127  -88  -72  -80  -88  -91  -103  -139  -188  -195  -116  28  182  304  372  391  395  410  427  421  386  350  345  366  367  311  206  79  -25  -57  -32  -3  39  113  180  214  229  230  168  -6  -244  -420  -480  -464  -420  -372  -335  -319  -321  -332  -331  -288  -194  -86  -13  14  26  41  52  50  42  38  42  46  41  20  -16  -62  -119  -184  -240  -267  -266  -255  -248  -248  -247  -245  -254  -283  -312  -303  -240  -129  -6  84  127  137  140  148  163  176  182  173  142  93  45  16  4  -29  -139  -335  -544  -665  -622  -486  -508  -701  -649  -24  1050  2169  2838  2646  1621  304  -729  -1247  -1231  -830  -417  -271  -330  -422  -512  -646  -811  -938  -997  -1004  -943  -772  -513  -261  -85  15  60  71  68  55  20  -38  -98  -138  -164  -186  -203  -216  -233  -240  -191  -43  157  305  361  371  378  383  370  347  342  380  448  484  444  368  320  314  327  342  356  364  325  199  5  -180  -302  -356  -363  -349  -337  -354  -419  -507  -567  -580  -578  -588  -606  -608  -592  -573  -561  -554  -543  -526  -507  -498  -517  -578  -665  -743  -810  -882  -940  -949  -937  -954  -988  -1010  -1027  -1051  -1043  -903  -571  -155  148  271  285  272  272  302  378  500  618  669  628  520  399  313  276  265  242  182  71  -97  -274  -360  -276  -60  100  57  -138  -381  -596  -611  -242  501  1441  2301  2714  2423  1505  381  -405  -572  -292  52  176  8  -230  -280  -169  -66  -36  -79  -199  -357  -477  -514  -465  -331  -116  132  311  328  205  44  -82  -136  -47  249  662  956  953  644  205  -102  -132  84  391  606  664  612  520  440  410  439  511  591  653  692  716  736  759  773  762  716  656  608  557  452  291  136  44  16  15  -6  -62  -112  -129  -144  -181  -236  -312  -391  -444  -482  -522  -550  -544  -485  -385  -276  -196  -170  -199  -244  -266  -266  -263  -262  -258  -247  -237  -245  -287  -366  -455  -527  -580  -613  -596  -494  -332  -185  -90  -38  -17  -21  -29  -16  14  53  100  144  147  64  -118  -337  -497  -574  -618  -689  -837  -1061  -1240  -1188  -832  -354  -149  -369  -618  -396  434  1622  2587  2770  2058  793  -450  -1217  -1417  -1228  -912  -658  -518  -461  -430  -401  -375  -344  -290  -225  -187  -184  -198  -213  -225  -237  -252  -266  -277  -289  -302  -309  -297  -257  -192  -98  52  239  372  400  370  345  338  335  325  319  357  464  586  653  672  709  810  965  1116  1213  1219  1124  994  922  931  977  1012  1034  1060  1071  978  706  340  75  -8  13  44  27  -60  -187  -277  -270  -159  -3  110  146  118  51  -25  -75  -89  -92  -102  -119  -139  -167  -198  -219  -211  -166  -98  -39  -4  12  13  -29  -141  -291  -407  -434  -361  -230  -124  -85  -91  -105  -107  -79  -26  4  -42  -175  -343  -480  -551  -571  -572  -575  -568  -529  -488  -517  -568  -527  -439  -420  -466  -444  -155  541  1537  2416  2682  2116  979  -127  -697  -663  -344  -134  -232  -511  -689  -664  -537  -377  -188  -15  53  -16  -158  -267  -309  -316  -325  -351  -388  -398  -355  -284  -227  -202  -208  -229  -240  -197  -68  107  238  301  339  377  416  452  465  451  442  460  501  533  508  415  314  284  346  456  558  650  737  775  698  497  258  91  28  7  -53  -177  -316  -417  -464  -453  -366  -219  -76  -5  -53  -237  -484  -663  -713  -668  -584  -500  -435  -389  -342  -268  -142  15  143  204  221  220  193  132  62  12  -14  -38  -77  -122  -151  -156  -140  -109  -73  -52  -62  -86  -71  26  173  263  236  146  46  -81  -238  -375  -467  -526  -578  -650  -748  -817  -775  -651  -564  -563  -571  -404  132  1029  2017  2711  2789  2138  988  -149  -835  -970  -755  -478  -330  -343  -423  -462  -432  -355  -273  -235  -261  -319  -371  -405  -417  -407  -362  -263  -137  -48  -17  -20  -35  -58  -76  -51  36  137  190  194  189  209  255  311  368  424  489  576  672  740  766  762  739  687  592  482  418  435  519  638  753  828  858  861  834  737  542  305  127  18  -100  -286  -500  -656  -715  -694  -590  -400  -185  -37  14  13  3  -5  -31  -88  -178  -289  -375  -375  -281  -152  -45  10  6  -61  -180  -320  -436  -476  -417  -298  -174  -59  68  208  332  403  400  311  150  -13  -104  -115  -94  -75  -73  -97  -157  -234  -292  -318  -321  -305  -272  -247  -242  -225  -170  -190  -470  -951  -1323  -1286  -621  640  2021  2920  3054  2508  1519  398  -460  -882  -960  -785  -505  -357  -401  -516  -611  -659  -650  -592  -513  -448  -409  -386  -374  -357  -319  -258  -197  -157  -143  -153  -173  -199  -223  -218  -160  -68  4  35  28  -19  -102  -134  -9  226  409  464  442  396  337  268  206  146  51  -57  -92  -38  36  79  83  78  83  69  8  -92  -232  -388  -512  -584  -645  -752  -901  -1025  -1076  -1057  -994  -923  -869  -810  -713  -598  -527  -523  -551  -581  -609  -633  -643  -635  -608  -566  -504  -399  -260  -147  -98  -98  -117  -127  -98  -6  125  229  265  247  213  184  160  145  141  139  139  143  162  211  279  328  308  186  -11  -194  -281  -240  -74  143  302  373  410  449  467  419  264  22  -193  -195  253  1202  2289  3028  3164  2700  1796  767  -17  -364  -285  74  423  508  311  -4  -250  -355  -347  -274  -172  -66  26  106  177  229  254  246  199  123  33  -62  -147  -194  -189  -138  -67  -5  48  124  220  292  329  373  468  596  689  698  629  530  455  429  432  437  433  418  400  387  388  413  470  553  634  680  636  447  147  -129  -286  -336  -340  -340  -340  -336  -325  -317  -331  -373  -430  -474  -485  -469  -442  -410  -377  -363  -382  -424  -465  -490  -501  -492  -434  -318  -202  -154  -176  -247  -370  -513  -625  -695  -742  -778  -806  -819  -783  -645  -403  -150  2  31  -28  -149  -301  -412  -412  -338  -287  -273  -246  -231  -305  -475  -656  -758  -755  -671  -559  -479  -459  -494  -575  -702  -837  -931  -964  -900  -567  233  1422  2545  3055  2669  1563  267  -637  -865  -605  -272  -146  -260  -422  -428  -312  -214  -187  -236  -374  -560  -692  -679  -498  -231  -18  56  7  -120  -263  -360  -378  -305  -145  40  168  220  245  299  412  579  750  861  889  856  783  701  649  661  744  867  964  1002  997  976  938  859  739  628  570  559  567  577  584  581  545  451  317  189  82  -16  -97  -147  -174  -180  -148  -67  35  110  133  121  91  42  -12  -40  -10  69  159  199  153  44  -68  -135  -146  -118  -68  -16  10  -6  -65  -159  -272  -358  -377  -347  -311  -284  -247  -180  -91  -23  1  -14  -57  -108  -145  -157  -137  -83  -13  37  55  59  59  42  -14  -95  -156  -188  -228  -304  -417  -512  -470  -293  -218  -395  -660  -690  -185  835  1884  2420  2211  1336  151  -844  -1340  -1297  -852  -298  49  59  -172  -421  -536  -534  -486  -417  -324  -224  -157  -145  -174  -215  -241  -234  -200  -159  -109  -32  56  117  141  147  154  173  201  226  236  229  219  238  316  439  557  631  658  664  685  732  760  724  658  622  620  644  675  679  661  658  666  632  489  245  6  -137  -180  -171  -149  -134  -136  -179  -288  -434  -539  -568  -549  -524  -518  -535  -559  -566  -524  -409  -255  -138  -99  -123  -182  -244  -283  -302  -327  -374  -433  -479  -499  -488  -433  -334  -227  -160  -142  -161  -208  -261  -273  -213  -109  -19  42  110  186  205  110  -74  -261  -403  -513  -596  -637  -640  -637  -649  -644  -517  -214  87  97  -279  -840  -1187  -994  -245  828  1819  2266  2001  1228  322  -316  -496  -343  -92  18  -155  -428  -494  -348  -170  -46  24  57  46  -76  -357  -708  -945  -935  -655  -224  139  309  330  294  230  139  40  -38  -82  -85  -23  127  318  459  515  521  511  490  454  421  414  448  518  608  727  888  1049  1152  1174  1126  1037  932  834  762  711  666  602  455  164  -199  -465  -552  -502  -361  -189  -64  -16  -11  -11  9  49  66  6  -136  -302  -423  -479  -492  -485  -447  -352  -221  -120  -82  -86  -99  -111  -116  -112  -96  -72  -55  -64  -107  -173  -234  -267  -266  -248  -238  -240  -243  -242  -241  -257  -297  -338  -348  -327  -298  -270  -248  -235  -227  -224  -222  -226  -252  -317  -376  -297  -24  185  -33  -646  -1168  -1093  -246  1118  2428  3129  2987  2114  880  -202  -802  -901  -618  -215  -69  -256  -498  -594  -582  -548  -521  -484  -434  -428  -514  -645  -721  -675  -528  -382  -309  -264  -189  -87  11  69  79  71  78  121  197  292  379  431  437  421  412  437  484  524  542  546  547  549  552  550  529  491  471  493  536  564  559  514  437  352  280  237  217  192  129  10  -138  -256  -321  -363  -383  -339  -197  24  240  327  208  -73  -369  -545  -590  -571  -532  -474  -400  -331  -300  -329  -396  -453  -460  -406  -307  -198  -114  -73  -64  -70  -81  -94  -106  -116  -120  -120  -116  -89  -38  8  32  40  42  43  38  23  -4  -46  -100  -177  -295  -417  -476  -472  -464  -496  -606  -770  -883  -876  -782  -637  -373  179  1077  2066  2708  2675  1939  801  -248  -798  -785  -501  -278  -218  -250  -326  -426  -505  -538  -541  -541  -546  -539  -498  -436  -387  -371  -374  -374  -352  -300  -232  -165  -112  -78  -65  -47  -6  48  103  156  207  268  339  400  428  425  416  431  472  525  570  591  590  589  600  615  609  549  415  259  168  153  157  154  153  155  138  90  26  -18  -29  -25  -38  -83  -155  -233  -295  -332  -361  -397  -418  -400  -370  -365  -386  -402  -373  -283  -165  -86  -92  -182  -307  -398  -428  -415  -383  -347  -324  -319  -322  -319  -304  -275  -222  -127  -10  74  103  101  98  111  146  181  186  154  112  91  94  95  82  62  22  -67  -183  -259  -257  -206  -134  -40  28  -105  -562  -1098  -1262  -807  282  1778  3087  3589  3134  2038  765  -265  -801  -866  -672  -404  -172  -54  -53  -106  -158  -191  -206  -206  -172  -88  3  -1  -158  -370  -482  -463  -402  -353  -289  -167  -15  94  128  113  80  50  35  35  36  29  45  145  359  615  790  834  797  739  682  633  585  521  459  432  432  431  432  447  475  523  582  611  555  403  226  93  3  -55  -78  -76  -72  -92  -175  -344  -556  -705  -704  -524  -228  39  173  192  170  146  107  46  6  31  87  121  125  125  140  163  173  155  93  -15  -134  -200  -179  -87  35  140  185  122  -82  -364  -565  -572  -393  -144  33  90  76  45  21  11  20  35  18  -87  -294  -530  -696  -765  -771  -720  -607  -511  -565  -788  -985  -822  -87  1098  2321  3024  2831  1872  610  -451  -890  -663  -209  0  -172  -567  -888  -946  -757  -474  -246  -118  -60  -60  -116  -208  -284  -274  -191  -134  -178  -298  -404  -429  -379  -318  -287  -275  -255  -211  -134  -42  24  47  45  37  34  40  69  136  227  304  350  375  387  387  374  344  300  252  212  190  205  285  409  479  399  168  -126  -371  -500  -528  -496  -417  -303  -196  -153  -225  -432  -697  -889  -952  -937  -914  -906  -868  -754  -599  -484  -412  -303  -134  22  89  36  -122  -325  -486  -558  -565  -553  -545  -543  -548  -557  -561  -535  -450  -331  -234  -185  -172  -192  -264  -380  -502  -596  -628  -559  -387  -201  -113  -128  -187  -262  -343  -427  -512  -582  -633  -689  -778  -887  -918  -733  -382  -158  -247  -481  -515  -43  989  2186  2890  2721  1824  712  -87  -389  -356  -216  -100  -26  63  197  331  415  435  414  381  359  352  355  361  371  381  385  365  306  235  216  291  417  508  526  502  477  463  453  438  414  387  382  411  453  503  584  693  782  820  821  810  805  812  834  865  890  896  870  805  722  650  608  598  613  633  624  533  342  116  -65  -184  -262  -319  -341  -313  -254  -197  -156  -123  -95  -84  -113  -194  -317  -438  -487  -399  -180  70  233  289  296  299  310  325  322  272  148  -23  -161  -220  -226  -222  -220  -192  -110  -2  51  -2  -117  -174  -95  72  186  144  -4  -130  -175  -178  -192  -234  -305  -402  -490  -515  -485  -443  -389  -312  -293  -445  -755  -1007  -943  -461  395  1430  2257  2525  2129  1231  211  -527  -815  -765  -609  -507  -501  -542  -564  -571  -600  -634  -642  -620  -585  -555  -521  -463  -396  -366  -390  -418  -398  -334  -266  -220  -186  -147  -123  -146  -215  -313  -386  -356  -200  25  237  373  437  471  481  446  381  323  294  299  330  379  428  463  483  491  495  526  616  750  841  775  496  113  -165  -271  -302  -357  -435  -480  -473  -434  -382  -325  -283  -268  -291  -357  -445  -508  -529  -524  -505  -468  -402  -325  -272  -255  -260  -269  -278  -293  -309  -300  -256  -213  -205  -224  -243  -253  -256  -256  -240  -190  -93  30  135  186  190  168  131  77  11  -49  -91  -106  -107  -128  -196  -292  -364  -396  -412  -433  -465  -482  -419  -268  -133  -135  -289  -433  -319  208  1117  2100  2675  2548  1786  700  -273  -777  -752  -396  23  274  224  -18  -223  -300  -313  -322  -335  -344  -351  -356  -339  -268  -144  -17  62  93  99  100  112  145  194  247  288  312  329  354  391  429  448  437  406  365  319  279  261  281  355  463  565  638  689  747  850  984  1084  1098  1021  885  749  647  560  450  293  91  -126  -310  -416  -444  -437  -425  -416  -410  -408  -407  -407  -411  -425  -445  -462  -470  -472  -470  -465  -461  -462  -479  -524  -586  -628  -614  -533  -419  -321  -231  -121  -30  -32  -124  -226  -282  -306  -345  -418  -491  -511  -467  -387  -295  -208  -152  -130  -125  -124  -124  -125  -126  -121  -107  -90  -101  -165  -275  -389  -459  -468  -491  -617  -822  -1022  -1143  -1000  -373  683  1834  2679  2906  2470  1622  685  -61  -398  -317  -27  236  293  90  -218  -445  -544  -566  -557  -536  -492  -398  -259  -131  -69  -83  -145  -208  -238  -249  -252  -234  -189  -120  -43  9  25  15  2  13  81  209  352  459  513  532  535  536  536  532  515  486  454  429  420  440  489  549  605  659  696  677  587  467  346  206  53  -57  -102  -110  -111  -120  -146  -184  -223  -251  -256  -240  -233  -266  -327  -375  -396  -399  -385  -336  -254  -173  -139  -179  -266  -315  -273  -198  -158  -134  -65  61  171  161  1  -244  -474  -619  -660  -624  -569  -506  -388  -203  -15  106  163  203  238  232  163  63  -8  -43  -97  -233  -472  -751  -960  -1050  -1001  -732  -213  316  491  162  -505  -1078  -998  -45  1398  2704  3377  3170  2202  934  -122  -709  -866  -767  -577  -427  -369  -363  -353  -316  -268  -232  -209  -182  -139  -71  7  61  72  42  -25  -116  -188  -211  -224  -273  -317  -290  -196  -91  -25  -4  -6  -13  -22  -26  -1  81  214  358  475  545  565  556  546  550  571  606  643  669  690  709  712  678  595  479  362  265  193  156  139  100  15  -84  -155  -184  -196  -217  -255  -315  -402  -479  -504  -488  -468  -447  -402  -321  -223  -144  -91  -52  -30  -28  -39  -57  -94  -153  -200  -203  -178  -163  -177  -212  -240  -250  -264  -289  -304  -292  -256  -211  -159  -98  -62  -94  -174  -246  -282  -289  -279  -226  -95  68  127  1  -227  -403  -466  -469  -466  -466  -471  -467  -410  -319  -350  -626  -1044  -1326  -1126  -232  1182  2568  3327  3160  2212  985  69  -204  33  362  468  334  97  -126  -287  -402  -507  -593  -647  -671  -637  -525  -363  -187  -38  43  72  108  191  284  291  180  31  -65  -99  -85  -39  16  56  80  95  99  99  115  182  320  485  601  638  628  605  572  523  470  437  441  475  507  505  474  451  447  427  334  167  -1  -98  -121  -112  -122  -186  -291  -380  -417  -416  -421  -437  -397  -280  -169  -126  -130  -145  -141  -99  -21  50  49  -31  -122  -175  -212  -260  -315  -366  -404  -422  -424  -409  -354  -226  -56  70  114  94  27  -66  -160  -236  -290  -325  -350  -383  -431  -460  -438  -380  -310  -229  -130  -9  114  219  304  371  380  252  -42  -391  -625  -707  -712  -697  -669  -642  -672  -765  -798  -716  -723  -906  -897  -287  943  2451  3597  3788  2935  1495  143  -660  -889  -776  -557  -413  -403  -443  -454  -441  -426  -408  -373  -327  -294  -295  -331  -385  -429  -451  -444  -401  -319  -214  -116  -56  -39  -44  -48  -48  -47  -48  -47  -28  20  78  120  136  136  158  241  373  508  598  624  610  595  590  589  581  573  582  613  625  542  330  65  -129  -209  -216  -207  -215  -252  -300  -327  -324  -313  -311  -313  -326  -375  -458  -526  -551  -545  -538  -552  -598  -661  -710  -733  -721  -653  -518  -357  -249  -239  -294  -336  -319  -258  -181  -95  -11  41  55  57  76  106  105  56  24  72  177  265  307  322  333  359  405  446  455  433  415  453  546  640  691  705  704  712  734  732  636  401  102  -114  -197  -200  -175  -114  -51  -112  -338  -563  -643  -631  -562  -247  572  1905  3318  4101  3759  2389  628  -747  -1305  -1132  -582  -19  309  376  264  27  -253  -445  -475  -380  -243  -139  -83  -52  -33  -26  -26  -29  -33  -38  -35  -7  56  136  199  234  243  232  205  162  98  37  19  74  191  313  390  416  414  403  401  433  522  672  861  1034  1115  1075  960  829  700  577  482  405  325  241  157  53  -69  -174  -254  -343  -446  -517  -538  -534  -529  -531  -535  -540  -546  -563  -607  -666  -688  -634  -526  -425  -367  -347  -343  -340  -316  -263  -206  -182  -209  -296  -411  -495  -522  -514  -503  -509  -531  -551  -544  -508  -455  -392  -335  -284  -216  -133  -66  -29  -18  -16  -9  12  40  54  42  18  3  0]
