reading_id,reading_time,wire_id,result_classification,heart_rate,heart_rate_alert,firmware_version,device_app_version,hardware_version,waveform_samples
4be826a0-56dd-11ed-8080-808080808080,Fri Oct 28 16:26:37 UTC 2022,e100638c1a39,NSR,64,NONE,20001.171.50,2.10.0,Charge 5,[-31510  -32550  -32768  -32768  -32768  -32768  -32768  -32768  -32768  -32768  -32768  -32768  -32768  -32768  -32768  -32768  -32768  -32768  -32768  -32768  -32768  -32768  -32768  -32768  -32768  -32768  -32768  -32768  -32768  -32768  -30799  -28968  -27172  -25186  -22861  -20082  -16878  -13490  -10334  -7821  -5984  -4419  -2613  -207  2837  6109  9006  11251  12983  14446  15750  16929  18214  19962  22203  24548  26435  27436  27535  27003  26182  25456  25067  24964  25005  25172  25526  26145  27255  29176  31853  32767  32767  32767  32767  32767  32767  32767  32767  32767  32767  32767  32767  32767  32767  32767  32767  32767  32767  32767  32767  32767  32767  32767  32767  32767  32767  32616  32028  31234  30298  29333  28506  27905  27466  27097  26739  26374  26024  25725  25483  25278  25079  24835  24467  23926  23297  22694  22094  21393  20470  19250  17826  16340  14803  13204  11522  9760  8146  7136  7186  8405  10487  13005  15554  17815  19749  21539  23197  24445  25149  25544  25875  26152  26301  26344  26359  26329  26061  25357  24271  23015  21699  20379  19158  18091  17104  16104  15156  14441  14014  13749  13515  13280  13087  12962  12815  12466  11839  11085  10454  10125  10162  10562  11252  12181  13443  15074  16765  18085  18923  19437  19744  19900  19971  20008  20029  20023  19969  19846  19580  19053  18193  17079  15815  14347  12688  11053  9576  8234  6903  5482  4091  2904  1862  805  -345  -1596  -2811  -3741  -4291  -4642  -5049  -5713  -6785  -8320  -10208  -12184  -13947  -15240  -15918  -16070  -15903  -15537  -15099  -14776  -14641  -14614  -14617  -14628  -14645  -14657  -14663  -14669  -14675  -14654  -14575  -14441  -14304  -14202  -14127  -14051  -13931  -13728  -13468  -13238  -13088  -12987  -12881  -12711  -12356  -11660  -10608  -9351  -8055  -6918  -6177  -5825  -5605  -5353  -5064  -4762  -4487  -4309  -4252  -4287  -4391  -4544  -4710  -4911  -5247  -5812  -6599  -7469  -8246  -8880  -9453  -10072  -10805  -11628  -12425  -13104  -13679  -14227  -14806  -15365  -15788  -16038  -16171  -16250  -16309  -16362  -16386  -16289  -15994  -15590  -15282  -15149  -15107  -15076  -15031  -14983  -14929  -14840  -14697  -14531  -14389  -14267  -14113  -13892  -13638  -13406  -13183  -12903  -12529  -12057  -11511  -11009  -10697  -10550  -10432  -10278  -10118  -10005  -9937  -9868  -9789  -9738  -9757  -9855  -9991  -10114  -10204  -10254  -10279  -10316  -10390  -10486  -10586  -10707  -10864  -11023  -11117  -11078  -10894  -10661  -10499  -10433  -10416  -10404  -10382  -10356  -10326  -10236  -9989  -9502  -8801  -8105  -7658  -7472  -7399  -7333  -7244  -7137  -7035  -6945  -6842  -6672  -6342  -5760  -5013  -4387  -4084  -4039  -4083  -4102  -4037  -3867  -3637  -3407  -3132  -2707  -2117  -1481  -965  -625  -354  -24  384  791  1135  1461  1839  2220  2473  2551  2519  2467  2439  2409  2312  2115  1878  1709  1657  1679  1680  1621  1569  1600  1699  1861  2158  2603  3050  3338  3471  3532  3576  3638  3719  3747  3676  3595  3567  3480  3252  2891  2294  1376  255  -938  -2117  -2999  -3240  -2810  -1940  -934  -123  393  838  1417  2144  2901  3531  3975  4280  4501  4657  4758  4830  4914  5051  5248  5459  5646  5859  6153  6456  6645  6686  6616  6461  6247  6022  5840  5719  5648  5594  5528  5447  5362  5263  5113  4916  4733  4610  4547  4494  4395  4254  4110  3956  3763  3538  3321  3148  3031  2930  2780  2583  2398  2243  2118  2066  2118  2254  2431  2592  2684  2708  2701  2671  2607  2523  2482  2547  2731  2994  3252  3430  3526  3605  3713  3830  3911  3959  4035  4190  4387  4533  4591  4605  4615  4591  4434  4067  3569  3125  2827  2637  2488  2304  1987  1515  1024  682  516  446  377  251  103  -3  -102  -264  -473  -636  -712  -742  -766  -820  -942  -1132  -1325  -1461  -1541  -1598  -1654  -1706  -1719  -1684  -1630  -1591  -1606  -1677  -1748  -1783  -1790  -1791  -1795  -1798  -1798  -1797  -1801  -1823  -1884  -1982  -2082  -2159  -2229  -2322  -2433  -2526  -2589  -2651  -2727  -2790  -2805  -2779  -2726  -2601  -2353  -2052  -1842  -1777  -1793  -1820  -1831  -1825  -1799  -1722  -1549  -1263  -902  -541  -231  68  459  950  1433  1812  2066  2212  2273  2290  2302  2299  2188  1861  1378  943  646  398  136  -88  -211  -255  -297  -372  -469  -587  -745  -932  -1096  -1198  -1249  -1272  -1312  -1391  -1429  -1310  -1013  -522  242  1231  2151  2670  2642  2100  1137  -179  -1763  -3440  -4872  -5550  -5175  -4021  -2606  -1271  -247  380  785  1122  1361  1449  1344  995  486  44  -203  -324  -442  -629  -870  -1096  -1266  -1378  -1435  -1446  -1437  -1444  -1485  -1540  -1552  -1457  -1213  -773  -118  647  1323  1799  2165  2588  3101  3598  4027  4393  4661  4792  4829  4844  4869  4913  5019  5242  5538  5755  5793  5655  5412  5182  5035  4936  4813  4643  4458  4294  4126  3899  3549  3038  2475  2052  1784  1532  1261  1051  929  853  807  809  858  915  923  872  811  768  706  584  415  245  98  -31  -165  -300  -410  -488  -534  -536  -483  -374  -200  25  232  329  289  183  102  76  76  69  57  71  131  207  230  151  -4  -146  -220  -259  -332  -466  -618  -728  -797  -863  -943  -1018  -1074  -1133  -1251  -1495  -1876  -2296  -2606  -2747  -2775  -2766  -2757  -2755  -2755  -2746  -2693  -2533  -2219  -1788  -1288  -711  -116  316  498  513  474  406  297  177  97  71  71  86  125  202  313  432  523  588  696  914  1190  1389  1431  1313  1078  821  620  451  243  -30  -326  -564  -695  -683  -490  -144  222  475  559  500  373  252  168  120  117  163  230  276  277  210  84  -13  23  311  965  1892  2756  3225  3136  2463  1274  -203  -1713  -3106  -4173  -4622  -4371  -3620  -2612  -1573  -778  -339  -141  -26  103  235  282  242  206  216  268  363  492  634  768  864  895  859  774  680  624  609  602  560  458  306  164  88  74  85  95  92  71  36  -8  -64  -122  -168  -204  -251  -307  -356  -399  -437  -488  -582  -723  -893  -1094  -1306  -1472  -1562  -1631  -1780  -2061  -2416  -2742  -2984  -3144  -3255  -3381  -3561  -3765  -3922  -3984  -3988  -3994  -3996  -3962  -3893  -3809  -3721  -3612  -3444  -3225  -3020  -2876  -2794  -2752  -2725  -2697  -2648  -2551  -2429  -2340  -2301  -2261  -2159  -2003  -1871  -1791  -1682  -1449  -1102  -743  -469  -302  -207  -149  -100  -30  62  167  291  432  574  694  767  790  787  779  771  759  756  795  909  1071  1213  1295  1324  1325  1316  1302  1280  1248  1219  1199  1183  1165  1144  1127  1116  1111  1110  1117  1141  1188  1263  1383  1555  1766  2030  2362  2688  2888  2922  2828  2652  2439  2218  1999  1773  1508  1194  862  551  295  129  59  52  65  81  105  139  184  255  351  445  521  580  636  698  779  942  1274  1777  2318  2757  3053  3221  3247  3028  2425  1422  217  -846  -1493  -1708  -1667  -1503  -1264  -1003  -794  -687  -671  -712  -789  -878  -954  -1013  -1064  -1103  -1110  -1089  -1065  -1054  -1051  -1047  -1050  -1082  -1163  -1289  -1400  -1428  -1380  -1308  -1230  -1150  -1079  -1028  -1009  -1013  -1019  -1017  -1001  -945  -809  -610  -431  -296  -126  125  393  596  744  899  1096  1298  1434  1476  1428  1289  1099  943  863  820  752  635  482  326  200  105  18  -77  -189  -301  -380  -412  -413  -396  -357  -269  -101  126  333  447  426  237  -100  -458  -713  -885  -1056  -1234  -1366  -1434  -1467  -1493  -1511  -1503  -1455  -1365  -1253  -1150  -1092  -1107  -1199  -1325  -1422  -1464  -1476  -1473  -1441  -1366  -1271  -1207  -1194  -1204  -1214  -1223  -1235  -1228  -1143  -914  -534  -90  280  492  561  553  522  469  374  248  141  76  37  8  -6  -1  9  -10  -83  -178  -222  -180  -86  -6  30  36  31  27  23  8  -23  -59  -86  -95  -83  -79  -114  -174  -223  -236  -209  -151  -64  51  154  207  251  341  462  548  586  642  803  1067  1337  1532  1651  1722  1759  1765  1733  1640  1473  1272  1114  1044  1068  1166  1285  1374  1415  1422  1418  1417  1444  1530  1661  1776  1806  1701  1451  1141  924  866  926  1044  1186  1372  1672  2102  2573  2965  3211  3220  2785  1754  372  -836  -1557  -1824  -1813  -1657  -1401  -1082  -776  -572  -490  -475  -469  -471  -510  -569  -594  -572  -543  -534  -521  -460  -343  -208  -111  -71  -70  -78  -71  -38  14  73  143  220  298  397  544  707  836  923  982  1021  1057  1118  1205  1283  1327  1340  1344  1338  1299  1208  1095  1019  995  989  969  934  908  898  899  905  922  973  1074  1201  1303  1351  1360  1360  1363  1351  1290  1161  993  829  707  652  654  676  692  707  728  758  805  894  1030  1167  1265  1331  1399  1506  1666  1841  1963  2025  2063  2100  2146  2195  2229  2240  2246  2276  2346  2452  2581  2710  2812  2868  2885  2883  2881  2889  2912  2922  2843  2605  2280  2038  1951  1960  1990  1996  1923  1734  1491  1312  1214  1061  714  201  -299  -626  -761  -786  -788  -815  -912  -1126  -1441  -1738  -1913  -1975  -2001  -2038  -2091  -2157  -2234  -2318  -2409  -2501  -2595  -2707  -2827  -2907  -2929  -2935  -2976  -3066  -3168  -3232  -3249  -3239  -3226  -3233  -3276  -3346  -3421  -3473  -3466  -3385  -3255  -3104  -2962  -2869  -2851  -2871  -2878  -2859  -2792  -2642  -2446  -2300  -2247  -2247  -2243  -2204  -2124  -2014  -1907  -1839  -1814  -1816  -1827  -1840  -1849  -1852  -1850  -1845  -1848  -1877  -1939  -2013  -2063  -2069  -2029  -1945  -1829  -1714  -1643  -1626  -1637  -1647  -1646  -1637  -1626  -1620  -1618  -1613  -1590  -1540  -1454  -1317  -1104  -832  -562  -349  -190  -39  144  334  458  496  492  483  466  422  351  277  220  168  88  -31  -147  -218  -242  -245  -239  -228  -211  -187  -160  -149  -150  -128  -67  -11  -23  -148  -368  -611  -765  -686  -255  495  1375  2117  2532  2591  2350  1833  1016  -128  -1484  -2703  -3394  -3380  -2768  -1909  -1217  -855  -705  -589  -453  -357  -332  -342  -347  -347  -359  -388  -402  -369  -306  -249  -212  -197  -203  -215  -223  -220  -202  -171  -137  -110  -86  -52  2  71  129  167  204  285  459  720  976  1130  1171  1154  1137  1164  1268  1428  1594  1752  1893  1995  2066  2133  2194  2233  2247  2227  2142  1971  1750  1553  1439  1412  1417  1357  1155  848  573  415  342  284  203  101  13  -27  -33  -48  -105  -186  -246  -269  -275  -275  -270  -261  -254  -256  -260  -235  -129  84  336  514  589  617  644  664  662  642  625  632  669  722  744  696  615  548  501  466  442  433  437  449  475  526  588  632  647  646  639  628  614  623  685  791  893  955  979  982  966  917  825  717  638  594  564  537  524  539  574  616  666  729  778  750  579  279  -18  -201  -288  -379  -531  -712  -854  -938  -998  -1057  -1120  -1186  -1247  -1280  -1278  -1258  -1238  -1230  -1246  -1294  -1360  -1408  -1414  -1378  -1319  -1254  -1179  -1081  -979  -906  -870  -830  -742  -614  -497  -424  -378  -330  -273  -193  -56  138  328  465  576  703  831  920  958  963  969  1007  1083  1173  1240  1259  1238  1218  1214  1207  1196  1202  1237  1302  1389  1471  1519  1520  1470  1373  1257  1148  1058  990  944  904  857  799  737  678  624  560  481  416  384  369  353  319  262  196  144  122  113  69  -30  -70  151  725  1577  2551  3396  3841  3751  3133  2087  795  -560  -1839  -2825  -3261  -3063  -2393  -1561  -873  -498  -401  -429  -464  -472  -462  -444  -422  -401  -391  -390  -385  -356  -279  -145  26  202  347  439  467  431  337  213  101  20  -32  -52  -47  -68  -123  -158  -135  -61  36  116  167  214  278  351  419  481  553  653  795  959  1087  1133  1110  1062  1023  1000  988  981  955  875  733  547  336  146  35  -10  -91  -280  -541  -769  -907  -964  -973  -969  -1000  -1115  -1304  -1502  -1669  -1806  -1913  -1986  -2031  -2054  -2066  -2088  -2133  -2204  -2302  -2405  -2490  -2563  -2646  -2717  -2712  -2598  -2416  -2220  -2005  -1753  -1476  -1211  -1034  -1013  -1156  -1409  -1678  -1862  -1882  -1718  -1423  -1092  -846  -772  -804  -806  -753  -691  -619  -506  -346  -179  -53  28  118  255  431  625  838  1047  1206  1309  1389  1478  1583  1694  1778  1803  1775  1734  1705  1677  1627  1538  1438  1394  1448  1569  1681  1736  1742  1731  1722  1723  1735  1759  1794  1832  1881  1956  2042  2111  2158  2185  2199  2208  2221  2244  2269  2279  2261  2199  2068  1881  1699  1580  1536  1542  1560  1545  1449  1253  991  731  541  443  399  356  281  179  56  -87  -232  -371  -478  -393  59  818  1591  2019  1895  1273  315  -827  -2035  -3244  -4361  -5134  -5280  -4767  -3795  -2630  -1594  -927  -588  -387  -244  -194  -282  -483  -694  -816  -831  -774  -689  -605  -539  -493  -466  -461  -480  -506  -534  -600  -753  -981  -1190  -1312  -1362  -1378  -1376  -1354  -1287  -1173  -1057  -988  -955  -915  -840  -739  -633  -534  -419  -256  -70  66  124  131  111  66  15  -2  30  85  109  68  -73  -350  -716  -1063  -1355  -1645  -1933  -2139  -2235  -2279  -2328  -2401  -2509  -2670  -2854  -2980  -3014  -2982  -2915  -2822  -2701  -2545  -2334  -2074  -1823  -1609  -1379  -1136  -953  -807  -656  -584  -643  -723  -711  -629  -575  -634  -855  -1201  -1462  -1464  -1278  -1032  -766  -506  -254  23  297  476  532  509  447  358  264  192  123  0  -169  -308  -370  -378  -356  -296  -194  -67  51  138  187  206  208  221  277  397  572  781  986  1137  1223  1275  1338  1439  1560  1669  1763  1857  1937  1984  2000  1997  1992  2000  2021  2035  2012  1942  1834  1680  1487  1320  1239  1247  1319  1427  1534  1615  1657  1660  1630  1580  1534  1519  1539  1570  1585  1573  1546  1525  1517  1505  1467  1395  1308  1238  1206  1218  1273  1354  1408  1367  1187  919  682  553  563  741  1123  1699  2385  3070  3613  3820  3542  2730  1445  -79  -1511  -2510  -2829  -2460  -1657  -775  -104  224  273  207  137  79  22  -34  -85  -126  -162  -201  -245  -302  -364  -393  -361  -282  -190  -110  -49  -13  8  36  72  107  136  151  139  103  75  76  103  123  93  1  -125  -239  -304  -300  -218  -96  -2  38  50  68  107  156  193  210  216  216  207  183  133  35  -135  -352  -545  -665  -731  -797  -889  -995  -1086  -1144  -1214  -1392  -1721  -2107  -2400  -2530  -2529  -2467  -2396  -2323  -2241  -2151  -2069  -2010  -1973  -1937  -1890  -1837  -1789  -1730  -1622  -1417  -1102  -748  -450  -247  -127  -61  3  120  281  413  478  520  613  775  968  1151  1310  1429  1496  1517  1516  1506  1492  1478  1470  1465  1444  1393  1311  1214  1113  1017  933  855  770  690  640  616  582  512  413  300  170  35  -62  -102  -93  -61  -27  2  41  105  182  245  297  370  468  564  639  690  724  766  859  1023  1227  1425  1619  1828  2027  2162  2226  2241  2218  2163  2063  1912  1744  1605  1503  1432  1386  1348  1304  1253  1195  1127  1052  974  894  823  772  743  723  683  584  443  313  208  55  -236  -627  -958  -1157  -1262  -1318  -1337  -1325  -1284  -1233  -1206  -1247  -1403  -1634  -1818  -1895  -1902  -1895  -1896  -1914  -1963  -2054  -2160  -2148  -1819  -1129  -243  622  1265  1498  1225  471  -657  -2020  -3442  -4676  -5418  -5504  -5042  -4294  -3540  -3027  -2811  -2754  -2734  -2729  -2739  -2744  -2714  -2611  -2430  -2197  -1939  -1697  -1533  -1468  -1453  -1421  -1311  -1107  -857  -635  -475  -361  -252  -115  65  299  558  757  845  870  919  1038  1218  1404  1545  1628  1697  1804  1935  2019  2024  1986  1951  1939  1941  1949  1955  1945  1880  1731  1532  1346  1178  973  704  419  171  -63  -330  -619  -893  -1134  -1330  -1471  -1577  -1701  -1872  -2061  -2227  -2366  -2472  -2529  -2545  -2540  -2520  -2476  -2417  -2362  -2313  -2252  -2165  -2031  -1851  -1677  -1566  -1501  -1418  -1290  -1162  -1091  -1079  -1092  -1089  -1044  -955  -847  -755  -703  -696  -722  -768  -825  -888  -949  -1000  -1066  -1175  -1302  -1395  -1444  -1484  -1531  -1573  -1597  -1591  -1526  -1385  -1216  -1090  -1007  -917  -813  -712  -605  -466  -289  -95  69  184  274  373  481  587  678  742  776  797  826  858  877  896  973  1143  1364  1545  1634  1635  1575  1498  1450  1443  1467  1523  1606  1687  1740  1768  1788  1810  1849  1925  2036  2145  2212  2194  2065  1887  1787  1832  1964  2085  2150  2160  2114  2007  1874  1785  1789  1890  2040  2175  2265  2320  2335  2299  2219  2135  2082  2066  2065  2066  2078  2123  2214  2341  2483  2614  2707  2743  2719  2661  2601  2552  2514  2486  2462  2439  2415  2366  2261  2112  1962  1817  1626  1335  958  593  333  202  153  121  74  18  -29  -63  -87  -112  -149  -210  -315  -444  -532  -529  -446  -339  -252  -158  60  560  1377  2287  2937  3105  2743  1906  758  -511  -1788  -2903  -3588  -3659  -3172  -2334  -1377  -558  -84  65  65  20  -46  -108  -116  -65  -6  25  34  33  33  37  43  29  -30  -138  -250  -317  -331  -320  -312  -305  -266  -170  -40  64  115  131  146  172  228  347  511  646  714  752  819  928  1042  1110  1118  1077  1007  938  902  907  938  960  929  820  648  443  210  -52  -312  -535  -734  -909  -1015  -1061  -1142  -1328  -1578  -1802  -1964  -2070  -2127  -2148  -2145  -2091  -1948  -1740  -1560  -1478  -1468  -1441  -1308  -1056  -758  -509  -354  -286  -278  -325  -457  -698  -1018  -1323  -1512  -1573  -1565  -1526  -1452  -1346  -1246  -1196  -1204  -1241  -1264  -1259  -1249  -1251  -1243  -1198  -1107  -1004  -943  -933  -945  -954  -958  -962  -967  -970  -979  -1007  -1067  -1160  -1256  -1310  -1322  -1324  -1331  -1343  -1371  -1429  -1510  -1585  -1626  -1634  -1624  -1610  -1604  -1614  -1641  -1661  -1634  -1532  -1355  -1143  -953  -803  -672  -537  -409  -320  -266  -213  -144  -64  5  44  50  41  43  65  100  157  272  461  668  813  881  915  946  984  1031  1077  1109  1109  1050  921  751  599  513  497  529  591  674  741  734  633  476  324  224  192  195  178  90  -72  -251  -386  -489  -596  -637  -474  -67  558  1355  2158  2756  3036  2918  2321  1271  -108  -1620  -2968  -3850  -4077  -3702  -3028  -2346  -1787  -1412  -1202  -1063  -917  -731  -539  -421  -391  -373  -283  -108  78  200  252  272  287  309  351  429  551  681  765  794  796  802  835  906  1002  1108  1224  1343  1442  1499  1515  1500  1450  1361  1267  1214  1216  1259  1315  1353  1359  1334  1278  1200  1118  1040  958  873  788  704  622  530  407  255  97  -57  -209  -353  -487  -615  -737  -832  -883  -901  -922  -963  -1016  -1071  -1124  -1172  -1209  -1239  -1265  -1281  -1273  -1221  -1107  -922  -676  -419  -232  -166  -201  -291  -401  -512  -607  -687  -784  -919  -1077  -1227  -1355  -1483  -1642  -1806  -1911  -1916  -1824  -1672  -1516  -1394  -1302  -1236  -1190  -1154  -1122  -1112  -1135  -1174  -1184  -1139  -1062  -1000  -976  -991  -1046  -1133  -1219  -1261  -1216  -1044  -763  -452  -172  76  325  580  791  917  964  974  984  1024  1105  1220  1331  1400  1423  1429  1439  1466  1529  1652  1831  2038  2253  2443  2557  2589  2571  2525  2470  2432  2419  2410  2383  2342  2311  2300  2301  2306  2313  2322  2326  2328  2330  2331  2311  2244  2140  2031  1913  1763  1592  1447  1336  1220  1083  963  893  867  859  849  836  828  827  826  826  841  893  993  1124  1259  1390  1474  1481  1543  1834  2406  3203  4014  4556  4667  4307  3522  2420  1135  -149  -1213  -1857  -1952  -1527  -798  -56  456  670  686  637  578  488  343  196  152  229  340  417  452  459  434  360  244  120  17  -62  -123  -178  -246  -327  -393  -432  -467  -501  -504  -461  -417  -435  -513  -587  -623  -632  -614  -539  -400  -249  -156  -134  -143  -148  -136  -112  -88  -77  -97  -169  -281  -401  -524  -673  -858  -1066  -1274  -1453  -1600  -1720  -1794  -1798  -1754  -1722  -1741  -1801  -1863  -1911  -1956  -1997  -2022  -2039  -2058  -2079  -2086  -2057  -1982  -1891  -1833  -1814  -1800  -1749  -1646  -1506  -1341  -1159  -1005  -945  -995  -1097  -1178  -1214  -1225  -1230  -1238  -1249  -1259  -1281  -1361  -1530  -1739  -1889  -1937  -1916  -1871  -1829  -1806  -1815  -1873  -1979  -2103  -2224  -2352  -2473  -2540  -2539  -2504  -2475  -2468  -2469  -2453  -2396  -2300  -2183  -2037  -1824  -1533  -1225  -971  -753  -511  -250  -22  172  398  712  1083  1434  1747  2044  2317  2557  2788  3021  3217  3337  3375  3356  3298  3216  3117  2976  2783  2567  2348  2133  1953  1848  1819  1816  1772  1650  1475  1311  1197  1130  1098  1086  1068  1011  900  748  601  507  472  451  401  314  227  172  142  97  3  -139  -288  -388  -428  -438  -451  -477  -533  -653  -834  -1015  -1138  -1202  -1234  -1258  -1281  -1287  -1252  -1165  -1057  -979  -942  -915  -860  -743  -560  -374  -250  -151  19  267  494  629  692  719  716  655  513  308  86  -102  -221  -263  -263  -253  -247  -251  -269  -302  -340  -371  -393  -406  -413  -421  -420  -405  -396  -432  -529  -639  -659  -492  -108  454  1092  1669  2051  2139  1895  1291  312  -965  -2356  -3524  -4074  -3871  -3111  -2158  -1383  -970  -841  -828  -825  -813  -806  -803  -790  -746  -663  -564  -475  -397  -310  -192  -64  24  53  44  25  22  72  199  404  669  942  1164  1340  1503  1653  1778  1888  1981  2036  2045  2023  1995  1971  1938  1871  1747  1570  1384  1251  1192  1177  1161  1110  1038  987  972  960  899  760  555  322  105  -60  -161  -209  -274  -451  -765  -1105  -1333  -1438  -1510  -1605  -1692  -1705  -1615  -1471  -1355  -1307  -1304  -1314  -1325  -1335  -1340  -1325  -1271  -1191  -1124  -1095  -1093  -1099  -1103  -1101  -1094  -1089  -1051  -873  -493  -42  258  355  358  363  386  423  465  503  532  545  522  452  353  261  196  167  198  284  374  459  593  792  987  1100  1136  1156  1213  1313  1411  1468  1493  1523  1569  1612  1645  1675  1693  1683  1629  1542  1444  1348  1261  1198  1166  1155  1129  1037  865  672  527  440  382  327  275  240  214  177  124  70  16  -35  -69  -79  -75  -72  -77  -96  -108  -55  122  394  654  869  1097  1331  1499  1596  1726  1963  2242  2435  2486  2391  2131  1724  1289  961  765  644  563  518  494  459  385  253  83  -78  -231  -436  -707  -968  -1140  -1219  -1250  -1274  -1295  -1283  -1215  -1103  -986  -881  -771  -622  -432  -242  -99  -13  47  108  143  111  -3  -167  -313  -398  -440  -480  -540  -608  -659  -687  -707  -731  -754  -774  -795  -809  -777  -644  -414  -176  -52  -100  -232  -209  187  952  1854  2611  2990  2854  2179  1053  -337  -1770  -3034  -3921  -4304  -4198  -3729  -3068  -2395  -1856  -1532  -1419  -1457  -1595  -1771  -1910  -1976  -1991  -1986  -1974  -1952  -1924  -1903  -1897  -1907  -1922  -1934  -1938  -1926  -1887  -1820  -1749  -1703  -1665  -1591  -1473  -1363  -1305  -1273  -1208  -1093  -968  -880  -841  -826  -773  -634  -423  -208  -44  71  195  359  517  610  634  620  574  462  271  51  -132  -255  -336  -412  -513  -655  -858  -1130  -1430  -1693  -1866  -1949  -1978  -1987  -1989  -1974  -1929  -1867  -1821  -1822  -1878  -1967  -2053  -2111  -2140  -2154  -2161  -2168  -2180  -2214  -2293  -2407  -2505  -2555  -2569  -2567  -2556  -2538  -2518  -2503  -2491  -2439  -2303  -2115  -1972  -1906  -1868  -1806  -1724  -1643  -1552  -1423  -1257  -1054  -791  -473  -141  180  526  926  1371  1827  2257  2617  2888  3093  3272  3441  3594  3746  3971  4304  4639  4841  4895  4869  4812  4728  4611  4441  4207  3956  3776  3696  3663  3615  3537  3436  3312  3166  3037  2967  2962  2994  3035  3063  3072  3068  3056  3038  3013  2984  2935  2840  2715  2614  2561  2532  2505  2479  2441  2368  2266  2177  2131  2115  2101  2080  2049  2007  1979  1983  1999  2003  1997  1987  1979  1995  2065  2194  2341  2458  2522  2541  2515  2407  2192  1928  1715  1536  1291  994  774  679  644  595  529  482  468  470  465  431  350  237  127  41  -18  -51  -53  -69  -193  -388  -462  -256  276  1073  1951  2740  3314  3514  3178  2222  730  -992  -2552  -3627  -3991  -3652  -2938  -2214  -1641  -1232  -967  -824  -770  -760  -769  -794  -841  -897  -944  -983  -1018  -1037  -1030  -994  -944  -904  -881  -876  -915  -1036  -1227  -1418  -1555  -1633  -1671  -1681  -1660  -1588  -1459  -1292  -1114  -943  -796  -695  -651  -641  -623  -576  -520  -485  -478  -488  -495  -477  -414  -324  -244  -193  -160  -143  -177  -317  -558  -806  -976  -1061  -1111  -1200  -1408  -1747  -2100  -2322  -2388  -2378  -2361  -2355  -2343  -2322  -2313  -2336  -2373  -2403  -2426  -2441  -2401  -2236  -1943  -1637  -1432  -1344  -1323  -1322  -1319  -1305  -1277  -1238  -1199  -1159  -1107  -1049  -1006  -978  -934  -845  -714  -573  -462  -402  -377  -343  -280  -202  -122  -52  -8  4  0  -3  -5  -3  0  -4  -38  -129  -260  -373  -432  -429  -365  -258  -153  -84  -49  -18  27  89  161  232  277  277  234  165  106  75  67  67  66  66  81  123  172  173  82  -71  -219  -348  -505  -701  -882  -1000  -1061  -1085  -1086  -1073  -1047  -1013  -986  -974  -973  -971  -950  -897  -825  -780  -808  -910  -1005  -978  -818  -617  -452  -345  -287  -263  -288  -386  -528  -651  -733  -786  -813  -817  -812  -807  -799  -780  -759  -756  -790  -852  -924  -1003  -1083  -1138  -1140  -1078  -969  -846  -739  -675  -659  -577  -178  700  1907  3121  4083  4612  4637  4239  3507  2430  1080  -204  -982  -1008  -366  604  1505  2073  2248  2150  1962  1802  1695  1615  1540  1467  1402  1345  1299  1271  1247  1206  1136  1033  901  747  606  523  512  564  668  821  1007  1187  1322  1413  1480  1534  1601  1718  1872  2005  2089  2141  2175  2190  2200  2219  2248  2272  2284  2288  2285  2272  2245  2209  2171  2126  2069  2008  1930  1792  1580  1348  1150  964  727  451  204  -12  -255  -517  -747  -934  -1103  -1251  -1339  -1320  -1185  -986  -813  -709  -663  -661  -697  -728  -699  -610  -521  -469  -447  -442  -441  -439  -434  -417  -373  -295  -194  -97  -22  28  65  84  72  21  -49  -100  -118  -114  -104  -108  -162  -300  -501  -678  -766  -781  -770  -763  -771  -784  -790  -779  -756  -732  -714  -703  -709  -745  -812  -894  -973  -1032  -1064  -1093  -1153  -1237  -1304  -1332  -1336  -1329  -1316  -1293  -1269  -1271  -1336  -1467  -1614  -1726  -1793  -1827  -1841  -1844  -1829  -1790  -1739  -1714  -1738  -1787  -1823  -1836  -1840  -1851  -1870  -1889  -1897  -1891  -1882  -1881  -1879  -1849  -1764  -1640  -1531  -1474  -1452  -1439  -1434  -1446  -1457  -1382  -1102  -612  -85  308  557  756  1005  1331  1675  1952  2134  2253  2351  2471  2657  2910  3173  3371  3470  3493  3486  3485  3505  3539  3572  3582  3540  3416  3216  2990  2799  2665  2572  2501  2450  2422  2410  2398  2358  2258  2105  1960  1877  1854  1883  1974  2125  2291  2418  2465  2417  2312  2284  2473  2875  3370  3825  4112  4154  3899  3229  2076  565  -1014  -2277  -2882  -2763  -2174  -1429  -766  -389  -359  -525  -718  -878  -983  -1024  -1020  -997  -967  -950  -995  -1137  -1335  -1491  -1571  -1608  -1631  -1652  -1681  -1725  -1775  -1797  -1767  -1716  -1687  -1684  -1694  -1707  -1718  -1722  -1705  -1648  -1560  -1462  -1368  -1281  -1215  -1177  -1150  -1091  -971  -818  -683  -588  -521  -462  -404  -375  -397  -436  -446  -435  -465  -613  -874  -1137  -1305  -1383  -1439  -1543  -1730  -1960  -2148  -2268  -2369  -2500  -2656  -2798  -2903  -2966  -2985  -2954  -2865  -2736  -2633  -2599  -2613  -2629  -2609  -2527  -2401  -2291  -2239  -2239  -2260  -2257  -2175  -1990  -1772  -1628  -1592  -1618  -1660  -1699  -1726  -1718  -1647  -1530  -1419  -1335  -1254  -1174  -1130  -1134  -1155  -1170  -1177  -1177  -1153  -1090  -1008  -947  -928  -927  -889  -744  -479  -167  104  297  391  405  390  387  409  459  513  541  547  567  640  772  913  1001  1023  1014  1005  1013  1042  1088  1136  1177  1216  1269  1332  1375  1384  1372  1354  1326  1270  1180  1088  1023  976  931  874  782  658  552  500  481  436  334  206  104  43  0  -37  -59  -63  -60  -55  -41  -7  38  72  88  96  98  64  -35  -176  -282  -305  -247  -133  -13  62  85  81  70  56  30  -19  -81  -129  -146  -136  -103  -61  -27  12  90  205  317  392  459  608  884  1211  1473  1607  1625  1580  1522  1436  1269  1009  737  561  505  516  537  544  529  506  501  521  561  618  681  730  755  769  789  819  856  850  734  575  589  944  1679  2658  3587  4191  4306  3853  2847  1411  -242  -1819  -2963  -3404  -3146  -2472  -1737  -1184  -881  -745  -673  -622  -580  -538  -484  -413  -340  -294  -283  -285  -277  -247  -205  -171  -141  -79  64  312  667  1163  1844  2678  3522  4239  4762  5056  5162  5184  5190  5197  5200  5193  5176  5159  5158  5191  5245  5282  5274  5217  5118  5001  4896  4807  4683  4482  4233  3991  3761  3510  3202  2826  2406  2000  1664  1403  1180  968  755  542  330  118  -90  -289  -476  -658  -848  -1048  -1229  -1371  -1483  -1574  -1627  -1627  -1582  -1520  -1473  -1447  -1428  -1417  -1429  -1465  -1521  -1586  -1646  -1688  -1708  -1713  -1718  -1742  -1797  -1865  -1911  -1918  -1895  -1863  -1839  -1811  -1760  -1695  -1659  -1680  -1745  -1827  -1920  -2022  -2118  -2190  -2233  -2252  -2260  -2276  -2308  -2348  -2390  -2435  -2482  -2529  -2572  -2606  -2633  -2667  -2709  -2755  -2798  -2826  -2835  -2833  -2823  -2780  -2673  -2516  -2362  -2217  -2042  -1830  -1631  -1514  -1509  -1598  -1726  -1828  -1869  -1852  -1776  -1644  -1483  -1344  -1261  -1230  -1231  -1257  -1308  -1370  -1414  -1429  -1427  -1420  -1403  -1363  -1291  -1198  -1113  -1053  -1009  -977  -967  -988  -1019  -1024  -985  -914  -837  -781  -754  -745  -745  -754  -774  -802  -824  -824  -791  -719  -623  -509  -341  -83  221  476  643  747  812  834  801  711  590  492  445  437  436  421  386  344  313  294  280  270  263  247  200  111  46  136  462  1014  1753  2583  3316  3754  3746  3209  2203  892  -583  -1970  -2917  -3233  -2945  -2251  -1463  -820  -396  -148  -2  89  154  203  226  210  162  97  32  -22  -52  -39  37  177  347  501  617  714  818  921  1013  1108  1219  1323  1392  1432  1459  1485  1530  1623  1756  1887  1976  2021  2047  2081  2143  2233  2333  2434  2550  2689  2821  2898  2892  2808  2682  2556  2443  2323  2172  1969  1725  1481  1269  1091  912  694  463  284  147  -25  -251  -461  -600  -673  -705  -723  -729  -714  -672  -594  -489  -397  -351  -345  -352  -348  -321  -284  -257  -248  -241  -222  -192  -165  -153  -153  -154  -147  -138  -139  -159  -197  -244  -286  -318  -329  -286  -159  17  151  200  197  186  180  176  168  158  151  146  132  103  74  52  31  11  -12  -52  -112  -173  -224  -260  -278  -281  -272  -260  -263  -288  -317  -343  -380  -430  -462  -464  -459  -475  -517  -570  -609  -629  -641  -647  -639  -619  -587  -535  -464  -392  -345  -336  -346  -345  -329  -297  -238  -156  -84  -43  -26  -15  -9  0  47  155  291  397  463  519  579  639  677  682  670  656  638  603  519  352  119  -95  -217  -247  -247  -263  -294  -317  -324  -329  -343  -357  -358  -325  -232  -81  70  166  194  158  55  -100  -255  -290  -36  570  1411  2297  3020  3376  3275  2717  1745  454  -995  -2348  -3276  -3572  -3277  -2607  -1836  -1205  -824  -662  -626  -626  -615  -590  -569  -562  -560  -551  -522  -469  -394  -319  -269  -255  -277  -336  -423  -506  -558  -578  -590  -600  -582  -492  -330  -151  -6  103  201  295  377  430  449  449  446  446  452  462  475  513  603  726  812  797  666  486  357  315  314  300  242  119  -80  -321  -524  -649  -715  -774  -887  -1065  -1245  -1353  -1384  -1376  -1349  -1298  -1232  -1178  -1145  -1122  -1104  -1088  -1066  -1044  -1028  -1017  -1005  -996  -993  -995  -998  -994  -970  -923  -870  -838  -833  -840  -842  -814  -739  -612  -429  -197  31  180  239  267  314  380  435  469  497  539  601  689  786  849  857  820  766  725  711  728  780  851  907  919  870  758  624  525  478  465  475  500  514  503  469  433  414  409  412  416  417  412  397  375  355  343  339  341  349  360  370  377  380  374  358  341  347  410  521  616  626  537  403  303  265  269  301  371  480  605  708  745  714  673  670  687  683  662  639  617  601  607  655  748  850  916  938  926  876  788  687  616  576  519  390  216  85  37  34  38  37  30  14  -19  -69  -118  -148  -161  -168  -168  -144  -67  39  80  17  -3  218  777  1624  2583  3423  3955  4051  3652  2762  1433  -168  -1684  -2665  -2841  -2312  -1471  -732  -276  -36  96  141  102  20  -45  -61  -39  -8  18  42  58  58  38  7  -10  -12  -37  -102  -171  -198  -177  -145  -128  -111  -77  -38  -6  22  50  79  110  153  227  353  507  642  740  821  896  960  1015  1061  1084  1083  1075  1063  1020  915  764  621  508  391  229  22  -191  -404  -666  -1007  -1357  -1601  -1704  -1745  -1823  -1973  -2150  -2294  -2403  -2516  -2637  -2727  -2770  -2780  -2774  -2771  -2781  -2789  -2771  -2733  -2698  -2677  -2652  -2614  -2562  -2498  -2428  -2368  -2326  -2284  -2215  -2113  -1990  -1866  -1751  -1648  -1568  -1520  -1490  -1456  -1411  -1363  -1305  -1210  -1080  -955  -862  -799  -764  -766  -820  -932  -1072  -1182  -1230  -1236  -1241  -1279  -1363  -1483  -1607  -1726  -1840  -1946  -2037  -2101  -2130  -2131  -2118  -2109  -2136  -2231  -2376  -2515  -2609  -2656  -2667  -2652  -2621  -2582  -2532  -2464  -2388  -2327  -2292  -2276  -2278  -2316  -2406  -2538  -2665  -2741  -2756  -2727  -2671  -2608  -2562  -2532  -2503  -2474  -2449  -2430  -2425  -2431  -2428  -2408  -2348  -2204  -1934  -1499  -928  -337  176  602  961  1236  1395  1468  1556  1726  1933  2094  2200  2290  2378  2448  2492  2519  2544  2572  2596  2611  2624  2653  2708  2774  2848  2981  3247  3639  4047  4393  4700  4985  5195  5309  5376  5451  5537  5601  5618  5578  5462  5261  5015  4792  4649  4587  4567  4556  4545  4519  4439  4268  4032  3802  3609  3466  3390  3312  3158  3042  3129  3452  3977  4610  5161  5479  5424  4797  3547  1886  176  -1144  -1671  -1306  -366  707  1627  2267  2612  2740  2751  2718  2664  2589  2507  2453  2442  2456  2476  2484  2466  2416  2352  2297  2224  2056  1758  1392  1057  816  677  600  527  442  356  280  229  209  206  224  314  520  780  969  1034  1026  1009  1010  1041  1098  1164  1211  1225  1218  1205  1186  1141  1047  913  771  640  506  337  122  -106  -307  -475  -622  -758  -886  -1000  -1103  -1225  -1382  -1539  -1645  -1695  -1716  -1722  -1715  -1710  -1735  -1818  -1938  -2043  -2110  -2156  -2180  -2161  -2087  -1983  -1893  -1827  -1770  -1724  -1693  -1655  -1575  -1451  -1320  -1211  -1137  -1104  -1100  -1108  -1116  -1109  -1068  -976  -860  -773  -726  -678  -600  -512  -455  -454  -506  -590  -665  -701  -696  -658  -606  -563  -542  -554  -621  -755  -935  -1112  -1234  -1282  -1274  -1238  -1198  -1170  -1162  -1174  -1207  -1248  -1268  -1252  -1213  -1173  -1134  -1094  -1064  -1057  -1066  -1074  -1056  -994  -902  -815  -752  -705  -648  -555  -437  -338  -283  -262  -256  -272  -326  -406  -468  -489  -484  -475  -482  -515  -568  -622  -660  -682  -706  -747  -806  -862  -899  -925  -974  -1050  -1122  -1162  -1178  -1192  -1217  -1245  -1263  -1273  -1271  -1240  -1152  -1013  -868  -753  -663  -567  -440  -300  -193  -152  -178  -247  -341  -446  -547  -635  -718  -796  -864  -925  -978  -1011  -1022  -1031  -1054  -1092  -1125  -1131  -1112  -1108  -1162  -1270  -1377  -1454  -1558  -1707  -1720  -1346  -567  349  1121  1586  1639  1236  428  -679  -1983  -3335  -4484  -5137  -5136  -4568  -3727  -2980  -2542  -2355  -2245  -2138  -2060  -2032  -2043  -2089  -2167  -2251  -2309  -2331  -2314  -2250  -2141  -2022  -1930  -1883  -1873  -1876  -1869  -1845  -1814  -1786  -1752  -1690  -1600  -1529  -1539  -1613  -1681  -1715  -1738  -1765  -1794  -1816  -1835  -1861  -1898  -1933  -1943  -1917  -1862  -1800  -1747  -1717  -1728  -1789  -1891  -2006  -2095  -2150  -2209  -2305  -2438  -2582  -2700  -2779  -2834  -2873  -2893  -2891  -2868  -2835  -2803  -2743  -2567  -2208  -1710  -1194  -746  -372  -65  174  395  647  909  1140  1320  1451  1577  1793  2139  2514  2792  2942  3001  3013  3014  3053  3181  3390  3594  3726  3803  3865  3927  4002  4118  4282  4460  4620  4744  4824  4861  4865  4854  4861  4926  5065  5224  5325  5341  5297  5234  5193  5206  5281  5389  5484  5555  5619  5674  5694  5610  5358  5010  4737  4620  4595  4578  4537  4483  4427  4344  4182  3937  3695  3551  3513  3524  3540  3554  3570  3588  3601  3609  3604  3546  3385  3123  2819  2536  2328  2228  2209  2219  2232  2259  2303  2330  2313  2277  2269  2294  2302  2184  1843  1285  634  51  -344  -547  -647  -752  -902  -1068  -1182  -1160  -892  -369  205  572  678  630  522  410  334  301  268  187  47  -116  -258  -377  -534  -771  -1024  -1187  -1236  -1208  -1123  -998  -874  -795  -760  -748  -744  -751  -786  -856  -940  -1011  -1074  -1146  -1230  -1333  -1501  -1796  -2206  -2603  -2855  -2954  -2982  -2988  -2925  -2679  -2217  -1700  -1352  -1233  -1238  -1262  -1273  -1291  -1353  -1495  -1723  -1994  -2268  -2505  -2587  -2371  -1822  -1041  -257  296  543  504  208  -328  -1153  -2293  -3575  -4622  -5083  -4847  -4088  -3137  -2304  -1765  -1521  -1450  -1440  -1446  -1459  -1470  -1480  -1506  -1556  -1616  -1669  -1723  -1811  -1942  -2074  -2153  -2175  -2165  -2142  -2104  -2052  -1988  -1901  -1763  -1586  -1444  -1379  -1353  -1307  -1209  -1048  -817  -525  -219  65  314  517  664  752  805  886  1050  1274  1486  1653  1782  1867  1895  1860  1778  1690  1625  1575  1526  1500  1512  1538  1532  1464  1341  1189  1051  924  710  346  -119  -590  -961  -1178  -1310  -1449  -1607  -1760  -1865  -1891  -1847  -1769  -1694  -1649  -1622  -1587  -1533  -1478  -1437  -1392  -1293  -1093  -800  -511  -334  -280  -282  -274  -224  -154  -120  -159  -252  -353  -429  -463  -436  -341  -192  -10  219  542  973  1416  1716  1812  1765  1657  1532  1403  1266  1103  918  765  686  667  668  669  668  668  668  673  692  736  809  897  972  1011  1024  1031  1040  1026  936  739  504  341  285  286  280  236  150  37  -70  -145  -188  -212  -220  -215  -207  -206  -222  -270  -371  -506  -615  -663  -667  -650  -622  -593  -582  -599  -630  -657  -672  -675  -652  -581  -474  -375  -303  -246  -200  -175  -169  -176  -187  -198  -210  -229  -265  -318  -377  -431  -472  -487  -468  -432  -406  -398  -409  -428  -447  -466  -475  -459  -422  -383  -360  -355  -361  -372  -386  -393  -351  -220  -35  102  117  -2  -209  -402  -506  -527  -513  -495  -475  -450  -422  -411  -424  -448  -464  -472  -475  -457  -398  -310  -239  -206  -158  0  336  876  1596  2360  2970  3261  3124  2521  1502  140  -1397  -2755  -3524  -3492  -2772  -1734  -823  -324  -203  -233  -255  -221  -125  10  145  239  270  231  142  39  -52  -134  -218  -297  -346  -360  -354  -349  -349  -351  -343  -323  -296  -282  -286  -284  -260  -207  -113  15  127  183  188  173  159  158  178  224  294  386  509  655  793  906  995  1057  1111  1209  1374  1557  1683  1729  1727  1711  1701  1697  1697  1703  1706  1682  1594  1447  1305  1221  1195  1195  1195  1175  1134  1074  990  873  742  624  535  454  347  215  108  53  29  12  2  0  -1  -19  -58  -102  -129  -131  -122  -126  -173  -272  -393  -494  -556  -579  -565  -518  -448  -381  -338  -322  -316  -313  -332  -391  -468  -515  -519  -504  -493  -491  -496  -511  -530  -545  -559  -589  -652  -748  -866  -1033  -1303  -1658  -1993  -2225  -2346  -2396  -2427  -2463  -2500  -2517  -2500  -2459  -2409  -2360  -2316  -2255  -2144  -1984  -1821  -1704  -1653  -1648  -1653  -1647  -1629  -1622  -1627  -1627  -1626  -1646  -1688  -1735  -1780  -1810  -1802  -1765  -1739  -1736  -1703  -1559  -1302  -1043  -894  -859  -874  -903  -941  -985  -1011  -1007  -979  -948  -918  -840  -663  -414  -181  1  164  355  600  880  1154  1384  1549  1647  1700  1728  1744  1749  1734  1668  1520  1291  1049  880  808  796  801  805  804  809  839  910  1017  1133  1216  1264  1326  1466  1668  1824  1898  2042  2450  3160  4019  4754  5137  5072  4536  3581  2344  973  -295  -1124  -1270  -762  106  987  1665  2094  2336  2482  2577  2615  2571  2437  2230  1987  1763  1593  1441  1266  1102  1009  985  980  957  905  824  721  619  548  512  482  440  390  339  292  253  225  201  188  205  252  302  344  406  532  727  964  1225  1495  1730  1894  2009  2112  2204  2256  2237  2117  1914  1704  1543  1414  1258  1019  674  278  -67  -305  -446  -531  -602  -684  -779  -874  -968  -1054  -1109  -1126  -1127  -1126  -1122  -1109  -1091  -1078  -1070  -1062  -1058  -1084  -1164  -1279  -1374  -1430  -1464  -1486  -1473  -1394  -1249  -1096  -988  -917  -846  -774  -741  -770  -836  -890  -910  -895  -847  -778  -693  -574  -424  -286  -181  -79  26  98  110  76  29  -4  -27  -63  -128  -200  -257  -311  -393  -498  -582  -617  -616  -606  -601  -608  -641  -712  -797  -857  -878  -876  -868  -864  -871  -893  -928  -960  -982  -996  -999  -995  -1001  -1031  -1076  -1119  -1149  -1168  -1182  -1191  -1200  -1218  -1246  -1279  -1321  -1374  -1425  -1482  -1577  -1713  -1831  -1877  -1842  -1758  -1670  -1621  -1618  -1650  -1699  -1730  -1690  -1547  -1348  -1199  -1146  -1170  -1256  -1390  -1489  -1410  -1048  -413  326  987  1506  1866  2048  2020  1671  889  -268  -1561  -2645  -3167  -2943  -2120  -1113  -317  99  218  222  216  204  172  123  72  33  4  -24  -59  -110  -191  -303  -427  -521  -558  -551  -528  -502  -467  -415  -345  -260  -172  -83  38  251  589  1026  1481  1890  2218  2468  2717  3038  3371  3593  3666  3647  3592  3524  3460  3432  3469  3567  3687  3781  3824  3821  3779  3686  3511  3235  2889  2530  2173  1819  1496  1206  903  598  371  257  165  -13  -270  -493  -612  -647  -661  -703  -775  -851  -929  -1038  -1213  -1446  -1660  -1791  -1851  -1904  -2000  -2126  -2223  -2259  -2250  -2219  -2169  -2096  -2020  -1984  -2013  -2085  -2166  -2244  -2314  -2366  -2394  -2401  -2380  -2310  -2179  -2021  -1893  -1809  -1754  -1714  -1673  -1617  -1543  -1457  -1393  -1377  -1392  -1415  -1456  -1530  -1625  -1708  -1751  -1755  -1715  -1592  -1354  -1060  -807  -605  -420  -245  -69  121  295  399  399  266  -3  -328  -584  -713  -744  -715  -624  -461  -245  -27  153  326  552  847  1179  1525  1914  2375  2831  3154  3307  3353  3356  3349  3344  3352  3382  3429  3476  3505  3508  3491  3454  3370  3194  2929  2667  2501  2441  2438  2445  2416  2332  2220  2139  2110  2115  2127  2131  2112  2062  1993  1938  1914  1916  1928  1933  1928  1987  2269  2857  3633  4386  4949  5222  5143  4653  3735  2450  978  -345  -1195  -1446  -1151  -484  293  966  1429  1653  1701  1665  1564  1373  1122  878  632  318  -30  -283  -393  -435  -474  -511  -530  -531  -529  -533  -543  -547  -534  -496  -426  -333  -246  -178  -111  -33  31  59  49  24  -9  -66  -138  -195  -222  -224  -210  -183  -137  -49  91  246  351  386  384  379  382  382  338  179  -141  -557  -932  -1185  -1333  -1437  -1528  -1609  -1672  -1710  -1719  -1707  -1686  -1669  -1662  -1662  -1668  -1686  -1712  -1729  -1721  -1688  -1647  -1616  -1589  -1553  -1510  -1480  -1471  -1477  -1484  -1487  -1489  -1500  -1521  -1541  -1542  -1525  -1524  -1570  -1641  -1694  -1717  -1731  -1752  -1771  -1763  -1721  -1663  -1613  -1586  -1588  -1618  -1661  -1693  -1696  -1662  -1589  -1488  -1390  -1303  -1208  -1102  -1010  -960  -952  -955  -937  -874  -753  -585  -408  -255  -144  -82  -62  -63  -64  -51  -23  -10  -53  -145  -234  -285  -302  -291  -245  -167  -75  -5  -3  -97  -240  -342  -365  -340  -310  -297  -325  -413  -536  -639  -703  -759  -836  -945  -1097  -1283  -1460  -1591  -1688  -1782  -1900  -2026  -2123  -2191  -2270  -2371  -2469  -2539  -2581  -2605  -2620  -2632  -2626  -2566  -2397  -2107  -1785  -1558  -1467  -1451  -1417  -1297  -1099  -896  -750  -665  -615  -588  -581  -588  -606  -644  -706  -789  -889  -991  -1083  -1154  -1203  -1242  -1288  -1332  -1362  -1398  -1479  -1629  -1809  -1933  -1959  -1909  -1828  -1767  -1760  -1801  -1815  -1667  -1221  -451  498  1445  2282  2885  3094  2836  2149  1188  236  -367  -405  103  970  1934  2695  3064  3109  3035  2971  2928  2875  2794  2695  2607  2559  2545  2539  2528  2547  2685  3020  3487  3885  4079  4109  4074  4017  3937  3841  3756  3705  3685  3687  3709  3747  3790  3830  3853  3860  3874  3918  3984  4035  4056  4093  4235  4507  4805  4998  5060  5044  4991  4905  4787  4625  4388  4073  3736  3459  3275  3156  3038  2848  2538  2149  1757  1382  1047  807  663  552  433  297  152  18  -95  -190  -258  -301  -350  -431  -531  -624  -697  -746  -775  -792  -801  -805  -804  -802  -800  -802  -811  -827  -848  -871  -886  -880  -856  -823  -793  -769  -754  -779  -862  -970  -1056  -1100  -1102  -1054  -939  -770  -599  -478  -415  -382  -357  -343  -333  -295  -196  -50  98  205  250  247  232  238  281  355  448  539  593  568  447  271  124  42  -2  -38  -65  -75  -66  -43  -16  4  -1  -83  -269  -503  -679  -755  -772  -789  -835  -913  -1002  -1074  -1115  -1128  -1125  -1116  -1118  -1156  -1242  -1362  -1487  -1582  -1615  -1580  -1507  -1437  -1386  -1365  -1394  -1463  -1520  -1531  -1499  -1453  -1422  -1406  -1382  -1326  -1230  -1107  -987  -889  -803  -711  -623  -549  -485  -421  -366  -322  -279  -230  -193  -196  -276  -440  -631  -774  -858  -925  -998  -1057  -1096  -1134  -1180  -1230  -1273  -1298  -1306  -1305  -1295  -1272  -1249  -1260  -1287  -1226  -953  -397  386  1192  1777  1992  1791  1185  204  -1076  -2525  -3940  -5019  -5450  -5157  -4410  -3606  -2995  -2622  -2401  -2251  -2131  -1977  -1725  -1426  -1188  -1038  -906  -737  -557  -417  -312  -201  -75  28  86  130  210  318  395  420  414  398  382  368  357  350  347  353  368  381  380  357  321  291  274  263  250  236  234  241  237  220  220  250  302  380  499  636  734  755  708  619  474  265  57  -66  -96  -76  -40  0]
