reading_id,reading_time,wire_id,result_classification,heart_rate,heart_rate_alert,firmware_version,device_app_version,hardware_version,waveform_samples
8a6cccd0-6454-11ed-8080-808080808080,Mon Nov 14 19:42:58 UTC 2022,e100638c1a39,NSR,59,NONE,20001.171.50,2.10.0,Charge 5,[-2236  -2277  -2261  -2101  -1736  -1202  -659  -294  -167  -186  -234  -228  -101  163  511  848  1101  1260  1382  1526  1703  1865  1947  1950  1977  2178  2602  3082  3389  3487  3506  3560  3681  3824  3917  3946  3982  4092  4255  4380  4424  4436  4504  4698  5012  5341  5551  5610  5564  5452  5322  5238  5220  5221  5182  5102  5005  4880  4688  4423  4087  3694  3314  3017  2796  2619  2477  2336  2136  1888  1682  1576  1539  1514  1470  1363  1147  854  546  216  -122  -383  -538  -635  -703  -741  -755  -758  -741  -660  -496  -290  -103  21  86  128  177  232  242  168  47  -53  -103  -110  -92  -55  14  163  440  776  1015  1092  1082  1071  1096  1147  1228  1391  1660  1951  2147  2227  2235  2203  2143  2092  2109  2208  2300  2305  2260  2223  2153  1978  1734  1539  1431  1357  1295  1299  1427  1622  1760  1808  1813  1815  1822  1829  1832  1832  1820  1835  1997  2300  2530  2679  3013  3625  4463  5570  6853  7911  8283  7693  6139  3988  2016  998  1109  1977  3095  3928  4188  4082  3934  3793  3518  2971  2179  1372  776  414  174  -57  -387  -862  -1391  -1800  -1994  -2038  -2053  -2087  -2124  -2175  -2278  -2419  -2531  -2580  -2562  -2448  -2203  -1882  -1596  -1365  -1110  -779  -409  -67  234  540  910  1353  1759  1984  2033  2047  2151  2346  2531  2637  2678  2692  2697  2699  2700  2691  2639  2508  2321  2162  2085  2078  2099  2102  2079  2059  2041  1967  1789  1557  1385  1323  1331  1361  1383  1360  1257  1086  923  829  805  813  827  834  819  766  683  590  498  410  297  58  -361  -847  -1254  -1562  -1826  -2107  -2442  -2796  -3074  -3226  -3274  -3245  -3142  -3001  -2898  -2867  -2880  -2900  -2917  -2939  -2974  -3011  -3006  -2883  -2599  -2212  -1811  -1426  -1078  -827  -693  -642  -648  -708  -800  -884  -935  -948  -917  -830  -690  -518  -348  -215  -136  -118  -171  -281  -382  -348  -88  314  673  901  1007  1015  1107  1645  2764  4123  5245  5988  6532  6990  7183  6761  5469  3433  1273  -203  -564  17  1067  2135  2937  3424  3692  3845  3947  4026  4094  4163  4227  4267  4284  4297  4314  4299  4212  4098  4028  3964  3866  3765  3636  3394  3077  2830  2688  2535  2253  1857  1469  1176  975  807  585  227  -236  -656  -916  -1045  -1169  -1426  -1919  -2577  -3158  -3514  -3709  -3842  -3951  -4067  -4198  -4313  -4398  -4462  -4500  -4509  -4506  -4510  -4531  -4560  -4578  -4586  -4609  -4672  -4760  -4823  -4840  -4821  -4699  -4319  -3667  -2992  -2558  -2372  -2290  -2236  -2200  -2150  -2050  -1936  -1882  -1878  -1854  -1784  -1683  -1563  -1443  -1331  -1226  -1131  -1065  -1025  -990  -924  -793  -569  -265  35  224  276  260  246  266  315  370  409  434  465  526  648  851  1084  1240  1243  1068  761  433  167  -57  -315  -676  -1171  -1758  -2360  -2935  -3442  -3821  -4085  -4304  -4506  -4675  -4824  -4993  -5204  -5451  -5674  -5804  -5848  -5854  -5855  -5863  -5883  -5913  -5949  -5996  -6051  -6074  -6009  -5837  -5621  -5448  -5330  -5259  -5238  -5179  -4948  -4487  -3733  -2615  -1248  74  1152  1890  2172  1942  1241  137  -1177  -2328  -2945  -2889  -2295  -1483  -804  -410  -183  26  246  464  672  848  1005  1175  1374  1608  1851  2058  2223  2361  2475  2562  2643  2767  2968  3193  3341  3387  3380  3362  3333  3290  3257  3263  3298  3346  3440  3632  3884  4085  4188  4219  4186  4090  3976  3899  3877  3880  3859  3786  3698  3663  3695  3738  3730  3650  3533  3440  3396  3384  3379  3359  3313  3226  3072  2842  2595  2409  2252  2027  1753  1552  1461  1406  1340  1285  1259  1255  1254  1242  1213  1173  1136  1123  1134  1146  1139  1112  1077  1045  1022  1003  1000  1023  1062  1104  1136  1125  1067  1005  969  955  954  958  960  956  955  972  1007  1054  1098  1130  1143  1124  1053  929  771  595  457  446  553  664  704  677  611  505  345  164  37  -3  9  29  30  19  -1  -33  -70  -96  -102  -92  -75  -57  -51  -84  -181  -311  -407  -445  -463  -486  -496  -463  -399  -375  -441  -542  -580  -550  -541  -588  -645  -672  -668  -634  -570  -492  -436  -413  -415  -444  -505  -567  -578  -540  -503  -501  -539  -617  -740  -898  -1067  -1227  -1385  -1549  -1701  -1819  -1914  -2020  -2145  -2262  -2336  -2342  -2286  -2203  -2136  -2087  -2042  -2024  -2054  -2084  -2026  -1821  -1533  -1268  -951  -423  298  1080  1821  2374  2525  2127  1137  -319  -1893  -3164  -3825  -3839  -3412  -2698  -1789  -972  -541  -468  -532  -594  -616  -569  -411  -173  32  136  185  267  402  526  586  591  582  586  607  618  606  590  586  588  592  616  685  785  878  942  989  1056  1173  1316  1415  1448  1459  1486  1515  1510  1480  1478  1538  1644  1763  1873  1958  1993  1934  1760  1512  1284  1127  1015  923  861  826  781  680  494  256  12  -244  -496  -677  -778  -841  -882  -908  -945  -1013  -1104  -1205  -1316  -1417  -1476  -1504  -1539  -1588  -1612  -1573  -1481  -1394  -1360  -1372  -1394  -1405  -1410  -1422  -1439  -1442  -1412  -1349  -1288  -1273  -1338  -1490  -1677  -1817  -1862  -1805  -1644  -1440  -1318  -1337  -1440  -1535  -1586  -1606  -1614  -1620  -1623  -1622  -1618  -1616  -1629  -1670  -1726  -1770  -1793  -1801  -1798  -1764  -1688  -1613  -1600  -1652  -1734  -1812  -1863  -1886  -1900  -1910  -1913  -1910  -1893  -1836  -1727  -1603  -1508  -1430  -1321  -1155  -947  -754  -634  -601  -623  -653  -665  -660  -657  -668  -667  -616  -525  -441  -394  -383  -388  -392  -394  -397  -399  -384  -332  -248  -163  -104  -86  -107  -145  -180  -219  -271  -297  -248  -133  -14  54  74  95  146  214  280  324  340  342  337  320  302  313  377  479  570  616  628  644  698  788  885  969  1048  1141  1242  1321  1359  1379  1437  1576  1767  1928  2006  2021  2020  2024  2004  1910  1732  1542  1416  1348  1298  1250  1211  1186  1173  1189  1267  1421  1564  1568  1432  1279  1176  1122  1170  1418  1891  2537  3260  3981  4745  5663  6650  7274  7047  5875  4108  2213  624  -314  -614  -549  -247  285  963  1658  2213  2491  2523  2438  2340  2281  2268  2282  2311  2352  2386  2389  2357  2306  2249  2194  2151  2122  2107  2101  2099  2095  2077  2020  1916  1778  1623  1444  1222  954  687  486  363  263  127  -38  -187  -304  -412  -509  -601  -757  -1032  -1344  -1547  -1601  -1565  -1494  -1414  -1338  -1274  -1246  -1280  -1363  -1470  -1638  -2013  -2755  -3780  -4713  -5240  -5382  -5352  -5306  -5282  -5262  -5226  -5148  -4995  -4758  -4478  -4239  -4112  -4084  -4084  -4053  -3984  -3867  -3656  -3332  -2971  -2672  -2479  -2368  -2265  -2068  -1738  -1346  -1020  -848  -817  -853  -900  -926  -905  -813  -664  -517  -417  -375  -373  -382  -358  -254  -75  105  219  263  269  256  226  185  145  122  122  139  170  222  303  405  515  611  667  681  674  663  660  685  755  853  924  902  760  563  425  380  388  425  519  680  849  950  961  912  846  802  789  794  805  815  816  796  752  704  674  661  638  586  523  467  416  380  365  326  218  78  26  142  345  452  355  145  4  20  127  216  247  245  249  282  344  414  480  539  601  695  860  1085  1275  1338  1267  1109  896  674  526  489  543  650  764  828  793  643  442  301  255  245  211  157  119  106  99  110  187  295  310  262  391  852  1572  2380  3168  3868  4260  4004  2922  1176  -763  -2320  -3089  -3083  -2693  -2250  -1758  -1179  -668  -369  -263  -262  -292  -322  -327  -250  -50  204  359  345  229  113  42  13  17  62  158  301  447  544  588  630  709  817  921  993  1015  990  946  918  919  964  1068  1259  1528  1781  1919  1937  1896  1837  1767  1688  1624  1586  1561  1540  1525  1522  1533  1535  1500  1432  1339  1216  1057  872  672  427  128  -164  -391  -559  -700  -826  -928  -992  -1013  -1005  -988  -998  -1084  -1265  -1440  -1452  -1303  -1149  -1095  -1128  -1188  -1228  -1232  -1208  -1173  -1143  -1111  -1049  -931  -768  -618  -570  -659  -823  -963  -1040  -1074  -1092  -1109  -1128  -1141  -1146  -1144  -1139  -1124  -1094  -1052  -1023  -1022  -1048  -1085  -1109  -1114  -1115  -1139  -1205  -1296  -1364  -1384  -1370  -1353  -1336  -1308  -1267  -1229  -1214  -1222  -1230  -1193  -1094  -969  -860  -760  -658  -575  -532  -526  -548  -586  -626  -646  -604  -442  -179  79  250  331  360  388  469  608  766  916  1040  1105  1103  1072  1043  1012  964  904  842  788  749  746  798  910  1048  1156  1213  1236  1243  1243  1246  1252  1254  1229  1169  1097  1047  1041  1063  1075  1083  1156  1353  1616  1806  1853  1796  1705  1632  1591  1585  1608  1637  1645  1624  1574  1471  1262  950  636  422  322  301  318  331  318  291  267  224  120  -38  -185  -271  -301  -303  -323  -395  -485  -480  -223  323  1009  1713  2417  3071  3498  3432  2715  1423  -199  -1788  -2962  -3539  -3619  -3395  -3004  -2571  -2234  -2033  -1895  -1772  -1684  -1649  -1649  -1657  -1664  -1668  -1667  -1642  -1581  -1505  -1458  -1472  -1547  -1668  -1798  -1889  -1919  -1880  -1761  -1594  -1452  -1384  -1384  -1409  -1410  -1349  -1201  -1006  -856  -782  -719  -597  -432  -301  -241  -219  -198  -168  -138  -119  -105  -76  -29  16  41  52  66  73  18  -155  -405  -602  -674  -657  -617  -599  -636  -746  -914  -1081  -1208  -1333  -1520  -1747  -1913  -1978  -1987  -1988  -1989  -1969  -1904  -1809  -1732  -1700  -1704  -1720  -1721  -1678  -1564  -1390  -1218  -1099  -1030  -973  -918  -885  -872  -844  -767  -666  -593  -571  -576  -579  -565  -537  -504  -469  -432  -396  -361  -321  -276  -247  -260  -315  -370  -375  -330  -288  -274  -275  -271  -261  -250  -245  -243  -240  -230  -213  -192  -167  -139  -110  -87  -69  -59  -68  -93  -119  -124  -82  14  130  204  204  159  126  140  182  231  290  352  389  390  373  349  326  329  399  548  749  936  1037  1031  974  939  967  1049  1138  1190  1179  1098  970  852  782  760  778  847  976  1138  1269  1330  1333  1322  1340  1415  1523  1584  1553  1489  1503  1609  1696  1693  1653  1645  1655  1629  1554  1457  1366  1307  1293  1337  1429  1525  1622  1756  1897  1983  1988  1915  1783  1611  1414  1227  1098  1045  1046  1057  1033  943  815  711  652  618  598  584  570  562  559  534  440  247  -13  -227  -234  95  797  1723  2579  3205  3710  4211  4585  4489  3650  2146  332  -1351  -2435  -2649  -2180  -1465  -826  -449  -365  -386  -309  -98  152  316  301  93  -215  -461  -554  -520  -422  -301  -179  -83  -46  -80  -165  -266  -347  -389  -399  -398  -396  -378  -331  -268  -223  -201  -174  -123  -61  -24  -26  -45  -54  -46  -17  60  232  478  694  802  820  793  759  761  820  924  1035  1114  1141  1098  956  725  480  301  218  197  195  184  161  118  19  -176  -438  -684  -841  -887  -854  -818  -813  -817  -821  -857  -945  -1050  -1101  -1064  -980  -913  -887  -885  -888  -903  -946  -1011  -1074  -1116  -1133  -1122  -1087  -1046  -1024  -1020  -1016  -1006  -996  -986  -987  -1041  -1189  -1389  -1535  -1590  -1597  -1594  -1578  -1549  -1525  -1515  -1501  -1448  -1338  -1175  -954  -699  -492  -395  -383  -399  -413  -415  -400  -365  -319  -281  -249  -217  -210  -259  -346  -418  -423  -359  -292  -267  -257  -236  -182  -69  69  182  260  298  263  134  -42  -180  -243  -256  -241  -220  -221  -253  -299  -325  -321  -311  -312  -295  -240  -171  -103  -33  35  85  110  118  119  119  127  158  214  243  176  28  -108  -177  -187  -154  -92  -22  40  110  198  282  332  354  369  387  431  545  722  893  1009  1084  1143  1179  1186  1179  1172  1171  1174  1177  1168  1124  1005  789  544  384  349  398  471  529  548  497  345  131  -41  -120  -138  -156  -204  -275  -350  -423  -516  -590  -484  -72  625  1512  2405  3094  3481  3495  3079  2305  1220  -233  -1929  -3411  -4205  -4105  -3215  -1966  -941  -463  -390  -408  -345  -201  -58  20  29  -2  -47  -72  -24  134  352  518  595  631  659  680  701  743  799  845  872  896  959  1095  1280  1432  1516  1581  1678  1769  1774  1694  1611  1573  1566  1570  1598  1673  1776  1849  1854  1798  1723  1676  1656  1604  1469  1286  1139  1053  979  876  749  602  424  230  58  -116  -360  -685  -1014  -1239  -1333  -1352  -1348  -1339  -1330  -1346  -1433  -1613  -1829  -1990  -2052  -2023  -1920  -1778  -1653  -1574  -1532  -1512  -1515  -1545  -1581  -1601  -1607  -1610  -1627  -1674  -1737  -1761  -1701  -1569  -1437  -1377  -1390  -1424  -1443  -1446  -1447  -1452  -1450  -1415  -1328  -1213  -1122  -1081  -1077  -1086  -1099  -1113  -1126  -1133  -1118  -1064  -979  -888  -827  -820  -863  -911  -932  -933  -931  -934  -938  -927  -884  -810  -734  -686  -667  -653  -620  -560  -492  -455  -474  -545  -656  -781  -868  -892  -867  -813  -738  -656  -597  -577  -577  -570  -545  -512  -485  -475  -480  -498  -507  -480  -444  -457  -495  -483  -406  -277  -95  111  298  463  623  755  809  769  692  648  686  822  1017  1187  1283  1303  1267  1211  1173  1161  1157  1141  1100  1030  932  831  765  743  745  751  744  693  572  400  218  58  -48  -82  -85  -135  -236  -206  181  920  1788  2590  3202  3580  3797  3877  3652  2944  1702  7  -1812  -3204  -3724  -3331  -2354  -1288  -548  -236  -168  -132  -29  133  308  445  517  533  525  517  517  520  523  525  525  522  514  505  513  569  682  813  906  946  952  952  962  1005  1120  1315  1527  1674  1734  1748  1758  1763  1740  1681  1630  1665  1811  2004  2154  2228  2241  2203  2113  1999  1918  1897  1911  1919  1863  1699  1474  1286  1148  1015  885  775  664  524  357  200  89  34  18  3  -62  -208  -445  -738  -982  -1083  -1058  -1013  -1021  -1068  -1122  -1181  -1245  -1282  -1229  -1041  -774  -585  -607  -857  -1204  -1456  -1545  -1541  -1501  -1409  -1237  -1005  -777  -622  -549  -508  -468  -472  -549  -629  -636  -582  -525  -498  -499  -520  -572  -657  -757  -841  -889  -911  -940  -989  -1040  -1077  -1093  -1094  -1094  -1108  -1124  -1093  -1009  -960  -1023  -1162  -1281  -1330  -1321  -1280  -1215  -1137  -1084  -1111  -1244  -1441  -1608  -1689  -1688  -1641  -1574  -1492  -1406  -1345  -1322  -1327  -1351  -1408  -1512  -1643  -1750  -1802  -1810  -1805  -1804  -1803  -1782  -1731  -1672  -1642  -1653  -1684  -1722  -1761  -1792  -1813  -1823  -1814  -1776  -1722  -1681  -1673  -1678  -1634  -1492  -1291  -1137  -1085  -1102  -1127  -1095  -954  -728  -526  -429  -421  -450  -481  -499  -500  -487  -460  -420  -368  -297  -197  -78  48  199  371  513  596  616  584  540  505  451  346  213  111  76  115  223  358  455  499  534  598  691  794  879  936  969  983  1001  1045  1159  1458  2035  2863  3795  4574  5079  5484  5787  5590  4575  2845  844  -721  -1239  -782  -2  561  791  847  921  1064  1202  1271  1292  1320  1377  1466  1580  1680  1718  1636  1396  1077  839  753  785  890  1037  1168  1220  1183  1119  1091  1106  1137  1159  1173  1191  1216  1231  1223  1186  1128  1061  1001  953  917  905  925  969  1013  1041  1053  1055  1041  995  919  831  715  520  275  102  114  329  638  862  880  677  334  2  -226  -370  -465  -515  -526  -520  -515  -512  -509  -506  -511  -536  -585  -645  -701  -750  -792  -823  -848  -885  -951  -1043  -1140  -1216  -1257  -1257  -1206  -1102  -968  -852  -778  -706  -574  -362  -141  -5  24  9  0  3  4  -3  -40  -137  -284  -428  -532  -612  -682  -728  -728  -673  -579  -477  -389  -313  -248  -206  -181  -147  -102  -79  -139  -334  -622  -870  -992  -1025  -1037  -1060  -1089  -1105  -1067  -945  -770  -625  -557  -552  -569  -574  -554  -518  -463  -376  -279  -210  -189  -223  -318  -443  -531  -552  -541  -559  -658  -830  -1018  -1168  -1259  -1293  -1298  -1299  -1293  -1249  -1147  -1015  -920  -901  -930  -964  -983  -993  -995  -973  -906  -806  -716  -672  -665  -660  -629  -574  -499  -384  -234  -89  20  99  160  239  376  551  684  729  691  585  455  369  333  268  107  -104  -260  -311  -286  -226  -166  -150  -201  -288  -357  -384  -379  -338  -253  -136  -13  95  173  219  248  258  191  -23  -341  -608  -734  -760  -762  -768  -764  -729  -677  -648  -654  -673  -665  -625  -583  -542  -455  -227  187  666  1024  1235  1440  1835  2558  3536  4575  5595  6504  6992  6764  5779  4191  2317  662  -342  -647  -447  62  637  1040  1261  1437  1635  1816  1922  1958  1967  1965  1900  1718  1474  1301  1249  1235  1164  1018  842  695  622  630  695  790  889  947  903  725  480  304  270  344  449  514  522  511  550  685  873  1011  1056  1048  1039  1048  1076  1132  1237  1375  1480  1499  1411  1223  986  751  511  246  -2  -158  -210  -237  -304  -404  -504  -629  -823  -1062  -1268  -1384  -1419  -1420  -1440  -1510  -1612  -1690  -1721  -1730  -1752  -1800  -1879  -1979  -2062  -2112  -2156  -2198  -2216  -2214  -2206  -2201  -2203  -2218  -2247  -2278  -2296  -2291  -2257  -2160  -1968  -1735  -1571  -1518  -1526  -1545  -1558  -1540  -1450  -1304  -1198  -1192  -1248  -1294  -1297  -1266  -1219  -1169  -1124  -1086  -1060  -1046  -1038  -1030  -1011  -944  -802  -627  -502  -469  -510  -616  -783  -961  -1085  -1128  -1076  -919  -703  -536  -477  -501  -557  -608  -636  -637  -603  -531  -450  -411  -441  -520  -610  -683  -734  -766  -775  -748  -693  -650  -642  -663  -683  -662  -579  -468  -386  -357  -357  -348  -310  -255  -214  -203  -209  -216  -219  -220  -221  -215  -193  -158  -124  -120  -183  -323  -453  -478  -420  -351  -299  -266  -253  -254  -261  -270  -265  -223  -126  0  121  215  278  308  317  337  401  506  614  702  779  871  988  1107  1193  1229  1238  1263  1332  1423  1485  1509  1504  1456  1343  1170  985  839  751  718  721  729  699  609  496  427  414  413  384  332  287  267  272  300  357  494  723  982  1333  1949  2821  3746  4425  4448  3604  2198  653  -796  -1898  -2465  -2568  -2318  -1739  -1026  -517  -306  -242  -198  -153  -114  -60  33  146  225  245  225  195  169  138  73  -35  -153  -227  -249  -245  -226  -189  -143  -115  -127  -166  -180  -135  -60  0  41  83  131  184  245  304  339  373  481  706  1002  1270  1446  1531  1558  1544  1496  1446  1446  1501  1567  1621  1661  1664  1595  1455  1294  1151  1009  849  688  552  445  361  305  273  248  213  141  -4  -223  -456  -618  -665  -639  -613  -617  -619  -560  -393  -159  31  111  78  -48  -217  -353  -432  -471  -458  -370  -251  -161  -117  -98  -88  -77  -68  -59  -40  2  58  94  96  79  63  54  45  37  37  44  40  20  -2  -18  -50  -127  -234  -311  -313  -240  -138  -64  -40  -49  -74  -102  -122  -124  -109  -84  -67  -85  -156  -261  -351  -396  -398  -370  -314  -231  -142  -79  -60  -88  -172  -287  -374  -377  -274  -95  70  153  145  71  -20  -86  -114  -129  -137  -136  -121  -92  -50  -3  39  66  75  65  43  18  -1  -17  -28  -36  -45  -63  -71  -10  175  434  622  654  553  402  280  217  225  311  459  637  808  898  846  687  502  351  246  170  106  57  28  18  16  11  -7  -64  -174  -317  -430  -478  -480  -476  -489  -507  -490  -417  -303  -162  -36  22  61  228  663  1410  2361  3288  3905  3976  3442  2419  1099  -338  -1708  -2762  -3281  -3217  -2702  -1952  -1187  -588  -269  -220  -327  -469  -565  -565  -440  -204  39  189  257  316  392  437  406  321  244  209  209  227  263  340  491  686  839  902  865  740  612  588  666  763  815  817  802  821  923  1105  1304  1456  1548  1604  1654  1703  1741  1760  1768  1763  1722  1609  1415  1207  1066  995  945  878  769  598  383  175  4  -139  -262  -336  -369  -428  -569  -767  -942  -1034  -1061  -1078  -1119  -1159  -1137  -1032  -902  -816  -791  -793  -792  -782  -766  -748  -739  -772  -876  -1020  -1124  -1138  -1074  -980  -899  -837  -785  -755  -762  -794  -814  -793  -742  -698  -701  -767  -855  -893  -841  -709  -528  -350  -232  -180  -173  -220  -315  -401  -439  -442  -435  -422  -402  -381  -372  -374  -379  -385  -393  -400  -390  -346  -271  -199  -167  -199  -297  -429  -538  -588  -583  -548  -510  -480  -443  -415  -445  -538  -639  -711  -747  -753  -725  -645  -506  -335  -188  -129  -178  -287  -389  -428  -390  -322  -278  -260  -257  -254  -238  -223  -244  -314  -403  -454  -438  -380  -329  -304  -302  -329  -402  -504  -579  -576  -477  -307  -123  14  53  -25  -172  -297  -362  -387  -389  -380  -389  -425  -473  -524  -578  -612  -592  -498  -360  -232  -138  -76  -20  68  181  279  351  405  440  461  476  495  511  501  451  383  325  271  182  40  -116  -217  -245  -239  -232  -240  -268  -320  -374  -404  -407  -402  -396  -390  -399  -442  -530  -662  -837  -975  -870  -357  525  1606  2719  3704  4363  4528  4151  3211  1732  -62  -1789  -3039  -3532  -3315  -2731  -2131  -1659  -1304  -1032  -799  -558  -340  -209  -172  -183  -208  -232  -254  -279  -306  -319  -306  -279  -258  -252  -257  -267  -273  -249  -164  -7  188  364  467  493  479  462  468  520  631  789  955  1088  1190  1300  1439  1588  1705  1770  1797  1815  1849  1916  2003  2069  2086  2052  1971  1861  1752  1656  1548  1405  1243  1105  1015  948  840  642  372  87  -153  -309  -389  -437  -478  -528  -609  -727  -867  -1012  -1112  -1070  -872  -640  -500  -467  -485  -515  -554  -587  -592  -571  -551  -539  -521  -490  -459  -446  -430  -367  -254  -134  -30  60  139  188  208  212  198  156  100  55  24  -14  -69  -136  -189  -208  -198  -184  -178  -177  -178  -182  -188  -183  -140  -64  8  72  143  190  177  133  107  103  95  43  -73  -220  -328  -363  -334  -263  -180  -107  -41  6  -5  -83  -186  -265  -294  -275  -226  -163  -97  -60  -69  -93  -81  -5  103  187  231  254  253  211  150  103  77  64  63  86  133  180  219  263  313  345  344  300  207  60  -104  -196  -164  -27  145  278  352  391  404  397  379  343  283  233  239  285  294  244  177  122  76  46  67  176  362  551  673  711  692  665  657  651  594  450  252  84  0  -10  4  11  2  -30  -104  -193  -232  -199  -148  -135  -154  -189  -261  -384  -516  -602  -559  -280  204  747  1311  1951  2625  3237  3685  3705  3006  1650  -43  -1714  -2929  -3369  -3100  -2445  -1712  -1104  -708  -493  -381  -305  -239  -193  -180  -184  -173  -115  1  153  279  329  317  287  255  224  205  200  201  190  166  163  222  348  497  611  671  696  723  769  810  801  745  691  668  667  670  679  707  773  887  1027  1155  1246  1311  1374  1451  1522  1536  1448  1240  942  653  464  377  319  223  79  -78  -220  -336  -431  -526  -648  -807  -964  -1046  -1024  -944  -871  -844  -892  -1037  -1233  -1383  -1444  -1436  -1371  -1247  -1108  -1026  -1031  -1073  -1102  -1113  -1113  -1093  -1041  -975  -940  -966  -1030  -1067  -1043  -989  -943  -904  -869  -843  -829  -830  -854  -889  -914  -920  -918  -938  -1017  -1159  -1312  -1407  -1421  -1377  -1315  -1260  -1203  -1103  -926  -714  -564  -515  -522  -533  -531  -524  -533  -567  -610  -639  -647  -645  -642  -644  -641  -607  -520  -399  -290  -217  -162  -96  -13  61  113  140  154  168  183  189  181  160  144  145  163  187  205  207  200  202  194  140  50  -20  -24  39  133  201  233  266  323  387  442  503  584  669  748  831  919  987  1018  1008  964  908  875  878  894  861  711  458  217  90  72  100  120  82  -44  -223  -368  -447  -476  -463  -424  -391  -378  -379  -393  -413  -397  -269  2  411  933  1481  2011  2646  3477  4296  4678  4282  3005  1092  -859  -2289  -2969  -2970  -2556  -2010  -1517  -1168  -972  -887  -856  -837  -812  -769  -692  -584  -476  -409  -398  -417  -407  -322  -178  -39  35  18  -61  -146  -185  -149  -59  32  97  150  219  346  559  801  967  1029  1054  1112  1204  1282  1322  1347  1381  1426  1477  1529  1593  1687  1799  1878  1881  1812  1717  1650  1633  1639  1625  1544  1392  1237  1144  1108  1074  1018  935  785  537  256  53  -39  -67  -71  -65  -57  -70  -134  -272  -456  -619  -709  -723  -679  -588  -454  -312  -218  -206  -277  -406  -552  -676  -745  -756  -721  -651  -552  -444  -359  -305  -262  -228  -200  -158  -108  -76  -69  -69  -59  -36  -7  11  10  -15  -63  -125  -187  -251  -316  -374  -411  -423  -426  -437  -460  -480  -497  -523  -537  -524  -514  -523  -533  -538  -553  -592  -648  -704  -754  -790  -794  -771  -753  -761  -796  -839  -858  -836  -782  -712  -652  -621  -631  -685  -763  -829  -857  -845  -789  -695  -592  -522  -501  -514  -540  -568  -590  -603  -602  -590  -575  -563  -558  -559  -552  -516  -428  -296  -153  -12  132  257  324  337  331  328  332  335  330  322  315  302  276  235  183  136  103  74  27  -31  -75  -95  -101  -92  -53  8  43  23  -16  -32  -21  -2  6  4  0  17  83  198  327  430  493  532  583  653  712  747  768  794  822  804  683  464  226  34  -95  -184  -257  -316  -334  -285  -186  -89  -30  -9  -21  -55  -100  -140  -185  -287  -449  -515  -267  373  1314  2333  3191  3790  4129  4134  3688  2766  1384  -353  -2062  -3234  -3559  -3078  -2157  -1308  -899  -912  -1024  -1005  -866  -678  -485  -339  -265  -246  -251  -259  -266  -275  -290  -298  -281  -232  -155  -44  126  382  703  999  1169  1198  1131  1010  868  770  792  938  1118  1241  1285  1279  1259  1259  1309  1430  1609  1805  1952  2017  2020  1990  1943  1881  1816  1770  1759  1772  1782  1774  1758  1729  1637  1427  1108  780  532  349  183  48  -34  -90  -153  -230  -320  -424  -513  -558  -585  -659  -809  -983  -1107  -1149  -1112  -1007  -876  -783  -754  -768  -790  -802  -805  -809  -825  -850  -868  -868  -851  -827  -808  -797  -795  -815  -875  -959  -1029  -1065  -1055  -975  -842  -734  -701  -722  -756  -775  -780  -795  -843  -914  -968  -987  -987  -985  -979  -964  -940  -910  -890  -892  -917  -952  -983  -1017  -1069  -1126  -1148  -1119  -1077  -1077  -1126  -1179  -1198  -1183  -1156  -1140  -1136  -1125  -1086  -1024  -974  -949  -911  -813  -676  -574  -542  -553  -569  -558  -495  -385  -269  -182  -120  -74  -50  -50  -49  -14  75  206  327  405  442  461  490  542  587  590  562  539  554  625  713  759  760  747  739  738  735  719  692  685  716  770  824  858  860  853  870  897  898  859  797  746  711  677  647  640  666  712  730  702  672  665  646  577  479  434  506  649  757  785  761  728  701  682  677  701  774  876  955  979  938  831  679  530  395  216  -42  -312  -498  -578  -586  -534  -425  -293  -204  -193  -259  -374  -482  -540  -543  -516  -498  -544  -634  -603  -353  57  633  1420  2303  3084  3575  3497  2652  1202  -460  -2026  -3273  -3975  -3992  -3451  -2664  -1925  -1425  -1200  -1140  -1129  -1107  -1027  -861  -661  -520  -471  -475  -488  -498  -508  -511  -477  -375  -209  -34  90  152  178  195  200  187  178  197  239  279  299  302  298  303  340  415  518  642  794  971  1148  1302  1422  1486  1499  1497  1511  1544  1566  1557  1522  1461  1353  1197  1032  900  811  739  663  576  479  383  292  190  69  -69  -245  -441  -600  -709  -798  -903  -1059  -1244  -1370  -1347  -1145  -850  -615  -518  -517  -549  -596  -664  -741  -787  -788  -777  -791  -827  -858  -870  -872  -872  -852  -787  -687  -587  -512  -467  -439  -385  -261  -74  126  280  334  261  94  -86  -221  -295  -319  -317  -308  -295  -284  -272  -228  -121  22  134  179  176  157  141  138  156  199  253  287  268  181  62  -23  -51  -46  -37  -34  -39  -53  -69  -81  -85  -82  -58  -2  66  105  83  -5  -152  -324  -454  -468  -337  -123  65  169  191  151  78  -3  -89  -169  -220  -236  -242  -265  -301  -332  -350  -354  -347  -324  -285  -242  -214  -207  -213  -208  -162  -65  45  140  230  296  313  297  275  268  281  320  367  345  218  70  -13  -53  -108  -207  -333  -450  -529  -567  -568  -538  -481  -402  -320  -271  -294  -403  -549  -634  -600  -513  -494  -485  -270  248  1009  1898  2757  3386  3625  3438  2834  1795  403  -1105  -2439  -3349  -3658  -3369  -2714  -1990  -1380  -941  -659  -493  -412  -410  -449  -474  -471  -446  -380  -249  -88  29  87  124  162  198  220  207  165  128  108  95  93  137  279  520  762  903  936  911  871  880  991  1175  1362  1513  1631  1753  1905  2049  2129  2132  2086  2025  1992  2004  2042  2091  2162  2250  2316  2322  2253  2119  1959  1812  1707  1664  1666  1627  1441  1088  679  347  137  28  -8  -6  7  17  23  24  8  -45  -140  -258  -370  -446  -479  -492  -494  -466  -400  -329  -287  -269  -258  -247  -235  -211  -165  -119  -111  -139  -173  -201  -225  -243  -239  -185  -67  77  174  165  28  -188  -382  -485  -502  -443  -294  -105  11  -14  -141  -261  -285  -208  -77  49  120  98  -23  -189  -307  -341  -327  -311  -336  -425  -547  -637  -667  -668  -666  -663  -658  -665  -685  -701  -701  -688  -673  -664  -674  -726  -824  -937  -1028  -1065  -996  -776  -474  -250  -206  -338  -576  -807  -942  -972  -913  -768  -593  -506  -569  -714  -826  -860  -850  -835  -824  -816  -813  -811  -809  -804  -797  -792  -785  -768  -734  -685  -638  -612  -609  -618  -630  -638  -639  -639  -641  -644  -642  -615  -549  -450  -346  -262  -213  -195  -190  -176  -129  -50  39  135  234  310  316  191  -119  -546  -904  -1071  -1080  -1024  -966  -933  -930  -945  -965  -978  -982  -980  -978  -978  -982  -991  -1004  -1013  -990  -907  -751  -527  -226  190  784  1534  2321  2971  3294  3151  2468  1251  -294  -1852  -3122  -3818  -3840  -3382  -2699  -2004  -1501  -1279  -1269  -1350  -1438  -1493  -1514  -1505  -1452  -1339  -1194  -1074  -1019  -1015  -1027  -1023  -984  -917  -852  -814  -787  -741  -647  -500  -336  -213  -151  -119  -78  -24  22  50  60  50  38  44  75  134  230  385  636  981  1331  1575  1689  1746  1817  1906  1982  2043  2096  2130  2141  2139  2136  2133  2124  2097  2032  1909  1743  1593  1509  1485  1487  1490  1492  1487  1456  1386  1282  1161  1036  932  880  924  1086  1304  1461  1513  1508  1499  1493  1479  1456  1431  1395  1329  1246  1180  1149  1142  1143  1143  1139  1135  1144  1167  1186  1176  1123  1044  971  921  890  855  798  744  728  716  648  537  437  375  347  343  345  340  328  328  359  413  468  502  495  422  285  132  7  -82  -150  -197  -211  -196  -185  -215  -281  -350  -395  -418  -437  -462  -489  -503  -511  -552  -660  -802  -909  -947  -941  -924  -903  -865  -801  -735  -707  -730  -789  -850  -876  -875  -889  -941  -1004  -1041  -1043  -1026  -1008  -995  -981  -961  -938  -918  -912  -933  -984  -1042  -1078  -1089  -1095  -1111  -1135  -1160  -1191  -1249  -1347  -1466  -1554  -1562  -1500  -1415  -1311  -1162  -980  -817  -723  -698  -705  -716  -729  -745  -754  -745  -728  -717  -714  -716  -722  -736  -754  -773  -804  -867  -972  -1086  -1153  -1160  -1141  -1116  -1079  -1037  -1009  -991  -970  -937  -900  -876  -878  -906  -941  -961  -952  -905  -806  -646  -350  203  948  1650  2252  2887  3575  4071  3994  3073  1343  -739  -2469  -3351  -3331  -2729  -1991  -1378  -938  -636  -413  -216  -19  182  363  493  570  615  638  642  642  667  759  935  1143  1288  1340  1352  1367  1368  1336  1306  1332  1437  1610  1811  1985  2095  2129  2098  2044  2017  2031  2049  2030  1979  1938  1967  2070  2171  2207  2192  2186  2256  2434  2643  2756  2730  2612  2453  2274  2089  1931  1832  1776  1700  1551  1336  1134  1022  994  951  788  491  174  -39  -138  -180  -208  -226  -239  -259  -289  -311  -320  -330  -374  -472  -600  -691  -707  -670  -637  -643  -670  -690  -701  -711  -722  -733  -735  -701  -610  -504  -460  -484  -499  -442  -331  -234  -186  -183  -212  -257  -302  -341  -372  -391  -396  -394  -399  -415  -438  -460  -462  -433  -378  -319  -279  -259  -243  -235  -268  -375  -553  -733  -833  -842  -826  -845  -886  -884  -797  -672  -614  -675  -784  -830  -793  -737  -712  -715  -726  -738  -760  -808  -885  -969  -1026  -1034  -996  -933  -891  -906  -982  -1099  -1218  -1299  -1327  -1312  -1261  -1194  -1142  -1122  -1142  -1204  -1286  -1348  -1380  -1401  -1422  -1437  -1433  -1403  -1339  -1239  -1138  -1069  -1035  -1025  -1025  -985  -874  -734  -642  -620  -630  -638  -643  -652  -671  -717  -812  -952  -1088  -1169  -1194  -1188  -1156  -1091  -1023  -1017  -1092  -1181  -1205  -1159  -1094  -1044  -1009  -992  -1038  -1176  -1295  -1188  -733  17  873  1643  2261  2727  2992  2951  2498  1595  313  -1134  -2451  -3371  -3732  -3518  -2879  -2076  -1384  -939  -686  -538  -492  -557  -675  -743  -697  -545  -341  -155  -36  26  77  134  181  211  233  259  301  376  495  639  774  887  984  1058  1092  1099  1136  1250  1408  1523  1564  1580  1630  1730  1857  1982  2110  2235  2322  2361  2389  2443  2529  2617  2648  2591  2478  2378  2313  2252  2167  2076  2000  1931  1863  1810  1767  1694  1526  1229  885  644  561  564  573  543  456  340  255  224  228  255  310  378  424  431  406  373  361  409  546  740  900  971  975  958  941  924  897  866  852  874  921  950  938  912  908  932  956  966  983  1017  1051  1070  1081  1085  1047  926  733  537  387  294  245  233  263  342  465  607  727  800  843  876  883  828  691  527  427  406  401  362  269  123  -31  -124  -126  -63  20  96  166  234  285  313  319  279  150  -53  -241  -340  -359  -349  -340  -331  -314  -296  -306  -382  -532  -698  -803  -828  -807  -774  -747  -729  -717  -712  -721  -740  -759  -773  -779  -780  -782  -791  -807  -825  -830  -821  -812  -813  -802  -750  -662  -594  -594  -672  -827  -1019  -1161  -1176  -1031  -757  -473  -308  -296  -392  -521  -617  -649  -608  -473  -239  16  180  212  150  52  -42  -136  -265  -448  -676  -914  -1096  -1183  -1198  -1191  -1176  -1136  -1072  -1014  -989  -989  -993  -1004  -1040  -1108  -1167  -1157  -1086  -1017  -943  -771  -405  183  914  1650  2322  2909  3323  3357  2750  1415  -384  -2150  -3398  -3875  -3622  -2895  -2033  -1347  -994  -916  -936  -935  -903  -834  -701  -531  -399  -328  -269  -191  -113  -58  -22  0  7  2  -5  -4  30  109  206  278  318  337  344  360  407  490  589  690  796  898  969  996  992  1005  1108  1334  1601  1781  1838  1834  1825  1830  1851  1884  1917  1926  1872  1719  1504  1326  1245  1239  1266  1300  1305  1195  895  466  96  -92  -147  -170  -219  -313  -439  -547  -601  -605  -589  -578  -607  -699  -827  -920  -930  -863  -765  -684  -643  -642  -668  -685  -643  -532  -401  -319  -321  -397  -499  -572  -595  -589  -577  -568  -564  -567  -579  -589  -567  -472  -310  -152  -65  -56  -97  -162  -234  -300  -341  -359  -372  -389  -404  -404  -383  -349  -305  -246  -205  -224  -304  -414  -511  -560  -562  -543  -532  -531  -523  -498  -467  -439  -402  -361  -352  -399  -479  -545  -574  -579  -574  -563  -546  -535  -538  -541  -515  -445  -350  -279  -255  -270  -316  -379  -434  -463  -464  -442  -408  -372  -359  -393  -470  -559  -600  -560  -490  -449  -441  -445  -450  -453  -453  -454  -456  -456  -439  -393  -328  -276  -251  -240  -241  -260  -298  -337  -358  -361  -364  -384  -412  -400  -323  -230  -183  -194  -228  -255  -274  -303  -343  -377  -400  -413  -408  -369  -304  -241  -195  -142  -49  86  231  343  397  406  408  428  465  513  567  612  628  570  392  118  -133  -266  -289  -269  -253  -260  -295  -343  -379  -388  -367  -323  -276  -250  -257  -286  -303  -294  -304  -349  -302  20  644  1455  2347  3214  3928  4350  4309  3651  2365  674  -1043  -2407  -3153  -3238  -2817  -2131  -1409  -823  -459  -302  -246  -200  -132  -25  139  325  456  498  470  390  289  217  204  250  348  480  606  654  584  431  284  211  231  334  477  589  631  619  581  562  658  952  1355  1652  1750  1734  1705  1712  1760  1824  1869  1882  1878  1877  1901  1950  1976  1928  1821  1720  1667  1647  1613  1526  1378  1196  1022  866  696  489  262  67  -47  -79  -68  -45  -31  -67  -195  -399  -601  -735  -794  -803  -784  -741  -685  -641  -633  -663  -709  -748  -771  -770  -743  -699  -646  -595  -561  -550  -551  -563  -592  -630  -658  -667  -662  -653  -645  -629  -568  -430  -251  -120  -77  -95  -144  -200  -243  -267  -277  -278  -279  -316  -418  -550  -613  -543  -378  -219  -133  -115  -132  -153  -176  -219  -279  -322  -333  -344  -412  -549  -693  -755  -702  -578  -462  -400  -384  -389  -398  -409  -417  -398  -332  -229  -130  -58  -21  -47  -169  -393  -664  -883  -961  -860  -615  -344  -170  -133  -222  -418  -646  -794  -789  -636  -419  -252  -176  -140  -110  -111  -172  -274  -368  -428  -459  -462  -413  -298  -166  -89  -71  -81  -114  -169  -226  -265  -286  -290  -255  -146  21  173  259  290  305  329  362  376  347  273  173  62  -50  -144  -201  -222  -230  -242  -267  -298  -326  -341  -340  -333  -331  -338  -351  -363  -371  -367  -344  -311  -337  -511  -752  -769  -348  431  1340  2211  2935  3423  3600  3327  2471  1122  -431  -1880  -2950  -3474  -3462  -3009  -2234  -1398  -831  -611  -546  -472  -382  -314  -259  -196  -132  -89  -69  -62  -60  -59  -50  2  137  316  446  491  487  466  428  362  286  236  245  327  495  716  901  986  972  906  863  909  1068  1293  1488  1591  1621  1625  1626  1624  1617  1624  1673  1761  1852  1907  1909  1855  1750  1617  1501  1432  1403  1352  1192  907  594  357  209  110  45  3  -42  -95  -131  -134  -128  -162  -268  -410  -515  -573  -637  -731  -824  -874  -864  -798  -700  -591  -468  -344  -261  -234  -240  -260  -293  -333  -385  -474  -585  -651  -650  -627  -620  -608  -537  -382  -192  -49  10  13  1  -7  -6  6  29  43  -2  -147  -348  -495  -530  -474  -378  -281  -201  -154  -160  -204  -234  -234  -239  -275  -319  -321  -276  -223  -190  -180  -208  -296  -422  -510  -475  -279  -3  192  194  4  -259  -451  -520  -523  -515  -512  -515  -518  -510  -478  -422  -349  -279  -263  -337  -452  -527  -540  -513  -472  -429  -382  -333  -290  -249  -209  -178  -169  -191  -251  -331  -395  -419  -392  -301  -165  -43  9  -59  -284  -592  -816  -848  -691  -433  -207  -98  -106  -187  -290  -363  -388  -380  -355  -319  -269  -189  -71  79  246  394  491  533  527  459  332  188  70  -30  -158  -319  -459  -543  -589  -636  -701  -759  -769  -726  -662  -598  -539  -508  -564  -757  -1032  -1237  -1247  -1026  -663  -371  -250  -96  407  1312  2378  3308  3847  3837  3278  2236  786  -900  -2527  -3690  -4035  -3517  -2413  -1185  -379  -284  -652  -1015  -1160  -1151  -1081  -975  -852  -746  -672  -593  -475  -346  -265  -248  -270  -287  -241  -82  147  330  401  382  310  199  68  -30  -49  19  150  308  461  609  774  933  1035  1081  1124  1207  1308  1385  1441  1503  1577  1660  1749  1829  1882  1903  1891  1833  1721  1587  1483  1419  1349  1219  1020  808  656  583  537  461  353  248  174  124  46  -110  -316  -475  -545  -566  -581  -590  -580  -543  -477  -379  -269  -186  -138  -110  -121  -186  -267  -319  -335  -323  -290  -234  -158  -88  -49  -54  -95  -152  -200  -226  -222  -170  -67  65  199  308  366  374  364  353  312  211  88  31  69  151  222  278  330  370  391  400  401  382  334  275  253  291  343  337  254  149  82  64  83  139  221  295  331  322  278  221  180  166  168  175  181  180  153  82  -17  -85  -56  100  322  479  472  298  54  -125  -193  -188  -135  -38  69  137  140  100  65  70  119  178  193  145  84  60  67  64  39  19  21  37  65  117  185  239  266  281  285  254  157  17  -81  -52  132  392  581  610  497  318  169  97  88  127  220  343  438  479  483  474  466  470  487  504  517  532  544  523  419  224  12  -154  -292  -424  -517  -549  -543  -537  -576  -696  -859  -978  -1019  -1016  -1010  -1017  -1043  -1076  -1077  -988  -812  -663  -637  -634  -416  162  1017  1967  2828  3366  3386  2848  1790  353  -1156  -2428  -3255  -3556  -3451  -3151  -2742  -2237  -1744  -1415  -1270  -1194  -1079  -911  -744  -623  -534  -443  -349  -280  -256  -261  -261  -231  -164  -82  -18  35  113  230  377  531  653  714  721  703  684  690  734  818  944  1080  1173  1213  1234  1265  1305  1346  1417  1558  1744  1894  1962  1974  1972  1975  1982  1993  2012  2038  2065  2084  2093  2103  2114  2091  1924  1528  1015  618  407  263  105  -31  -112  -154  -190  -224  -243  -249  -269  -335  -447  -564  -637  -661  -660  -660  -663  -668  -672  -677  -683  -688  -698  -721  -774  -850  -923  -970  -987  -986  -983  -975  -949  -917  -902  -913  -940  -954  -928  -861  -762  -637  -502  -388  -320  -288  -257  -217  -202  -244  -340  -459  -564  -616  -597  -522  -434  -374  -356  -374  -416  -455  -463  -434  -367  -262  -143  -52  -16  -25  -36  -23  -8  -27  -84  -161  -235  -294  -338  -380  -420  -435  -393  -283  -151  -64  -41  -47  -56  -76  -128  -196  -235  -222  -180  -157  -169  -195  -203  -191  -168  -155  -169  -219  -295  -369  -412  -422  -418  -415  -418  -429  -442  -454  -464  -469  -466  -463  -485  -552  -646  -730  -785  -804  -781  -725  -636  -503  -339  -191  -70  28  91  112  109  95  72  44  25  29  52  76  76  50  19  -7  -30  -54  -99  -186  -306  -443  -614  -806  -940  -974  -933  -868  -813  -779  -765  -767  -783  -804  -812  -810  -818  -734  -326  550  1751  2915  3727  4060  3946  3476  2634  1294  -479  -2276  -3555  -3963  -3512  -2556  -1576  -884  -538  -446  -458  -451  -383  -270  -152  -72  -35  -20  -6  7  4  -25  -49  -40  -21  -14  -6  20  70  143  225  301  374  453  537  609  653  670  670  669  686  733  808  885  930  930  921  969  1122  1344  1542  1683  1811  1936  2022  2051  2049  2032  1998  1944  1871  1773  1656  1551  1472  1397  1287  1143  996  839  628  393  229  174  179  175  104  -77  -368  -677  -870  -892  -786  -639  -540  -521  -562  -622  -676  -722  -763  -792  -830  -909  -1021  -1111  -1134  -1063  -884  -656  -491  -433  -438  -461  -488  -510  -518  -510  -495  -482  -468  -458  -460  -469  -468  -438  -381  -319  -273  -251  -247  -250  -254  -257  -259  -261  -257  -244  -224  -219  -248  -300  -344  -361  -359  -366  -410  -481  -523  -499  -453  -451  -513  -603  -669  -697  -699  -664  -573  -448  -359  -366  -476  -630  -743  -787  -786  -750  -664  -540  -431  -371  -358  -369  -379  -377  -369  -365  -364  -355  -332  -320  -368  -503  -678  -801  -840  -831  -813  -799  -792  -805  -849  -915  -961  -936  -814  -640  -510  -497  -617  -821  -975  -939  -676  -238  309  908  1512  2152  2819  3278  3202  2427  1019  -726  -2353  -3475  -3971  -3917  -3432  -2673  -1879  -1280  -942  -756  -608  -481  -400  -364  -338  -282  -206  -162  -182  -245  -306  -341  -347  -322  -260  -183  -130  -114  -120  -110  -39  108  276  389  433  466  543  652  734  761  753  736  725  728  740  759  802  933  1203  1550  1830  1983  2049  2070  2031  1916  1774  1656  1554  1466  1408  1360  1280  1140  941  724  554  453  406  372  269  20  -307  -547  -639  -660  -675  -680  -677  -699  -760  -818  -839  -832  -837  -888  -992  -1103  -1150  -1085  -919  -732  -616  -586  -596  -605  -598  -576  -531  -447  -343  -267  -243  -246  -253  -254  -250  -236  -207  -165  -130  -110  -87  -46  -7  8  7  9  19  29  32  34  30  51  171  390  599  720  755  731  674  601  534  498  501  538  588  622  619  576  514  464  439  444  494  602  731  822  862  881  897  898  880  856  849  867  919  1005  1109  1190  1227  1236  1242  1251  1260  1259  1238  1186  1115  1053  1025  1059  1177  1341  1468  1530  1564  1605  1652  1692  1736  1807  1893  1953  1970  1959  1938  1935  2003  2178  2406  2563  2563  2395  2133  1901  1758  1640  1469  1266  1120  1092  1157  1256  1347  1392  1335  1134  860  658  591  603  617  587  493  345  140  -112  -243  62  925  2062  3026  3558  3678  3531  3214  2681  1754  295  -1506  -3136  -4122  -4308  -3861  -3132  -2471  -2083  -1961  -1964  -1972  -1951  -1926  -1917  -1919  -1924  -1930  -1942  -1966  -1991  -1994  -1972  -1939  -1913  -1895  -1876  -1847  -1816  -1797  -1792  -1793  -1792  -1786  -1770  -1749  -1738  -1751  -1785  -1827  -1857  -1847  -1758  -1582  -1379  -1234  -1155  -1066  -904  -706  -564  -508  -493  -459  -376  -268  -167  -83  -13  35  60  67  55  8  -93  -248  -415  -540  -591  -542  -340  0]
