reading_id,reading_time,wire_id,result_classification,heart_rate,heart_rate_alert,firmware_version,device_app_version,hardware_version,waveform_samples
3ca12450-5e33-11ed-8080-808080808080,Mon Nov 07 00:29:27 UTC 2022,e100638c1a39,UNREADABLE,0,NONE,20001.171.50,2.10.0,Charge 5,[32767  32767  32767  32767  32767  32767  32767  32767  32767  32767  32767  32767  32767  32767  32767  32767  32767  32767  32767  32767  32767  32767  32767  32767  32767  32767  32767  32767  32767  32767  32767  32767  32767  32767  32767  32767  32767  32767  32767  32767  32767  32767  32767  32767  32767  32767  32767  32767  32767  32767  32767  32767  32767  32767  31140  19705  7158  -2222  -7347  -17754  -32768  -32768  -32768  -32768  -32768  -32768  -32768  -32768  -32768  -32768  -32768  -32768  -32768  -32768  -32768  -32768  -32768  -32768  -32768  -32768  -32768  -32768  -32768  22191  32767  32767  32767  32767  32767  32767  32767  32767  32767  32767  32767  32767  32767  32767  32767  32767  32767  32767  32767  32767  32767  32767  32767  32767  32767  32767  32767  32767  32767  32767  32767  32767  32767  32767  32767  32767  32767  32767  32767  32767  32323  25951  18578  10186  1786  -5717  -12185  -17897  -23334  -28928  -32768  -32768  -32768  -32768  -32768  -32768  -32768  -32768  -32768  -32768  -32768  -32768  -32768  -32768  -32768  -32768  -32768  -32768  -32768  -32768  -32768  -32768  -32768  -32768  -32768  -32768  -32768  -32768  -32768  -32768  -32768  -32768  -32768  -32768  -32768  -32768  -32768  -32768  -32768  -32768  -32768  -32768  -32768  -32768  -32348  -30366  -27662  -24829  -22546  -21096  -20266  -19567  -18656  -17698  -17079  -16846  -16750  -16687  -16753  -16952  -17128  -17158  -17047  -16881  -16735  -16588  -16389  -16162  -15953  -15742  -15449  -14975  -14312  -13660  -13264  -13147  -13159  -13170  -13114  -12961  -12743  -12542  -12415  -12323  -12121  -11642  -10928  -10275  -9897  -9621  -9081  -8229  -7435  -6993  -6805  -6655  -6469  -6259  -6024  -5755  -5484  -5268  -5149  -5145  -5269  -5528  -5889  -6240  -6450  -6449  -6191  -5693  -5119  -4692  -4496  -4461  -4521  -4703  -5053  -5531  -6029  -6440  -6714  -6878  -7029  -7251  -7534  -7796  -7962  -8029  -8056  -8079  -8094  -8099  -8131  -8224  -8351  -8450  -8507  -8577  -8712  -8842  -8743  -8185  -7123  -5809  -4639  -3769  -2957  -1751  213  2907  6029  9375  12741  15827  18474  20582  21996  22828  23553  24592  26041  27831  29641  30891  31336  31250  30967  30682  30517  30496  30539  30509  30268  29738  28845  27565  26197  25237  24862  24875  25093  25530  26267  27238  28127  28624  28733  28676  28607  28573  28617  28796  29081  29360  29761  30834  32767  32767  32767  32767  32767  32767  32767  32767  32767  32767  32767  32767  32767  32767  32767  32767  32767  32767  32767  32767  32767  32767  32767  32767  32767  32767  32767  32767  32767  32767  32767  32767  32767  32767  32767  32767  32767  32767  32767  32767  32767  32767  32767  32767  32767  32767  32767  32685  31856  30968  30053  29347  28979  28773  28330  27326  25890  24539  23655  23163  22825  22570  22410  22258  22016  21812  21886  22223  22565  22765  22897  23051  23243  23440  23541  23457  23221  22898  22546  22216  21890  21563  21335  21309  21506  21872  22287  22591  22702  22718  22744  22512  21353  18969  16205  14363  13794  13880  14028  14071  13987  13626  12723  11112  8972  6743  4721  2891  1067  -944  -3121  -5197  -6861  -8030  -9006  -10300  -12280  -14843  -17464  -19703  -21491  -22963  -24195  -25102  -25616  -25827  -25917  -26073  -26386  -26773  -27072  -27237  -27382  -27625  -27944  -28220  -28463  -28925  -29836  -30996  -31884  -32220  -32071  -31559  -30866  -30214  -29601  -28866  -27987  -27071  -26225  -25598  -25288  -25174  -25056  -24890  -24741  -24589  -24332  -23953  -23586  -23379  -23339  -23362  -23382  -23414  -23573  -24091  -25082  -26223  -26954  -26940  -26212  -25153  -24318  -23968  -23968  -24157  -24498  -24929  -25311  -25545  -25520  -24993  -23717  -21708  -19341  -17255  -15980  -15535  -15593  -15943  -16581  -17441  -18258  -18710  -18590  -17888  -16923  -16216  -15972  -15929  -15732  -15283  -14796  -14496  -14237  -13629  -12534  -11222  -9937  -8609  -7172  -5760  -4478  -3354  -2500  -2017  -1835  -1788  -1783  -1800  -1813  -1809  -1812  -1865  -2016  -2274  -2570  -2805  -2927  -2960  -2950  -2892  -2742  -2477  -2167  -1946  -1870  -1847  -1715  -1384  -934  -497  -27  790  2336  4527  6624  7915  8348  8300  8056  7696  7291  6938  6649  6372  6163  6156  6366  6690  7060  7438  7762  7989  8123  8204  8253  8244  8159  8027  7880  7749  7683  7707  7780  7823  7790  7721  7684  7661  7587  7411  7072  6572  6062  5628  5141  4492  3777  3168  2709  2210  1422  417  -420  -851  -959  -935  -904  -926  -1049  -1287  -1553  -1729  -1774  -1720  -1596  -1451  -1346  -1283  -1230  -1202  -1229  -1285  -1313  -1268  -1123  -893  -626  -352  -103  69  145  126  -10  -268  -555  -723  -659  -336  110  481  726  912  1054  1139  1201  1352  1735  2357  3008  3448  3633  3677  3656  3540  3257  2789  2244  1811  1575  1439  1267  1031  808  677  645  656  661  664  708  804  890  879  760  556  216  -322  -1031  -1854  -2739  -3655  -4547  -5078  -4735  -3368  -1369  614  1987  2417  1979  1043  -70  -1240  -2362  -3293  -4020  -4648  -5165  -5542  -5906  -6350  -6837  -7270  -7539  -7622  -7569  -7408  -7160  -6862  -6533  -6176  -5788  -5365  -4922  -4453  -3886  -3161  -2398  -1808  -1492  -1394  -1400  -1401  -1339  -1224  -1077  -885  -671  -518  -431  -304  -43  339  734  1017  1146  1192  1256  1358  1443  1478  1476  1461  1446  1440  1443  1442  1427  1411  1433  1514  1608  1624  1524  1325  1070  845  740  770  890  1037  1154  1244  1334  1355  1171  727  121  -448  -827  -988  -859  -207  1029  2383  3233  3452  3324  3097  2886  2783  2881  3234  3794  4357  4707  4831  4876  4942  5002  4953  4705  4285  3785  3240  2700  2257  1865  1349  708  171  -108  -193  -175  -59  173  474  751  932  983  912  778  659  593  560  534  515  510  518  532  546  559  560  520  405  229  51  -94  -238  -408  -565  -664  -730  -839  -1017  -1204  -1334  -1452  -1680  -2022  -2390  -2800  -3317  -3835  -4184  -4394  -4637  -4996  -5446  -5920  -6310  -6549  -6675  -6676  -6316  -5313  -3792  -2306  -1280  -747  -527  -306  259  1186  2161  2959  3538  3816  3710  3283  2706  2145  1721  1507  1550  1870  2419  3096  3827  4527  5083  5425  5556  5551  5522  5515  5443  5171  4704  4194  3694  3105  2462  1993  1823  1860  1963  2085  2264  2506  2773  3044  3303  3544  3813  4156  4500  4721  4788  4713  4486  4156  3874  3753  3756  3764  3632  3258  2706  2054  1275  516  35  -293  -777  -1462  -2224  -2960  -3645  -4406  -5362  -6317  -6928  -7132  -7117  -7063  -6958  -6570  -5685  -4278  -2559  -968  127  700  938  1018  1040  1046  1052  1056  1049  1032  1035  1125  1357  1662  1883  1956  1936  1888  1853  1916  2188  2676  3226  3647  3849  3862  3760  3570  3337  3173  3189  3427  3812  4212  4553  4819  5015  5168  5287  5360  5383  5375  5358  5313  5190  4990  4812  4788  5026  5509  6036  6363  6430  6369  6334  6361  6398  6410  6418  6469  6593  6784  7014  7236  7422  7600  7780  7900  7919  7857  7711  7424  6982  6459  5885  5113  3972  2513  1010  -288  -1384  -2440  -3467  -4377  -5204  -5958  -6511  -6852  -7123  -7388  -7618  -7830  -8064  -8369  -8833  -9403  -9844  -10009  -9958  -9807  -9602  -9343  -9008  -8448  -7481  -6260  -5217  -4547  -4114  -3775  -3477  -3198  -2986  -2961  -3154  -3492  -3921  -4381  -4745  -4927  -4921  -4779  -4633  -4417  -3798  -2592  -945  691  1661  1602  750  -431  -1572  -2457  -3101  -3528  -3708  -3811  -3989  -4118  -4102  -4024  -3934  -3759  -3400  -2885  -2397  -2100  -1996  -2000  -2075  -2265  -2613  -3073  -3534  -3886  -4039  -3958  -3702  -3388  -3124  -2969  -2936  -2987  -3082  -3219  -3365  -3430  -3352  -3183  -3034  -2960  -2944  -2981  -3113  -3370  -3672  -3878  -3915  -3798  -3577  -3331  -3133  -3009  -2911  -2726  -2393  -2028  -1809  -1784  -1848  -1862  -1758  -1587  -1442  -1337  -1154  -768  -221  331  828  1300  1753  2132  2392  2577  2774  3044  3399  3796  4156  4479  4883  5424  5998  6479  6828  7044  7148  7191  7230  7305  7420  7492  7347  6853  6165  5641  5428  5388  5380  5368  5352  5323  5199  4862  4346  3860  3534  3280  2926  2431  1914  1505  1235  1059  935  893  982  1190  1472  1791  2105  2378  2650  2990  3347  3583  3647  3583  3428  3181  2859  2542  2291  2016  1555  941  366  -98  -493  -795  -962  -1034  -1091  -1165  -1239  -1303  -1347  -1366  -1378  -1393  -1352  -1144  -730  -208  259  562  685  714  752  817  826  731  601  491  379  265  143  -32  -263  -488  -673  -813  -910  -977  -984  -766  -106  1008  2311  3446  4155  4410  4366  4160  3864  3543  3273  3115  3067  3072  3081  3089  3123  3196  3272  3307  3336  3408  3492  3535  3544  3556  3587  3627  3658  3681  3693  3639  3392  2790  1796  622  -445  -1294  -1909  -2270  -2451  -2612  -2869  -3214  -3542  -3753  -3857  -3959  -4217  -4805  -5730  -6715  -7416  -7723  -7757  -7633  -7333  -6814  -6181  -5567  -4923  -4202  -3549  -3093  -2798  -2566  -2286  -1920  -1551  -1228  -900  -565  -302  -136  -34  -6  -78  -206  -271  -140  228  688  1024  1172  1212  1215  1180  1069  879  681  548  445  285  84  -61  -117  -137  -183  -251  -303  -338  -422  -651  -1073  -1600  -2048  -2291  -2353  -2334  -2300  -2250  -2128  -1883  -1552  -1253  -1088  -1094  -1219  -1363  -1485  -1609  -1754  -1899  -2000  -2062  -2144  -2306  -2569  -2907  -3244  -3475  -3514  -3287  -2768  -2120  -1621  -1396  -1354  -1392  -1474  -1560  -1589  -1539  -1451  -1385  -1351  -1317  -1265  -1222  -1214  -1241  -1279  -1292  -1272  -1226  -1067  -635  52  717  1120  1268  1293  1286  1273  1263  1270  1281  1245  1098  783  199  -704  -1703  -2428  -2813  -3089  -3392  -3667  -3875  -4027  -4115  -4173  -4340  -4724  -5234  -5597  -5494  -4697  -3338  -1959  -1050  -693  -744  -1114  -1773  -2611  -3422  -4015  -4334  -4465  -4498  -4454  -4310  -4091  -3871  -3705  -3620  -3639  -3711  -3723  -3638  -3495  -3309  -3080  -2846  -2652  -2494  -2335  -2160  -2000  -1895  -1843  -1812  -1780  -1756  -1780  -1940  -2300  -2763  -3114  -3229  -3079  -2666  -2124  -1684  -1430  -1307  -1269  -1281  -1299  -1307  -1308  -1304  -1291  -1254  -1129  -804  -232  488  1143  1524  1609  1546  1500  1634  2074  2720  3295  3698  4077  4483  4779  4869  4790  4624  4415  4141  3778  3401  3146  3064  3103  3214  3363  3498  3572  3596  3622  3692  3820  4004  4216  4414  4576  4716  4833  4901  4917  4908  4904  4911  4908  4860  4741  4564  4359  4162  4005  3878  3729  3554  3419  3388  3506  3787  4127  4352  4363  4181  3921  3738  3739  3945  4277  4600  4875  5177  5530  5851  6080  6213  6238  6134  5866  5416  4908  4556  4431  4461  4569  4722  4926  5190  5408  5391  5071  4497  3686  2705  1695  745  -15  -429  -523  -463  -366  -278  -223  -208  -216  -236  -259  -262  -215  -108  29  148  214  201  103  -64  -326  -744  -1302  -1869  -2324  -2684  -3061  -3506  -3953  -4354  -4748  -5113  -5257  -4934  -3930  -2141  158  2276  3556  3736  2992  1800  672  28  38  429  686  499  -75  -817  -1498  -1922  -2058  -2040  -2022  -2099  -2266  -2432  -2523  -2549  -2542  -2485  -2345  -2154  -2004  -1950  -2003  -2164  -2379  -2541  -2609  -2616  -2602  -2614  -2713  -2881  -3015  -3047  -2987  -2887  -2792  -2726  -2693  -2685  -2684  -2680  -2684  -2725  -2815  -2926  -3006  -3009  -2967  -2941  -2883  -2612  -2022  -1292  -734  -445  -297  -198  -138  -57  187  661  1204  1556  1575  1261  712  103  -407  -731  -864  -878  -835  -732  -558  -350  -163  -22  58  54  -8  -74  -144  -277  -475  -661  -770  -811  -820  -815  -777  -682  -541  -400  -255  -37  296  666  926  1025  1044  1099  1232  1364  1406  1402  1432  1496  1545  1570  1591  1623  1646  1620  1519  1377  1276  1268  1347  1465  1589  1748  1956  2157  2297  2371  2397  2398  2414  2451  2437  2315  2157  2051  2005  1992  1993  1993  1980  1964  1996  2156  2470  2855  3165  3317  3337  3305  3282  3313  3429  3602  3741  3753  3556  3142  2674  2399  2321  2207  2026  1920  1834  1634  1199  327  -948  -2206  -3074  -3489  -3526  -3274  -2840  -2275  -1468  -406  555  1075  1169  900  207  -781  -1672  -2197  -2390  -2404  -2325  -2169  -1976  -1827  -1757  -1749  -1805  -1943  -2141  -2333  -2474  -2584  -2681  -2740  -2749  -2761  -2855  -3058  -3301  -3488  -3595  -3650  -3682  -3706  -3714  -3650  -3455  -3178  -2968  -2937  -3083  -3301  -3461  -3529  -3567  -3614  -3648  -3650  -3642  -3682  -3814  -4002  -4157  -4241  -4271  -4251  -4178  -4066  -3901  -3650  -3351  -3100  -2840  -2380  -1731  -1168  -871  -762  -695  -616  -532  -445  -364  -352  -458  -641  -794  -866  -888  -904  -926  -929  -878  -767  -645  -578  -574  -581  -551  -486  -414  -335  -219  -40  208  492  727  852  890  933  1120  1558  2149  2639  2904  2998  3000  2947  2887  2890  3028  3327  3724  4079  4281  4332  4301  4225  4111  3991  3926  3925  3898  3749  3486  3212  3039  2993  3019  3067  3082  2944  2544  1999  1590  1442  1483  1651  1923  2172  2196  1901  1347  692  125  -246  -468  -639  -798  -907  -927  -882  -777  -548  -177  202  443  540  569  551  414  97  -318  -678  -925  -1110  -1273  -1384  -1395  -1330  -1259  -1205  -1124  -1013  -998  -1205  -1576  -1954  -2281  -2573  -2811  -2974  -3067  -3031  -2685  -1849  -558  779  1643  1927  1923  1848  1685  1338  834  402  267  419  716  990  1099  1079  1061  1032  849  358  -518  -1581  -2269  -2152  -1352  -294  486  601  304  130  183  270  257  97  -189  -504  -705  -685  -402  60  484  702  728  661  570  489  433  403  391  385  370  305  119  -199  -568  -890  -1154  -1412  -1711  -2067  -2419  -2653  -2731  -2707  -2634  -2543  -2463  -2384  -2258  -2072  -1890  -1769  -1701  -1649  -1582  -1494  -1402  -1326  -1266  -1186  -996  -601  -26  555  989  1251  1375  1381  1281  1057  659  155  -251  -463  -560  -626  -662  -667  -685  -739  -775  -748  -700  -682  -684  -690  -719  -861  -1209  -1702  -2123  -2328  -2361  -2317  -2227  -2084  -1890  -1657  -1392  -1102  -792  -433  -1  423  709  820  831  820  805  768  696  630  653  828  1145  1533  1914  2253  2601  2963  3215  3434  3872  4393  4602  4435  4110  3909  4057  4422  4510  3911  2615  1078  -136  -845  -1099  -1012  -849  -746  -621  -427  -198  10  147  207  251  368  601  904  1182  1360  1439  1462  1457  1385  1180  824  299  -475  -1406  -2156  -2508  -2500  -2149  -1382  -161  1453  3174  4495  5127  5193  4864  4166  3230  2381  1844  1589  1486  1433  1372  1274  1130  958  803  672  488  156  -312  -774  -1058  -1132  -1079  -967  -832  -719  -693  -781  -924  -1040  -1107  -1142  -1167  -1192  -1203  -1192  -1182  -1199  -1257  -1343  -1419  -1486  -1618  -1892  -2287  -2663  -2865  -2871  -2808  -2780  -2779  -2741  -2618  -2443  -2277  -2124  -1976  -1874  -1842  -1853  -1873  -1860  -1758  -1554  -1313  -1113  -968  -861  -780  -700  -604  -520  -478  -473  -479  -477  -461  -448  -474  -564  -694  -800  -848  -857  -857  -853  -817  -720  -559  -360  -174  -60  -37  -80  -155  -214  -172  78  548  1089  1499  1646  1515  1194  801  425  145  46  131  292  427  560  787  1149  1553  1859  2041  2217  2500  2837  3082  3191  3239  3274  3280  3234  3151  3113  3197  3382  3595  3783  3897  3898  3781  3584  3338  3022  2617  2204  1912  1784  1773  1852  2036  2275  2460  2553  2630  2786  3040  3303  3472  3536  3548  3552  3560  3540  3380  2955  2331  1783  1514  1509  1685  1976  2270  2373  2160  1703  1146  676  570  1035  2204  4092  6159  7482  7625  6873  5763  4762  4141  3817  3542  3320  3334  3534  3709  3775  3770  3688  3452  3034  2584  2301  2224  2262  2341  2428  2495  2512  2440  2234  1915  1557  1181  771  391  132  -17  -159  -396  -754  -1140  -1475  -1826  -2264  -2747  -3219  -3650  -4034  -4387  -4722  -5063  -5432  -5794  -6101  -6332  -6468  -6516  -6517  -6507  -6471  -6315  -5955  -5490  -5135  -4955  -4843  -4671  -4347  -3869  -3379  -3000  -2681  -2360  -2099  -1955  -1909  -1921  -1943  -1947  -1948  -1975  -2036  -2131  -2256  -2346  -2274  -1983  -1614  -1365  -1281  -1272  -1273  -1288  -1351  -1503  -1745  -2034  -2311  -2511  -2604  -2621  -2621  -2640  -2677  -2713  -2747  -2812  -2914  -3011  -3070  -3126  -3245  -3428  -3602  -3708  -3745  -3744  -3733  -3723  -3723  -3744  -3794  -3844  -3849  -3815  -3808  -3927  -4264  -4764  -5209  -5461  -5578  -5667  -5766  -5869  -5964  -6041  -6043  -5871  -5485  -4998  -4581  -4308  -4149  -4024  -3824  -3458  -2983  -2568  -2301  -2112  -1836  -1371  -832  -458  -327  -337  -379  -423  -528  -793  -1210  -1612  -1795  -1661  -1313  -1028  -1055  -1460  -2195  -3079  -3737  -3916  -3684  -3173  -2450  -1674  -938  -60  1033  1995  2467  2434  2069  1609  1298  1233  1342  1499  1601  1596  1488  1336  1218  1166  1186  1330  1677  2215  2851  3501  4075  4458  4619  4603  4416  4054  3610  3233  2997  2882  2840  2830  2838  2852  2845  2759  2541  2219  1914  1710  1583  1465  1327  1189  1079  1004  945  873  771  664  612  670  852  1101  1309  1381  1307  1173  1112  1204  1462  1936  2708  3656  4460  4940  5165  5251  5245  5150  4937  4567  4125  3796  3684  3826  4254  4841  5302  5506  5562  5590  5601  5567  5462  5206  4693  4002  3418  3124  3055  3073  3106  3135  3136  3045  2811  2508  2269  2105  1930  1736  1600  1558  1609  1758  1972  2138  2158  2044  1882  1743  1647  1589  1552  1522  1501  1496  1500  1500  1481  1443  1409  1377  1331  1280  1204  1028  718  355  58  -116  -196  -242  -288  -334  -371  -383  -353  -285  -211  -142  -33  166  428  669  858  1035  1242  1465  1635  1688  1580  1268  811  405  208  239  438  694  877  942  922  838  696  494  146  -410  -1016  -1315  -967  163  1900  3730  5030  5428  4968  4076  3266  2848  2842  2976  2926  2680  2411  2217  2178  2313  2503  2671  2840  2987  3016  2874  2592  2255  1957  1760  1673  1676  1743  1843  1941  1978  1834  1387  721  100  -326  -659  -1063  -1577  -2111  -2575  -2977  -3377  -3857  -4495  -5226  -5827  -6186  -6381  -6488  -6517  -6458  -6295  -5993  -5569  -5166  -4943  -4921  -5027  -5179  -5337  -5557  -5920  -6372  -6728  -6853  -6714  -6353  -5923  -5603  -5426  -5317  -5249  -5239  -5323  -5529  -5859  -6306  -6796  -7163  -7317  -7322  -7279  -7237  -7192  -7130  -7040  -6888  -6614  -6222  -5817  -5513  -5372  -5416  -5632  -5928  -6195  -6419  -6606  -6649  -6432  -6004  -5545  -5177  -4925  -4787  -4742  -4739  -4743  -4757  -4798  -4865  -4962  -5102  -5275  -5417  -5470  -5450  -5379  -5229  -4997  -4736  -4478  -4228  -4004  -3831  -3670  -3444  -3174  -2982  -2971  -3155  -3451  -3701  -3774  -3616  -3235  -2745  -2278  -1817  -1329  -880  -503  -187  29  137  199  281  410  606  891  1263  1665  2013  2289  2568  2899  3210  3397  3424  3286  2951  2419  1807  1288  1027  1175  1771  2746  4074  5694  7254  8186  8182  7414  6332  5471  5178  5226  5057  4548  4072  3880  3883  3882  3760  3539  3329  3202  3155  3165  3210  3276  3366  3501  3719  4047  4409  4654  4729  4709  4675  4661  4691  4771  4864  4906  4887  4824  4643  4213  3579  3005  2687  2578  2523  2403  2184  1904  1635  1449  1361  1337  1342  1354  1347  1289  1166  1033  1025  1234  1563  1835  1986  2079  2225  2500  2850  3128  3253  3267  3257  3261  3268  3246  3183  3068  2907  2747  2647  2609  2598  2575  2503  2355  2117  1783  1387  1022  790  699  662  591  461  302  143  0  -110  -202  -293  -373  -425  -448  -451  -454  -487  -584  -739  -883  -916  -762  -398  129  675  1040  1160  1131  1071  1070  1224  1573  1997  2303  2420  2423  2375  2278  2129  1967  1855  1839  1902  1976  2009  1991  1935  1857  1762  1625  1436  1250  1169  1249  1439  1647  1846  2024  2133  2154  2137  2144  2190  2208  2013  1436  569  -324  -1111  -1721  -1973  -1604  -455  1335  3342  4970  5676  5390  4527  3510  2566  1915  1756  2016  2393  2626  2564  2212  1730  1281  957  753  535  120  -523  -1199  -1677  -1919  -2049  -2187  -2349  -2477  -2552  -2625  -2745  -2893  -2963  -2867  -2647  -2433  -2336  -2377  -2492  -2593  -2632  -2566  -2355  -2060  -1851  -1886  -2216  -2702  -3091  -3258  -3285  -3297  -3356  -3438  -3477  -3428  -3302  -3143  -2995  -2868  -2738  -2604  -2487  -2329  -2043  -1682  -1444  -1511  -1935  -2528  -2981  -3156  -3124  -2950  -2648  -2259  -1866  -1533  -1284  -1127  -1059  -1050  -1016  -841  -464  46  515  786  852  811  736  666  666  801  1077  1440  1809  2079  2187  2163  2068  1952  1866  1855  1926  2010  2008  1922  1820  1633  1170  368  -592  -1411  -1895  -2066  -2068  -2032  -2003  -1995  -2046  -2117  -2115  -2056  -2016  -1989  -1920  -1778  -1558  -1259  -933  -686  -553  -445  -257  -4  198  283  278  235  175  104  13  -103  -205  -206  -76  128  323  446  496  489  392  120  -397  -1090  -1715  -2085  -2220  -2138  -1647  -580  790  1895  2455  2626  2647  2563  2216  1505  656  67  -119  -32  190  486  829  1186  1502  1775  2002  2041  1808  1433  1092  921  897  699  86  -701  -1244  -1401  -1271  -1077  -1126  -1423  -1621  -1547  -1322  -1059  -816  -639  -541  -510  -555  -723  -1014  -1341  -1619  -1823  -1958  -2064  -2223  -2496  -2824  -3069  -3153  -3074  -2846  -2563  -2371  -2311  -2316  -2331  -2333  -2254  -2012  -1633  -1254  -983  -823  -636  -183  617  1499  2102  2347  2389  2373  2356  2338  2305  2246  2163  2067  1985  1923  1831  1643  1394  1190  1083  1044  1051  1120  1308  1650  2083  2477  2748  2879  2865  2711  2462  2195  1929  1610  1227  876  657  565  525  467  311  -27  -501  -915  -1148  -1241  -1267  -1249  -1215  -1195  -1194  -1169  -1057  -827  -552  -352  -288  -363  -586  -923  -1251  -1472  -1597  -1676  -1727  -1752  -1758  -1757  -1766  -1797  -1848  -1899  -1899  -1739  -1307  -643  53  584  885  1033  1139  1232  1304  1363  1407  1401  1276  945  311  -648  -1761  -2779  -3574  -4065  -4159  -3887  -3329  -2509  -1509  -360  1013  2494  3698  4200  3726  2506  1246  563  644  1200  1588  1391  847  464  415  493  523  515  446  227  -108  -410  -599  -698  -758  -821  -905  -976  -964  -821  -570  -325  -183  -140  -140  -179  -310  -545  -789  -936  -972  -952  -923  -917  -978  -1167  -1470  -1801  -2104  -2354  -2502  -2467  -2169  -1646  -1109  -764  -625  -565  -488  -392  -320  -274  -207  -96  51  228  405  537  611  648  667  636  494  245  -3  -146  -185  -200  -254  -334  -388  -404  -406  -404  -369  -266  -111  24  88  78  15  -68  -130  -148  -111  -12  140  329  549  798  1037  1233  1413  1598  1766  1917  2059  2159  2207  2217  2174  2034  1802  1550  1369  1291  1268  1223  1123  987  838  699  609  576  569  570  605  712  871  1014  1092  1080  947  707  441  227  71  -47  -137  -226  -395  -688  -1011  -1212  -1233  -1124  -981  -878  -808  -671  -302  414  1301  1957  2197  2179  2115  2119  2232  2441  2655  2745  2629  2337  2015  1818  1783  1857  1973  2055  1980  1628  1023  352  -174  -416  -458  -632  -1145  -1764  -1956  -1237  492  2746  4586  5257  4739  3640  2600  1883  1430  1071  689  371  301  463  633  629  416  75  -269  -567  -809  -971  -1054  -1115  -1218  -1351  -1444  -1452  -1392  -1319  -1284  -1293  -1314  -1316  -1299  -1283  -1301  -1378  -1521  -1719  -1940  -2151  -2342  -2494  -2575  -2592  -2606  -2672  -2785  -2889  -2956  -3009  -3046  -3034  -2962  -2854  -2731  -2589  -2447  -2357  -2321  -2308  -2298  -2277  -2220  -2128  -2044  -2002  -1999  -2010  -2015  -1990  -1915  -1784  -1609  -1411  -1217  -1066  -987  -964  -955  -941  -933  -957  -1032  -1133  -1206  -1227  -1214  -1191  -1169  -1156  -1176  -1265  -1433  -1643  -1835  -1959  -2012  -2022  -1989  -1891  -1748  -1652  -1669  -1770  -1892  -2002  -2095  -2179  -2278  -2408  -2554  -2678  -2766  -2850  -2982  -3203  -3481  -3726  -3862  -3888  -3867  -3836  -3725  -3386  -2701  -1677  -506  531  1324  1962  2494  2870  3120  3348  3576  3739  3771  3665  3490  3345  3292  3376  3634  4003  4339  4555  4593  4440  4219  4057  3924  3733  3510  3356  3354  3532  3860  4250  4618  4920  5140  5280  5326  5247  5035  4745  4476  4304  4213  4132  4021  3897  3787  3753  3833  3910  3828  3583  3279  3098  3184  3308  3111  2622  2119  1936  2455  3738  5332  6605  7087  6639  5535  4303  3367  2811  2438  2044  1651  1429  1425  1498  1519  1466  1328  1092  805  559  416  358  334  307  251  180  208  391  601  712  742  728  612  310  -124  -522  -786  -927  -966  -916  -809  -686  -585  -543  -581  -686  -824  -947  -1019  -1046  -1085  -1181  -1352  -1592  -1845  -2007  -2007  -1846  -1610  -1417  -1311  -1261  -1251  -1310  -1447  -1612  -1740  -1829  -1903  -1962  -1983  -1932  -1781  -1576  -1431  -1430  -1566  -1755  -1890  -1952  -1994  -2023  -1953  -1754  -1538  -1382  -1249  -1131  -1075  -1128  -1321  -1592  -1806  -1904  -1919  -1892  -1851  -1812  -1775  -1733  -1680  -1618  -1555  -1498  -1438  -1351  -1220  -1058  -895  -757  -662  -611  -587  -572  -566  -585  -636  -691  -718  -721  -728  -740  -718  -626  -492  -387  -341  -356  -475  -760  -1167  -1543  -1801  -1969  -2083  -2138  -2135  -2108  -2121  -2212  -2342  -2435  -2459  -2428  -2378  -2361  -2399  -2457  -2494  -2515  -2535  -2532  -2447  -2207  -1797  -1337  -1010  -855  -747  -555  -267  42  294  464  566  619  652  708  792  876  929  939  921  900  857  730  498  217  -73  -416  -905  -1595  -2387  -2983  -3158  -3030  -2763  -2274  -1448  -278  1099  2252  2674  2185  1061  -127  -919  -1178  -1037  -765  -611  -631  -709  -751  -767  -783  -788  -749  -636  -481  -349  -242  -93  161  549  967  1216  1205  1034  851  729  673  664  689  745  816  862  864  840  830  860  927  1029  1146  1235  1282  1297  1278  1221  1143  1074  1020  952  818  611  383  197  79  13  -1  142  590  1287  1961  2396  2562  2532  2385  2205  2076  2032  2067  2180  2341  2470  2484  2356  2106  1766  1353  920  563  324  171  71  7  -33  -43  9  167  429  707  905  1023  1102  1148  1154  1133  1105  1085  1081  1108  1178  1274  1368  1442  1510  1595  1687  1739  1718  1621  1432  1128  781  535  420  331  196  79  58  89  105  103  99  98  99  95  92  112  172  253  285  209  30  -185  -379  -543  -694  -819  -907  -987  -1100  -1250  -1433  -1671  -1955  -2193  -2316  -2361  -2417  -2524  -2644  -2734  -2802  -2871  -2914  -2831  -2525  -2058  -1658  -1459  -1350  -1143  -798  -442  -192  -64  -8  21  55  85  54  -55  -183  -278  -309  -272  -214  -183  -173  -162  -149  -177  -316  -600  -990  -1472  -2084  -2728  -3174  -3376  -3393  -3064  -2216  -922  594  1990  2834  2832  2011  698  -715  -1874  -2447  -2344  -1870  -1455  -1322  -1433  -1633  -1831  -2005  -2121  -2156  -2132  -2080  -2016  -1930  -1779  -1528  -1216  -915  -662  -475  -378  -351  -343  -343  -397  -547  -778  -1014  -1175  -1244  -1252  -1236  -1232  -1307  -1521  -1821  -2054  -2141  -2132  -2102  -2081  -2068  -2059  -2081  -2179  -2357  -2544  -2644  -2585  -2348  -2028  -1753  -1522  -1272  -1009  -772  -551  -319  -106  28  94  148  207  247  262  260  241  221  225  262  309  331  322  304  293  285  282  304  376  482  574  626  656  676  673  649  664  783  978  1154  1348  1794  2663  3828  4955  5747  6037  5822  5281  4719  4432  4525  4810  4978  4849  4414  3819  3357  3218  3335  3535  3695  3764  3730  3602  3433  3272  3108  2903  2680  2527  2485  2507  2546  2584  2604  2565  2424  2216  2032  1903  1769  1572  1350  1199  1153  1160  1176  1187  1172  1086  914  722  602  573  591  610  595  513  368  197  59  16  96  246  371  423  423  412  410  418  428  432  445  483  508  477  414  367  343  345  378  428  441  297  -144  -906  -1820  -2661  -3284  -3513  -3065  -1789  109  2173  3950  5074  5283  4675  3769  3052  2702  2706  2872  2976  3028  3029  2850  2549  2317  2214  2160  2060  1913  1799  1769  1803  1861  1914  1939  1891  1710  1411  1086  813  588  376  186  63  18  19  0  -158  -535  -1081  -1626  -2018  -2263  -2477  -2730  -3002  -3224  -3339  -3366  -3397  -3502  -3644  -3700  -3604  -3430  -3301  -3233  -3152  -3031  -2928  -2876  -2797  -2575  -2229  -1921  -1754  -1680  -1623  -1599  -1613  -1609  -1608  -1709  -1920  -2163  -2380  -2596  -2854  -3128  -3342  -3478  -3564  -3611  -3628  -3655  -3748  -3947  -4230  -4510  -4710  -4806  -4797  -4675  -4449  -4178  -3948  -3812  -3733  -3628  -3481  -3358  -3307  -3313  -3340  -3347  -3272  -3077  -2828  -2655  -2602  -2612  -2618  -2587  -2526  -2460  -2417  -2411  -2427  -2401  -2244  -1941  -1611  -1397  -1312  -1268  -1191  -1068  -905  -718  -513  -284  -73  47  60  17  -12  21  118  231  305  330  332  330  306  231  112  0  -74  -89  26  355  812  1181  1351  1368  1280  1110  921  785  685  545  357  168  -41  -368  -847  -1355  -1752  -2068  -2392  -2680  -2858  -3004  -3294  -3792  -4370  -4833  -5098  -5204  -5144  -4778  -4016  -3026  -2143  -1573  -1296  -1209  -1271  -1507  -1881  -2238  -2452  -2547  -2599  -2633  -2646  -2652  -2661  -2657  -2594  -2469  -2373  -2384  -2464  -2590  -2772  -2823  -2172  80  4394  9723  14041  15986  15394  13191  11342  11147  11764  11851  11160  10088  9129  8503  8039  7550  6979  6340  5732  5275  4990  4787  4553  4260  3975  3793  3744  3801  3944  4142  4332  4461  4517  4525  4523  4530  4546  4566  4609  4694  4789  4858  4896  4895  4862  4818  4762  4700  4635  4532  4363  4166  4025  3980  4004  4062  4117  4111  3996  3792  3547  3262  2947  2663  2456  2338  2278  2218  2121  1983  1828  1704  1630  1584  1537  1456  1320  1142  933  667  296  -201  -773  -1300  -1687  -1931  -2065  -2136  -2185  -2256  -2401  -2630  -2918  -3296  -3820  -4401  -4808  -4909  -4756  -4472  -4183  -3971  -3761  -3413  -2948  -2533  -2273  -2155  -2135  -2170  -2225  -2283  -2372  -2533  -2738  -2913  -3052  -3210  -3374  -3467  -3461  -3406  -3366  -3346  -3294  -3179  -3053  -2997  -3053  -3236  -3528  -3875  -4188  -4392  -4479  -4443  -4179  -3584  -2737  -1920  -1393  -1183  -1174  -1262  -1291  -1087  -772  -677  -837  -963  -815  -450  -244  -584  -1511  -2671  -3583  -4066  -4287  -4412  -4377  -3927  -2880  -1486  -306  283  265  -206  -895  -1499  -1829  -1913  -1881  -1831  -1790  -1763  -1755  -1762  -1770  -1775  -1793  -1846  -1933  -2023  -2087  -2128  -2225  -2484  -2891  -3315  -3651  -3872  -3990  -4031  -4004  -3898  -3726  -3548  -3399  -3227  -2969  -2650  -2369  -2212  -2167  -2165  -2170  -2194  -2256  -2342  -2388  -2363  -2304  -2251  -2196  -2135  -2067  -1926  -1624  -1214  -861  -643  -492  -317  -61  276  638  957  1229  1478  1708  1923  2143  2372  2564  2672  2701  2676  2590  2446  2302  2256  2398  2793  3391  3998  4430  4670  4822  4955  5060  5120  5152  5162  5091  4831  4370  3892  3606  3540  3612  3757  3911  3986  3942  3829  3721  3643  3593  3586  3641  3771  3976  4211  4397  4485  4488  4438  4343  4132  3667  2860  1749  529  -461  -932  -784  -77  868  1566  1813  1759  1577  1356  1177  1098  1118  1222  1410  1692  2038  2354  2530  2597  2764  3250  4044  4869  5456  5743  5728  5285  4257  2786  1409  618  371  298  210  91  -257  -1109  -2261  -3118  -3423  -3383  -3222  -3041  -2916  -2883  -2892  -2815  -2537  -2109  -1722  -1493  -1398  -1373  -1353  -1295  -1237  -1388  -2031  -3144  -4266  -4951  -5119  -4826  -4095  -3147  -2311  -1649  -1049  -486  -29  121  -185  -763  -1355  -2013  -2830  -3289  -2439  -105  2689  4532  4488  2533  -465  -3369  -5471  -6476  -6134  -4494  -2154  62  1456  1741  1005  -469  -2051  -3035  -3283  -3145  -2938  -2790  -2803  -3161  -3964  -4960  -5743  -6191  -6449  -6626  -6759  -6941  -7264  -7675  -8030  -8245  -8341  -8356  -8260  -7928  -7272  -6445  -5729  -5181  -4682  -4157  -3540  -2866  -2342  -2113  -2102  -2166  -2213  -2155  -1844  -1210  -472  5  62  -200  -564  -820  -893  -829  -669  -431  -150  118  299  361  386  429  433  454  625  883  1103  1286  1456  1584  1604  1411  899  97  -692  -1061  -876  -385  125  620  1133  1590  1967  2348  2727  3012  3205  3379  3575  3821  4157  4602  5107  5548  5802  5847  5739  5518  5183  4792  4485  4348  4378  4539  4758  4905  4836  4481  3972  3579  3436  3465  3519  3424  2993  2231  1457  1000  877  901  928  934  953  1013  1093  1151  1204  1321  1530  1762  1918  1968  1927  1814  1642  1420  1211  1228  1652  2307  2756  2841  2964  3538  4381  5054  5261  4697  3371  1879  788  295  456  1270  2609  4155  5512  6463  7001  7134  6867  6337  5787  5336  4910  4454  4043  3761  3600  3518  3487  3470  3393  3203  2922  2631  2425  2329  2251  2076  1829  1648  1595  1603  1566  1419  1166  850  516  204  -26  -104  29  368  775  1055  1092  827  278  -360  -817  -991  -992  -954  -937  -943  -949  -926  -829  -565  -17  784  1585  2172  2546  2781  2917  2973  2887  2496  1748  925  401  242  265  332  429  589  852  1221  1680  2187  2610  2763  2605  2339  2200  2187  2133  1978  1805  1693  1640  1609  1539  1311  848  297  -81  -220  -240  -184  74  638  1308  1651  1348  413  -896  -2344  -3776  -4993  -5846  -6483  -7197  -8066  -8850  -9288  -9388  -9342  -9281  -9223  -9159  -9117  -9142  -9215  -9273  -9306  -9358  -9442  -9543  -9665  -9775  -9641  -8850  -7274  -5427  -3991  -3174  -2791  -2629  -2570  -2553  -2561  -2655  -2980  -3635  -4494  -5187  -5420  -5215  -4574  -3298  -1429  575  2131  2786  2403  1280  -24  -1154  -2119  -2963  -3635  -4045  -3987  -3386  -2579  -1993  -1762  -1814  -2100  -2566  -3061  -3429  -3641  -3765  -3853  -3811  -3341  -2244  -878  57  242  -133  -726  -1336  -2046  -2979  -3927  -4496  -4511  -4087  -3526  -3142  -2978  -2806  -2419  -1769  -889  161  1185  1887  2139  1968  1401  611  -34  -331  -377  -347  -323  -315  -315  -331  -380  -459  -535  -567  -545  -499  -465  -452  -453  -459  -458  -440  -402  -351  -301  -261  -237  -226  -216  -212  -233  -214  89  918  2129  3306  4199  4697  4710  4407  4272  4707  5643  6657  7201  6635  4790  2397  462  -404  -198  400  648  538  443  553  980  1778  2873  4166  5472  6454  6907  6874  6394  5518  4541  3807  3291  2703  1983  1376  1051  946  932  947  980  996  957  869  783  737  729  747  786  812  713  343  -301  -995  -1503  -1820  -2041  -2172  -2180  -2036  -1624  -849  57  669  864  871  929  1171  1660  2350  3091  3699  4012  3934  3471  2837  2393  2392  2838  3477  3938  4057  4022  4212  4887  5835  6532  6756  6712  6659  6718  6898  7182  7599  8084  8376  8248  7737  7166  6970  7263  7588  7094  4907  869  -3947  -8032  -10574  -11565  -11432  -10704  -9661  -8271  -6519  -4801  -3719  -3511  -4017  -4990  -6095  -6984  -7546  -7903  -8156  -8319  -8409  -8460  -8459  -8324  -7989  -7539  -7151  -6887  -6670  -6423  -6108  -5709  -5293  -4987  -4840  -4811  -4839  -4850  -4731  -4396  -3944  -3606  -3481  -3495  -3559  -3636  -3713  -3793  -3904  -4090  -4323  -4504  -4585  -4588  -4542  -4479  -4450  -4489  -4545  -4488  -4228  -3862  -3618  -3596  -3693  -3837  -4081  -4420  -4707  -4737  -4281  -3258  -1999  -988  -373  -37  117  330  1288  3863  8141  13053  17254  19952  21122  21343  21291  21315  21442  21490  21059  19675  17312  14860  13658  14374  16444  18575  19698  19433  18044  16079  13659  10624  7431  5144  4720  6168  8177  9372  9625  9585  9625  9589  9194  8136  5908  2491  -947  -3091  -3826  -3909  -3965  -4167  -4391  -4626  -5366  -7204  -9831  -12077  -13216  -13539  -13612  -13629  -13518  -13234  -12842  -12455  -12118  -11745  -11282  -10860  -10632  -10600  -10686  -10842  -11048  -11227  -11093  -10145  -8087  -5187  -2109  590  2842  4874  6717  8245  9428  10268  10752  10947  10989  10994  10985  10888  10633  10283  9970  9579  8648  6944  4998  3553  2579  1418  -204  -1884  -3112  -3690  -3719  -3412  -2973  -2587  -2353  -2239  -2166  -2104  -2046  -1904  -1566  -1103  -748  -686  -1004  -1664  -2391  -2848  -2953  -2843  -2660  -2492  -2386  -2352  -2360  -2280  -1859  -988  19  716  1011  1089  979  433  -751  -2387  -3909  -4835  -5129  -4919  -4114  -2711  -1159  47  824  1284  1487  1453  1179  677  54  -508  -876  -1058  -1142  -1149  -1071  -1084  -1658  -3127  -5049  -6506  -7122  -7219  -7185  -7093  -6757  -6036  -5108  -4338  -3910  -3752  -3726  -3697  -3417  -2639  -1520  -607  -204  -118  -24  264  780  1394  1897  2168  2207  2030  1612  1008  394  -68  -339  -446  -450  -415  -374  -344  -358  -468  -701  -1023  -1361  -1644  -1846  -1975  -2039  -2048  -2029  -2015  -2053  -2180  -2367  -2551  -2710  -2808  -2766  -2602  -2481  -2542  -2746  -2969  -3224  -3634  -4164  -4596  -4809  -4854  -4838  -4915  -5268  -5909  -6610  -7126  -7292  -6734  -4913  -1867  1438  3998  5619  6575  7035  7144  7101  7013  6876  6663  6353  5935  5438  4963  4644  4548  4632  4785  4892  4881  4697  4245  3452  2478  1893  2319  3777  5729  7616  8989  9611  9608  9144  8238  6916  5011  2299  -891  -3674  -5299  -5661  -5202  -4560  -4229  -4248  -4315  -4235  -4034  -3811  -3666  -3651  -3765  -3963  -4169  -4314  -4388  -4407  -4348  -4133  -3728  -3269  -2981  -2958  -3140  -3434  -3744  -3956  -4029  -4013  -3974  -3897  -3670  -3203  -2602  -2121  -1880  -1778  -1701  -1636  -1567  -1429  -1208  -1003  -911  -886  -743  -319  329  972  1451  1755  1906  1918  1837  1714  1497  1053  374  -300  -687  -719  -507  -214  10  83  -63  -546  -1489  -2898  -4526  -5929  -6663  -6439  -5467  -4486  -4029  -3951  -3787  -3089  -1764  -454  -64  -1071  -3403  -6255  -8368  -9085  -8534  -7098  -5207  -3219  -1418  -99  668  1135  1520  1868  2208  2578  2939  3234  3429  3467  3294  2975  2702  2623  2722  2934  3267  3692  4107  4487  4923  5499  6154  6741  7180  7457  7581  7603  7599  7604  7610  7616  7670  7865  8281  8855  9348  9541  9410  9085  8738  8493  8393  8463  8712  9050  9314  9445  9502  9460  9121  8343  7361  6618  6252  5986  5485  4711  3918  3330  2972  2764  2644  2610  2692  2869  3069  3222  3265  3052  2442  1586  866  464  243  21  -229  -400  -355  -13  538  1057  1361  1463  1467  1426  1305  1043  552  -276  -1388  -2538  -3595  -4573  -5362  -5806  -5962  -6037  -6220  -6604  -7089  -7478  -7741  -8005  -8296  -8531  -8609  -8360  -7639  -6671  -5968  -5746  -5815  -5941  -6025  -6046  -5964  -5723  -5300  -4648  -3704  -2655  -1987  -2139  -3190  -4644  -5734  -6176  -6176  -5769  -4778  -3400  -2228  -1583  -1319  -1221  -1212  -1331  -1646  -2081  -2387  -2332  -1861  -1185  -636  -321  -122  15  7  -150  -259  -116  256  680  1052  1451  1956  2508  3002  3408  3760  4097  4399  4615  4809  5179  5822  6524  6974  7114  7115  7118  7145  7176  7206  7236  7229  7082  6697  6100  5481  5035  4789  4666  4616  4621  4660  4711  4719  4601  4314  3859  3264  2657  2269  2260  2618  3159  3595  3625  2959  1548  -60  -1128  -1500  -1567  -1680  -1904  -2140  -2325  -2471  -2595  -2692  -2768  -2872  -3076  -3428  -4017  -4986  -6221  -7268  -7794  -7752  -7076  -5723  -3927  -2070  -460  640  1123  1154  997  816  666  560  585  974  1940  3430  5097  6456  7206  7442  7364  6854  5705  4186  2805  1586  182  -1495  -3170  -4489  -5363  -5977  -6466  -6786  -6879  -6697  -6164  -5322  -4373  -3491  -2722  -2118  -1837  -1949  -2221  -2335  -2171  -1758  -1240  -848  -682  -747  -1246  -2487  -4420  -6530  -8313  -9580  -10259  -10323  -9829  -8886  -7808  -7033  -6726  -6870  -7577  -8858  -10251  -11157  -11297  -10568  -8957  -6826  -4747  -3073  -1933  -1227  -622  82  780  1294  1550  1552  1296  816  293  -49  -168  -178  -174  -166  -79  230  853  1637  2250  2521  2573  2608  2688  2763  2803  2837  2887  2921  2839  2556  2143  1791  1583  1457  1356  1288  1276  1309  1363  1421  1473  1498  1508  1612  1965  2548  3109  3399  3335  2939  2361  1819  1413  1138  1040  1219  1707  2369  2965  3332  3431  3302  3045  2785  2595  2436  2134  1502  536  -484  -1191  -1479  -1552  -1638  -1759  -1815  -1798  -1798  -1838  -1867  -1809  -1593  -1186  -665  -178  163  338  379  295  36  -430  -1013  -1536  -1868  -2001  -2014  -1977  -1915  -1830  -1739  -1680  -1668  -1703  -1786  -1935  -2178  -2488  -2787  -3030  -3203  -3282  -3280  -3238  -3172  -3057  -2810  -2317  -1592  -811  -178  191  286  97  -477  -1496  -2826  -4156  -5136  -5606  -5701  -5650  -5571  -5478  -5324  -5088  -4838  -4576  -4259  -4004  -3923  -3943  -3953  -3925  -3903  -3950  -4101  -4360  -4669  -4904  -5002  -5033  -5127  -5362  -5748  -6228  -6656  -6913  -7011  -7036  -7045  -7045  -7040  -7070  -7206  -7468  -7744  -7698  -6776  -4687  -1935  567  2277  3167  3524  3667  3706  3647  3569  3570  3627  3709  4051  5049  6704  8461  9749  10415  10660  10744  10793  10811  10794  10773  10762  10733  10693  10717  10827  10951  11026  11033  10996  10965  10973  11060  11310  11781  12417  13069  13629  14097  14472  14687  14688  14503  14207  13752  12865  11274  9122  7091  5899  5602  5648  5443  4740  3811  3229  3384  4154  4824  4578  3324  1818  953  1040  1798  2802  3630  3893  3357  1900  -417  -3080  -5286  -6451  -6418  -5514  -4639  -4714  -5677  -6656  -7108  -7053  -6551  -5552  -4057  -2288  -697  371  941  1211  1304  1291  1257  1146  639  -528  -2023  -3118  -3477  -3330  -3040  -2829  -2752  -2774  -2857  -2976  -3070  -3034  -2738  -2152  -1405  -654  -45  273  307  258  310  488  763  1215  1948  2819  3433  3461  2797  1572  125  -1107  -1794  -1946  -1848  -1770  -1877  -2302  -3212  -4777  -6813  -8655  -9767  -10094  -9634  -8309  -6549  -5283  -5092  -5901  -7205  -8325  -8863  -8859  -8462  -7740  -6734  -5529  -4382  -3653  -3647  -4650  -6706  -9196  -11141  -12040  -12081  -11635  -10876  -9823  -8547  -7392  -6840  -7078  -7869  -8826  -9746  -10765  -12271  -14608  -17746  -21140  -24046  -25847  -25982  -24042  -19989  -14147  -7490  -1504  2785  5217  6219  6552  6842  7276  7781  8245  8582  8778  8876  8924  8962  9015  9087  9178  9302  9510  9860  10345  10831  11139  11229  11203  11160  11160  11269  11530  11865  12111  12210  12236  12290  12459  12763  13095  13299  13285  13031  12618  12249  12099  12189  12410  12631  12777  12823  12785  12706  12616  12497  12303  12027  11733  11522  11431  11430  11500  11591  11308  9784  6293  1246  -3591  -6396  -6833  -5850  -4572  -3750  -3539  -3663  -3853  -3968  -3880  -3467  -2746  -1896  -1118  -541  -197  -88  -303  -961  -2075  -3488  -4821  -5640  -5843  -5644  -5245  -4778  -4352  -4013  -3772  -3634  -3571  -3532  -3523  -3632  -3986  -4698  -5719  -6775  -7592  -7843  -6644  -2872  3338  10013  14933  17345  18040  18389  19267  20484  21077  19994  16549  10485  2200  -6622  -13466  -16545  -15302  -10063  -2291  5556  11561  15385  17502  18394  18574  18576  18690  18736  17972  15406  10485  3872  -2277  -5841  -6797  -6672  -6512  -6552  -7141  -8812  -11325  -13599  -14840  -14618  -12068  -6845  -808  3152  3574  552  -4699  -9739  -12509  -13018  -12494  -11831  -11313  -11003  -10970  -11246  -11721  -12186  -12479  -12602  -12596  -12326  -11528  -10069  -8125  -6112  -4505  -3600  -3319  -3371  -3583  -3928  -4318  -4593  -4661  -4493  -4044  -3303  -2453  -1789  -1352  -912  -350  216  651  932  1093  1139  1037  829  642  542  490  386  129  -322  -1000  -1924  -2903  -3615  -4023  -4417  -5042  -5873  -6657  -7198  -7591  -8052  -8582  -8982  -9143  -9148  -9117  -9099  -9088  -9073  -9060  -9070  -9103  -9133  -9116  -8951  -8516  -7851  -7182  -6676  -6273  -5797  -5163  -4499  -4040  -3874  -3887  -3935  -3932  -3833  -3635  -3379  -3105  -2813  -2495  -2181  -1931  -1784  -1711  -1662  -1646  -1693  -1789  -1922  -2123  -2396  -2585  -2277  -987  1281  3830  6018  7873  9728  11629  13214  14021  13694  12083  9698  7606  6385  5820  5565  5465  5439  5422  5379  5308  5210  5099  5013  4969  4969  5047  5277  5698  6204  6593  6756  6634  6096  5138  4100  3385  3015  2606  1804  692  -338  -1028  -1351  -1315  -822  137  1203  1875  1984  1686  1217  744  135  -1253  -3997  -7457  -10037  -10531  -8281  -3183  3349  8758  11496  11798  10229  7110  3703  1929  2122  2488  1122  -2136  -5143  -4575  696  7826  12737  13195  9492  4144  -56  -2649  -5186  -8588  -11818  -12747  -9780  -3515  3153  7539  9250  9510  9412  8981  7461  4551  1231  -1087  -1969  -1985  -1770  -1527  -1232  -942  -799  -852  -1009  -1157  -1304  -1542  -1848  -2077  -2154  -2121  -2031  -1937  -1993  -2464  -3460  -4664  -5580  -6035  -6165  -5970  -5176  -3663  -1781  -40  1310  2294  3091  3933  4839  5539  5814  5763  5608  5481  5469  5652  6061  6557  6850  6828  6679  6641  6791  6885  6189  3899  331  -2778  -3509  -817  4900  11586  16813  19636  20745  21277  21747  21574  19482  14907  9105  4155  1162  108  -3  -998  -3250  -4805  -4515  -3483  -2885  -2787  -2857  -2957  -3154  -3487  -3806  -3950  -3933  -3826  -3687  -3597  -3544  -3368  -2956  -2434  -2023  -1772  -1691  -2132  -3570  -5788  -7824  -8834  -8130  -4960  336  5871  9883  12024  13011  13750  14574  15248  15631  15891  16176  16276  15461  13090  9869  7554  7167  8392  10207  11518  11676  10507  8319  6061  4656  4184  4164  4216  4228  4221  4192  4122  4054  3998  3914  3835  3800  3625  2711  382  -3099  -6315  -8140  -8767  -8973  -9151  -9315  -9448  -9533  -9527  -9458  -9362  -8988  -7800  -5680  -3411  -1934  -1387  -1310  -1355  -1425  -1493  -1513  -1465  -1402  -1429  -1662  -2160  -2820  -3428  -3888  -4243  -4545  -4805  -5011  -5126  -5116  -4977  -4761  -4595  -4666  -5158  -6038  -7000  -7738  -8186  -8423  -8519  -8521  -8467  -8407  -8418  -8549  -8764  -9006  -9285  -9699  -10321  -11053  -11702  -12177  -12488  -12651  -12636  -12353  -11745  -10886  -9916  -8932  -7991  -7166  -6491  -5903  -5366  -4920  -4462  -3617  -1909  992  4901  8954  12203  14259  15340  15839  15691  14337  11256  6531  1242  -3042  -5464  -6186  -5778  -4739  -3345  -1737  -153  1050  1606  1396  452  -827  -1722  -1703  -732  679  1757  2130  1974  1599  1227  994  930  978  1059  1129  1211  1333  1437  1415  1244  1022  829  653  576  1016  2436  4548  6274  6460  4117  -870  -6641  -10626  -12136  -12332  -12334  -12451  -12589  -12677  -12733  -12756  -12689  -12513  -12310  -12169  -12056  -11857  -11535  -11172  -10879  -10687  -10463  -9988  -9236  -8461  -7926  -7684  -7591  -7465  -7236  -6957  -6657  -6208  -5470  -4608  -4001  -3774  -3730  -3688  -3613  -3515  -3413  -3342  -3328  -3369  -3443  -3513  -3553  -3562  -3558  -3552  -3542  -3529  -3517  -3510  -3508  -3510  -3508  -3449  -3227  -2769  -2155  -1562  -1091  -730  -452  -275  -241  -352  -531  -668  -714  -672  -549  -392  -274  -223  -217  -236  -276  -307  -260  -76  230  554  777  898  1009  1158  1319  1488  1689  1893  2029  2086  2116  2170  2277  2430  2548  2586  2790  3722  5770  8589  11296  13182  14018  13631  11643  8223  4595  2018  713  162  -137  -408  -664  -811  -694  -203  531  1203  1640  1885  2048  2281  2773  3538  4346  4967  5287  5115  4129  2343  411  -974  -1734  -2150  -2366  -2349  -2020  -1364  -528  212  620  602  165  -604  -1586  -2732  -4083  -5669  -7442  -9321  -11293  -13332  -15094  -15603  -13400  -7755  -311  5491  7152  4458  -628  -4465  -4562  -2305  -976  -2007  -4359  -6374  -7304  -7419  -7272  -7161  -7133  -7182  -7321  -7517  -7681  -7763  -7790  -7807  -7830  -7824  -7779  -7858  -8224  -8708  -9010  -9078  -9051  -9044  -9080  -9103  -9038  -8861  -8637  -8464  -8380  -8347  -8365  -8593  -9214  -10070  -10728  -11004  -11074  -11104  -11101  -11050  -10982  -10957  -11036  -11190  -11275  -11190  -10919  -10440  -9814  -9197  -8646  -8142  -7737  -7480  -7304  -7075  -6635  -5896  -5017  -4323  -3941  -3708  -3431  -3076  -2760  -2596  -2578  -2592  -2442  -1926  -1049  -86  629  967  1068  1151  1299  1540  2106  3253  4710  5744  5884  5208  4120  3061  2272  1846  1816  2056  2323  2478  2600  2862  3345  3991  4763  5687  6593  7159  7313  7266  7210  7205  7242  7283  7313  7396  7701  8414  9524  10730  11680  12219  12431  12481  12479  12474  12469  12438  12366  12309  12406  12747  13364  14587  17271  22045  28049  32767  32767  32767  30343  24143  18872  16256  15737  15992  16239  16312  16293  16257]
