reading_id,reading_time,wire_id,result_classification,heart_rate,heart_rate_alert,firmware_version,device_app_version,hardware_version,waveform_samples
15312ff0-6397-11ed-8080-808080808080,Sun Nov 13 21:06:46 UTC 2022,e100638c1a39,UNCLASSIFIABLE,74,NONE,20001.171.50,2.10.0,Charge 5,[-1616  -1806  -1698  -900  668  2420  3593  4021  4060  3994  3775  3260  2541  1929  1592  1393  1149  872  682  599  556  580  877  1616  2601  3452  4176  5137  6487  7955  9164  9959  10459  10829  11049  11022  10859  10772  10800  10846  10833  10745  10632  10591  10676  10822  10899  10846  10724  10603  10429  10106  9672  9240  8848  8509  8289  8201  8152  8054  7929  7822  7663  7335  6864  6418  6125  5981  5921  5913  6010  6283  6662  6961  7081  7070  7014  6966  6932  6877  6742  6469  6044  5522  5021  4618  4284  4003  3828  3780  3806  3847  3843  3699  3350  2862  2382  2027  1854  1838  1889  1932  1949  1947  1930  1893  1840  1752  1550  1201  820  550  390  270  158  40  -108  -342  -734  -1215  -1569  -1721  -1775  -1801  -1768  -1645  -1505  -1489  -1616  -1760  -1837  -1860  -1862  -1861  -1864  -1876  -1892  -1890  -1853  -1800  -1768  -1788  -1864  -1966  -2106  -2381  -2857  -3477  -4095  -4549  -4780  -4870  -4913  -4903  -4747  -4411  -4066  -3926  -3985  -4088  -4148  -4149  -4079  -3934  -3694  -3431  -3292  -3054  -2302  -1242  -516  -541  -1521  -3349  -5397  -6957  -7881  -8436  -8741  -8782  -8577  -8045  -7112  -5995  -5102  -4655  -4552  -4558  -4517  -4406  -4309  -4325  -4449  -4560  -4545  -4376  -4140  -3963  -3872  -3804  -3735  -3685  -3680  -3734  -3778  -3721  -3573  -3385  -3196  -3053  -2982  -2974  -2959  -2724  -2064  -1149  -434  -91  150  578  1127  1518  1622  1533  1383  1249  1166  1148  1195  1270  1315  1314  1295  1275  1231  1131  969  760  506  182  -255  -777  -1260  -1581  -1753  -1887  -2029  -2132  -2176  -2171  -2118  -2044  -2004  -2047  -2162  -2263  -2290  -2250  -2080  -1671  -1122  -717  -602  -703  -893  -1070  -1156  -1077  -786  -384  -97  -88  -362  -762  -1038  -980  -537  89  556  674  452  -13  -507  -716  -426  294  1078  1554  1678  1621  1502  1339  1137  933  789  740  812  1026  1320  1525  1498  1214  804  457  236  140  226  519  934  1333  1593  1670  1555  1247  851  551  399  300  164  -11  -185  -328  -496  -778  -1130  -1391  -1498  -1522  -1539  -1570  -1588  -1516  -1278  -919  -613  -496  -574  -787  -1038  -1222  -1218  -925  -416  49  279  465  1034  2044  3151  4082  4569  4244  3047  1308  -688  -2672  -4147  -4810  -4710  -3946  -2797  -1648  -630  182  671  899  997  992  892  764  686  682  755  972  1426  2039  2538  2728  2667  2539  2454  2407  2397  2466  2629  2842  3058  3240  3358  3423  3495  3621  3802  3987  4105  4159  4265  4536  4894  5106  5039  4779  4482  4232  4060  3955  3858  3716  3526  3309  3066  2785  2495  2274  2164  2110  2039  1939  1805  1602  1354  1121  890  648  438  288  180  73  -85  -317  -584  -833  -1031  -1146  -1148  -1027  -827  -628  -492  -439  -456  -511  -570  -617  -661  -714  -784  -879  -988  -1088  -1203  -1366  -1542  -1663  -1723  -1756  -1759  -1694  -1533  -1298  -1065  -913  -869  -893  -928  -939  -933  -935  -944  -933  -879  -801  -748  -761  -845  -959  -1051  -1106  -1147  -1185  -1219  -1225  -1180  -1089  -976  -859  -729  -550  -334  -163  -77  -49  -70  -233  -664  -1297  -1846  -2098  -2067  -1852  -1574  -1367  -1288  -1290  -1315  -1334  -1355  -1388  -1420  -1425  -1400  -1356  -1290  -1193  -1110  -1121  -1200  -1140  -771  -194  383  992  1798  2772  3624  3972  3558  2451  942  -653  -2115  -3391  -4387  -4849  -4646  -3882  -2866  -2037  -1615  -1430  -1256  -1049  -846  -670  -541  -467  -423  -385  -351  -323  -287  -240  -202  -206  -272  -370  -364  -151  164  391  477  485  449  363  260  203  202  214  222  276  429  637  794  871  946  1102  1360  1662  1910  2028  1999  1882  1774  1722  1709  1713  1694  1582  1312  905  498  227  95  0  -156  -400  -665  -860  -961  -995  -1011  -1067  -1168  -1253  -1285  -1286  -1282  -1273  -1241  -1183  -1145  -1187  -1289  -1390  -1462  -1492  -1474  -1421  -1336  -1197  -1001  -804  -679  -619  -554  -455  -350  -249  -144  -43  9  -62  -311  -652  -896  -944  -846  -716  -615  -468  -153  273  595  708  696  667  657  652  621  543  421  293  210  184  186  187  178  167  164  168  166  144  115  101  89  29  -88  -205  -261  -244  -187  -137  -126  -164  -250  -375  -506  -597  -637  -652  -651  -630  -587  -509  -347  -99  128  292  494  847  1477  2394  3339  4036  4356  4208  3518  2193  252  -1926  -3712  -4629  -4506  -3550  -2322  -1307  -580  -24  397  667  817  909  984  1068  1220  1505  1873  2154  2265  2279  2286  2275  2219  2180  2259  2462  2681  2805  2824  2806  2832  2944  3104  3222  3263  3262  3253  3234  3187  3119  3051  2995  2955  2926  2889  2837  2768  2693  2648  2632  2594  2492  2310  2094  1941  1889  1877  1813  1654  1414  1139  891  706  549  366  130  -161  -478  -772  -1014  -1162  -1178  -1101  -1023  -989  -985  -990  -1010  -1060  -1132  -1203  -1270  -1331  -1361  -1331  -1238  -1105  -982  -933  -987  -1113  -1246  -1353  -1429  -1471  -1477  -1460  -1435  -1418  -1422  -1457  -1529  -1621  -1656  -1520  -1233  -960  -807  -748  -738  -775  -890  -1081  -1280  -1405  -1432  -1378  -1255  -1073  -888  -776  -742  -693  -547  -336  -167  -91  -80  -104  -174  -305  -471  -624  -735  -794  -793  -730  -639  -580  -610  -754  -960  -1123  -1179  -1107  -893  -607  -397  -345  -438  -627  -840  -1005  -1117  -1241  -1438  -1658  -1658  -1182  -277  799  1844  2655  3044  2866  1991  542  -1127  -2722  -3945  -4529  -4501  -4104  -3495  -2698  -1816  -1122  -784  -690  -662  -640  -633  -639  -614  -521  -380  -233  -107  -18  24  39  42  45  65  126  226  331  417  465  443  347  214  93  25  31  105  204  279  316  340  381  481  663  872  1028  1116  1176  1262  1400  1554  1654  1674  1633  1569  1501  1421  1332  1258  1202  1123  995  814  583  357  214  172  191  229  243  153  -101  -448  -719  -842  -852  -794  -709  -641  -627  -671  -740  -793  -823  -842  -863  -886  -905  -915  -918  -925  -956  -1029  -1135  -1236  -1295  -1312  -1308  -1289  -1248  -1193  -1154  -1157  -1204  -1258  -1292  -1347  -1447  -1540  -1586  -1596  -1580  -1536  -1445  -1295  -1127  -1005  -944  -903  -831  -716  -575  -406  -238  -133  -104  -138  -247  -426  -653  -899  -1101  -1218  -1262  -1267  -1249  -1206  -1141  -1064  -954  -772  -540  -344  -252  -301  -491  -727  -862  -848  -772  -728  -733  -719  -529  -119  361  842  1397  2066  2852  3715  4466  4789  4378  3165  1407  -509  -2215  -3351  -3710  -3371  -2621  -1790  -1095  -582  -179  155  402  565  685  772  805  796  782  781  794  807  822  870  991  1150  1253  1228  1072  859  703  655  695  802  950  1094  1200  1254  1267  1262  1258  1259  1263  1267  1299  1437  1722  2054  2266  2282  2143  1952  1820  1782  1803  1837  1856  1832  1746  1627  1526  1464  1417  1308  997  438  -179  -626  -885  -1082  -1273  -1424  -1523  -1613  -1716  -1817  -1893  -1925  -1900  -1823  -1712  -1600  -1522  -1492  -1510  -1560  -1607  -1629  -1620  -1545  -1371  -1150  -994  -945  -945  -907  -777  -566  -337  -141  8  94  104  55  -7  -37  -19  24  63  89  149  302  514  673  718  695  702  816  1015  1201  1302  1321  1297  1268  1259  1266  1261  1208  1100  966  829  688  560  483  464  477  496  490  414  251  51  -110  -206  -256  -279  -296  -330  -392  -466  -548  -662  -818  -990  -1111  -1046  -655  59  975  1961  2885  3616  4034  3966  3257  1937  172  -1829  -3714  -5015  -5456  -5085  -4164  -3055  -2043  -1249  -708  -424  -327  -287  -231  -174  -143  -142  -164  -198  -241  -304  -383  -444  -451  -387  -256  -85  93  240  314  325  341  436  617  823  976  1044  1045  1025  1042  1146  1328  1516  1660  1774  1880  1957  1983  1962  1923  1913  1948  1979  1956  1869  1749  1661  1626  1582  1474  1326  1201  1094  945  754  589  478  374  232  49  -146  -356  -626  -939  -1201  -1356  -1432  -1467  -1447  -1310  -1030  -698  -451  -345  -338  -382  -465  -553  -566  -454  -272  -139  -100  -116  -138  -151  -152  -135  -86  -26  -7  -74  -205  -317  -350  -314  -240  -116  66  252  366  399  389  365  348  382  524  761  982  1070  999  836  686  612  597  589  555  502  425  254  -82  -493  -778  -867  -853  -829  -815  -794  -745  -668  -585  -527  -505  -515  -564  -659  -775  -858  -846  -757  -698  -698  -654  -502  -212  359  1366  2641  3737  4252  3964  2883  1301  -396  -2009  -3461  -4530  -4893  -4433  -3331  -2030  -1051  -594  -465  -419  -366  -321  -304  -296  -276  -242  -213  -198  -201  -237  -317  -422  -503  -516  -431  -257  -64  78  158  205  256  319  333  259  166  159  299  571  859  1037  1095  1104  1120  1178  1305  1494  1687  1841  1970  2092  2200  2272  2304  2306  2289  2249  2185  2110  2025  1872  1595  1226  862  592  446  392  380  382  391  409  440  473  454  324  79  -212  -462  -627  -738  -870  -1023  -1107  -1080  -998  -954  -958  -924  -802  -649  -542  -501  -501  -509  -512  -512  -514  -520  -525  -533  -563  -619  -668  -661  -567  -406  -247  -141  -79  -31  11  38  49  51  51  33  -20  -107  -203  -279  -319  -325  -311  -297  -317  -413  -593  -808  -992  -1101  -1140  -1143  -1154  -1204  -1288  -1380  -1462  -1524  -1558  -1547  -1473  -1343  -1206  -1121  -1124  -1187  -1202  -1111  -1003  -910  -650  -18  996  2185  3196  3659  3335  2202  472  -1512  -3432  -4935  -5658  -5518  -4787  -3815  -2859  -2069  -1524  -1205  -1005  -836  -685  -577  -513  -495  -536  -634  -750  -835  -862  -817  -687  -507  -355  -274  -244  -227  -163  -7  206  386  500  586  681  774  835  838  784  700  638  668  852  1159  1466  1695  1878  2047  2178  2255  2289  2294  2271  2210  2116  1997  1858  1714  1559  1302  843  246  -268  -535  -586  -547  -497  -454  -433  -467  -582  -739  -852  -888  -885  -886  -904  -910  -878  -828  -803  -827  -893  -960  -995  -1002  -1001  -999  -972  -892  -765  -639  -551  -493  -430  -358  -302  -280  -280  -294  -320  -349  -364  -352  -318  -276  -237  -200  -147  -78  -37  -69  -165  -263  -311  -331  -346  -299  -140  76  250  321  284  142  -100  -371  -548  -593  -573  -575  -667  -848  -1038  -1162  -1215  -1241  -1273  -1323  -1378  -1416  -1425  -1407  -1367  -1314  -1248  -1152  -1008  -872  -866  -940  -781  -133  931  2111  3053  3527  3550  3168  2278  847  -937  -2792  -4342  -5146  -5049  -4334  -3362  -2343  -1417  -743  -407  -318  -301  -247  -120  38  147  182  208  289  405  488  517  525  543  575  607  627  632  626  617  613  623  656  719  828  1013  1261  1489  1624  1683  1738  1825  1917  1978  2015  2063  2143  2242  2325  2384  2440  2490  2507  2490  2456  2399  2305  2171  2011  1848  1695  1548  1397  1234  1073  926  794  669  565  509  472  382  201  -7  -143  -185  -176  -145  -88  -8  46  38  -5  -43  -82  -151  -254  -345  -346  -240  -83  55  131  143  118  85  39  -53  -204  -358  -451  -480  -483  -473  -410  -254  -47  112  199  270  358  442  498  523  551  624  749  884  992  1061  1089  1071  1008  924  863  842  833  779  636  435  247  82  -84  -228  -305  -319  -321  -353  -437  -578  -764  -944  -1043  -1024  -908  -748  -609  -553  -635  -859  -1070  -1005  -511  305  1168  1929  2660  3347  3760  3673  2955  1557  -325  -2244  -3803  -4862  -5357  -5159  -4256  -2951  -1761  -1054  -820  -822  -876  -886  -763  -501  -220  -34  46  55  15  -49  -105  -132  -126  -61  112  370  596  708  734  742  775  855  984  1118  1210  1259  1292  1319  1335  1371  1466  1615  1784  1966  2143  2251  2263  2233  2210  2186  2134  2042  1929  1822  1727  1627  1513  1363  1145  878  621  384  133  -120  -328  -490  -642  -797  -949  -1090  -1205  -1280  -1303  -1282  -1265  -1285  -1318  -1328  -1314  -1323  -1413  -1566  -1699  -1777  -1822  -1844  -1817  -1719  -1582  -1466  -1393  -1349  -1322  -1303  -1290  -1283  -1276  -1252  -1195  -1119  -1056  -1021  -992  -945  -886  -853  -867  -887  -861  -791  -713  -657  -619  -572  -497  -399  -303  -229  -189  -181  -183  -175  -173  -208  -295  -413  -489  -437  -277  -134  -114  -254  -526  -854  -1169  -1424  -1585  -1656  -1681  -1692  -1715  -1774  -1854  -1914  -1934  -1927  -1914  -1912  -1946  -2033  -2148  -2230  -2228  -2113  -1895  -1615  -1336  -1152  -1059  -860  -367  445  1472  2503  3281  3512  2959  1675  -45  -1888  -3495  -4513  -4772  -4341  -3399  -2181  -1102  -525  -395  -415  -401  -325  -229  -155  -110  -77  -57  -54  -64  -62  1  165  385  556  641  687  724  750  766  790  844  937  1045  1124  1151  1117  1025  907  822  819  922  1116  1322  1470  1566  1655  1765  1899  2050  2192  2296  2366  2428  2499  2583  2671  2733  2718  2563  2269  1942  1696  1556  1486  1442  1364  1198  966  730  522  367  314  357  419  454  475  496  501  467  392  309  268  291  349  414  479  541  619  747  902  997  981  868  721  616  566  529  461  356  229  119  59  49  57  47  -1  -73  -127  -150  -152  -149  -145  -141  -139  -142  -150  -162  -174  -174  -135  -44  77  182  251  288  293  265  232  248  313  339  262  145  42  -79  -243  -414  -575  -743  -872  -864  -733  -603  -549  -549  -566  -589  -613  -628  -629  -622  -622  -635  -659  -667  -638  -575  -490  -409  -364  -340  -214  256  1198  2384  3416  4009  4054  3502  2289  500  -1560  -3482  -4768  -5115  -4648  -3719  -2715  -1933  -1391  -958  -623  -435  -351  -281  -176  -44  77  159  203  223  228  232  251  300  367  423  454  456  416  330  253  276  418  602  757  864  947  1033  1143  1281  1437  1587  1717  1834  1947  2059  2173  2269  2318  2329  2369  2511  2747  2973  3074  3011  2816  2549  2291  2119  2061  2071  2056  1932  1697  1447  1254  1074  854  621  400  172  -47  -199  -271  -306  -337  -362  -375  -383  -407  -458  -526  -588  -631  -671  -721  -775  -817  -834  -819  -769  -695  -614  -567  -571  -602  -630  -649  -651  -618  -544  -447  -384  -434  -645  -944  -1185  -1299  -1316  -1276  -1203  -1135  -1104  -1130  -1212  -1318  -1392  -1407  -1375  -1320  -1255  -1177  -1081  -985  -926  -908  -891  -829  -732  -657  -615  -545  -381  -161  -2  29  -37  -135  -206  -234  -226  -174  -65  78  196  221  142  27  -76  -192  -331  -438  -481  -481  -464  -438  -417  -444  -557  -728  -866  -924  -926  -915  -904  -892  -879  -871  -867  -856  -830  -809  -832  -894  -878  -568  176  1239  2372  3352  3906  3781  2880  1303  -610  -2441  -3889  -4798  -5133  -4945  -4276  -3219  -2112  -1329  -879  -570  -342  -200  -114  -60  -34  -31  -29  11  105  225  340  424  461  465  479  536  624  699  735  749  774  839  943  1036  1060  1027  1016  1065  1147  1235  1317  1368  1384  1389  1427  1534  1686  1818  1894  1930  1945  1956  1968  1975  1950  1859  1699  1501  1308  1139  956  729  514  379  305  220  90  -55  -176  -284  -430  -615  -780  -866  -880  -870  -895  -983  -1108  -1205  -1249  -1260  -1257  -1242  -1216  -1180  -1139  -1075  -980  -882  -820  -798  -795  -810  -881  -1047  -1264  -1420  -1436  -1315  -1120  -930  -794  -729  -734  -803  -911  -1035  -1179  -1329  -1437  -1478  -1477  -1468  -1464  -1460  -1447  -1421  -1395  -1379  -1375  -1376  -1377  -1377  -1380  -1392  -1415  -1429  -1374  -1189  -906  -653  -522  -502  -535  -564  -552  -491  -393  -286  -204  -144  -59  64  180  242  258  258  267  282  292  288  284  312  408  573  761  939  1120  1296  1409  1441  1432  1412  1368  1281  1147  980  819  716  668  609  493  342  212  148  146  162  156  120  76  42  -16  -149  -311  -400  -372  -293  -295  -410  -478  -367  -92  367  1121  2109  3048  3758  4191  4158  3435  2010  75  -1990  -3652  -4472  -4330  -3488  -2440  -1524  -812  -310  -14  142  242  316  353  361  403  541  742  911  1017  1092  1167  1241  1292  1295  1247  1203  1224  1299  1367  1395  1397  1391  1388  1386  1381  1373  1385  1439  1526  1592  1605  1588  1569  1551  1544  1587  1727  1935  2121  2229  2271  2273  2226  2083  1806  1461  1195  1084  1084  1111  1103  1011  804  519  267  124  57  -10  -118  -265  -432  -590  -722  -834  -926  -1004  -1109  -1253  -1386  -1455  -1470  -1470  -1469  -1444  -1364  -1247  -1157  -1122  -1114  -1110  -1103  -1078  -1020  -950  -922  -960  -1009  -1006  -954  -908  -894  -898  -887  -843  -779  -728  -709  -717  -741  -765  -771  -753  -705  -629  -548  -485  -440  -407  -395  -405  -406  -363  -280  -199  -157  -162  -191  -215  -224  -219  -196  -159  -123  -101  -94  -94  -85  -55  -5  60  168  328  499  626  692  708  700  677  628  555  484  448  450  462  442  346  188  41  -36  -56  -57  -60  -66  -80  -110  -151  -193  -230  -244  -206  -104  41  175  208  158  171  325  604  1081  1870  2906  3974  4815  5063  4425  2963  1042  -840  -2286  -3224  -3703  -3672  -3197  -2469  -1597  -763  -240  -78  -74  -27  125  333  528  702  866  995  1043  989  858  709  591  538  590  777  1047  1283  1420  1476  1495  1512  1547  1624  1770  1982  2202  2340  2374  2357  2338  2317  2274  2218  2186  2197  2235  2262  2270  2282  2312  2340  2340  2303  2243  2169  2064  1924  1783  1669  1565  1410  1156  857  608  412  222  41  -109  -233  -326  -393  -438  -441  -388  -313  -259  -246  -269  -308  -351  -406  -468  -520  -549  -550  -534  -523  -540  -593  -665  -734  -804  -881  -942  -968  -942  -840  -672  -506  -409  -394  -424  -455  -467  -466  -460  -449  -434  -425  -447  -520  -630  -746  -841  -874  -815  -695  -586  -552  -607  -705  -779  -803  -799  -792  -788  -791  -808  -851  -907  -949  -963  -963  -956  -943  -925  -928  -981  -1098  -1257  -1400  -1478  -1498  -1491  -1467  -1414  -1340  -1271  -1211  -1137  -1031  -911  -816  -770  -783  -862  -979  -1097  -1223  -1386  -1587  -1787  -1927  -1989  -2016  -2056  -2112  -2157  -2186  -2224  -2274  -2312  -2326  -2326  -2320  -2310  -2298  -2297  -2310  -2315  -2296  -2295  -2355  -2346  -2014  -1272  -279  717  1505  1915  1754  881  -635  -2531  -4466  -6109  -7142  -7398  -6990  -6175  -5206  -4329  -3740  -3469  -3363  -3241  -3071  -2940  -2878  -2834  -2777  -2721  -2677  -2640  -2614  -2620  -2659  -2701  -2722  -2725  -2723  -2726  -2733  -2730  -2695  -2613  -2501  -2407  -2361  -2345  -2317  -2252  -2143  -1998  -1862  -1805  -1854  -1966  -2072  -2122  -2055  -1800  -1396  -1020  -807  -748  -818  -1053  -1442  -1844  -2129  -2319  -2511  -2753  -3001  -3188  -3291  -3328  -3352  -3463  -3783  -4344  -4977  -5423  -5601  -5632  -5639  -5649  -5584  -5339  -4930  -4507  -4139  -3706  -3134  -2515  -1918  -1333  -823  -479  -355  -653  -1698  -3465  -5467  -7090  -7451  -5449  -746  5448  10894  14296  16742  20147  24898  29746  32767  32767  30623  27086  23998  22110  21519  21753  22232  22778  23474  24251  24839  25100  25162  25144  24862  23857  21911  19542  17551  16194  15294  14717  14372  14080  13431  11610  7863  2659  -2274  -5594  -7297  -8033  -8308  -8370  -8358  -8325  -8208  -7892  -7364  -6803  -6381  -5977  -5311  -4368  -3380  -2305  -709  1766  4990  8125  10136  10830  10810  10464  9689  8395  6678  4457  1610  -1524  -4472  -6970  -8740  -9664  -10082  -10387  -10655  -10842  -10963  -11033  -11048  -11032  -11023  -11031  -11036  -10990  -10834  -10481  -9811  -8837  -7871  -7279  -7209  -7719  -8875  -10591  -12510  -14074  -14892  -14995  -14588  -13809  -12872  -12073  -11554  -11242  -11022  -10857  -10757  -10723  -10723  -10694  -10559  -10299  -9970  -9606  -9136  -8467  -7678  -7045  -6746  -6695  -6732  -6821  -7009  -7294  -7601  -7898  -8208  -8495  -8678  -8772  -8861  -8977  -9074  -9097  -9052  -8973  -8866  -8731  -8596  -8478  -8340  -8130  -7829  -7463  -7062  -6630  -6157  -5658  -5139  -4554  -3932  -3453  -3244  -3224  -3192  -3019  -2744  -2441  -1956  -1002  428  1929  3031  3578  3731  3797  4076  4692  5546  6517  7742  9427  11233  12432  12768  12524  11983  11338  10816  10571  10590  10755  10940  11065  11150  11230  11188  10703  9587  8224  7328  7318  8118  9245  10096  10451  10511  10502  10443  10182  9583  8677  7637  6755  6332  6437  6842  7271  7638  8011  8389  8622  8446  7607  6243  4937  4143  3803  3610  3348  2996  2633  2283  1890  1418  915  495  250  148  67  -79  -273  -428  -499  -487  -368  -107  221  455  516  452  334  201  71  -62  -232  -437  -606  -684  -706  -773  -976  -1324  -1693  -1925  -1993  -1993  -1999  -2010  -1998  -1962  -1932  -1916  -1897  -1863  -1870  -2049  -2459  -2885  -3018  -2740  -2037  -943  337  1491  2249  2407  1839  641  -874  -2442  -3943  -5180  -5797  -5527  -4450  -3026  -1774  -957  -609  -689  -1110  -1663  -2047  -2071  -1746  -1255  -861  -691  -673  -701  -742  -819  -931  -1039  -1114  -1166  -1210  -1239  -1240  -1201  -1124  -1012  -876  -732  -589  -394  -50  412  816  1050  1155  1193  1197  1194  1194  1189  1196  1291  1540  1869  2108  2195  2211  2239  2288  2336  2367  2385  2365  2239  1961  1587  1259  1079  1044  1046  934  629  228  -96  -293  -406  -464  -483  -487  -504  -528  -448  -21  1018  2631  4298  5308  5315  4619  3836  3374  3244  3198  3034  2734  2476  2398  2125  1066  -634  -2035  -2176  -793  1362  3148  4066  4328  4342  4397  4592  4916  5295  5584  5677  5527  5072  4282  3288  2400  1896  1810  2046  2548  3239  3944  4480  4718  4422  3231  1096  -1487  -3768  -5218  -5884  -6218  -6578  -6985  -7262  -7282  -7074  -6781  -6570  -6499  -6489  -6332  -5742  -4679  -3575  -2904  -2662  -2549  -2413  -2290  -2218  -2171  -2109  -2015  -1889  -1714  -1412  -905  -304  114  179  -84  -528  -967  -1320  -1616  -1834  -1913  -1872  -1759  -1589  -1374  -1176  -1101  -1194  -1384  -1585  -1850  -2325  -3052  -3857  -4383  -4307  -3595  -2402  -904  740  2551  4528  6325  7333  6866  4655  1463  -1388  -3091  -3618  -3496  -3541  -4117  -4802  -5172  -5294  -5344  -5330  -5180  -4750  -3910  -2880  -2153  -1917  -1946  -2006  -2032  -2074  -2230  -2562  -2982  -3306  -3464  -3552  -3665  -3794  -3886  -3899  -3801  -3583  -3221  -2690  -2114  -1755  -1841  -2427  -3271  -3951  -4209  -3927  -3001  -1673  -590  -112  137  895  2462  4279  5467  5550  4438  2416  326  -987  -1406  -1362  -1230  -1178  -1358  -1905  -2694  -3323  -3388  -2588  -924  1016  2495  3294  3627  3627  3098  1759  -174  -1890  -2705  -2662  -2289  -2069  -2160  -2434  -2711  -2947  -3143  -3164  -2816  -2108  -1307  -563  394  1892  3743  5289  6077  6266  6256  6233  6165  6014  5836  5703  5542  5191  4588  3796  2859  1817  868  304  246  581  1078  1491  1683  1663  1533  1431  1480  1732  2099  2416  2627  2780  2838  2585  1826  803  57  -234  -352  -533  -801  -1267  -2222  -3672  -5064  -5826  -5858  -5345  -4514  -3577  -2618  -1608  -617  139  549  733  908  1168  1413  1516  1439  1191  880  676  620  566  350  -3  -304  -437  -470  -500  -528  -498  -368  -82  508  1429  2190  2111  1141  22  -269  831  3055  5266  6145  5109  2533  -603  -3236  -4698  -4924  -4473  -4218  -4543  -5027  -4851  -3331  -640  1980  3405  3679  3540  3511  3706  4063  4540  5173  5997  6818  7184  6766  5645  4142  2577  1298  563  321  337  460  660  944  1278  1539  1467  698  -930  -3105  -5221  -6726  -7392  -7358  -6909  -6329  -5834  -5445  -5062  -4676  -4360  -4143  -3964  -3694  -3249  -2733  -2356  -2200  -2192  -2238  -2293  -2334  -2296  -2041  -1486  -799  -320  -299  -840  -1818  -2802  -3383  -3551  -3509  -3300  -2725  -1598  -70  1391  2469  3207  3714  3890  3596  2930  2166  1507  1034  789  732  760  813  887  979  1070  1127  1118  1048  978  1019  1373  2169  3150  3821  3989  3835  3611  3444  3319  3189  3091  3155  3470  3929  4296  4430  4286  3831  3139  2288  1187  -83  -1090  -1539  -1521  -1228  -785  -305  87  285  209  -151  -638  -983  -1063  -956  -796  -659  -520  -340  -150  0  109  181  205  183  135  85  43  26  64  148  219  225  160  63  -16  -71  -123  -136  48  577  1304  1840  1922  1535  848  155  -307  -526  -626  -654  -461  104  938  1658  1723  981  59  -339  -112  555  1349  1658  1128  152  -707  -1260  -1530  -1566  -1505  -1596  -1891  -2157  -2231  -2154  -2007  -1843  -1712  -1655  -1684  -1763  -1841  -1888  -1912  -1940  -2010  -2156  -2330  -2388  -2144  -1425  -276  867  1529  1669  1560  1417  1280  1097  873  682  526  326  85  -84  -129  -113  -141  -279  -488  -647  -660  -490  -163  246  626  871  944  846  584  244  0  -37  149  497  857  1052  944  490  -136  -646  -947  -1113  -1155  -1058  -911  -823  -783  -691  -510  -303  -154  -52  65  179  205  93  -131  -387  -601  -753  -824  -728  -374  143  620  1036  1513  2059  2613  3090  3239  2718  1436  -325  -2123  -3509  -4111  -3829  -3039  -2309  -1888  -1642  -1289  -635  172  736  779  283  -527  -1261  -1669  -1806  -1818  -1760  -1629  -1396  -1000  -398  323  946  1309  1441  1430  1224  712  -5  -620  -937  -1022  -1014  -991  -968  -936  -857  -675  -374  -53  146  194  164  141  192  367  658  972  1212  1381  1572  1815  2034  2164  2215  2166  1913  1381  632  -174  -888  -1401  -1677  -1775  -1775  -1671  -1357  -785  -116  375  580  584  468  246  -11  -176  -210  -191  -186  -185  -157  -126  -159  -258  -306  -236  -177  -286  -520  -717  -800  -798  -743  -686  -785  -1266  -2134  -3027  -3539  -3538  -3093  -2413  -1824  -1527  -1450  -1431  -1362  -1194  -977  -863  -946  -1160  -1347  -1404  -1327  -1153  -932  -739  -625  -571  -531  -542  -755  -1292  -2017  -2611  -2907  -2942  -2687  -1984  -842  331  1041  1198  1070  962  1158  1851  2837  3629  3979  4017  3965  3928  3817  3381  2469  1343  512  238  457  1001  1626  2076  2249  2135  1715  1068  385  -193  -599  -798  -830  -787  -738  -712  -742  -853  -1018  -1160  -1201  -1055  -616  155  1090  1832  2108  1921  1478  981  494  32  -337  -581  -753  -921  -1121  -1339  -1542  -1757  -1997  -2048  -1587  -536  902  2448  3800  4792  5694  6892  8128  8620  7790  5526  2467  -44  -1021  -621  245  741  506  -293  -1113  -1547  -1567  -1298  -895  -533  -301  -176  -76  48  202  505  1252  2552  3971  4924  5318  5494  5694  5877  5927  5769  5266  4174  2331  -78  -2419  -3936  -4403  -4182  -3699  -3091  -2269  -1258  -307  371  734  807  520  -210  -1149  -1813  -2017  -1965  -1878  -1797  -1665  -1440  -1173  -957  -818  -726  -673  -651  -639  -641  -677  -738  -770  -673  -337  212  752  1070  1174  1204  1241  1289  1324  1332  1313  1278  1278  1428  1809  2321  2732  2908  2843  2556  2126  1721  1466  1365  1348  1347  1323  1170  692  -148  -1026  -1550  -1647  -1503  -1302  -1151  -1111  -1269  -1730  -2482  -3340  -4053  -4462  -4570  -4495  -4364  -4233  -4086  -3929  -3809  -3689  -3396  -2800  -2042  -1433  -1061  -714  -189  421  836  919  760  532  374  327  364  476  686  986  1328  1666  1957  2160  2293  2394  2488  2665  3045  3567  3941  3840  3100  1949  915  342  261  560  1033  1469  1721  1702  1478  1237  1073  943  818  733  692  629  461  201  -71  -314  -515  -666  -797  -916  -977  -971  -999  -1222  -1703  -2274  -2687  -2871  -2926  -2911  -2778  -2505  -2163  -1854  -1654  -1639  -1939  -2614  -3421  -3963  -4113  -4023  -3848  -3654  -3477  -3326  -3115  -2747  -2305  -2000  -1925  -2002  -2117  -2200  -2238  -2232  -2161  -2013  -1849  -1774  -1824  -1919  -1951  -1893  -1746  -1444  -940  -302  292  686  899  1103  1495  2167  2931  3447  3605  3562  3479  3402  3282  3055  2738  2447  2284  2247  2287  2383  2519  2652  2746  2809  2866  2881  2688  2133  1367  783  643  1021  1850  2780  3309  3261  2894  2568  2625  3420  4939  6472  7093  6253  3970  826  -2301  -4686  -6033  -6468  -6225  -5394  -4077  -2556  -1265  -549  -407  -629  -1049  -1502  -1787  -1794  -1537  -1142  -784  -540  -386  -301  -310  -440  -677  -945  -1153  -1253  -1263  -1234  -1153  -945  -610  -267  -28  98  156  169  149  118  92  69  71  186  515  1037  1603  2096  2477  2737  2902  3008  3047  2922  2506  1814  1041  361  -181  -598  -881  -1046  -1165  -1284  -1376  -1419  -1427  -1424  -1426  -1435  -1429  -1353  -1163  -914  -739  -722  -856  -1061  -1199  -1096  -658  -26  504  796  867  676  138  -655  -1388  -1801  -1893  -1731  -1310  -716  -127  425  1133  2191  3408  4257  4409  3928  3102  2341  1937  1915  2192  2662  3120  3339  3268  3051  2875  2813  2811  2807  2822  2910  3077  3306  3596  3918  4161  4006  3100  1674  577  661  2127  4232  5814  6130  5213  3584  1708  -96  -1544  -2488  -3004  -3470  -4264  -5202  -5768  -5847  -5719  -5616  -5590  -5610  -5669  -5798  -5974  -6112  -6163  -6160  -6150  -6132  -6069  -5971  -5903  -5888  -5851  -5677  -5340  -4958  -4672  -4495  -4315  -4004  -3518  -2910  -2273  -1715  -1324  -1098  -961  -826  -648  -435  -231  -99  -91  -173  -290  -533  -1178  -2335  -3615  -4463  -4777  -4866  -4998  -5232  -5503  -5731  -5882  -5963  -5986  -5967  -5939  -5955  -6057  -6209  -6308  -6262  -5987  -5342  -4242  -2930  -1884  -1332  -1112  -949  -577  225  1406  2589  3407  3762  3799  3730  3686  3725  3865  4034  4080  3909  3614  3362  3185  3033  2919  2862  2786  2560  2093  1496  1026  773  641  523  339  170  328  862  1108  353  -1041  -1879  -1219  1285  5029  8076  8617  6835  4461  2982  2709  3038  3077  2343  1426  1469  2723  4414  5823  6777  7463  8052  8534  8868  9079  9193  9235  9246  9221  9085  8762  8301  7828  7402  7040  6785  6642  6559  6474  6303  5965  5502  5063  4725  4455  4227  4083  4064  4136  4223  4278  4305  4321  4320  4251  4057  3757  3422  3033  2404  1365  149  -720  -1056  -1091  -1033  -958  -968  -1165  -1564  -2094  -2640  -3131  -3513  -3629  -3417  -3110  -2809  -2160  -924  526  1472  1281  -193  -2358  -4296  -5440  -5772  -5628  -5385  -5240  -5213  -5239  -5231  -5155  -5048  -4961  -4918  -4907  -4908  -4919  -4954  -5008  -5023  -4972  -4904  -4856  -4783  -4618  -4323  -3936  -3556  -3245  -2992  -2805  -2731  -2784  -2920  -3105  -3326  -3499  -3452  -3132  -2694  -2336  -2139  -2105  -2254  -2613  -3116  -3599  -3925  -4079  -4097  -3986  -3757  -3456  -3111  -2696  -2216  -1716  -1224  -791  -486  -264  59  682  1618  2559  3130  3286  3256  3188  3074  2914  2790  2758  2778  2760  2614  2323  1953  1553  1090  514  -104  -600  -924  -1202  -1512  -1766  -1898  -1986  -2135  -2470  -3118  -3832  -4086  -3618  -2469  -934  375  860  315  -1017  -2634  -4001  -4864  -5418  -5905  -6246  -6237  -5634  -4244  -2357  -732  71  2  -721  -1708  -2483  -2814  -2700  -2090  -1041  23  647  788  700  581  520  615  969  1521  2019  2246  2104  1578  873  345  162  289  726  1482  2352  2996  3292  3429  3644  3946  4136  4077  3838  3572  3360  3194  3039  2890  2761  2619  2404  2115  1835  1627  1500  1489  1587  1619  1378  880  322  -131  -418  -527  -424  -64  480  1008  1363  1514  1514  1478  1537  1776  2124  2381  2375  2060  1537  988  527  204  67  120  309  570  856  1126  1350  1544  1721  1802  1719  1569  1486  1498  1556  1577  1513  1339  973  382  -287  -850  -1263  -1579  -1816  -1946  -1971  -1913  -1756  -1496  -1209  -987  -856  -811  -865  -1008  -1133  -1083  -834  -514  -261  -125  -41  96  316  568  804  1012  1194  1294  1137  537  -392  -1218  -1593  -1416  -717  221  936  1162  853  18  -1050  -1797  -1821  -1070  165  1376  2188  2554  2640  2592  2372  1842  1028  212  -349  -665  -901  -1135  -1304  -1334  -1223  -971  -547  9  569  1009  1269  1341  1248  1042  793  556  333  113  -90  -261  -391  -466  -500  -524  -540  -474  -220  258  860  1398  1702  1686  1330  745  186  -152  -301  -388  -520  -807  -1316  -1840  -1870  -1125  76  1188  1841  1917  1592  1212  842  219  -878  -2543  -4609  -6508  -7644  -7744  -6909  -5618  -4426  -3492  -2654  -1869  -1264  -898  -756  -881  -1313  -1898  -2364  -2645  -2896  -3179  -3368  -3341  -3166  -3016  -2963  -2958  -2958  -2961  -2974  -2983  -2943  -2821  -2656  -2513  -2350  -2089  -1779  -1536  -1342  -1098  -826  -652  -658  -834  -1078  -1250  -1265  -1132  -930  -748  -612  -470  -249  131  764  1766  3157  4607  5598  5897  5503  4396  2847  1399  268  -672  -1459  -2014  -2312  -2400  -2360  -2257  -2110  -1898  -1557  -1055  -462  84  426  477  318  71  -269  -718  -1162  -1462  -1581  -1556  -1451  -1357  -1374  -1517  -1686  -1734  -1539  -1094  -596  -286  -203  -203  -161  -69  31  146  304  509  773  1109  1489  1843  2092  2205  2213  2168  2097  1994  1842  1624  1347  1082  961  1065  1359  1738  2097  2393  2716  3174  3688  4056  4206  4229  4217  4198  4165  4119  4036  3852  3520  3050  2508  2003  1585  1237  984  860  831  844  906  1076  1373  1734  2062  2276  2340  2248  2024  1745  1462  1142  794  549  484  544  669  867  1179  1564  1850  1856  1477  782  72  -357  -492  -493  -474  -426  -269  25  363  633  828  981  1082  1125  1107  974  620  21  -638  -1125  -1410  -1674  -2081  -2515  -2647  -2248  -1287  129  1837  3582  4878  5227  4525  2973  890  -1221  -2902  -3979  -4381  -4057  -3131  -1916  -744  187  852  1293  1531  1599  1504  1186  656  115  -215  -299  -216  -59  85  175  175  -65  -778  -1958  -3164  -3860  -3833  -3207  -2367  -1772  -1585  -1641  -1749  -1797  -1667  -1275  -746  -333  -118  0  112  303  706  1356  2060  2558  2776  2809  2717  2421  1809  940  72  -568  -996  -1359  -1751  -2081  -2003  -1246  -60  1053  1749  1791  1287  845  868  1070  963  252  -1202  -3144  -4789  -5511  -5392  -4861  -4293  -3905  -3637  -3293  -2825  -2319  -1868  -1518  -1242  -1030  -968  -1127  -1420  -1671  -1760  -1609  -1166  -569  -66  300  662  1058  1402  1603  1604  1347  845  289  -78  -185  -54  324  884  1442  1826  1937  1766  1434  1140  1000  1003  1096  1230  1308  1159  657  -38  -564  -749  -662  -345  208  857  1362  1648  1800  1875  1915  1987  2120  2273  2404  2500  2550  2510  2310  1929  1493  1199  1111  1157  1253  1339  1384  1395  1418  1483  1552  1561  1501  1363  1024  373  -457  -1214  -1822  -2328  -2720  -2938  -2990  -2924  -2784  -2630  -2527  -2466  -2329  -1957  -1257  -301  638  1238  1402  1221  734  -45  -901  -1501  -1738  -1757  -1643  -1309  -733  -115  317  563  735  808  688  402  45  -304  -563  -687  -721  -747  -805  -909  -1076  -1273  -1413  -1450  -1405  -1316  -1226  -1216  -1437  -2069  -3106  -4097  -4312  -3312  -1146  1679  4231  5772  6317  6133  5282  3796  1676  -1048  -3973  -6436  -7922  -8202  -7411  -6000  -4491  -3276  -2520  -2167  -2033  -1939  -1756  -1416  -925  -373  76  304  345  316  294  290  280  248  190  86  -106  -365  -558  -523  -156  473  1100  1496  1640  1650  1637  1647  1666  1626  1459  1170  815  417  27  -229  -309  -294  -259  -223  -180  -150  -157  -182  -169  -97  -13  35  48  45  15  -100  -338  -627  -842  -942  -975  -984  -988  -1004  -1039  -1118  -1268  -1458  -1632  -1786  -1928  -2038  -2128  -2267  -2509  -2814  -3066  -3188  -3179  -3025  -2693  -2265  -1907  -1676  -1521  -1429  -1429  -1532  -1736  -2045  -2465  -2909  -3233  -3365  -3278  -2922  -2327  -1642  -1026  -602  -415  -398  -443  -491  -511  -459  -296  -69  130  294  473  652  791  923  1088  1253  1361  1370  1216  835  279  -234  -456  -266  283  1007  1690  2187  2465  2563  2524  2380  2193  2051  1993  2009  2048  2001  1775  1445  1204  1159  1284  1538  1889  2300  2729  3111  3399  3611  3764  3824  3745  3516  3173  2753  2292  1885  1626  1517  1514  1561  1557  1335  808  150  -349  -591  -586  -146  956  2471  3755  4421  4552  4388  4073  3666  3279  3053  3076  3371  3724  3667  2912  1547  -124  -1566  -2216  -2015  -1350  -555  112  359  213  64  126  282  419  544  658  740  780  820  921  1090  1264  1383  1435  1436  1410  1400  1467  1654  1897  2067  2125  2132  2135  2104  1949  1616  1188  808  521  310  192  154  119  37  -25  42  224  389  474  513  485  257  -271  -943  -1393  -1513  -1600  -1865  -2138  -2035  -1231  292  2085  3369  3570  2758  1365  -252  -1942  -3688  -5286  -6271  -6361  -5654  -4543  -3575  -3072  -2961  -3039  -3135  -3006  -2375  -1218  103  1147  1706  1877  1871  1803  1677  1490  1257  926  416  -166  -568  -650  -444  -58  363  714  988  1170  1208  1133  1045  987  925  840  763  707  653  618  762  1326  2325  3390  4105  4349  4172  3630  2930  2393  2119  1964  1779  1451  876  93  -676  -1236  -1570  -1781  -1961  -2117  -2185  -2124  -1993  -1919  -2002  -2255  -2580  -2837  -2943  -2911  -2788  -2627  -2480  -2388  -2358  -2363  -2381  -2403  -2448  -2576  -2850  -3191  -3383  -3291  -3008  -2749  -2608  -2534  -2490  -2472  -2469  -2500  -2572  -2630  -2632  -2595  -2551  -2472  -2296  -2023  -1737  -1524  -1417  -1398  -1418  -1441  -1438  -1367  -1209  -994  -693  -155  647  1430  1890  2037  2062  2092  2167  2282  2398  2453  2318  1843  1090  357  -140  -453  -762  -1150  -1536  -1787  -1884  -1900  -1891  -1882  -1902  -1954  -1999  -2016  -2026  -2054  -2093  -2099  -2040  -1952  -1874  -1759  -1517  -1151  -803  -624  -641  -766  -910  -1032  -1144  -1274  -1421  -1558  -1680  -1796  -1899  -1971  -1998  -1932  -1708  -1362  -1046  -867  -813  -848  -974  -1179  -1393  -1526  -1521  -1358  -1077  -801  -643  -605  -619  -636  -644  -646  -637  -607  -562  -520  -484  -439  -364  -266  -198  -227  -398  -666  -922  -1097  -1210  -1300  -1383  -1463  -1545  -1631  -1718  -1788  -1815  -1788  -1723  -1652  -1602  -1588  -1610  -1648  -1669  -1636  -1530  -1349  -1135  -946  -641  106  1365  2782  3865  4209  3735  2737  1467  -47  -1722  -3232  -4137  -4149  -3370  -2263  -1361  -905  -708  -427  85  745  1340  1685  1767  1719  1645  1610  1714  2049  2527  2874  2844  2366  1635  1037  814  898  1078  1209  1296  1440  1705  2082  2546  3007  3309  3383  3290  3122  3014  3237  4042  5240  6232  6663  6687  6595  6526  6496  6489  6495  6504  6505  6472  6379  6218  6009  5805  5639  5479  5276  5013  4702  4415  4244  4197  4208  4213  4150  3989  3787  3668  3696  3827  3968  4059  4073  3963  3680  3321  3142  3272  3541  3690  3605  3413  3413  3727  4057  3883  2844  1020  -941  -2223  -2488  -1944  -1120  -644  -709  -979  -1127  -1116  -1020  -890  -763  -647  -485  -166  362  958  1372  1525  1515  1376  980  180  -889  -1813  -2337  -2573  -2698  -2736  -2668  -2536  -2351  -2054  -1672  -1342  -1172  -1177  -1295  -1442  -1581  -1698  -1767  -1796  -1824  -1874  -1926  -1952  -1947  -1902  -1784  -1583  -1361  -1198  -1140  -1275  -1771  -2678  -3691  -4364  -4586  -4580  -4507  -4308  -3890  -3340  -2860  -2519  -2248  -2018  -1877  -1839  -1856  -1882  -1900  -1912  -1917  -1899  -1833  -1733  -1651  -1597  -1514  -1356  -1137  -893  -673  -553  -616  -894  -1271  -1543  -1633  -1630  -1650  -1749  -1898  -2006  -2007  -1897  -1739  -1619  -1582  -1631  -1757  -1910  -2012  -2047  -2072  -2136  -2226  -2296  -2337  -2374  -2400  -2301  -1925  -1308  -735  -505  -744  -1374  -2091  -2573  -2793  -2881  -2750  -2196  -1191  94  1304  1944  1735  806  -537  -2065  -3578  -4829  -5565  -5602  -5020  -4230  -3580  -3086  -2640  -2203  -1794  -1430  -1119  -805  -359  200  647  809  730  562  432  385  413  498  602  671  685  680  710  827  1057  1365  1664  1899  2071  2200  2298  2391  2531  2726  2899  2966  2854  2535  2124  1829  1730  1762  1878  2079  2307  2420  2295  1932  1462  1056  779  560  337  145  -2  -145  -292  -416  -522  -642  -771  -870  -930  -976  -1003  -933  -681  -288  128  546  1004  1444  1741  1848  1801  1625  1292  751  37  -649  -1053  -1070  -768  -332  19  178  171  95  34  3  -45  -159  -345  -568  -786  -954  -1040  -1047  -1030  -1051  -1121  -1208  -1261  -1256  -1208  -1063  -669  28  798  1284  1329  1026  602  312  292  524  872  1152  1281  1304  1291  1287  1327  1427  1547  1612  1584  1490  1386  1303  1222  1100  941  797  712  676  670  714  852  1068  1271  1386  1416  1396  1335  1216  1031  830  686  628  656  781  970  1136  1218  1231  1220  1192  1126  1015  875  716  546  391  282  242  277  375  516  645  662  491  189  -82  -219  -247  -226  -175  -90  11  95  115  -2  -315  -732  -1056  -1192  -1205  -1190  -1191  -1201  -1170  -1060  -905  -787  -738  -732  -767  -885  -1096  -1355  -1658  -2099  -2674  -3114  -3081  -2498  -1522  -322  958  2185  3258  3901  3574  2012  -432  -3070  -5093  -5822  -5168  -3718  -2237  -1173  -622  -492  -576  -672  -680  -532  -164  435  1200  2058  2996  3906  4536  4795  4804  4589  4040  3186  2239  1347  556  -54  -396  -483  -426  -343  -272  -179  -52  73  172  259  366  497  630  746  829  850  805  733  678  641  601  556  535  587  793  1236  1842  2373  2666  2761  2768  2762  2749  2628  2251  1603  845  185  -251  -500  -673  -843  -1043  -1259  -1415  -1447  -1321  -1045  -728  -522  -472  -524  -615  -717  -812  -892  -988  -1148  -1371  -1606  -1861  -2206  -2602  -2873  -2847  -2461  -1844  -1296  -1035  -1071  -1311  -1616  -1841  -1965  -2099  -2320  -2573  -2756  -2842  -2862  -2805  -2586  -2131  -1451  -629  152  656  823  795  682  492  237  -1  -153  -260  -413  -602  -724  -737  -716  -730  -755  -734  -652  -529  -355  -80  299  679  926  1017  1015  989  985  1036  1151  1282  1370  1405  1418  1420  1355  1108  664  203  -69  -137  -116  -104  -132  -196  -273  -337  -387  -419  -412  -358  -289  -257  -281  -328  -379  -451  -542  -612  -638  -637  -633  -636  -638  -618  -545  -382  -134  147  429  712  964  1124  1176  1168  1160  1190  1262  1375  1459  1331  925  542  705  1729  3446  5208  6156  5694  3861  1285  -1215  -3077  -4193  -4664  -4499  -3760  -2648  -1287  145  1248  1809  2087  2390  2724  2956  3051  3012  2741  2135  1332  663  317  228  288  481  791  1054  1070  868  685  701  950  1341  1693  1874  1835  1538  987  312  -300  -732  -993  -1147  -1217  -1160  -897  -438  50  399  588  697  755  749  709  682  677  677  665  643  606  505  270  -59  -342  -503  -616  -833  -1301  -2033  -2814  -3313  -3385  -3119  -2715  -2383  -2214  -2161  -2205  -2443  -2940  -3531  -3925  -4030  -3967  -3872  -3804  -3766  -3763  -3856  -4104  -4424  -4602  -4514  -4249  -3992  -3851  -3817  -3826  -3809  -3728  -3617  -3565  -3623  -3741  -3815  -3780  -3632  -3386  -3064  -2717  -2403  -2173  -2000  -1658  -865  247  1155  1584  1722  1887  2269  2824  3365  3802  4187  4559  4856  4967  4859  4621  4392  4247  4177  4152  4172  4193  3972  3166  1770  287  -763  -1290  -1484  -1529  -1501  -1377  -1077  -586  -68  256  311  156  -122  -487  -944  -1409  -1601  -1174  -72  1219  2059  2296  2235  2150  2120  2128  2148  2169  2195  2236  2286  2322  2335  2340  2352  2358  2306  2149  1933  1769  1696  1658  1585  1416  1065  508  -82  -450  -467  -145  401  981  1413  1559  1421  1177  960  854  1097  1894  3103  4315  5073  4968  3841  2008  -10  -1984  -3931  -5818  -7425  -8171  -7351  -4986  -1956  692  2275  2787  2763  2641  2438  2000  1384  844  505  323  245  209  98  -165  -529  -865  -1085  -1186  -1215  -1215  -1155  -970  -678  -400  -236  -197  -233  -263  -246  -204  -164  -134  -105  -62  5  152  444  813  1082  1194  1248  1333  1512  1845  2265  2564  2602  2406  2098  1792  1510  1238  937  508  -71  -650  -1059  -1270  -1379  -1494  -1667  -1887  -2099  -2256  -2358  -2461  -2630  -2848  -3015  -3083  -3078  -3028  -2941  -2831  -2720  -2629  -2556  -2485  -2409  -2322  -2206  -2053  -1847  -1503  -967  -352  152  495  737  902  969  943  843  592  66  -626  -1123  -1147  -696  -28  490  692  673  574  474  414  419  495  624  767  890  977  1048  1128  1194  1193  1127  1055  1014  999  998  1003  1002  970  880  740  596  465  294  69  -130  -246  -297  -318  -325  -317  -289  -245  -209  -197  -218  -272  -349  -417  -457  -492  -559  -648  -707  -725  -756  -859  -1016  -1149  -1192  -1085  -790  -395  -60  188  443  719  942  1080  1189  1355  1606  1889  2102  2157  2070  1938  1840  1793  1770  1710  1568  1362  1145  924  695  469  240  11  -161  -221  -156  -11  139  246  315  312  88  -491  -1277  -1894  -2127  -2075  -1926  -1754  -1495  -1112  -725  -484  -355  -13  911  2366  3821  4697  4659  3684  2019  -16  -2131  -4043  -5509  -6275  -6034  -4762  -2973  -1309  -107  559  760  652  386  80  -179  -353  -452  -509  -562  -612  -595  -477  -313  -144  75  405  847  1339  1795  2152  2390  2542  2654  2763  2867  2905  2809  2589  2334  2119  1924  1689  1403  1134  977  985  1138  1343  1476  1492  1455  1505  1785  2284  2784  3054  3020  2732  2344  2022  1762  1433  1035  714  527  347  29  -456  -1038  -1565  -1892  -2011  -2031  -2044  -2075  -2116  -2136  -2032  -1705  -1238  -868  -725  -764  -912  -1100  -1246  -1314  -1320  -1260  -1047  -591  11  496  709  707  591  408  184  -29  -165  -206  -198  -183  -164  -124  -55  28  113  185  205  71  -299  -810  -1245  -1510  -1676  -1806  -1876  -1850  -1773  -1707  -1658  -1606  -1519  -1380  -1230  -1136  -1117  -1134  -1135  -1075  -931  -723  -511  -373  -382  -603  -1021  -1476  -1805  -2014  -2198  -2400  -2600  -2785  -2996  -3309  -3710  -4065  -4273  -4347  -4348  -4322  -4283  -4240  -4213  -4213  -4227  -4219  -4139  -3933  -3532  -2906  -2223  -1759  -1620  -1759  -2137  -2649  -3107  -3411  -3593  -3743  -3942  -4176  -4350  -4417  -4405  -4339  -4226  -4093  -3993  -3944  -3847  -3487  -2665  -1434  -204  575  831  806  708  581  421  264  162  130  149  200  279  375  464  536  583  576  491  355  209  -4  -379  -889  -1421  -1954  -2483  -2908  -3167  -3330  -3500  -3716  -3918  -4013  -4045  -4103  -3884  -2907  -1224  612  2047  2690  2404  1358  -217  -2144  -4136  -5868  -7047  -7406  -6854  -5605  -4092  -2740  -1714  -958  -412  -54  135  225  307  420  573  782  1063  1411  1779  2100  2333  2470  2504  2416  2212  1973  1807  1734  1706  1701  1755  1936  2279  2753  3273  3744  4118  4394  4571  4654  4679  4687  4693  4688  4655  4568  4393  4141  3877  3657  3506  3442  3481  3649  3956  4325  4594  4622  4365  3900  3373  2880  2486  2260  2198  2213  2236  2247  2257  2274  2274  2207  2048  1839  1647  1462  1135  522  -244  -796  -858  -368  511  1386  1934  2188  2330  2411  2417  2382  2344  2291  2197  2070  1947  1852  1795  1795  1852  1948  2089  2289  2515  2725  2943  3203  3460  3644  3762  3883  3983  3757  2737  932]
