reading_id,reading_time,wire_id,result_classification,heart_rate,heart_rate_alert,firmware_version,device_app_version,hardware_version,waveform_samples
fa3cf3e0-5eba-11ed-8080-808080808080,Mon Nov 07 16:41:07 UTC 2022,e100638c1a39,NSR,56,NONE,20001.171.50,2.10.0,Charge 5,[18978  19552  19958  20064  19883  19839  20495  21714  22576  22393  21734  22149  24095  25220  21647  10392  -8848  -31417  -32768  -32768  -32768  -32768  -32768  -32768  -32768  -32768  -32768  -32768  -29490  -23548  -17278  -11426  -6897  -4264  -3247  -3002  -2891  -2628  -2184  -1708  -1333  -1073  -870  -657  -399  -96  238  543  723  679  331  -268  -886  -1325  -1583  -1710  -1693  -1510  -1240  -1024  -927  -966  -1238  -1870  -2824  -3836  -4598  -5016  -5218  -5387  -5650  -5975  -6226  -6390  -6606  -6982  -7508  -8103  -8686  -9244  -9802  -10299  -10581  -10474  -9874  -8891  -7757  -6592  -5498  -4659  -4109  -3636  -3037  -2324  -1693  -1343  -1325  -1559  -1905  -2251  -2617  -3138  -3990  -5270  -6886  -8570  -9953  -10725  -10928  -10884  -10866  -10952  -11080  -11165  -11189  -11185  -11184  -11189  -11179  -11123  -11017  -10899  -10800  -10635  -10276  -9794  -9426  -9284  -9305  -9447  -9720  -10044  -10261  -10277  -10098  -9802  -9467  -9115  -8777  -8527  -8396  -8326  -8211  -7941  -7483  -6966  -6570  -6354  -6276  -6193  -5816  -4921  -3568  -2079  -847  -163  -81  -427  -1018  -1807  -2787  -3889  -4974  -5817  -6133  -5706  -4661  -3450  -2429  -1625  -913  -227  381  851  1226  1584  1929  2203  2341  2286  2022  1649  1337  1110  826  379  -198  -790  -1290  -1639  -1819  -1853  -1769  -1570  -1287  -1015  -797  -561  -212  319  1054  1857  2525  3017  3401  3696  3896  4056  4271  4558  4845  5102  5382  5695  5973  6171  6289  6340  6334  6287  6221  6165  6133  6120  6114  6099  6078  6080  6087  6011  5794  5486  5184  4960  4828  4763  4731  4708  4694  4694  4699  4703  4704  4703  4697  4687  4677  4669  4663  4656  4641  4608  4563  4526  4489  4388  4140  3756  3374  3123  2995  2927  2893  2887  2891  2900  2923  2982  3085  3198  3261  3250  3192  3145  3144  3173  3195  3187  3135  3048  2967  2926  2918  2909  2866  2785  2698  2647  2661  2740  2848  2926  2938  2889  2807  2728  2679  2675  2727  2832  2959  3040  3007  2846  2602  2347  2142  2017  1966  1948  1953  2007  2125  2235  2238  2142  2054  2000  1876  1577  1156  800  617  526  372  98  -212  -451  -600  -728  -880  -1012  -1070  -1061  -1019  -953  -833  -654  -470  -324  -157  152  690  1415  2158  2737  3026  2908  2331  1326  -21  -1545  -2994  -4035  -4378  -4004  -3164  -2191  -1415  -1073  -1123  -1308  -1443  -1513  -1562  -1584  -1510  -1315  -1086  -923  -845  -822  -815  -798  -759  -677  -514  -280  -50  112  196  220  191  85  -100  -311  -482  -606  -718  -825  -906  -979  -1096  -1273  -1451  -1579  -1675  -1764  -1805  -1693  -1337  -771  -206  131  219  189  146  121  133  226  417  646  810  833  685  420  172  39  1  -27  -103  -208  -293  -374  -514  -699  -837  -887  -885  -873  -862  -855  -853  -855  -849  -815  -749  -661  -585  -565  -608  -654  -650  -615  -593  -584  -568  -546  -555  -624  -718  -784  -821  -865  -913  -930  -890  -807  -707  -600  -501  -442  -433  -450  -463  -471  -493  -535  -563  -541  -493  -468  -479  -497  -500  -482  -455  -437  -432  -426  -402  -350  -275  -195  -135  -102  -85  -76  -59  -4  96  192  200  71  -129  -296  -404  -497  -582  -632  -640  -625  -607  -599  -605  -623  -656  -700  -743  -769  -771  -759  -747  -738  -733  -753  -795  -767  -505  73  827  1516  2035  2324  2263  1809  929  -406  -1970  -3341  -4247  -4609  -4465  -3977  -3280  -2453  -1682  -1191  -966  -814  -635  -461  -297  -114  79  252  372  421  412  368  321  305  332  398  473  502  473  429  406  398  403  438  523  657  807  928  999  1038  1086  1176  1338  1593  1887  2110  2227  2293  2345  2369  2359  2345  2366  2459  2624  2805  2927  2970  2970  2957  2928  2840  2646  2356  2054  1817  1636  1457  1256  1042  816  578  371  249  212  219  228  216  180  136  106  94  95  112  153  208  227  176  90  28  16  38  53  52  72  135  200  233  240  249  288  355  428  488  520  516  477  420  367  329  317  347  420  499  544  550  547  552  562  577  592  604  613  621  628  633  635  619  573  502  435  392  368  355  359  380  405  418  412  393  371  350  347  394  508  641  694  619  467  330  282  317  373  413  433  398  236  -74  -470  -867  -1228  -1554  -1847  -2077  -2209  -2259  -2284  -2334  -2405  -2454  -2458  -2432  -2392  -2328  -2236  -2126  -2020  -1931  -1847  -1726  -1526  -1176  -564  304  1173  1736  1926  1854  1564  956  -102  -1566  -3065  -4127  -4577  -4603  -4457  -4248  -3998  -3781  -3714  -3820  -4002  -4162  -4249  -4249  -4164  -4012  -3820  -3610  -3404  -3217  -3046  -2889  -2754  -2623  -2471  -2307  -2180  -2105  -2019  -1833  -1520  -1176  -944  -873  -896  -930  -903  -762  -522  -285  -113  38  214  381  505  591  665  766  947  1190  1419  1603  1748  1855  1926  1978  2020  2060  2100  2127  2127  2101  2062  2014  1932  1796  1606  1375  1125  892  715  624  610  602  526  398  279  190  126  92  86  97  137  232  359  445  428  297  120  -6  -54  -62  -68  -72  -51  5  72  115  135  148  161  171  191  231  248  195  113  61  26  -25  -91  -126  -103  -49  -19  -39  -87  -128  -148  -161  -168  -159  -125  -70  -10  30  51  56  45  19  -23  -85  -141  -142  -61  84  251  393  488  534  544  534  511  482  462  454  454  460  473  489  501  506  503  492  476  459  442  421  410  457  589  733  759  652  524  454  441  496  649  875  1089  1232  1291  1261  1134  943  754  581  391  185  8  -121  -214  -259  -242  -183  -120  -71  -14  57  131  191  209  194  191  199  154  11  -154  -181  22  452  1109  1940  2763  3351  3507  3058  1959  447  -1113  -2467  -3399  -3750  -3603  -3162  -2558  -1912  -1316  -779  -326  -8  174  280  355  403  431  448  455  458  460  467  480  511  581  683  773  808  784  746  742  791  872  952  1017  1072  1123  1168  1199  1209  1194  1149  1089  1071  1167  1391  1647  1813  1863  1855  1839  1831  1837  1869  1925  1982  2011  2001  1955  1864  1719  1557  1445  1400  1375  1325  1222  1060  866  675  478  241  -33  -298  -489  -578  -603  -628  -664  -683  -669  -629  -592  -579  -586  -601  -615  -621  -617  -613  -615  -622  -629  -636  -643  -651  -662  -670  -672  -667  -656  -645  -636  -628  -617  -594  -554  -509  -480  -475  -479  -468  -428  -371  -328  -310  -305  -305  -302  -290  -272  -256  -251  -264  -277  -269  -243  -212  -180  -135  -66  0  26  21  6  -28  -104  -204  -284  -321  -329  -320  -291  -248  -221  -234  -270  -305  -330  -343  -352  -366  -387  -414  -454  -521  -609  -684  -730  -766  -813  -860  -892  -925  -990  -1090  -1186  -1255  -1300  -1314  -1289  -1239  -1169  -1097  -1048  -1020  -995  -964  -941  -941  -935  -870  -761  -643  -465  -165  319  1033  1780  2203  2112  1504  470  -776  -1978  -3048  -3976  -4547  -4534  -4004  -3179  -2278  -1530  -1081  -852  -650  -420  -247  -173  -152  -157  -193  -243  -264  -226  -133  -18  92  194  277  313  295  276  298  349  394  417  421  417  413  407  396  392  429  560  820  1162  1464  1640  1694  1690  1721  1827  1982  2137  2242  2278  2277  2272  2269  2267  2265  2255  2217  2141  2024  1851  1618  1377  1199  1088  995  879  748  639  561  465  301  95  -66  -144  -149  -122  -129  -222  -392  -573  -690  -725  -718  -705  -693  -675  -654  -636  -602  -522  -414  -334  -304  -300  -304  -333  -412  -520  -593  -590  -528  -473  -474  -505  -503  -439  -345  -274  -242  -249  -280  -284  -248  -232  -267  -325  -361  -345  -300  -268  -260  -260  -262  -273  -304  -345  -371  -363  -326  -271  -207  -153  -126  -127  -143  -162  -181  -201  -224  -240  -238  -218  -193  -178  -175  -183  -201  -221  -230  -220  -192  -159  -132  -119  -128  -155  -187  -227  -278  -335  -393  -431  -432  -397  -349  -315  -305  -308  -312  -309  -292  -268  -246  -238  -269  -363  -496  -589  -567  -411  -196  -40  9  0  -14  -20  -14  0  21  46  72  94  109  123  137  145  120  27  -128  -300  -443  -538  -580  -574  -537  -494  -460  -444  -451  -468  -485  -500  -513  -516  -499  -440  -360  -343  -393  -362  -70  590  1503  2325  2787  2815  2431  1688  569  -880  -2397  -3595  -4142  -3963  -3320  -2587  -1966  -1481  -1095  -771  -504  -279  -62  123  224  254  296  406  553  659  688  672  654  644  612  539  454  426  485  581  643  673  751  931  1152  1303  1342  1313  1266  1240  1278  1408  1588  1720  1763  1748  1708  1662  1629  1624  1663  1751  1872  1977  2017  1982  1910  1853  1827  1822  1830  1832  1778  1596  1279  951  752  699  718  737  701  561  325  77  -99  -185  -214  -228  -256  -311  -376  -422  -436  -422  -383  -335  -299  -287  -291  -304  -326  -369  -442  -530  -586  -568  -461  -309  -185  -121  -113  -145  -185  -189  -131  -30  71  147  193  215  224  222  216  215  221  243  282  320  343  363  384  393  377  346  322  316  321  329  340  359  383  417  473  538  576  572  554  551  557  531  414  186  -97  -380  -682  -994  -1219  -1309  -1317  -1303  -1283  -1247  -1191  -1115  -1011  -888  -782  -723  -710  -727  -745  -746  -736  -709  -621  -425  -149  121  313  406  425  407  374  351  342  338  349  382  408  406  397  443  599  830  1034  1149  1186  1169  1115  1056  1027  1026  1040  1068  1098  1118  1131  1143  1159  1193  1252  1317  1356  1360  1352  1370  1448  1570  1677  1721  1718  1730  1769  1792  1770  1665  1373  842  231  -225  -471  -613  -742  -922  -1217  -1587  -1885  -2054  -2158  -2255  -2352  -2427  -2480  -2521  -2556  -2587  -2611  -2605  -2556  -2498  -2485  -2541  -2641  -2743  -2845  -2977  -3144  -3340  -3575  -3849  -4126  -4373  -4558  -4658  -4681  -4650  -4548  -4300  -3858  -3320  -2881  -2634  -2508  -2397  -2273  -2130  -1890  -1536  -1090  -421  487  1338  1868  1990  1618  763  -406  -1701  -2949  -3925  -4402  -4339  -3913  -3323  -2664  -1933  -1137  -431  -11  121  119  104  108  137  209  344  522  700  841  918  923  890  870  884  926  975  1016  1057  1096  1126  1153  1193  1239  1268  1279  1287  1312  1363  1432  1507  1581  1645  1693  1755  1882  2081  2284  2428  2494  2506  2505  2516  2543  2569  2583  2590  2592  2560  2457  2295  2124  1982  1888  1840  1781  1646  1425  1161  907  705  578  514  471  400  295  184  101  70  74  59  6  -45  -57  -35  -11  -8  -13  4  53  116  165  171  116  21  -63  -115  -137  -141  -131  -79  24  122  163  160  140  122  114  113  105  76  33  0  -12  -3  17  36  44  43  43  43  33  4  -36  -61  -50  -7  31  37  19  3  1  9  15  -5  -78  -187  -276  -316  -321  -318  -316  -308  -282  -247  -218  -206  -205  -208  -210  -207  -202  -189  -160  -114  -68  -32  -7  6  8  0  -15  -24  -23  -17  -12  -7  1  5  -16  -85  -181  -254  -286  -292  -286  -254  -177  -74  6  43  53  61  71  61  4  -97  -201  -263  -283  -280  -256  -201  -126  -68  -48  -51  -54  -47  -33  -15  -6  -38  -143  -287  -396  -434  -422  -380  -311  -201  -40  126  219  215  159  101  52  -8  -73  -99  -66  -8  21  17  19  38  56  72  107  169  238  284  309  345  414  499  574  621  642  640  615  556  433  223  -27  -215  -292  -294  -294  -339  -423  -503  -544  -543  -505  -445  -381  -323  -271  -231  -242  -318  -407  -463  -423  -142  441  1218  2019  2644  2877  2588  1797  644  -678  -1977  -3070  -3822  -4207  -4228  -3845  -3130  -2312  -1575  -969  -527  -288  -224  -245  -270  -253  -174  -59  45  129  199  244  258  254  249  253  265  278  288  314  389  508  632  736  808  846  862  865  859  851  849  862  896  945  1008  1114  1287  1479  1607  1649  1648  1645  1652  1660  1660  1655  1658  1673  1690  1697  1706  1726  1739  1688  1517  1257  1007  801  587  331  89  -55  -99  -116  -171  -289  -454  -606  -706  -773  -828  -851  -824  -770  -739  -759  -815  -875  -926  -962  -976  -973  -979  -1002  -1008  -944  -783  -573  -403  -322  -323  -364  -410  -455  -511  -565  -582  -546  -488  -453  -446  -449  -444  -425  -406  -402  -412  -432  -461  -487  -504  -523  -541  -537  -497  -438  -387  -359  -355  -381  -427  -459  -444  -404  -387  -389  -374  -332  -273  -213  -174  -169  -188  -210  -217  -210  -205  -204  -182  -110  0  97  132  107  64  39  29  16  -11  -50  -86  -112  -113  -76  -12  48  80  87  85  93  112  126  120  106  101  103  94  51  -26  -118  -185  -185  -111  -29  -7  -24  -22  6  24  12  -17  -37  -41  -37  -32  -32  -43  -68  -96  -124  -168  -224  -263  -264  -246  -242  -258  -280  -292  -282  -241  -179  -123  -87  -67  -54  -47  -42  -31  -9  18  55  126  256  414  524  539  471  374  301  250  154  -45  -299  -477  -514  -450  -365  -318  -305  -293  -274  -259  -253  -245  -232  -217  -201  -195  -231  -342  -486  -525  -351  47  611  1277  2015  2712  3128  3067  2470  1367  -94  -1623  -2950  -3937  -4444  -4343  -3690  -2753  -1825  -1061  -509  -198  -79  -34  38  182  364  502  569  598  624  642  628  568  489  444  465  538  627  692  728  756  782  810  865  955  1063  1165  1232  1245  1224  1200  1183  1179  1196  1238  1286  1318  1336  1361  1409  1495  1630  1785  1906  1972  1996  2003  2015  2030  2030  2023  2024  2007  1920  1730  1469  1222  1056  937  776  546  298  109  10  -28  -67  -151  -285  -425  -512  -515  -448  -351  -283  -295  -410  -589  -748  -829  -852  -848  -833  -814  -799  -787  -759  -698  -633  -601  -588  -591  -625  -674  -711  -728  -727  -716  -697  -669  -630  -581  -514  -434  -373  -351  -360  -377  -385  -386  -390  -400  -401  -386  -380  -414  -482  -539  -565  -567  -541  -475  -387  -322  -315  -361  -427  -471  -475  -456  -442  -442  -433  -403  -369  -351  -350  -345  -340  -373  -450  -517  -545  -546  -537  -520  -495  -464  -442  -442  -464  -494  -513  -517  -523  -543  -556  -536  -494  -458  -446  -461  -473  -451  -417  -412  -454  -522  -592  -665  -734  -759  -713  -625  -554  -527  -528  -534  -535  -527  -524  -549  -592  -612  -579  -497  -424  -406  -427  -446  -444  -418  -374  -326  -282  -244  -208  -168  -116  -63  -35  -35  -27  59  273  549  742  753  586  329  111  -22  -132  -259  -382  -488  -574  -622  -619  -585  -548  -525  -519  -526  -542  -564  -586  -611  -641  -677  -692  -629  -411  63  805  1621  2304  2768  2893  2566  1823  752  -543  -1862  -2993  -3807  -4202  -4112  -3585  -2762  -1830  -983  -374  -51  61  101  152  212  235  214  195  216  286  405  536  635  705  758  795  828  876  941  1007  1051  1066  1065  1065  1067  1070  1076  1100  1162  1262  1365  1424  1434  1429  1453  1527  1625  1712  1800  1917  2052  2183  2311  2422  2487  2507  2506  2493  2456  2384  2301  2239  2214  2204  2132  1923  1617  1349  1172  1027  861  696  587  535  487  416  328  213  53  -146  -342  -469  -516  -527  -533  -526  -496  -464  -485  -543  -537  -436  -333  -292  -293  -303  -315  -334  -360  -378  -382  -373  -357  -339  -324  -316  -316  -320  -321  -312  -299  -302  -319  -335  -354  -384  -394  -361  -302  -244  -216  -238  -294  -363  -438  -498  -534  -556  -569  -571  -560  -525  -463  -396  -334  -264  -197  -167  -185  -244  -318  -365  -379  -403  -472  -561  -585  -497  -357  -259  -228  -231  -240  -253  -261  -255  -249  -256  -268  -268  -263  -285  -361  -467  -547  -581  -589  -586  -561  -504  -436  -394  -384  -400  -443  -490  -513  -502  -462  -411  -378  -368  -359  -328  -279  -240  -226  -230  -236  -234  -232  -251  -295  -332  -330  -307  -298  -301  -285  -209  -81  40  101  104  89  107  191  322  430  455  388  271  181  162  187  213  210  158  55  -59  -154  -238  -320  -376  -393  -393  -403  -432  -467  -490  -491  -462  -405  -337  -299  -336  -450  -530  -435  -130  387  1093  1802  2309  2570  2576  2229  1430  191  -1335  -2855  -4030  -4628  -4548  -3878  -2929  -2021  -1323  -896  -683  -552  -419  -285  -168  -68  13  63  72  53  33  31  47  68  84  89  83  79  102  162  235  292  333  374  418  461  498  520  556  660  837  1005  1075  1032  941  873  844  850  935  1161  1488  1786  1981  2096  2154  2142  2056  1940  1854  1806  1731  1565  1345  1185  1137  1149  1141  1064  912  711  471  212  -17  -177  -262  -288  -277  -244  -203  -174  -175  -213  -282  -355  -404  -416  -400  -395  -435  -519  -619  -690  -693  -637  -563  -487  -410  -358  -361  -431  -548  -659  -695  -610  -454  -332  -286  -267  -217  -139  -77  -59  -90  -168  -292  -431  -539  -592  -598  -567  -485  -335  -160  -40  -12  -54  -126  -200  -263  -310  -337  -348  -347  -317  -239  -142  -96  -138  -234  -324  -384  -421  -438  -434  -414  -392  -380  -373  -365  -360  -345  -298  -230  -172  -132  -93  -38  25  59  39  -33  -155  -283  -345  -320  -261  -219  -208  -212  -217  -210  -187  -154  -123  -101  -82  -63  -53  -71  -139  -253  -365  -419  -417  -393  -365  -331  -276  -191  -95  -17  28  47  47  40  37  41  51  59  58  54  56  68  92  126  161  180  175  160  149  136  126  131  147  172  224  329  454  518  497  442  408  409  417  386  271  59  -177  -336  -389  -385  -373  -369  -371  -373  -377  -387  -398  -402  -394  -385  -383  -388  -387  -391  -438  -496  -352  200  1105  2090  2875  3228  3061  2495  1629  420  -1082  -2633  -3916  -4612  -4565  -3915  -2942  -1919  -1096  -614  -428  -379  -340  -267  -165  -39  87  172  204  214  224  224  211  204  215  228  216  181  155  169  239  363  508  618  661  659  650  662  702  757  845  1001  1188  1318  1364  1365  1365  1385  1455  1599  1785  1923  1977  1972  1941  1909  1888  1884  1889  1895  1889  1856  1784  1677  1566  1468  1346  1154  900  636  403  199  19  -123  -237  -338  -420  -468  -487  -495  -512  -543  -574  -593  -598  -594  -586  -570  -539  -498  -465  -454  -461  -477  -501  -526  -548  -562  -564  -560  -540  -474  -352  -212  -119  -113  -195  -332  -476  -602  -695  -726  -640  -409  -115  90  144  85  -26  -137  -207  -242  -269  -306  -359  -430  -509  -567  -578  -555  -529  -507  -502  -530  -569  -571  -514  -416  -328  -282  -271  -282  -320  -393  -475  -526  -536  -523  -506  -479  -427  -360  -315  -322  -385  -479  -557  -592  -587  -536  -438  -325  -241  -198  -192  -233  -317  -397  -413  -365  -309  -284  -287  -297  -300  -297  -295  -300  -303  -285  -225  -143  -83  -67  -77  -91  -102  -108  -111  -112  -112  -112  -106  -88  -59  -28  0  28  58  86  94  71  28  -13  -47  -85  -134  -181  -189  -136  -50  14  39  55  98  170  245  301  319  300  284  329  452  597  687  708  700  693  684  645  563  445  320  220  149  93  42  -8  -65  -121  -160  -181  -195  -207  -220  -232  -240  -242  -239  -234  -239  -268  -312  -310  -200  2  262  595  1045  1638  2300  2833  3032  2731  1823  377  -1322  -2919  -4069  -4478  -4134  -3377  -2594  -2008  -1639  -1305  -831  -292  81  198  141  9  -129  -213  -196  -78  83  199  226  190  136  95  84  111  191  321  463  587  710  835  916  920  861  780  720  698  709  760  854  986  1151  1315  1419  1444  1432  1440  1505  1616  1717  1766  1758  1703  1622  1550  1511  1506  1538  1614  1709  1753  1676  1471  1220  1036  953  932  891  718  342  -124  -453  -559  -541  -506  -488  -485  -491  -504  -522  -533  -530  -523  -520  -522  -526  -530  -522  -488  -433  -387  -393  -471  -585  -671  -703  -701  -677  -626  -562  -518  -506  -511  -504  -468  -410  -355  -319  -319  -363  -420  -432  -374  -278  -205  -178  -178  -183  -183  -185  -212  -286  -386  -461  -485  -470  -426  -354  -267  -195  -170  -221  -362  -532  -604  -510  -323  -177  -127  -136  -165  -204  -246  -273  -275  -288  -348  -418  -442  -416  -378  -360  -353  -330  -301  -286  -285  -287  -292  -301  -305  -282  -224  -163  -142  -159  -173  -165  -158  -181  -221  -230  -192  -151  -152  -185  -229  -285  -343  -392  -436  -464  -464  -439  -394  -332  -241  -116  12  133  255  341  364  366  386  384  287  101  -78  -188  -236  -251  -246  -228  -208  -190  -173  -155  -153  -192  -274  -381  -495  -604  -708  -810  -898  -925  -809  -511  -185  -40  -47  32  370  974  1723  2375  2685  2547  1996  1091  -128  -1526  -2870  -3940  -4518  -4461  -3855  -2964  -2029  -1237  -740  -525  -424  -326  -221  -133  -76  -48  -29  5  68  142  200  244  302  372  422  419  357  261  185  198  360  659  969  1153  1179  1078  898  724  652  714  848  966  1051  1164  1351  1567  1721  1792  1830  1882  1946  1987  1994  1985  2001  2074  2182  2260  2261  2184  2073  1974  1871  1715  1504  1301  1165  1064  906  668  442  309  238  147  2  -153  -277  -357  -396  -402  -391  -375  -357  -339  -333  -360  -435  -533  -604  -628  -626  -615  -600  -584  -571  -563  -559  -558  -561  -566  -563  -542  -510  -484  -477  -483  -494  -494  -464  -399  -334  -303  -305  -316  -313  -304  -307  -299  -257  -213  -209  -257  -332  -396  -431  -447  -461  -476  -486  -456  -357  -228  -149  -142  -165  -181  -185  -191  -208  -231  -240  -228  -210  -214  -250  -297  -326  -337  -342  -327  -285  -238  -202  -172  -144  -130  -140  -165  -195  -237  -289  -329  -351  -365  -378  -383  -367  -320  -261  -205  -165  -176  -253  -350  -413  -415  -368  -304  -243  -194  -159  -149  -161  -175  -171  -139  -82  -25  -6  -36  -87  -130  -151  -162  -179  -198  -182  -118  -54  -29  -23  -18  -24  -49  -79  -85  -37  52  144  209  237  243  246  257  281  318  356  359  311  262  263  299  313  276  214  171  129  33  -115  -267  -378  -428  -422  -389  -357  -310  -244  -220  -275  -366  -460  -547  -610  -634  -604  -504  -326  -9  533  1229  1903  2436  2722  2668  2281  1571  529  -756  -2095  -3276  -4087  -4353  -4047  -3351  -2524  -1744  -1127  -735  -509  -327  -134  32  121  140  129  112  94  83  94  139  205  264  308  342  366  370  357  336  326  369  494  657  769  801  786  762  739  720  728  813  1004  1234  1391  1450  1471  1514  1584  1651  1694  1722  1769  1849  1937  1990  1994  1962  1916  1872  1833  1792  1750  1701  1598  1383  1099  876  772  729  655  501  294  97  -60  -182  -279  -374  -474  -565  -632  -676  -696  -661  -548  -397  -276  -225  -242  -318  -422  -508  -554  -567  -564  -558  -557  -564  -574  -583  -591  -594  -592  -587  -581  -577  -574  -567  -556  -538  -502  -438  -364  -316  -303  -309  -320  -340  -372  -407  -437  -461  -462  -428  -374  -321  -283  -262  -255  -267  -305  -367  -428  -455  -436  -383  -320  -266  -232  -211  -195  -215  -311  -455  -559  -565  -498  -425  -381  -352  -333  -337  -353  -365  -362  -346  -328  -304  -266  -228  -216  -225  -228  -220  -206  -195  -202  -235  -300  -379  -439  -461  -447  -396  -322  -259  -231  -233  -244  -249  -251  -268  -304  -336  -343  -316  -256  -193  -164  -173  -206  -240  -269  -299  -328  -347  -355  -349  -325  -291  -273  -289  -329  -364  -387  -414  -447  -471  -474  -462  -434  -377  -303  -249  -231  -235  -249  -278  -339  -413  -448  -408  -316  -220  -140  -78  -39  -4  59  158  263  360  463  583  701  787  843  878  880  833  729  578  420  300  226  172  111  34  -35  -73  -82  -94  -133  -178  -178  -121  -48  -8  -32  -108  -181  -231  -285  -336  -328  -184  189  850  1692  2511  3119  3328  3013  2188  1002  -322  -1611  -2717  -3484  -3865  -3890  -3546  -2906  -2145  -1370  -669  -185  19  36  -2  -31  -40  -23  31  130  251  348  400  417  416  409  398  387  380  372  352  330  368  540  794  966  989  940  899  877  865  859  874  927  1013  1104  1178  1225  1249  1274  1335  1459  1638  1813  1932  1983  1988  1969  1937  1901  1862  1802  1711  1607  1517  1439  1341  1192  987  750  538  401  338  294  195  -4  -258  -453  -534  -548  -552  -560  -566  -566  -565  -576  -616  -683  -756  -817  -871  -919  -945  -934  -881  -778  -625  -468  -382  -390  -454  -517  -548  -553  -550  -550  -549  -530  -488  -450  -461  -508  -529  -487  -398  -301  -247  -267  -322  -355  -353  -338  -334  -348  -374  -399  -414  -410  -372  -290  -179  -81  -28  -14  -11  -7  -17  -60  -132  -199  -232  -227  -211  -207  -218  -225  -226  -245  -296  -363  -421  -456  -464  -445  -401  -350  -319  -305  -277  -218  -149  -110  -122  -172  -230  -280  -322  -338  -317  -284  -266  -262  -257  -234  -201  -211  -291  -381  -410  -389  -361  -341  -319  -290  -254  -203  -136  -61  8  54  66  51  20  -17  -52  -80  -97  -102  -96  -74  -42  -20  -34  -90  -140  -142  -117  -110  -119  -118  -95  -65  -45  -37  -37  -52  -90  -141  -169  -127  7  200  367  447  448  404  350  326  361  444  529  577  581  560  512  406  230  38  -98  -161  -170  -137  -74  -2  53  79  74  38  -31  -116  -176  -200  -213  -244  -295  -339  -319  -182  46  315  687  1252  1937  2554  2913  2845  2243  1100  -419  -1965  -3213  -3965  -4106  -3712  -3087  -2466  -1877  -1329  -897  -636  -531  -510  -497  -447  -349  -233  -134  -58  -1  42  71  72  52  30  11  51  189  338  409  417  420  449  497  542  577  608  635  662  693  738  829  983  1155  1271  1320  1349  1389  1447  1521  1601  1680  1776  1901  2031  2126  2172  2180  2164  2133  2092  2040  1949  1802  1644  1512  1381  1232  1068  870  636  402  208  75  -25  -150  -308  -452  -557  -645  -700  -674  -596  -570  -623  -702  -763  -797  -815  -830  -844  -850  -839  -802  -729  -639  -571  -543  -533  -521  -508  -506  -509  -494  -452  -394  -338  -299  -283  -290  -313  -339  -352  -348  -329  -295  -243  -186  -135  -99  -85  -99  -136  -186  -238  -279  -293  -278  -247  -217  -183  -137  -92  -67  -62  -65  -66  -66  -71  -86  -106  -121  -131  -143  -166  -208  -280  -367  -430  -467  -507  -553  -556  -476  -344  -239  -210  -259  -378  -530  -640  -667  -610  -488  -342  -220  -165  -188  -268  -381  -486  -529  -507  -465  -410  -305  -165  -63  -39  -65  -101  -117  -110  -102  -112  -138  -162  -177  -187  -191  -174  -113  -9  115  252  374  420  370  290  251  264  317  377  413  424  449  525  636  718  720  634  499  369  272  209  169  139  113  100  105  126  151  155  112  22  -74  -162  -264  -356  -389  -363  -347  -442  -604  -592  -223  474  1372  2247  2834  3060  3019  2723  2091  1077  -282  -1790  -3089  -3872  -4056  -3746  -3152  -2536  -2058  -1660  -1260  -919  -707  -599  -546  -516  -487  -451  -402  -339  -271  -215  -184  -172  -146  -96  -48  -33  -57  -112  -171  -198  -146  5  195  338  422  474  498  501  501  528  617  780  970  1109  1180  1227  1275  1315  1332  1338  1384  1528  1763  1990  2110  2109  2045  1991  1971  1958  1923  1849  1730  1577  1409  1237  1053  876  748  655  503  237  -70  -294  -387  -393  -374  -362  -372  -424  -521  -624  -685  -695  -684  -677  -679  -686  -695  -702  -707  -710  -716  -731  -744  -724  -658  -580  -531  -520  -535  -566  -596  -612  -610  -594  -575  -552  -509  -444  -377  -329  -308  -308  -322  -349  -376  -380  -332  -218  -83  -4  -11  -63  -105  -120  -118  -113  -111  -114  -124  -141  -163  -174  -154  -92  0  94  167  193  153  61  -42  -124  -173  -193  -195  -185  -161  -132  -118  -127  -147  -155  -142  -122  -105  -88  -72  -50  -9  38  60  46  34  53  77  56  -32  -170  -298  -355  -335  -288  -258  -253  -255  -252  -245  -248  -278  -340  -411  -443  -407  -318  -223  -168  -151  -151  -163  -187  -229  -292  -350  -351  -269  -141  -43  -12  -36  -102  -186  -250  -273  -261  -223  -171  -124  -98  -92  -94  -97  -99  -90  -63  -18  17  25  22  45  100  177  263  331  356  340  311  294  283  265  236  186  96  -38  -202  -346  -426  -445  -440  -445  -475  -518  -526  -478  -417  -386  -382  -384  -380  -373  -382  -423  -460  -453  -440  -417  -241  187  854  1686  2497  2984  2903  2268  1278  97  -1113  -2211  -3202  -4013  -4362  -4094  -3310  -2248  -1252  -619  -374  -344  -350  -297  -173  -24  84  122  119  118  139  183  231  268  305  345  374  383  380  375  376  391  426  467  479  449  417  431  493  590  736  909  1047  1122  1161  1200  1262  1360  1482  1602  1691  1735  1757  1786  1817  1833  1836  1835  1836  1843  1857  1879  1890  1865  1801  1718  1615  1437  1152  845  622  497  411  312  193  80  -20  -158  -347  -516  -599  -611  -599  -591  -583  -563  -521  -469  -433  -434  -472  -548  -642  -701  -692  -644  -608  -599  -599  -588  -551  -496  -448  -435  -452  -468  -463  -422  -350  -277  -229  -209  -203  -204  -213  -226  -238  -255  -281  -306  -316  -313  -312  -322  -339  -347  -339  -318  -295  -274  -249  -222  -200  -183  -162  -126  -74  -26  -1  -21  -95  -197  -280  -319  -301  -224  -121  -56  -57  -93  -127  -149  -167  -175  -168  -153  -145  -156  -191  -230  -247  -248  -249  -257  -268  -281  -301  -326  -344  -351  -354  -353  -326  -250  -146  -68  -39  -38  -44  -66  -119  -193  -256  -300  -331  -344  -325  -277  -229  -209  -217  -234  -247  -250  -257  -286  -328  -358  -352  -302  -233  -185  -171  -174  -180  -185  -193  -202  -193  -144  -63  10  50  61  59  52  38  22  18  31  46  56  83  147  241  334  401  444  474  492  473  367  159  -85  -269  -352  -373  -386  -398  -382  -326  -268  -264  -316  -379  -434  -494  -565  -629  -673  -704  -731  -715  -545  -152  366  894  1471  2111  2646  2906  2775  2111  902  -617  -2150  -3437  -4264  -4539  -4308  -3707  -2937  -2168  -1489  -984  -707  -605  -579  -582  -578  -496  -327  -155  -34  43  98  137  149  102  -25  -181  -253  -175  -6  146  227  254  271  304  343  380  438  533  647  742  812  889  985  1084  1168  1222  1252  1294  1378  1502  1643  1774  1892  2012  2122  2187  2201  2174  2118  2054  2019  2022  2036  1994  1839  1592  1342  1154  1028  934  843  749  672  631  602  529  376  183  33  -33  -50  -67  -100  -137  -174  -213  -248  -265  -250  -220  -194  -180  -184  -205  -231  -252  -254  -235  -211  -205  -236  -284  -308  -303  -300  -308  -313  -303  -292  -303  -323  -317  -279  -239  -218  -214  -221  -230  -238  -258  -306  -374  -430  -455  -451  -436  -429  -441  -463  -467  -431  -369  -320  -300  -300  -317  -360  -416  -459  -477  -478  -473  -476  -489  -501  -491  -445  -376  -317  -292  -315  -392  -504  -595  -628  -593  -496  -379  -297  -269  -273  -296  -347  -436  -537  -601  -613  -602  -590  -570  -518  -424  -308  -208  -155  -147  -166  -188  -181  -114  -4  93  144  158  158  159  165  158  114  26  -84  -189  -274  -340  -385  -410  -421  -429  -451  -492  -548  -601  -640  -660  -658  -636  -610  -606  -648  -721  -735  -677  -618  -524  -294  144  882  1847  2718  3192  3107  2376  1065  -497  -1951  -3105  -3859  -4201  -4197  -3853  -3172  -2279  -1402  -775  -480  -389  -325  -225  -125  -51  16  87  138  152  128  84  50  61  141  274  409  500  534  520  472  410  356  328  342  414  542  685  790  840  871  930  1014  1080  1113  1149  1228  1354  1482  1563  1599  1644  1761  1962  2172  2295  2314  2272  2201  2113  2017  1912  1795  1678  1566  1434  1271  1114  986  859  711  545  333  50  -233  -409  -457  -437  -399  -364  -343  -338  -348  -375  -431  -517  -609  -677  -712  -719  -696  -637  -557  -489  -459  -462  -474  -482  -490  -516  -570  -640  -691  -703  -690  -682  -673  -633  -551  -459  -396  -354  -296  -218  -146  -85  -30  6  10  -22  -80  -131  -169  -215  -279  -341  -380  -390  -371  -327  -272  -234  -223  -226  -226  -214  -193  -173  -153  -129  -108  -111  -136  -159  -158  -139  -132  -161  -223  -296  -356  -392  -404  -392  -349  -271  -174  -87  -49  -62  -79  -62  -42  -62  -115  -157  -167  -167  -175  -187  -194  -196  -195  -189  -178  -162  -150  -144  -142  -153  -182  -218  -233  -213  -184  -180  -205  -233  -247  -249  -235  -196  -143  -101  -82  -75  -67  -55  -48  -63  -108  -166  -213  -246  -273  -275  -227  -148  -83  -64  -84  -110  -122  -136  -171  -215  -243  -250  -251  -253  -246  -207  -143  -83  -54  -53  -63  -62  -25  54  146  208  232  229  190  99  -19  -102  -87  49  262  444  526  528  504  479  440  363  251  119  -28  -174  -269  -299  -304  -322  -369  -450  -561  -660  -700  -662  -571  -479  -424  -415  -466  -573  -644  -512  -158  281  787  1400  1992  2439  2707  2654  2131  1155  -173  -1672  -3026  -3934  -4270  -4059  -3454  -2688  -1949  -1353  -946  -665  -437  -274  -203  -202  -217  -207  -167  -103  -9  89  152  171  167  156  140  124  124  154  209  258  276  276  286  316  358  403  464  547  641  742  832  889  921  956  992  1012  1011  997  1005  1098  1302  1553  1736  1814  1834  1835  1832  1836  1853  1877  1878  1820  1692  1525  1376  1275  1203  1112  972  798  632  486  323  112  -102  -247  -304  -316  -332  -372  -438  -517  -583  -618  -622  -617  -626  -648  -660  -630  -534  -406  -325  -330  -384  -434  -457  -463  -464  -457  -432  -390  -341  -289  -237  -197  -177  -164  -144  -126  -123  -135  -151  -167  -187  -205  -194  -136  -45  29  57  47  18  -22  -71  -128  -185  -230  -254  -252  -233  -215  -198  -169  -130  -98  -86  -97  -134  -186  -221  -197  -91  57  168  195  146  47  -51  -110  -125  -120  -112  -99  -79  -65  -65  -69  -68  -67  -77  -101  -122  -126  -123  -122  -131  -147  -165  -181  -193  -194  -181  -164  -147  -131  -114  -96  -79  -69  -48  -7  23  10  -31  -66  -65  -31  6  23  25  26  33  36  12  -57  -150  -220  -246  -239  -217  -196  -178  -163  -153  -152  -154  -147  -122  -99  -107  -137  -151  -132  -99  -84  -91  -97  -94  -100  -135  -187  -224  -234  -224  -202  -164  -108  -68  -98  -193  -288  -345  -373  -380  -364  -330  -289  -255  -237  -233  -226  -203  -163  -94  22  167  261  255  194  166  209  272  302  306  312  331  358  376  356  272  129  -29  -161  -257  -335  -409  -475  -520  -541  -549  -555  -562  -554  -510  -438  -381  -360  -363  -372  -396  -474  -589  -605  -401  38  676  1453  2242  2832  3040  2812  2127  991  -445  -1985  -3434  -4473  -4808  -4447  -3634  -2659  -1736  -993  -514  -305  -262  -270  -279  -290  -295  -258  -142  22  154  209  211  203  217  281  396  524  613  645  631  589  540  507  499  510  538  572  598  613  619  620  633  719  937  1243  1500  1619  1633  1617  1614  1636  1682  1739  1789  1817  1824  1822  1819  1816  1815  1812  1782  1691  1546  1401  1306  1271  1252  1163  953  678  435  243  80  -32  -81  -102  -142  -211  -284  -321  -314  -306  -320  -333  -320  -295  -286  -309  -356  -407  -457  -512  -560  -587  -588  -566  -534  -506  -484  -478  -492  -503  -490  -478  -498  -497  -385  -181  -17  27  -17  -90  -146  -179  -215  -274  -356  -439  -501  -525  -523  -502  -444  -357  -274  -206  -162  -153  -170  -199  -222  -233  -245  -262  -273  -273  -265  -260  -261  -265  -266  -266  -269  -269  -259  -231  -190  -154  -135  -130  -131  -133  -146  -193  -264  -322  -345  -337  -304  -247  -170  -91  -49  -69  -124  -173  -211  -254  -314  -382  -433  -456  -453  -426  -381  -329  -282  -246  -226  -226  -242  -268  -290  -288  -258  -219  -187  -167  -157  -162  -207  -305  -416  -465  -418  -316  -208  -100  11  97  139  156  158  147  132  129  138  140  108  44  -15  -39  -15  58  155  226  252  252  236  200  141  77  42  72  171  285  352  357  335  319  316  336  407  511  583  603  600  604  624  669  751  866  984  1079  1128  1112  1010  818  574  336  146  20  -56  -114  -173  -234  -277  -291  -290  -309  -382  -501  -613  -676  -695  -694  -700  -739  -811  -859  -820  -660  -362  52  537  1066  1597  2038  2253  2028  1147  -361  -2122  -3682  -4772  -5239  -5025  -4280  -3289  -2326  -1609  -1226  -1074  -970  -838  -719  -649  -620  -603  -578  -544  -513  -487  -457  -414  -351  -263  -165  -99  -80  -82  -70  -35  -2  20  77  195  343  483  597  664  679  663  637  622  649  742  881  1013  1136  1278  1427  1527  1560  1554  1545  1567  1639  1744  1840  1902  1919  1893  1845  1787  1710  1607  1471  1294  1101  934  804  692  571  420  247  85  -35  -109  -152  -204  -300  -432  -552  -632  -683  -721  -721  -646  -512  -382  -275  -193  -177  -273  -446  -604  -671  -648  -587  -513  -416  -306  -224  -198  -221  -258  -279  -273  -238  -178  -106  -40  -2  -8  -59  -130  -179  -174  -111  -24  37  56  48  32  18  6  -2  -11  -17  -23  -23  -5  26  45  26  -37  -123  -192  -229  -249  -262  -266  -253  -211  -146  -90  -76  -119  -197  -268  -311  -321  -294  -241  -186  -152  -143  -147  -151  -150  -144  -138  -131  -129  -146  -197  -262  -297  -278  -228  -183  -148  -113  -101  -150  -250  -323  -292  -176  -62  4  42  75  116  161  191  205  243  354  525  684  778  800  768  711  654  607  569  537  497  418  286  130  -6  -90  -117  -114  -105  -103  -106  -113  -128  -161  -221  -295  -360  -407  -445  -476  -507  -534  -527  -440  -153  459  1311  2161  2783  2974  2673  2034  1168  24  -1381  -2819  -3960  -4508  -4336  -3642  -2858  -2250  -1732  -1181  -702  -438  -357  -342  -313  -263  -226  -217  -204  -140  -16  124  226  279  304  309  294  272  262  273  302  331  343  349  376  426  463  470  487  540  621  731  871  1003  1078  1089  1072  1078  1173  1385  1637  1813  1899  1968  2052  2113  2112  2047  1960  1904  1893  1891  1847  1724  1534  1326  1164  1085  1066  1040  951  790  584  365  157  -25  -184  -336  -477  -569  -605  -617  -629  -645  -658  -650  -621  -607  -630  -650  -626  -573  -520  -480  -456  -450  -469  -513  -567  -610  -631  -617  -574  -528  -486  -434  -363  -291  -247  -247  -292  -366  -439  -489  -521  -541  -549  -550  -545  -516  -459  -402  -384  -430  -524  -604  -636  -637  -633  -628  -605  -556  -495  -450  -426  -408  -381  -332  -273  -227  -203  -202  -228  -270  -316  -358  -385  -392  -386  -374  -357  -338  -327  -337  -366  -401  -421  -410  -385  -368  -357  -344  -336  -337  -345  -351  -332  -266  -174  -121  -124  -133  -123  -130  -155  -166  -159  -145  -138  -153  -195  -244  -272  -263  -228  -183  -141  -111  -97  -100  -116  -146  -171  -166  -148  -156  -185  -207  -218  -234  -270  -307  -309  -268  -206  -152  -125  -126  -143  -164  -189  -225  -261  -263  -210  -119  -34  25  82  156  239  315  372  400  419  467  541  595  585  501  370  225  81  -62  -213  -351  -436  -461  -452  -432  -404  -370  -333  -300  -291  -307  -313  -287  -252  -263  -337  -355  -209  24  280  626  1118  1737  2373  2818  2856  2379  1453  228  -1114  -2344  -3282  -3831  -3941  -3653  -3065  -2287  -1494  -858  -449  -242  -167  -148  -137  -115  -64  6  64  91  92  75  39  -7  -13  85  276  454  533  517  464  417  384  356  353  416  558  724  837  879  878  863  856  869  918  1028  1191  1345  1445  1492  1518  1571  1694  1860  1991  2046  2052  2048  2051  2057  2035  1950  1812  1678  1589  1539  1503  1437  1276  1005  703  468  334  279  259  237  203  156  85  -31  -181  -309  -369  -369  -333  -286  -244  -215  -211  -243  -287  -303  -282  -258  -275  -327  -352  -337  -318  -329  -369  -411  -431  -423  -398  -369  -344  -316  -288  -267  -251  -239  -228  -216  -211  -246  -348  -483  -565  -550  -480  -413  -368  -331  -294  -253  -202  -158  -178  -287  -416  -481  -453  -354  -251  -202  -197  -205  -216  -232  -253  -273  -288  -288  -269  -242  -225  -223  -235  -276  -366  -486  -573  -591  -550  -481  -414  -368  -348  -339  -319  -265  -155  -14  85  86  -14  -168  -303  -386  -422  -418  -378  -320  -272  -242  -226  -217  -215  -225  -236  -237  -222  -197  -173  -158  -150  -144  -133  -119  -107  -106  -125  -163  -197  -218  -233  -245  -249  -246  -236  -220  -197  -172  -144  -107  -71  -66  -104  -167  -213  -224  -214  -182  -114  -20  40  9  -120  -264  -305  -239  -152  -92  -59  -49  -51  -54  -56  -61  -72  -93  -126  -162  -185  -182  -145  -64  50  155  209  207  170  136  133  165  226  293  355  406  447  476  490  486  460  394  282  144  0  -134  -240  -297  -313  -311  -308  -310  -311  -304  -306  -332  -365  -379  -370  -342  -301  -241  -152  -78  -93  -113  70  580  1393  2316  3013  3234  2921  2087  788  -797  -2343  -3478  -3953  -3746  -3110  -2429  -1910  -1528  -1224  -951  -666  -394  -187  -47  50  120  156  166  187  249  337  402  427  431  432  436  446  458  465  453  409  339  281  282  363  501  643  762  869  963  1023  1049  1067  1089  1109  1122  1134  1168  1258  1415  1587  1708  1757  1772  1796  1840  1892  1943  1986  2013  1991  1885  1693  1481  1330  1241  1168  1086  989  862  707  563  461  386  302  215  167  158  145  92  -23  -182  -320  -391  -402  -382  -367  -378  -408  -440  -468  -493  -502  -485  -456  -459  -498  -519  -496  -466  -452  -443  -433  -427  -428  -431  -430  -424  -421  -424  -430  -429  -423  -433  -479  -549  -608  -637  -626  -567  -473  -375  -294  -240  -216  -222  -244  -257  -251  -243  -238  -209  -170  -167  -223  -306  -366  -386  -394  -419  -457  -485  -490  -479  -467  -465  -469  -467  -433  -342  -213  -103  -48  -48  -102  -209  -335  -425  -463  -474  -479  -481  -480  -486  -514  -565  -613  -618  -579  -529  -489  -465  -455  -449  -439  -425  -412  -403  -398  -393  -391  -411  -469  -543  -575  -531  -444  -373  -339  -319  -294  -267  -239  -209  -179  -153  -140  -161  -211  -265  -315  -360  -380  -364  -329  -304  -298  -303  -307  -310  -311  -297  -252  -185  -137  -144  -215  -316  -408  -480  -517  -497  -453  -447  -501  -574  -610  -602  -586  -589  -620  -668  -714  -745  -752  -711  -601  -451  -332  -267  -228  -201  -197  -223  -277  -380  -528  -665  -737  -749  -740  -756  -837  -964  -1052  -1051  -1005  -970  -952  -934  -917  -910  -909  -886  -788  -613  -471  -452  -493  -461  -160  549  1490  2274  2643  2481  1752  578  -810  -2199  -3394  -4193  -4486  -4340  -3867  -3149  -2325  -1558  -975  -652  -537  -495  -456  -421  -366  -249  -96  12  44  48  90  177  228  174  49  -85  -202  -263  -192  56  400  671  814  893  949  989  1025  1081  1166  1258  1332  1376  1399  1437  1552  1785  2093  2391  2614  2754  2830  2872  2908  2947  2955  2898  2815  2786  2845  2961  3073  3130  3120  3054  2907  2643  2299  1964  1710  1572  1530  1526  1503  1444  1354  1240  1119  1018  925  820  724  670  661  654  586  453  334  290  308  343  364  380  395  371  312  282  307  352  374  363  356  371  352  248  98  -6  -29  9  71  119  160  230  358  531  668  666  534  389  315  300  290  255  218  215  246  273  264  238  240  285  336  340  286  212  152  120  118  140  182  230  267  283  276  252  227  210  194  179  174  181  204  248  304  340  326  251  145  64  36  63  141  244  317  329  289  220  146  84  57  69  96  111  119  133  156  160  110  19  -65  -129  -179  -206  -177  -85  11  38  -5  -78  -157  -201  -183  -138  -106  -94  -94  -100  -114  -143  -187  -208  -174  -123  -118  -190  -312  -422  -482  -504  -517  -528  -509  -433  -324  -243  -213  -212  -217  -221  -222  -219  -218  -221  -227  -225  -199  -115  38  184  198  81  -56  -170  -302  -463  -602  -667  -660  -620  -587  -593  -651  -736  -810  -854  -878  -902  -922  -894  -798  -686  -613  -586  -596  -615  -579  -393  60  774  1538  2094  2302  2136  1623  837  -172  -1403  -2733  -3875  -4555  -4641  -4165  -3313  -2404  -1719  -1326  -1122  -975  -830  -710  -650  -650  -676  -688  -674  -647  -592  -477  -320  -199  -154  -179  -263  -384  -506  -608  -682  -718  -692  -588  -429  -272  -162  -109  -97  -99  -94  -81  -71  -67  -64  -53  -21  30  74  87  92  129  187  225  234  234  244  264  267  235  191  164  153  147  139  117  84]
