reading_id,reading_time,wire_id,result_classification,heart_rate,heart_rate_alert,firmware_version,device_app_version,hardware_version,waveform_samples
83a56fa0-579e-11ed-8080-808080808080,Sat Oct 29 15:29:44 UTC 2022,e100638c1a39,NSR,54,NONE,20001.171.50,2.10.0,Charge 5,[-5303  -5974  -6252  -5977  -5291  -4558  -4110  -4093  -4568  -5520  -6716  -7743  -8306  -8384  -8067  -7430  -6666  -6072  -5805  -5827  -6071  -6471  -6896  -7227  -7436  -7541  -7557  -7504  -7376  -7145  -6861  -6659  -6635  -6784  -7029  -7222  -7129  -6515  -5363  -3965  -2723  -1866  -1307  -868  -538  -367  -257  -42  322  835  1644  2857  4276  5640  6927  8154  9341  10649  12056  13259  14161  14953  15746  16448  16929  17165  17253  17314  17379  17386  17271  17066  16866  16723  16614  16503  16389  16285  16207  16162  16144  16139  16145  16172  16234  16317  16387  16420  16405  16330  16208  16051  15862  15698  15591  15443  15208  15013  14926  14852  14740  14607  14332  13770  12977  12151  11520  11179  11067  11066  11004  10715  10259  9896  9724  9602  9393  9080  8749  8502  8309  8014  7546  7050  6733  6645  6704  6871  7203  7729  8325  8793  9054  9140  9051  8762  8355  8000  7763  7586  7432  7313  7235  7194  7186  7200  7224  7239  7221  7157  7046  6857  6530  6066  5565  5148  4892  4790  4772  4760  4688  4496  4144  3671  3189  2817  2616  2527  2396  2098  1654  1156  623  87  -320  -525  -597  -654  -781  -1017  -1355  -1709  -1954  -2056  -2093  -2161  -2311  -2509  -2672  -2757  -2786  -2788  -2779  -2767  -2776  -2841  -2968  -3107  -3183  -3160  -3076  -2988  -2910  -2829  -2746  -2673  -2624  -2602  -2605  -2628  -2699  -2841  -3018  -3149  -3201  -3199  -3172  -3135  -3110  -3130  -3207  -3298  -3356  -3380  -3399  -3424  -3432  -3388  -3296  -3192  -3107  -3035  -2962  -2893  -2841  -2804  -2780  -2765  -2748  -2721  -2690  -2655  -2601  -2543  -2545  -2656  -2835  -2968  -2982  -2890  -2759  -2652  -2579  -2521  -2491  -2506  -2555  -2614  -2685  -2740  -2692  -2474  -2057  -1457  -849  -382  54  613  1254  1823  2062  1657  494  -1159  -2866  -4358  -5513  -6210  -6396  -6101  -5441  -4745  -4336  -4222  -4224  -4226  -4208  -4173  -4122  -4077  -4055  -4045  -4044  -4054  -4071  -4081  -4085  -4096  -4134  -4191  -4232  -4234  -4204  -4155  -4098  -4031  -3961  -3928  -3946  -3979  -3984  -3953  -3910  -3877  -3849  -3791  -3688  -3563  -3440  -3303  -3110  -2859  -2590  -2332  -2122  -1999  -1961  -1956  -1934  -1861  -1730  -1564  -1405  -1291  -1229  -1203  -1181  -1144  -1084  -1010  -957  -971  -1100  -1347  -1645  -1925  -2155  -2323  -2441  -2567  -2780  -3115  -3482  -3729  -3810  -3812  -3823  -3867  -3941  -4028  -4083  -4076  -4018  -3926  -3794  -3590  -3324  -3078  -2934  -2892  -2895  -2898  -2895  -2913  -2970  -3040  -3068  -3003  -2841  -2639  -2469  -2342  -2229  -2121  -2035  -1969  -1903  -1800  -1635  -1451  -1322  -1249  -1163  -1040  -955  -972  -1033  -1048  -1015  -980  -950  -899  -811  -694  -543  -348  -114  139  413  709  994  1217  1367  1477  1569  1593  1526  1461  1449  1443  1427  1426  1454  1519  1606  1701  1791  1835  1793  1693  1578  1472  1406  1387  1382  1366  1346  1339  1331  1274  1138  971  852  802  784  754  689  601  525  478  453  435  410  380  351  322  293  271  260  231  133  -19  -139  -165  -97  30  180  309  384  400  386  372  390  471  609  765  911  1044  1160  1247  1320  1410  1513  1595  1651  1746  2003  2517  3213  3845  4223  4368  4407  4425  4422  4375  4308  4253  4205  4135  4006  3769  3397  2987  2716  2645  2672  2652  2495  2229  1981  1848  1824  1888  2039  2237  2391  2449  2403  2244  1994  1716  1453  1223  1042  910  795  669  514  327  143  21  -26  -51  -129  -306  -536  -715  -797  -835  -912  -1043  -1165  -1232  -1191  -935  -343  582  1576  2240  2245  1404  -194  -2172  -4035  -5358  -5922  -5727  -4965  -3968  -3032  -2300  -1844  -1702  -1799  -1978  -2105  -2146  -2142  -2130  -2128  -2153  -2219  -2307  -2376  -2405  -2403  -2381  -2344  -2304  -2288  -2304  -2339  -2369  -2382  -2373  -2333  -2254  -2151  -2058  -2009  -1988  -1925  -1772  -1573  -1418  -1330  -1274  -1231  -1204  -1195  -1196  -1199  -1202  -1201  -1197  -1189  -1169  -1122  -1033  -904  -760  -639  -568  -552  -608  -753  -942  -1083  -1149  -1191  -1241  -1283  -1310  -1362  -1475  -1620  -1734  -1837  -2024  -2348  -2747  -3072  -3193  -3118  -2997  -2941  -2925  -2903  -2872  -2857  -2887  -2950  -2996  -3001  -2973  -2931  -2893  -2864  -2831  -2778  -2708  -2647  -2606  -2574  -2522  -2413  -2220  -1948  -1623  -1280  -961  -707  -510  -349  -206  -31  194  405  519  521  447  348  280  284  376  533  705  841  893  825  661  508  479  568  686  783  860  911  929  923  894  835  763  727  763  863  981  1072  1114  1114  1098  1087  1083  1079  1072  1070  1095  1157  1230  1273  1277  1262  1253  1253  1266  1301  1360  1452  1530  1474  1272  1073  977  969  1058  1275  1560  1773  1866  1894  1908  1921  1947  1996  2062  2126  2164  2179  2207  2286  2423  2578  2680  2703  2680  2648  2615  2580  2549  2537  2571  2664  2785  2872  2907  2924  2965  3051  3173  3288  3354  3372  3358  3318  3249  3153  3030  2888  2762  2713  2767  2879  2967  2967  2855  2679  2533  2475  2553  2817  3213  3582  3826  3918  3821  3597  3416  3396  3568  3894  4296  4747  5267  5767  5966  5598  4611  3170  1599  274  -594  -1043  -1236  -1276  -1084  -590  47  561  814  856  815  766  714  653  588  509  379  216  90  33  22  22  26  33  44  52  62  75  78  62  35  7  4  52  169  349  527  643  718  824  978  1124  1210  1234  1238  1274  1366  1492  1607  1690  1746  1782  1800  1807  1813  1821  1830  1840  1853  1851  1782  1596  1337  1111  973  886  818  774  743  654  417  55  -279  -474  -549  -583  -680  -927  -1266  -1512  -1544  -1383  -1142  -954  -869  -849  -849  -850  -849  -844  -842  -862  -921  -1005  -1090  -1172  -1253  -1308  -1325  -1321  -1324  -1353  -1407  -1484  -1604  -1773  -1937  -2036  -2054  -2003  -1893  -1761  -1665  -1627  -1624  -1616  -1573  -1494  -1403  -1328  -1279  -1235  -1166  -1083  -1026  -1024  -1069  -1134  -1198  -1279  -1383  -1446  -1377  -1162  -891  -689  -596  -567  -558  -566  -600  -659  -724  -776  -799  -794  -779  -762  -744  -716  -642  -500  -336  -220  -169  -170  -220  -313  -408  -470  -496  -521  -560  -594  -599  -573  -533  -497  -470  -447  -432  -428  -429  -428  -420  -417  -452  -560  -711  -827  -872  -875  -881  -906  -942  -971  -975  -939  -864  -783  -746  -775  -826  -855  -864  -873  -890  -894  -836  -677  -466  -309  -250  -267  -364  -583  -894  -1168  -1301  -1314  -1286  -1286  -1357  -1498  -1647  -1741  -1778  -1796  -1812  -1835  -1883  -1963  -2055  -2135  -2197  -2243  -2223  -2057  -1766  -1373  -766  3  683  1177  1471  1404  853  -106  -1366  -2824  -4185  -5099  -5402  -5046  -4135  -3020  -2107  -1627  -1489  -1411  -1212  -881  -523  -275  -170  -132  -82  -14  30  48  67  101  142  199  278  365  431  449  416  366  359  430  557  688  779  812  807  795  786  774  757  743  737  736  733  735  773  884  1050  1199  1276  1289  1278  1275  1286  1299  1289  1237  1146  1040  939  856  791  721  632  534  446  369  279  161  42  -29  -48  -42  -35  -36  -39  -33  -7  35  62  55  32  19  20  21  5  -30  -51  0  134  276  350  356  343  341  341  322  283  245  209  170  182  292  456  577  620  626  633  640  624  567  487  429  410  414  425  445  488  544  599  653  715  768  794  802  809  830  860  884  879  828  714  553  399  289  228  206  213  219  164  -3  -232  -399  -452  -429  -380  -333  -307  -324  -411  -568  -760  -933  -1039  -1062  -1007  -893  -788  -751  -757  -741  -679  -610  -583  -596  -597  -565  -520  -480  -446  -417  -383  -330  -271  -226  -151  20  262  453  511  418  183  -90  -214  -59  316  704  930  984  955  913  877  845  830  847  887  944  1035  1181  1352  1482  1539  1547  1541  1533  1532  1567  1671  1839  2010  2136  2212  2235  2180  2031  1828  1663  1597  1602  1586  1452  1186  889  680  593  563  492  350  189  68  -50  -267  -590  -918  -1172  -1380  -1618  -1890  -2107  -2208  -2223  -2205  -2177  -2150  -2141  -2168  -2234  -2343  -2510  -2739  -3004  -3260  -3456  -3556  -3582  -3577  -3555  -3489  -3353  -3157  -2952  -2796  -2717  -2692  -2673  -2636  -2624  -2705  -2835  -2832  -2481  -1709  -664  384  1156  1424  1082  194  -1039  -2391  -3721  -4941  -5829  -6096  -5667  -4691  -3542  -2742  -2505  -2583  -2686  -2721  -2677  -2517  -2196  -1715  -1148  -609  -190  116  388  667  928  1171  1449  1753  1991  2120  2187  2270  2419  2626  2830  2987  3088  3147  3175  3179  3164  3136  3114  3105  3105  3116  3173  3315  3521  3704  3807  3854  3907  4005  4127  4233  4310  4379  4460  4552  4629  4653  4540  4207  3692  3161  2758  2521  2410  2338  2217  1987  1664  1351  1156  1091  1087  1086  1071  1029  944  811  645  456  250  49  -103  -181  -202  -217  -267  -343  -396  -370  -243  -58  86  142  130  84  30  -6  -21  -16  17  92  189  260  285  284  284  298  315  291  172  -31  -240  -387  -466  -497  -498  -488  -482  -489  -511  -538  -556  -562  -562  -556  -547  -539  -546  -584  -647  -705  -747  -780  -806  -822  -835  -855  -897  -954  -1000  -1027  -1044  -1075  -1130  -1192  -1227  -1229  -1213  -1198  -1191  -1185  -1182  -1215  -1321  -1478  -1608  -1662  -1654  -1629  -1614  -1602  -1570  -1516  -1447  -1375  -1312  -1256  -1195  -1130  -1062  -992  -931  -905  -917  -940  -953  -970  -1014  -1077  -1118  -1118  -1103  -1128  -1230  -1378  -1488  -1508  -1445  -1335  -1216  -1101  -984  -865  -754  -672  -629  -610  -572  -479  -343  -214  -133  -93  -79  -83  -101  -134  -180  -234  -301  -374  -423  -426  -386  -331  -291  -280  -288  -299  -295  -253  -175  -86  -12  49  116  193  267  318  330  304  259  214  179  155  138  124  116  110  103  92  79  61  21  -32  -57  -36  -19  -49  -83  -72  -38  -27  -31  -17  26  86  136  153  105  -35  -233  -395  -470  -435  -221  251  1024  2078  3214  4005  4103  3408  2034  406  -934  -1803  -2255  -2287  -1978  -1518  -995  -448  38  441  772  980  1042  1032  1044  1127  1250  1341  1368  1359  1353  1386  1477  1606  1738  1880  2052  2220  2336  2376  2353  2313  2293  2293  2293  2278  2242  2193  2142  2112  2125  2183  2262  2323  2344  2343  2352  2368  2367  2349  2344  2387  2471  2561  2629  2672  2709  2760  2817  2860  2881  2882  2875  2863  2839  2776  2642  2455  2270  2104  1928  1738  1568  1423  1264  1073  900  797  764  733  607  341  25  -197  -286  -322  -411  -594  -826  -1022  -1131  -1180  -1233  -1320  -1438  -1563  -1652  -1658  -1551  -1363  -1185  -1095  -1123  -1265  -1465  -1633  -1700  -1623  -1386  -1080  -869  -810  -835  -877  -935  -1058  -1266  -1494  -1642  -1682  -1662  -1638  -1650  -1738  -1928  -2182  -2412  -2560  -2644  -2706  -2750  -2752  -2714  -2662  -2609  -2563  -2549  -2586  -2657  -2751  -2894  -3087  -3260  -3359  -3400  -3408  -3390  -3362  -3336  -3311  -3293  -3298  -3328  -3370  -3400  -3411  -3419  -3417  -3351  -3167  -2908  -2679  -2509  -2331  -2091  -1838  -1665  -1596  -1572  -1519  -1402  -1258  -1144  -1061  -985  -923  -874  -815  -732  -645  -563  -458  -307  -114  102  309  468  583  670  742  809  867  911  959  1004  1030  1037  1041  1065  1150  1320  1521  1652  1655  1547  1401  1304  1277  1255  1163  985  794  674  642  648  635  595  556  516  444  335  232  163  102  -6  -168  -323  -418  -452  -432  -332  -176  -95  -157  -143  203  851  1661  2568  3401  3927  4017  3596  2674  1408  26  -1189  -1953  -2076  -1521  -517  472  1068  1222  1174  1148  1192  1283  1395  1501  1580  1628  1661  1709  1776  1848  1923  1995  2044  2080  2138  2214  2273  2294  2294  2284  2255  2191  2110  2047  2007  1981  1984  2026  2100  2183  2246  2275  2281  2291  2317  2353  2384  2409  2437  2464  2483  2494  2492  2457  2373  2265  2186  2153  2134  2086  1978  1779  1490  1197  999  907  866  820  719  563  418  338  277  152  -37  -221  -372  -508  -610  -644  -619  -586  -589  -648  -751  -874  -1004  -1128  -1223  -1274  -1260  -1163  -1018  -896  -831  -808  -801  -815  -879  -1011  -1184  -1333  -1412  -1428  -1419  -1410  -1404  -1402  -1407  -1428  -1472  -1555  -1686  -1833  -1938  -1983  -1996  -2010  -2040  -2057  -2011  -1890  -1755  -1694  -1729  -1793  -1820  -1823  -1867  -2003  -2206  -2391  -2495  -2522  -2516  -2518  -2546  -2594  -2625  -2573  -2394  -2144  -1953  -1872  -1856  -1858  -1863  -1866  -1857  -1828  -1782  -1724  -1660  -1603  -1554  -1502  -1455  -1420  -1369  -1279  -1173  -1108  -1149  -1321  -1558  -1734  -1791  -1775  -1757  -1803  -1950  -2152  -2299  -2326  -2238  -2084  -1932  -1816  -1708  -1587  -1483  -1416  -1373  -1357  -1358  -1336  -1286  -1251  -1241  -1232  -1218  -1205  -1194  -1187  -1191  -1218  -1260  -1292  -1302  -1295  -1281  -1251  -1181  -1069  -951  -866  -838  -892  -1030  -1221  -1418  -1568  -1654  -1700  -1707  -1657  -1568  -1479  -1421  -1400  -1400  -1379  -1309  -1209  -1131  -1086  -1055  -1054  -1127  -1254  -1359  -1405  -1406  -1363  -1255  -1106  -975  -878  -786  -687  -584  -456  -292  -148  -90  -134  -248  -380  -488  -569  -650  -751  -852  -916  -933  -928  -928  -950  -993  -1047  -1087  -1076  -992  -857  -724  -624  -550  -479  -408  -316  -152  98  387  679  1042  1639  2545  3607  4514  4931  4703  3900  2661  1162  -299  -1406  -1935  -1735  -874  220  1079  1554  1751  1865  2099  2515  2974  3324  3556  3734  3893  4048  4193  4302  4358  4375  4376  4361  4307  4200  4067  3949  3834  3671  3475  3322  3252  3240  3253  3287  3357  3447  3516  3553  3585  3619  3646  3679  3743  3830  3899  3930  3943  3964  3999  4021  3976  3825  3616  3455  3394  3402  3430  3448  3414  3274  3029  2766  2582  2492  2435  2338  2179  1974  1740  1492  1220  917  619  368  173  14  -122  -261  -451  -688  -899  -1037  -1140  -1282  -1472  -1649  -1768  -1813  -1761  -1603  -1377  -1166  -1030  -966  -943  -971  -1086  -1285  -1500  -1656  -1733  -1758  -1775  -1801  -1804  -1714  -1474  -1101  -691  -329  -18  285  610  932  1189  1329  1379  1416  1473  1526  1557  1565  1522  1391  1198  1036  965  977  1049  1158  1269  1359  1441  1546  1670  1768  1818  1844  1866  1876  1854  1798  1729  1678  1655  1647  1632  1602  1559  1518  1493  1489  1491  1476  1432  1374  1322  1292  1286  1293  1302  1308  1313  1313  1293  1217  1053  854  748  803  941  1018  947  770  596  498  466  462  469  487  535  614  681  703  669  596  521  464  418  394  419  509  646  770  831  813  724  606  518  477  473  505  564  593  549  464  412  420  458  500  551  598  600  531  418  317  257  231  229  237  225  151  12  -117  -155  -107  -48  -22  -25  -35  -35  -5  58  120  112  8  -120  -184  -181  -155  -107  10  225  485  688  789  824  842  869  892  882  812  650  392  116  -64  -128  -150  -184  -215  -228  -243  -283  -353  -451  -592  -746  -839  -837  -780  -736  -739  -788  -869  -884  -620  81  1150  2271  3129  3623  3694  3230  2194  637  -1266  -3174  -4718  -5648  -5854  -5472  -4823  -4117  -3449  -2985  -2807  -2759  -2633  -2371  -2089  -1920  -1878  -1883  -1863  -1792  -1697  -1639  -1666  -1767  -1882  -1984  -2096  -2197  -2247  -2259  -2265  -2278  -2303  -2338  -2367  -2361  -2283  -2128  -1951  -1825  -1784  -1806  -1845  -1872  -1889  -1893  -1839  -1681  -1462  -1296  -1233  -1235  -1254  -1267  -1252  -1188  -1075  -943  -831  -768  -753  -757  -756  -744  -736  -775  -901  -1093  -1299  -1530  -1798  -2043  -2229  -2382  -2516  -2630  -2761  -2953  -3188  -3418  -3625  -3806  -3938  -3999  -4008  -4000  -3994  -3995  -4015  -4070  -4145  -4198  -4211  -4195  -4183  -4226  -4362  -4551  -4699  -4777  -4828  -4876  -4903  -4904  -4896  -4910  -4980  -5110  -5275  -5443  -5578  -5648  -5660  -5649  -5653  -5709  -5836  -5998  -6127  -6186  -6189  -6169  -6164  -6213  -6350  -6559  -6762  -6879  -6911  -6920  -6944  -6981  -7024  -7078  -7123  -7140  -7140  -7147  -7186  -7259  -7336  -7409  -7508  -7605  -7602  -7414  -7057  -6662  -6329  -6015  -5659  -5213  -4588  -3853  -3274  -2991  -2903  -2858  -2734  -2398  -1799  -1040  -247  487  1068  1510  1947  2439  2906  3261  3536  3830  4203  4639  5047  5366  5664  6064  6565  7034  7355  7517  7576  7596  7605  7635  7742  7940  8150  8294  8389  8531  8790  9133  9471  9802  10168  10547  10961  11444  11886  12188  12358  12360  12139  11734  11253  10815  10527  10419  10372  10235  10001  9780  9605  9390  9101  8834  8685  8649  8677  8740  8831  8935  9024  9050  8966  8764  8495  8242  8054  7897  7702  7453  7179  6847  6389  5881  5513  5333  5218  5079  4908  4691  4390  4046  3760  3566  3434  3349  3317  3327  3374  3450  3459  3281  3015  2868  2851  2970  3355  3994  4726  5387  5743  5468  4391  2713  829  -921  -2290  -3158  -3541  -3510  -3207  -2775  -2274  -1785  -1448  -1307  -1296  -1346  -1416  -1492  -1564  -1644  -1816  -2167  -2608  -2926  -3052  -3109  -3225  -3438  -3697  -3909  -4028  -4109  -4238  -4454  -4741  -5041  -5295  -5497  -5679  -5848  -5968  -6013  -5990  -5919  -5845  -5807  -5798  -5785  -5758  -5760  -5846  -5998  -6133  -6201  -6220  -6220  -6214  -6209  -6204  -6195  -6183  -6178  -6199  -6252  -6327  -6429  -6602  -6864  -7147  -7368  -7493  -7546  -7576  -7610  -7595  -7404  -6971  -6421  -5960  -5654  -5453  -5324  -5248  -5162  -4951  -4546  -4032  -3604  -3371  -3286  -3259  -3239  -3161  -2908  -2426  -1853  -1390  -1075  -821  -568  -324  -120  45  250  592  1078  1585  1968  2207  2398  2591  2759  2895  3014  3103  3175  3287  3481  3776  4164  4544  4781  4859  4856  4833  4814  4792  4736  4642  4548  4489  4461  4431  4364  4231  4011  3714  3385  3079  2826  2631  2507  2434  2342  2190  1977  1732  1523  1398  1332  1244  1080  864  657  492  385  329  297  263  198  77  -110  -312  -447  -489  -482  -472  -465  -452  -434  -440  -502  -603  -700  -764  -789  -792  -811  -882  -1001  -1115  -1177  -1192  -1194  -1195  -1168  -1077  -924  -742  -554  -380  -247  -165  -119  -51  96  295  445  498  489  466  438  378  271  150  61  8  -35  -74  -70  6  127  241  331  393  410  395  384  407  472  542  580  587  568  508  388  235  131  158  349  636  888  1028  1058  1020  968  943  963  1032  1132  1237  1326  1397  1462  1495  1458  1380  1319  1280  1241  1171  1048  883  712  581  518  509  504  474  414  348  303  276  242  190  106  -52  -304  -603  -813  -796  -584  -339  -148  98  610  1448  2482  3446  3890  3496  2429  1060  -392  -1781  -2972  -3859  -4266  -4014  -3182  -2178  -1453  -1110  -922  -729  -574  -506  -471  -411  -339  -272  -200  -126  -59  27  153  290  387  422  420  409  395  387  409  494  623  727  755  726  698  711  756  838  993  1190  1336  1392  1396  1388  1381  1380  1383  1390  1401  1428  1488  1572  1646  1704  1781  1882  1969  2016  2024  2012  2005  2034  2119  2223  2286  2301  2259  2092  1771  1414  1173  1071  1043  1045  1059  1087  1144  1196  1196  1151  1080  1006  970  963  948  922  902  890  876  843  779  711  686  713  750  762  741  691  613  524  477  510  599  691  754  777  724  553  304  82  -64  -155  -217  -266  -316  -369  -417  -450  -460  -440  -390  -334  -319  -362  -431  -498  -558  -582  -530  -420  -310  -243  -243  -325  -471  -631  -782  -930  -1058  -1138  -1179  -1216  -1276  -1375  -1492  -1578  -1617  -1633  -1644  -1653  -1669  -1711  -1787  -1876  -1931  -1950  -1954  -1930  -1873  -1825  -1832  -1899  -1981  -2027  -2038  -2050  -2083  -2122  -2148  -2159  -2166  -2171  -2150  -2070  -1928  -1758  -1600  -1504  -1513  -1578  -1591  -1519  -1426  -1359  -1292  -1179  -1038  -942  -925  -952  -972  -933  -796  -592  -414  -323  -304  -313  -329  -347  -363  -366  -356  -323  -238  -90  67  163  169  107  18  -65  -138  -208  -284  -365  -448  -548  -656  -731  -755  -749  -734  -705  -665  -639  -675  -806  -988  -1125  -1172  -1144  -1065  -970  -904  -881  -880  -886  -914  -987  -1094  -1178  -1210  -1213  -1216  -1222  -1230  -1237  -1215  -1125  -963  -777  -619  -510  -447  -408  -379  -386  -464  -598  -734  -851  -977  -1107  -1189  -1188  -1114  -1013  -916  -775  -520  -198  48  150  151  116  85  100  241  533  847  1044  1136  1199  1355  1822  2687  3736  4669  5282  5426  5004  4073  2861  1624  540  -313  -949  -1322  -1256  -763  -203  157  367  520  611  630  611  589  602  691  852  1009  1077  1054  996  926  839  744  660  598  564  556  558  549  523  507  538  613  715  831  939  1005  1025  1024  1034  1066  1105  1118  1093  1046  981  884  756  635  564  576  672  813  947  1041  1089  1115  1130  1095  958  735  498  289  88  -151  -436  -705  -904  -1057  -1225  -1417  -1598  -1738  -1857  -2033  -2323  -2650  -2863  -2892  -2777  -2611  -2478  -2405  -2362  -2313  -2229  -2097  -1946  -1843  -1840  -1954  -2152  -2346  -2475  -2554  -2614  -2650  -2651  -2629  -2609  -2587  -2509  -2337  -2125  -1978  -1926  -1914  -1890  -1840  -1765  -1673  -1576  -1479  -1378  -1277  -1190  -1112  -1028  -932  -818  -696  -592  -525  -497  -508  -558  -648  -747  -798  -760  -638  -456  -235  -24  113  184  270  448  729  1049  1328  1543  1701  1785  1757  1619  1439  1309  1257  1269  1362  1555  1786  1959  2051  2094  2096  2059  1988  1908  1862  1858  1847  1792  1705  1593  1431  1231  1072  1004  1025  1124  1278  1430  1549  1666  1795  1881  1890  1858  1831  1822  1823  1833  1857  1890  1918  1928  1909  1853  1775  1713  1693  1723  1791  1845  1840  1775  1681  1618  1631  1686  1715  1691  1623  1562  1555  1590  1627  1634  1569  1386  1086  762  539  457  454  455  410  302  164  46  -35  -104  -171  -236  -307  -388  -470  -529  -539  -459  -258  9  229  337  342  261  96  -122  -350  -574  -811  -1071  -1342  -1580  -1700  -1647  -1504  -1473  -1581  -1508  -925  160  1373  2172  2258  1737  830  -286  -1445  -2613  -3753  -4558  -4700  -4164  -3212  -2259  -1615  -1290  -1123  -973  -786  -570  -336  -115  52  162  250  345  462  604  756  891  1004  1114  1233  1330  1352  1306  1240  1215  1303  1516  1761  1940  2046  2119  2200  2281  2305  2237  2131  2106  2232  2438  2587  2635  2632  2629  2639  2662  2695  2729  2758  2776  2787  2795  2803  2813  2824  2831  2809  2725  2583  2437  2317  2191  2020  1767  1414  1013  669  416  192  -44  -303  -590  -885  -1135  -1312  -1421  -1469  -1478  -1472  -1456  -1423  -1383  -1360  -1372  -1408  -1450  -1471  -1456  -1423  -1404  -1411  -1447  -1497  -1544  -1581  -1608  -1628  -1661  -1711  -1761  -1814  -1889  -1959  -1989  -1994  -2014  -2060  -2098  -2108  -2117  -2143  -2185  -2242  -2305  -2359  -2385  -2341  -2228  -2106  -2014  -1951  -1911  -1898  -1933  -2039  -2194  -2341  -2457  -2560  -2649  -2702  -2713  -2704  -2700  -2729  -2818  -2951  -3073  -3150  -3171  -3141  -3098  -3074  -3072  -3079  -3078  -3025  -2869  -2629  -2412  -2288  -2236  -2196  -2134  -2063  -2020  -2012  -2017  -2024  -2036  -2061  -2095  -2118  -2097  -1993  -1777  -1509  -1320  -1262  -1278  -1304  -1295  -1215  -1061  -870  -707  -622  -601  -573  -492  -357  -204  -84  -15  33  77  98  71  -11  -123  -216  -251  -225  -173  -123  -74  -8  87  269  601  1017  1355  1538  1610  1652  1731  1880  2068  2231  2307  2217  1969  1755  1749  1912  2210  2783  3652  4600  5371  5658  5148  3874  2301  920  -80  -724  -1062  -1148  -989  -530  142  749  1073  1136  1088  1035  1001  971  938  919  927  947  953  925  864  799  771  801  873  945  986  995  982  951  907  858  806  768  784  867  981  1080  1142  1171  1189  1222  1264  1292  1313  1389  1571  1813  1999  2082  2105  2104  2082  2052  2024  1999  1979  1977  2020  2111  2192  2182  2081  1953  1841  1730  1612  1495  1356  1164  937  721  553  424  286  116  -54  -185  -270  -336  -420  -535  -676  -825  -954  -1046  -1124  -1203  -1260  -1288  -1317  -1374  -1454  -1533  -1609  -1693  -1769  -1816  -1841  -1867  -1916  -1990  -2068  -2126  -2165  -2203  -2241  -2247  -2162  -1944  -1655  -1423  -1297  -1229  -1161  -1065  -916  -680  -360  -33  197  314  370  403  427  453  490  524  529  509  493  496  525  593  699  804  869  893  900  901  890  870  847  785  635  432  277  202  148  78  1  -79  -164  -233  -285  -351  -434  -510  -577  -636  -674  -687  -685  -671  -643  -612  -618  -682  -749  -762  -734  -706  -695  -694  -686  -679  -705  -787  -909  -1010  -1008  -879  -666  -447  -299  -249  -261  -288  -305  -312  -313  -309  -303  -298  -308  -345  -396  -438  -449  -391  -209  96  441  725  910  1007  1049  1068  1092  1140  1199  1225  1180  1058  875  649  401  162  -35  -177  -251  -246  -168  -36  125  287  418  493  510  472  374  234  106  28  -13  -44  -61  -48  1  68  111  91  -6  -109  -33  396  1164  2078  2935  3573  3887  3823  3316  2327  951  -606  -2063  -3071  -3404  -3128  -2521  -1871  -1307  -859  -583  -485  -482  -498  -513  -511  -444  -260  -4  213  355  461  563  665  768  865  947  1014  1084  1162  1215  1206  1126  1014  932  903  907  916  919  905  843  704  534  422  376  344  316  312  341  416  537  689  853  995  1088  1131  1144  1152  1174  1203  1205  1151  1051  943  858  807  786  779  769  751  715  611  355  -29  -375  -550  -581  -561  -543  -543  -589  -733  -960  -1167  -1289  -1356  -1407  -1451  -1476  -1486  -1502  -1538  -1600  -1687  -1780  -1848  -1876  -1870  -1828  -1766  -1721  -1708  -1687  -1573  -1322  -1005  -758  -646  -611  -567  -504  -467  -467  -470  -433  -346  -247  -178  -137  -100  -61  -26  1  29  49  59  95  197  346  474  545  579  593  585  556  516  470  421  379  338  282  213  165  181  250  308  297  220  125  63  44  42  30  -1  -43  -75  -96  -123  -162  -198  -219  -225  -228  -231  -222  -181  -110  -30  55  166  308  441  494  437  323  235  205  207  218  235  261  300  349  404  444  443  411  384  375  353  283  189  139  166  226  250  223  184  160  153  171  242  361  474  522  500  453  415  376  308  223  161  143  150  147  93  -50  -275  -502  -646  -692  -685  -672  -673  -692  -717  -731  -733  -729  -722  -719  -733  -777  -841  -890  -883  -800  -652  -494  -377  -322  -311  -309  -291  -262  -236  -215  -185  -129  -37  67  131  132  97  69  63  67  56  13  -60  -145  -221  -293  -375  -471  -544  -544  -478  -397  -328  -268  -231  -246  -325  -439  -535  -593  -626  -646  -678  -760  -883  -956  -900  -769  -612  -311  268  1102  2085  3054  3652  3512  2605  1197  -388  -1844  -2911  -3461  -3493  -3091  -2457  -1833  -1335  -997  -836  -794  -769  -724  -682  -653  -618  -573  -544  -556  -605  -652  -670  -667  -650  -623  -592  -561  -545  -553  -576  -594  -579  -507  -394  -272  -145  16  204  355  449  530  630  743  858  966  1061  1155  1285  1437  1549  1593  1601  1596  1583  1566  1560  1569  1585  1588  1558  1476  1336  1182  1082  1040  973  800  544  304  131  -4  -130  -235  -308  -358  -398  -436  -478  -546  -660  -796  -900  -950  -971  -983  -997  -1027  -1089  -1171  -1239  -1270  -1256  -1199  -1122  -1067  -1045  -1037  -1021  -976  -873  -721  -583  -535  -608  -773  -956  -1090  -1141  -1103  -989  -842  -721  -649  -613  -589  -566  -546  -534  -531  -535  -544  -554  -563  -568  -574  -572  -544  -480  -415  -410  -473  -566  -661  -759  -846  -883  -849  -771  -702  -673  -678  -702  -725  -709  -621  -476  -340  -268  -256  -258  -221  -130  -18  69  119  137  135  116  87  49  10  -14  7  111  299  504  633  659  619  558  519  552  691  898  1071  1153  1174  1180  1193  1225  1297  1416  1567  1726  1867  1979  2096  2239  2383  2504  2599  2656  2656  2589  2465  2319  2189  2097  2048  2031  2031  2035  2036  2023  1997  1981  2002  2076  2206  2356  2463  2496  2484  2464  2445  2428  2416  2398  2359  2305  2257  2223  2197  2180  2177  2184  2195  2207  2220  2227  2221  2194  2141  2077  2043  2046  2036  1976  1853  1634  1334  1073  946  928  943  948  930  866  716  487  250  60  -70  -150  -199  -239  -280  -318  -369  -462  -608  -794  -989  -1172  -1365  -1571  -1720  -1752  -1616  -1222  -519  403  1349  2069  2301  1921  1058  -82  -1326  -2462  -3282  -3674  -3605  -3173  -2612  -2110  -1715  -1442  -1290  -1195  -1109  -1041  -1015  -1048  -1142  -1265  -1360  -1407  -1411  -1379  -1334  -1313  -1335  -1378  -1405  -1408  -1403  -1374  -1272  -1079  -858  -696  -626  -616  -610  -569  -489  -408  -359  -295  -121  191  540  778  858  833  769  719  715  746  781  804  819  816  772  700  637  597  547  459  355  271  193  64  -153  -430  -675  -843  -990  -1209  -1540  -1946  -2335  -2628  -2791  -2842  -2840  -2847  -2908  -3036  -3182  -3284  -3323  -3326  -3313  -3279  -3207  -3101  -2996  -2919  -2857  -2782  -2683  -2585  -2524  -2509  -2503  -2466  -2394  -2301  -2185  -2051  -1937  -1877  -1862  -1864  -1860  -1822  -1716  -1538  -1331  -1149  -1004  -861  -699  -533  -374  -211  -48  81  153  176  169  142  95  40  -10  -48  -71  -76  -55  4  122  306  495  593  576  506  426  354  308  291  284  275  266  258  246  223  193  176  193  251  339  439  523  577  612  654  716  794  883  985  1098  1201  1262  1274  1259  1238  1208  1150  1061  954  833  690  523  368  270  228  205  177  152  147  150  139  115  95  84  77  72  73  88  115  143  161  165  158  138  107  75  49  18  -28  -88  -153  -204  -213  -174  -112  -58  -28  -6  34  88  125  142  169  236  341  451  524  565  642  829  1111  1383  1563  1644  1638  1562  1441  1293  1146  1035  961  899  822  726  622  526  449  381  302  214  143  109  113  137  157  171  195  230  236  137  -70  -236  -232  -63  305  936  1776  2679  3412  3695  3417  2680  1587  223  -1229  -2518  -3301  -3314  -2638  -1636  -760  -309  -214  -244  -273  -285  -300  -323  -342  -345  -314  -237  -133  -50  -11  -4  -11  -19  -32  -51  -54  -3  112  254  363  416  442  467  497  523  536  510  451  399  380  381  387  416  515  693  885  1016  1070  1074  1064  1079  1150  1267  1377  1447  1481  1493  1481  1412  1264  1083  947  879  849  815  733  561  297  -18  -326  -576  -761  -917  -1095  -1308  -1520  -1684  -1770  -1769  -1688  -1561  -1433  -1328  -1248  -1169  -1058  -921  -802  -725  -680  -641  -592  -548  -525  -505  -419  -222  19  181  230  236  275  350  414  438  453  505  593  663  671  611  502  368  224  99  14  -44  -100  -169  -266  -393  -519  -624  -700  -735  -727  -689  -655  -657  -685  -692  -658  -612  -580  -540  -453  -329  -228  -170  -129  -92  -63  -38  7  69  120  144  142  106  44  -18  -58  -62  -26  26  75  150  296  482  617  656  629  580  524  460  385  295  198  117  84  158  405  775  1103  1302  1422  1523  1608  1670  1716  1757  1826  1970  2188  2417  2618  2785  2904  2965  2982  2974  2924  2793  2590  2364  2133  1872  1577  1271  992  789  679  607  514  408  329  271  173  -1  -202  -345  -407  -422  -435  -478  -562  -689  -857  -1025  -1121  -1127  -1086  -1046  -1012  -965  -899  -836  -791  -753  -700  -612  -483  -333  -204  -121  -94  -170  -423  -811  -1155  -1332  -1376  -1388  -1430  -1496  -1550  -1566  -1560  -1573  -1645  -1785  -1953  -2094  -2177  -2220  -2270  -2336  -2383  -2375  -2301  -2167  -1893  -1335  -503  420  1281  1973  2360  2301  1713  648  -687  -2052  -3190  -3803  -3771  -3235  -2406  -1543  -932  -645  -508  -383  -272  -200  -136  -49  32  51  11  -48  -107  -157  -186  -188  -168  -140  -116  -99  -89  -84  -83  -85  -94  -112  -130  -134  -107  -54  -11  3  29  100  202  306  390  434  446  446  462  525  654  820  964  1052  1089  1094  1085  1070  1046  1008  951  872  788  729  709  715  726  719  670  558  383  187  35  -49  -90  -110  -114  -100  -80  -56  -19  21  44  51  84  189  348  493  571  570  503  392  270  165  77  -3  -63  -90  -97  -100  -114  -140  -192  -287  -409  -494  -501  -442  -365  -287  -189  -89  -33  -21  -27  -33  -31  -14  14  34  15  -56  -142  -199  -230  -258  -270  -248  -206  -180  -187  -214  -244  -271  -299  -331  -364  -390  -406  -417  -419  -391  -306  -190  -107  -101  -166  -263  -343  -383  -373  -312  -228  -174  -174  -222  -295  -382  -476  -530  -502  -410  -318  -276  -304  -396  -540  -729  -940  -1112  -1197  -1206  -1174  -1126  -1081  -1057  -1058  -1065  -1049  -982  -872  -743  -611  -488  -393  -319  -238  -143  -47  43  133  212  261  274  267  257  257  291  372  455  483  485  527  605  671  709  743  800  869  916  934  923  869  763  660  651  736  824  860  860  862  878  902  936  992  1064  1128  1179  1214  1226  1219  1205  1183  1133  1030  875  695  520  370  260  203  207  263  343  399  382  262  71  -102  -208  -262  -298  -330  -360  -390  -427  -489  -579  -637  -585  -352  165  984  1943  2845  3477  3559  2907  1614  -43  -1715  -3033  -3762  -3857  -3400  -2570  -1618  -802  -291  -90  -75  -124  -184  -237  -269  -273  -262  -246  -228  -213  -208  -234  -306  -404  -473  -463  -360  -206  -82  -30  -34  -63  -99  -130  -150  -153  -125  -42  117  323  508  644  722  713  630  540  492  487  513  577  682  788  852  871  868  863  865  868  876  929  1071  1268  1430  1522  1554  1543  1519  1513  1526  1533  1486  1350  1157  968  789  600  401  194  -22  -245  -462  -652  -776  -818  -802  -785  -849  -1074  -1432  -1776  -1980  -2044  -2036  -2025  -2072  -2210  -2401  -2573  -2711  -2823  -2892  -2907  -2890  -2871  -2866  -2874  -2893  -2925  -2966  -2990  -2949  -2798  -2529  -2220  -1998  -1909  -1887  -1840  -1734  -1579  -1387  -1164  -939  -741  -586  -492  -441  -330  -58  317  613  733  721  663  611  580  558  532  513  513  528  547  569  590  609  630  648  658  671  703  763  848  955  1079  1194  1267  1303  1329  1352  1343  1273  1157  1040  944  878  846  823  767  679  609  580  569  543  497  446  408  390  398  422  449  469  490  542  637  746  833  886  907  911  915  930  946  938  904  882  908  969  1014  992  906  819  788  821  915  1028  1083  1031  898  750  628  527  399  205  -24  -197  -270  -274  -244  -189  -125  -77  -58  -58  -63  -57  -33  1  28  40  44  42  23  -23  -60  -4  138  267  419  790  1477  2374  3172  3434  2891  1611  -71  -1706  -2957  -3725  -4046  -3917  -3359  -2589  -1884  -1369  -1065  -926  -863  -791  -678  -550  -454  -398  -363  -343  -336  -338  -339  -337  -333  -340  -374  -444  -543  -644  -722  -779  -826  -844  -809  -726  -639  -585  -571  -577  -586  -580  -544  -473  -369  -217  -27  141  245  304  369  460  572  733  970  1227  1416  1525  1601  1672  1727  1757  1780  1824  1885  1927  1926  1875  1793  1701  1610  1511  1369  1155  898  668  492  354  227  91  -59  -212  -343  -425  -460  -475  -477  -451  -391  -318  -268  -245  -214  -147  -51  48  140  213  243  218  164  124  110  107  97  72  38  12  10  48  126  213  263  261  225  179  137  112  111  141  203  285  364  428  474  496  486  450  395  327  242  151  80  45  30  14  -16  -71  -139  -194  -214  -186  -99  19  111  146  127  64  -33  -165  -342  -538  -691  -768  -788  -782  -771  -774  -818  -940  -1147  -1380  -1564  -1671  -1713  -1711  -1667  -1575  -1468  -1390  -1358  -1355  -1365  -1376  -1378  -1359  -1288  -1107  -786  -422  -186  -160  -299  -490  -622  -658  -635  -593  -546  -503  -495  -547  -630  -691  -715  -714  -700  -659  -569  -452  -359  -310  -292  -294  -312  -343  -381  -411  -410  -332  -155  62  225  296  301  259  170  63  -20  -63  -70  -17  128  329  482  526  465  321  154  30  -48  -141  -292  -504  -770  -1041  -1237  -1323  -1339  -1334  -1332  -1338  -1344  -1328  -1261  -1142  -1012  -918  -873  -858  -850  -853  -888  -925  -890  -695  -228  597  1691  2746  3448  3661  3377  2647  1632  522  -559  -1452  -1920  -1864  -1414  -796  -218  207  509  753  945  1070  1131  1150  1157  1161  1146  1098  1028  966  931  921  911  872  811  759  734  730  733  725  682  600  494  393  337  348  405  468  502  500  489  479  443  369  293  276  374  606  900  1140  1268  1314  1345  1400  1466  1513  1538  1562  1603  1653  1709  1774  1805  1749  1630  1518  1427  1281  1015  676  382  167  -20  -206  -372  -484  -531  -535  -532  -536  -535  -509  -442  -351  -279  -246  -244  -272  -344  -440  -514  -545  -549  -542  -528  -506  -483  -466  -450  -425  -388  -372  -408  -434  -379  -268  -146  -11  120  196  197  161  128  114  113  111  109  107  109  110  100  70  35  28  69  129  141  68  -50  -137  -161  -143  -114  -99  -134  -248  -417  -568  -660  -705  -732  -755  -774  -796  -839  -895  -937  -965  -1008  -1084  -1178  -1262  -1314  -1340  -1363  -1389  -1403  -1400  -1397  -1409  -1423  -1417  -1390  -1380  -1430  -1533  -1639  -1706  -1716  -1679  -1620  -1532  -1395  -1232  -1094  -989  -888  -776  -632  -439  -239  -107  -59  -53  -58  -77  -112  -151  -171  -134  0  226  454  564  540  482  471  509  605  815  1106  1351  1493  1579  1653  1747  1902  2094  2235  2286  2280  2241  2153  2013  1869  1779  1745  1733  1728  1742  1788  1854  1902  1907  1870  1808  1738  1669  1604  1548  1495  1440  1387  1345  1321  1322  1358  1422  1476  1481  1445  1400  1365  1340  1318  1289  1253  1208  1133  1008  823  594  366  184  52  -50  -153  -274  -391  -464  -480  -442  -346  -219  -122  -91  -107  -135  -153  -129  -48  63  145  132  -28  -296  -464  -265  427  1494  2629  3438  3620  3112  2030  571  -1014  -2471  -3547  -4042  -3926  -3360  -2581  -1827  -1272  -966  -835  -760  -669  -553  -425  -304  -226  -201  -202  -193  -163  -118  -57  28  125  193  218  220  221  225  218  184  111  8  -93  -168  -212  -234  -249  -262  -265  -228  -136  -34  9  -9  -48  -80  -103  -119  -135  -145  -159  -188  -216  -227  -228  -237  -260  -279  -269  -224  -138  -17  95  156  169  166  166  161  121  23  -109  -230  -331  -446  -580  -704  -787  -821  -817  -798  -770  -714  -603  -461  -366  -365  -437  -532  -609  -665  -721  -750  -705  -585  -432  -294  -201  -154  -130  -113  -102  -93  -89  -93  -92  -87  -90  -103  -117  -125  -131  -137  -146  -160  -181  -197  -192  -158  -90  -3  80  159  274  472  723  922  999  974  891  777  666  598  578  572  549  512  480  435  326  139  -58  -183  -218  -202  -175  -156  -150  -168  -222  -299  -375  -447  -515  -560  -573  -570  -569  -582  -607  -634  -653  -665  -681  -706  -734  -750  -741  -729  -738  -762  -796  -855  -928  -979  -993  -991  -1004  -1041  -1099  -1201  -1373  -1575  -1713  -1758  -1751  -1736  -1720  -1695  -1668  -1647  -1631  -1614  -1595  -1580  -1574  -1576  -1584  -1615  -1704  -1873  -2078  -2234  -2302  -2317  -2344  -2424  -2534  -2610  -2613  -2556  -2459  -2328  -2158  -1954  -1759  -1614  -1489  -1324  -1116  -901  -686  -467  -272  -123  20  210  412  547  590  584  571  584  659  850  1163  1492  1699  1746  1680  1551  1400  1255  1109  950  795  677  602  551  508  488  508  555  611  664  698  705  698  696  720  788  905  1038  1132  1145  1063  923  843  941  1298  1978  2879  3739  4379  4713  4587  3831  2473  792  -830  -2037  -2572  -2409  -1788  -1045  -417  24  313  503  645  775  910  1039  1129  1160  1126  1018  865  747  736  832  967  1066  1112  1127  1120  1087  1032  966  891  801  711  650  624  615  590  530  464  449  485  523  554  593  626  632  605  559  497  401  276  171  123  133  193  292  402  472  470  439  452  502  527  504  459  425  405  373  318  236  96  -120  -382  -635  -844  -1015  -1181  -1336  -1432  -1468  -1500  -1562  -1626  -1660  -1680  -1733  -1848  -2000  -2128  -2198  -2225  -2245  -2284  -2334  -2373  -2384  -2368  -2335  -2306  -2294  -2292  -2292  -2305  -2374  -2536  -2761  -2960  -3087  -3154  -3176  -3144  -3045  -2913  -2820  -2796  -2812  -2817  -2755  -2575  -2290  -1996  -1766  -1558  -1297  -1006  -777  -657  -601  -538  -438  -339  -293  -298  -323  -323  -194  103  440  689  854  978  1061  1097  1102  1090  1070  1048  1030  1021  1016  1007  968  863  687  498  374  341  363  408  483  598  722  809  851  875  881  862  841  842  852  848  825  784  734  702  725  821  954  1065  1139  1201  1266  1332  1400  1471  1535  1580  1600  1603  1603  1603  1592  1565  1547  1579  1681  1839  2000  2099  2121  2107  2093  2089  2083  2068  2062  2088  2145  2208  2249  2263  2264  2252  2216  2156  2083  2019  1987  1972  1916  1801  1673  1567  1471  1379  1313  1283  1278  1283  1290  1288  1254  1176  1074  976  885  796  723  655  564  456  378  354  365  375  334  202  9  -149  -218  -222  -209  -206  -218  -235  -245  -248  -260  -295  -343  -380  -398  -412  -422  -370  -192  58  282  550  1027  1767  2684  3579  4158  4161  3492  2286  872  -422  -1423  -2057  -2267  -2010  -1333  -424  455  1085  1378  1424  1370  1290  1192  1071  922  774  669  612  566  509  453  415  389  359  323  289  242  143  -41  -305  -569  -732  -782  -778  -779  -801  -833  -862  -879  -856  -748  -544  -291  -31  242  520  750  925  1128  1396  1647  1794  1827  1775  1676  1570  1482  1410  1334  1256  1195  1154  1107  1018  859  649  456  325  227  88  -144  -455  -763  -987  -1106  -1151  -1152  -1119  -1052  -955  -850  -776  -743  -722  -666  -545  -381  -238  -148  -100  -79  -83  -113  -164  -234  -348  -540  -789  -1020  -1170  -1250  -1309  -1381  -1474  -1589  -1679  -1656  -1517  -1343  -1185  -1046  -921  -803  -672  -515  -350  -222  -153  -121  -112  -109  -65  61  235  375  445  467  470  461  422  339  236  158  117  65  -54  -238  -425  -603  -819  -1074  -1321  -1542  -1731  -1852  -1899  -1906  -1911  -1934  -1978  -2038  -2103  -2164  -2222  -2290  -2377  -2481  -2591  -2712  -2832  -2908  -2913  -2859  -2785  -2732  -2714  -2719  -2737  -2767  -2799  -2818  -2824  -2827  -2838  -2859  -2886  -2913  -2926  -2906  -2830  -2709  -2588  -2504  -2446  -2391  -2327  -2251  -2156  -2032  -1892  -1765  -1667  -1592  -1505  -1363  -1148  -878  -611  -426  -350  -335  -342  -372  -437  -527  -629  -735  -830  -886  -899  -880  -838  -779  -715  -657  -613  -582  -558  -541  -543  -600  -740  -930  -1085  -1157  -1170  -1165  -1163  -1164  -1166  -1165  -1147  -1102  -1014  -858  -649  -433  -218  10  241  453  632  800  1005  1253  1489  1656  1710  1654  1562  1495  1426  1300  1125  978  934  974  1028  1059  1089  1133  1182  1208  1184  1104  974  792  561  286  -9  -272  -434  -457  -315  48  705  1671  2835  3933  4682  4922  4517  3405  1863  272  -1177  -2273  -2796  -2739  -2221  -1446  -708  -219  7  81  114  178  322  563  842  1074  1221  1294  1315  1281  1155  936  700  553  552  674  841  1001  1164  1356  1548  1685  1761  1804  1828  1841  1867  1923  1988  2032  2070  2154  2313  2502  2645  2720  2783  2887  3007  3082  3099  3108  3174  3323  3520  3691  3783  3801  3784  3720  3563  3317  3067  2883  2756  2628  2461  2255  1989  1617  1188  846  652  529  376  166  -59  -256  -402  -494  -558  -614  -653  -670  -681  -708  -770  -880  -1021  -1152  -1230  -1244  -1236  -1250  -1268  -1245  -1165  -1036  -891  -777  -713  -698  -724  -770  -814  -860  -922  -992  -1024  -984  -876  -748  -635  -540  -454  -387  -323  -200  15  263  447  547  611  680  769  866  927  932  909  874  811  729  664  620  556  448  321  212  130  64  13  -4  18  67  109  125  92  -7  -142  -250  -311  -357  -407  -455  -499  -549  -611  -693  -784  -854  -891  -901  -884  -827  -733  -628  -558  -557  -609  -667  -709  -746  -778  -794  -786  -763  -751  -756  -738  -681  -617  -573  -533  -480  -419  -372  -331  -241  -54  190  401  545  653  742  801  814  778  703  604  477  317  139  -42  -239  -425  -545  -594  -616  -640  -642  -567  -408  -249  -158  -109  -34  70  157  210  255  305  350  361  292  149  11  -68  -98  -107  -118  -146  -207  -307  -412  -488  -541  -590  -634  -663  -675  -681  -690  -699  -675  -571  -376  -145  20  44  -39  -76  46  305  691  1300  2176  3169  4027  4463  4233  3332  1986  494  -876  -1915  -2468  -2509  -2146  -1516  -801  -213  142  309  378  416  461  541  656  768  843  881  893  878  831  766  719  704  699  677  621  550  495  471  468  470  476  501  553  624  695  746  773  780  771  739  664  537  387  248  133  48  25  101  260  429  536  570  566  558  566  589  608  603  576  539  504  482  477  466  424  355  270  135  -113  -444  -745  -945  -1047  -1085  -1120  -1221  -1391  -1570  -1717  -1831  -1917  -1970  -1989  -1971  -1924  -1885  -1892  -1953  -2037  -2092  -2079  -1982  -1825  -1669  -1542  -1418  -1287  -1188  -1154  -1184  -1282  -1448  -1661  -1882  -2059  -2152  -2171  -2159  -2144  -2130  -2121  -2137  -2225  -2408  -2643  -2848  -2985  -3079  -3164  -3240  -3289  -3302  -3252  -3097  -2855  -2625  -2485  -2425  -2407  -2408  -2412  -2391  -2327  -2245  -2212  -2268  -2375  -2457  -2471  -2402  -2226  -1936  -1588  -1224  -816  -380  -13  221  349  408  431  461  556  744  991  1215  1351  1395  1391  1381  1380  1381  1371  1337  1287  1234  1194  1203  1274  1390  1562  1786  1993  2126  2207  2275  2338  2375  2381  2370  2357  2347  2344  2355  2376  2393  2394  2380  2354  2310  2249  2173  2070  1909  1677  1405  1146  928  758  623]
