reading_id,reading_time,wire_id,result_classification,heart_rate,heart_rate_alert,firmware_version,device_app_version,hardware_version,waveform_samples
38586fa0-58b8-11ed-8080-808080808080,Mon Oct 31 01:06:16 UTC 2022,e100638c1a39,NSR,72,NONE,20001.171.50,2.10.0,Charge 5,[32072  32767  32767  32767  32767  32767  32767  32767  32767  32767  32767  32767  32767  32767  32767  32767  32767  32767  32767  32767  32767  32767  32767  32767  32767  32767  32767  32767  32767  32767  32767  32767  32767  32767  32767  32767  32767  32767  32767  32159  30111  28438  26946  25274  23512  21946  20647  19456  18030  16116  13932  12026  10779  10070  9283  7690  5154  2248  -424  -2599  -4271  -5531  -6428  -6967  -7217  -7342  -7541  -7911  -8413  -8912  -9248  -9365  -9341  -9297  -9348  -9593  -10023  -10500  -10906  -11265  -11588  -11802  -11882  -11913  -11966  -11961  -11640  -10781  -9497  -8168  -7144  -6617  -6549  -6737  -6971  -7132  -7211  -7248  -7186  -6854  -6182  -5352  -4617  -4060  -3601  -3157  -2735  -2352  -1950  -1518  -1139  -840  -597  -422  -337  -408  -783  -1531  -2509  -3437  -4077  -4360  -4426  -4497  -4688  -4926  -5040  -4954  -4764  -4605  -4487  -4312  -4039  -3725  -3434  -3173  -2890  -2544  -2144  -1705  -1249  -825  -439  -55  316  640  911  1104  1158  1063  862  552  116  -393  -912  -1434  -1946  -2444  -3006  -3646  -4296  -5058  -6097  -7259  -8199  -8786  -9120  -9336  -9498  -9597  -9626  -9628  -9646  -9680  -9680  -9585  -9365  -9042  -8700  -8405  -8137  -7851  -7538  -7215  -6926  -6708  -6539  -6358  -6187  -6149  -6314  -6573  -6765  -6850  -6878  -6892  -6901  -6904  -6901  -6895  -6896  -6914  -6927  -6876  -6695  -6374  -5989  -5657  -5420  -5190  -4780  -4077  -3257  -2668  -2440  -2400  -2342  -2217  -2090  -2022  -2013  -2027  -2029  -1998  -1915  -1737  -1422  -1016  -660  -462  -405  -383  -284  -68  190  401  554  674  764  823  847  812  699  518  324  191  139  138  160  217  342  534  744  927  1114  1361  1645  1877  2008  2062  2083  2105  2130  2153  2171  2171  2080  1783  1228  525  -142  -651  -971  -1151  -1270  -1379  -1475  -1527  -1511  -1430  -1291  -1126  -998  -936  -911  -879  -819  -745  -684  -640  -623  -647  -664  -502  -6  688  1251  1563  1745  1889  1977  1865  1332  337  -812  -1698  -2134  -2212  -2074  -1744  -1245  -702  -271  -43  7  -13  -24  12  94  149  82  -89  -251  -333  -354  -357  -355  -322  -223  -84  23  60  48  34  64  168  308  397  392  332  266  201  134  71  25  10  29  50  44  19  10  31  55  35  -65  -252  -472  -658  -807  -981  -1212  -1465  -1692  -1859  -1967  -2059  -2176  -2324  -2500  -2712  -2942  -3138  -3288  -3402  -3492  -3577  -3667  -3741  -3769  -3750  -3719  -3707  -3706  -3685  -3619  -3527  -3463  -3457  -3490  -3506  -3460  -3386  -3366  -3414  -3471  -3496  -3500  -3506  -3516  -3494  -3395  -3245  -3129  -3086  -3052  -2928  -2699  -2462  -2324  -2302  -2356  -2436  -2495  -2494  -2398  -2197  -1951  -1761  -1666  -1644  -1656  -1663  -1620  -1494  -1292  -1061  -854  -723  -688  -720  -798  -933  -1089  -1206  -1274  -1314  -1327  -1317  -1314  -1360  -1493  -1721  -1976  -2151  -2204  -2166  -2071  -1943  -1816  -1727  -1691  -1684  -1670  -1614  -1480  -1269  -1046  -885  -806  -776  -759  -739  -692  -592  -467  -378  -327  -245  -85  139  374  549  635  682  761  883  999  1079  1111  1078  1001  929  882  846  813  802  855  1008  1217  1378  1443  1458  1486  1548  1619  1675  1713  1745  1769  1764  1715  1628  1532  1465  1453  1513  1632  1693  1595  1524  1809  2572  3699  4820  5510  5710  5723  5795  5738  5149  3954  2464  1115  345  298  590  837  1059  1381  1802  2201  2432  2492  2471  2411  2294  2126  1961  1853  1801  1745  1646  1542  1481  1446  1426  1427  1411  1357  1298  1264  1259  1280  1326  1377  1414  1448  1515  1621  1724  1784  1802  1811  1877  2042  2218  2286  2275  2276  2299  2327  2379  2483  2620  2728  2772  2773  2764  2754  2742  2732  2730  2714  2642  2488  2277  2073  1931  1856  1790  1659  1438  1235  1219  1388  1572  1676  1753  1859  1972  2022  1978  1884  1801  1734  1636  1503  1394  1342  1298  1196  992  730  521  426  429  517  692  914  1095  1201  1245  1206  1074  905  757  641  521  369  163  -146  -550  -919  -1131  -1211  -1247  -1261  -1257  -1274  -1328  -1401  -1487  -1566  -1627  -1692  -1762  -1796  -1785  -1760  -1748  -1747  -1741  -1726  -1707  -1693  -1680  -1661  -1603  -1457  -1226  -1001  -855  -758  -631  -444  -249  -110  4  189  430  608  669  664  655  656  641  599  602  718  877  976  1021  1081  1196  1349  1477  1525  1502  1459  1391  1207  839  371  -43  -352  -600  -800  -867  -626  3  839  1647  2355  2889  3162  3211  2962  2150  814  -627  -1821  -2528  -2554  -2032  -1372  -787  -202  469  1255  2044  2589  2779  2686  2387  1972  1555  1190  888  674  569  539  490  315  0  -335  -566  -683  -731  -733  -702  -668  -690  -832  -1077  -1335  -1541  -1677  -1754  -1815  -1896  -1982  -2053  -2125  -2228  -2362  -2493  -2581  -2613  -2619  -2651  -2750  -2897  -3051  -3219  -3405  -3562  -3675  -3802  -3996  -4254  -4543  -4842  -5138  -5410  -5628  -5759  -5737  -5519  -5202  -4960  -4844  -4777  -4696  -4585  -4439  -4270  -4130  -4056  -4038  -4038  -4014  -3932  -3793  -3647  -3543  -3489  -3459  -3412  -3326  -3237  -3167  -3092  -3008  -2930  -2863  -2815  -2784  -2751  -2726  -2766  -2898  -3030  -3019  -2847  -2630  -2452  -2313  -2188  -2070  -1976  -1927  -1923  -1934  -1914  -1826  -1679  -1510  -1341  -1197  -1106  -1067  -1058  -1053  -1054  -1083  -1122  -1145  -1149  -1140  -1104  -1020  -892  -766  -694  -677  -676  -664  -644  -635  -639  -623  -580  -543  -529  -502  -417  -286  -162  -82  -37  21  146  315  440  468  415  317  202  79  -50  -191  -321  -348  -146  326  951  1501  1801  1871  1846  1821  1811  1797  1749  1630  1414  1127  867  757  830  1028  1339  1805  2424  3112  3724  4125  4202  3818  2897  1501  -98  -1437  -2165  -2259  -1841  -1086  -248  557  1393  2200  2774  3034  3104  3124  3141  3148  3152  3180  3245  3327  3397  3472  3585  3737  3889  4002  4057  4053  4002  3933  3872  3837  3826  3837  3871  3922  3975  4016  4036  4042  4052  4074  4085  4043  3949  3854  3800  3785  3795  3854  4003  4208  4375  4451  4430  4282  3990  3656  3439  3375  3365  3314  3199  3053  2914  2776  2611  2395  2104  1750  1396  1078  817  665  631  661  703  728  733  717  682  641  614  606  609  616  625  628  601  520  389  242  121  46  -9  -91  -222  -377  -502  -567  -584  -584  -617  -726  -892  -1042  -1128  -1157  -1158  -1148  -1115  -1020  -845  -624  -403  -209  -72  3  60  153  308  521  747  924  1032  1109  1183  1243  1289  1347  1458  1646  1868  2044  2150  2205  2228  2231  2204  2101  1876  1582  1372  1369  1580  1892  2138  2244  2265  2277  2291  2246  2045  1661  1198  787  492  332  283  290  299  254  92  -200  -531  -768  -879  -926  -964  -999  -1044  -1144  -1339  -1597  -1817  -1919  -1906  -1840  -1816  -1893  -1982  -1903  -1532  -886  -187  239  253  -14  -314  -456  -454  -528  -833  -1330  -1802  -1879  -1449  -792  -81  690  1390  1812  1917  1787  1447  792  -277  -1540  -2535  -3088  -3365  -3509  -3550  -3459  -3191  -2813  -2505  -2368  -2330  -2275  -2170  -2101  -2144  -2243  -2289  -2237  -2112  -1973  -1870  -1793  -1691  -1556  -1434  -1384  -1413  -1466  -1490  -1488  -1485  -1475  -1412  -1244  -973  -661  -348  -78  79  110  73  -6  -155  -332  -394  -256  -2  204  311  356  337  238  133  114  170  245  321  374  367  278  117  -81  -289  -496  -687  -838  -919  -911  -822  -704  -620  -594  -601  -610  -601  -554  -470  -374  -286  -212  -159  -136  -135  -143  -147  -128  -62  57  209  349  433  459  461  470  489  509  526  542  559  580  608  645  673  689  714  793  959  1172  1317  1309  1183  1078  1080  1121  1128  1119  1137  1189  1234  1235  1202  1163  1134  1117  1101  1074  1052  1066  1123  1182  1189  1142  1108  1138  1203  1249  1265  1276  1330  1463  1628  1706  1631  1480  1377  1363  1389  1408  1412  1409  1407  1410  1421  1437  1458  1503  1591  1726  1898  2078  2209  2248  2227  2205  2187  2155  2114  2081  2070  2072  2068  2053  2025  1966  1864  1742  1632  1550  1488  1429  1379  1357  1344  1309  1261  1198  1096  967  861  807  793  811  865  947  1048  1110  1006  730  532  689  1272  2169  3088  3664  3786  3589  3062  2100  746  -851  -2378  -3376  -3626  -3290  -2640  -1912  -1359  -1136  -1156  -1234  -1303  -1369  -1426  -1466  -1513  -1591  -1719  -1887  -2051  -2177  -2268  -2350  -2442  -2571  -2801  -3162  -3571  -3923  -4167  -4328  -4594  -5195  -6032  -6697  -6960  -6931  -6779  -6600  -6449  -6368  -6370  -6429  -6501  -6561  -6576  -6521  -6435  -6362  -6326  -6368  -6489  -6611  -6671  -6686  -6712  -6799  -6945  -7122  -7347  -7625  -7897  -8117  -8276  -8379  -8445  -8478  -8409  -8148  -7728  -7333  -7106  -7028  -7004  -6981  -6939  -6857  -6718  -6506  -6205  -5859  -5555  -5330  -5176  -5088  -5063  -5096  -5183  -5310  -5466  -5654  -5886  -6102  -6136  -5844  -5309  -4810  -4574  -4681  -5116  -5694  -6136  -6378  -6605  -6973  -7430  -7795  -7967  -8065  -8322  -8835  -9443  -9936  -10282  -10558  -10789  -10966  -11077  -11127  -11141  -11146  -11146  -11152  -11197  -11283  -11372  -11428  -11492  -11704  -12107  -12523  -12853  -13198  -13572  -13834  -13929  -13945  -13964  -13982  -13907  -13626  -13103  -12379  -11473  -10382  -9195  -8050  -7011  -6160  -5608  -5293  -5041  -4761  -4473  -4240  -4027  -3542  -2412  -675  1155  2636  3760  4809  5939  6996  7840  8548  9176  9643  9899  10049  10253  10520  10775  11032  11350  11756  12236  12763  13387  14214  15128  15795  16067  16108  16108  16115  16110  16096  16178  16542  17137  17657  17953  18129  18395  18980  19998  21250  22195  22459  22161  21619  21184  21123  21425  21810  21903  21575  21071  20633  20297  19990  19583  19027  18486  18174  18117  18167  18156  17972  17597  17105  16605  16197  15939  15857  15937  16100  16248  16333  16365  16372  16379  16392  16411  16438  16457  16427  16321  16174  16054  15955  15807  15542  15124  14620  14173  13832  13492  12996  12239  11303  10455  9907  9672  9630  9664  9721  9749  9594  9112  8434  7916  7713  7688  7698  7680  7572  7361  7178  7192  7388  7594  7707  7765  7834  7905  7943  7959  7962  7904  7736  7494  7291  7197  7191  7249  7370  7500  7396  6651  4986  2412  -778  -3994  -6585  -8232  -9051  -9424  -9673  -9930  -10245  -10601  -10889  -11041  -11085  -11052  -10909  -10602  -10198  -9876  -9723  -9695  -9759  -9954  -10256  -10518  -10636  -10678  -10766  -10954  -11183  -11351  -11417  -11412  -11363  -11263  -11106  -10895  -10615  -10212  -9668  -9132  -8828  -8792  -8926  -9184  -9506  -9795  -10044  -10283  -10493  -10660  -10762  -10741  -10617  -10501  -10455  -10442  -10407  -10332  -10246  -10202  -10222  -10265  -10283  -10262  -10210  -10156  -10118  -10095  -10076  -9994  -9730  -9290  -8895  -8791  -9065  -9673  -10471  -11234  -11810  -12194  -12438  -12529  -12412  -12083  -11604  -11081  -10581  -10062  -9537  -9130  -8927  -8906  -8986  -9081  -9139  -9136  -9034  -8794  -8478  -8212  -7985  -7666  -7230  -6826  -6567  -6386  -6174  -5945  -5773  -5647  -5469  -5154  -4738  -4362  -4128  -4045  -4058  -4071  -3986  -3815  -3673  -3604  -3483  -3166  -2706  -2305  -2016  -1716  -1350  -998  -735  -566  -489  -566  -861  -1275  -1589  -1700  -1647  -1473  -1233  -1031  -934  -903  -862  -785  -715  -751  -931  -1128  -1164  -1002  -714  -373  -60  159  302  418  510  564  583  582  583  605  653  709  748  772  797  826  851  872  898  936  1038  1271  1571  1760  1707  1466  1290  1304  1304  1162  1034  991  939  840  728  622  537  473  424  380  340  318  310  307  328  386  450  491  513  544  610  701  776  819  844  868  906  959  1009  1044  1065  1081  1124  1233  1380  1500  1586  1691  1812  1888  1914  1978  2169  2443  2668  2777  2808  2797  2752  2689  2633  2593  2561  2514  2430  2312  2243  2327  2530  2700  2759  2761  2783  2835  2854  2799  2720  2667  2618  2530  2366  2144  2022  2154  2437  2678  2848  2992  3251  3827  4671  5492  6027  6028  5377  4338  3319  2509  1847  1177  486  -35  -97  403  1149  1729  2055  2237  2358  2448  2519  2587  2665  2745  2815  2861  2860  2800  2695  2586  2516  2495  2506  2526  2541  2545  2543  2545  2556  2568  2573  2570  2564  2553  2548  2578  2674  2815  2945  3028  3059  3041  2991  2962  3009  3108  3165  3147  3121  3146  3191  3190  3135  3082  3083  3123  3164  3202  3208  3064  2663  2133  1782  1758  1943  2154  2298  2347  2295  2148  1934  1723  1598  1575  1588  1547  1372  1035  628  295  66  -141  -364  -549  -637  -634  -587  -532  -516  -625  -920  -1315  -1608  -1714  -1707  -1673  -1641  -1621  -1671  -1877  -2203  -2489  -2638  -2648  -2534  -2375  -2274  -2244  -2218  -2161  -2103  -2059  -2005  -1943  -1914  -1941  -2020  -2113  -2183  -2224  -2247  -2247  -2209  -2130  -2068  -2101  -2211  -2293  -2284  -2218  -2150  -2081  -1972  -1787  -1524  -1245  -1100  -1242  -1602  -1885  -1913  -1791  -1676  -1616  -1590  -1580  -1580  -1580  -1573  -1559  -1539  -1486  -1363  -1204  -1079  -1004  -961  -932  -909  -898  -896  -885  -869  -864  -868  -851  -779  -655  -533  -462  -433  -413  -385  -370  -396  -476  -589  -702  -786  -829  -839  -838  -851  -889  -939  -974  -983  -973  -944  -885  -801  -717  -641  -568  -549  -621  -680  -580  -276  274  1064  1904  2601  3102  3366  3281  2715  1623  130  -1399  -2492  -2872  -2563  -1786  -843  -43  389  455  349  238  167  118  74  6  -119  -268  -356  -342  -253  -156  -72  27  141  219  211  116  4  -60  -64  -6  99  231  392  580  746  836  850  827  812  852  982  1160  1299  1371  1414  1456  1492  1521  1550  1588  1630  1669  1691  1676  1592  1427  1225  1062  944  791  581  402  335  339  311  179  -30  -224  -334  -380  -415  -449  -449  -400  -333  -292  -295  -319  -333  -335  -334  -341  -356  -352  -287  -172  -77  -40  -47  -77  -109  -131  -148  -165  -181  -189  -190  -203  -261  -376  -510  -599  -606  -529  -384  -204  -34  67  40  -139  -406  -617  -701  -694  -648  -610  -613  -638  -656  -660  -662  -666  -671  -681  -702  -715  -687  -621  -567  -556  -582  -614  -620  -591  -531  -459  -424  -457  -524  -585  -632  -659  -623  -476  -249  -52  22  -22  -130  -232  -294  -316  -314  -307  -310  -323  -342  -365  -387  -393  -355  -250  -100  26  62  -31  -227  -441  -609  -721  -794  -835  -829  -733  -510  -226  -27  10  -79  -213  -305  -301  -189  -7  179  334  431  422  291  82  -122  -249  -284  -274  -261  -259  -268  -282  -295  -300  -289  -254  -204  -158  -131  -138  -194  -280  -334  -311  -233  -162  -101  53  446  1133  1983  2777  3324  3490  3275  2739  1854  601  -838  -2110  -2875  -2939  -2366  -1526  -823  -417  -243  -146  -21  132  281  403  483  509  487  440  392  370  398  463  529  581  621  655  695  764  890  1053  1169  1174  1071  940  871  885  940  992  1046  1130  1230  1300  1319  1302  1291  1365  1584  1877  2084  2141  2111  2055  1972  1831  1632  1426  1287  1235  1197  1079  860  615  425  308  223  131  36  -36  -81  -130  -229  -385  -542  -635  -652  -619  -570  -535  -523  -534  -575  -628  -667  -693  -732  -816  -936  -1044  -1102  -1117  -1114  -1112  -1122  -1144  -1167  -1178  -1159  -1108  -1039  -964  -873  -770  -693  -666  -681  -717  -755  -786  -808  -822  -820  -775  -682  -565  -439  -308  -196  -140  -180  -331  -537  -694  -760  -766  -737  -676  -599  -579  -668  -814  -935  -1006  -1045  -1058  -1024  -903  -705  -506  -367  -289  -233  -142  -12  92  119  75  6  -47  -60  -15  96  233  328  358  357  357  364  372  389  428  478  505  489  447  408  379  358  344  339  339  344  354  361  346  312  267  234  250  314  397  499  556  445  263  257  470  870  1562  2482  3286  3661  3415  2430  884  -732  -2016  -2806  -3034  -2758  -2208  -1587  -946  -347  65  243  281  267  228  175  127  101  101  152  286  479  664  802  885  941  1024  1144  1293  1448  1545  1558  1548  1566  1622  1697  1751  1792  1863  1951  2020  2076  2132  2197  2266  2316  2350  2398  2476  2564  2628  2657  2667  2674  2666  2620  2525  2392  2247  2102  1927  1674  1349  1038  823  709  641  541  347  88  -131  -245  -271  -259  -255  -310  -464  -673  -841  -920  -936  -928  -913  -926  -1023  -1202  -1383  -1489  -1515  -1504  -1492  -1488  -1491  -1499  -1502  -1476  -1405  -1315  -1248  -1209  -1165  -1109  -1072  -1064  -1066  -1068  -1099  -1188  -1311  -1392  -1373  -1265  -1133  -1055  -1067  -1141  -1212  -1242  -1261  -1307  -1360  -1386  -1389  -1392  -1406  -1423  -1436  -1432  -1364  -1185  -955  -840  -947  -1214  -1499  -1708  -1814  -1825  -1741  -1561  -1351  -1210  -1167  -1181  -1212  -1241  -1231  -1121  -895  -639  -469  -418  -422  -401  -317  -202  -115  -77  -69  -103  -223  -436  -654  -781  -812  -807  -809  -825  -849  -871  -897  -938  -989  -1030  -1055  -1079  -1110  -1137  -1163  -1197  -1235  -1262  -1297  -1397  -1574  -1724  -1779  -1755  -1580  -1144  -449  406  1302  2089  2559  2520  1825  447  -1282  -2755  -3551  -3685  -3431  -3068  -2758  -2424  -1890  -1271  -863  -732  -707  -612  -394  -116  116  250  296  269  143  -89  -343  -492  -455  -229  74  291  360  345  320  318  353  428  544  725  986  1251  1394  1378  1285  1222  1227  1271  1316  1369  1461  1587  1702  1775  1806  1819  1827  1815  1768  1703  1640  1537  1334  1077  888  798  693  462  113  -219  -401  -422  -371  -326  -304  -292  -283  -284  -303  -352  -440  -550  -632  -665  -667  -636  -551  -421  -309  -262  -264  -288  -327  -367  -390  -398  -386  -328  -196  -23  114  189  242  297  334  335  315  291  276  275  292  326  369  411  450  502  588  686  731  700  632  564  514  489  477  473  485  527  587  629  614  528  407  321  299  322  356  379  378  352  309  262  223  208  241  322  373  292  101  -68  -141  -130  -58  88  286  461  566  611  611  579  555  591  679  762  806  822  804  728  620  537  497  459  353  141  -119  -304  -369  -368  -351  -303  -198  -60  32  31  -19  -62  -111  -206  -324  -407  -427  -400  -338  -196  58  351  620  964  1466  2036  2576  3002  3043  2435  1293  -29  -1298  -2294  -2745  -2650  -2271  -1794  -1305  -914  -672  -521  -395  -281  -200  -161  -157  -176  -196  -195  -138  1  184  320  377  383  378  396  431  440  407  366  353  368  393  420  475  590  765  946  1063  1104  1109  1112  1127  1150  1179  1213  1252  1313  1428  1551  1554  1416  1248  1132  1058  1004  967  922  830  704  572  394  97  -280  -596  -751  -777  -759  -759  -794  -855  -922  -973  -996  -995  -992  -1026  -1123  -1259  -1367  -1417  -1415  -1370  -1293  -1201  -1120  -1075  -1067  -1070  -1054  -1014  -968  -937  -917  -886  -827  -745  -664  -599  -555  -530  -502  -418  -241  -23  129  178  170  148  126  109  99  84  67  75  128  218  309  358  363  360  367  372  362  321  243  154  95  73  72  82  101  121  132  135  135  144  177  244  328  398  444  486  548  625  685  703  681  646  614  568  469  282  2  -297  -520  -631  -662  -657  -638  -609  -549  -442  -341  -329  -393  -441  -428  -370  -291  -208  -161  -210  -374  -567  -554  -108  730  1711  2544  2971  2841  2144  1016  -257  -1412  -2321  -2872  -2944  -2645  -2239  -1848  -1471  -1133  -863  -670  -559  -483  -363  -202  -78  -20  6  32  50  43  8  -21  -8  46  115  164  190  209  233  282  386  532  660  735  759  756  749  752  775  852  1015  1235  1418  1517  1558  1579  1598  1626  1649  1654  1649  1647  1643  1613  1530  1401  1249  1068  841  581  320  97  -52  -127  -163  -209  -283  -380  -481  -562  -606  -629  -659  -698  -730  -758  -809  -887  -973  -1047  -1070  -994  -833  -697  -714  -886  -1078  -1162  -1121  -1013  -892  -794  -738  -748  -844  -1008  -1167  -1256  -1279  -1276  -1263  -1216  -1121  -1014  -941  -884  -783  -646  -543  -514  -538  -577  -608  -625  -624  -588  -504  -396  -320  -306  -315  -278  -165  -14  101  160  187  197  149  -5  -228  -382  -392  -317  -246  -215  -213  -215  -202  -176  -159  -168  -196  -229  -249  -248  -242  -240  -236  -218  -181  -125  -51  27  93  147  196  226  196  81  -79  -205  -250  -204  -66  121  287  420  557  687  766  790  798  811  827  838  850  883  935  968  928  801  631  486  385  307  277  321  394  447  477  485  447  364  263  183  142  135  146  165  187  196  196  252  456  853  1451  2186  2884  3386  3587  3377  2707  1634  384  -752  -1637  -2163  -2207  -1860  -1365  -911  -620  -514  -501  -497  -465  -400  -329  -284  -274  -285  -297  -297  -274  -226  -167  -116  -51  69  226  343  381  371  354  358  403  466  488  476  520  636  733  762  757  776  837  917  980  1024  1089  1207  1346  1444  1467  1426  1341  1242  1162  1111  1080  1056  1032  1012  990  922  773  543  282  64  -68  -135  -184  -236  -281  -318  -367  -444  -544  -630  -657  -653  -671  -701  -712  -713  -719  -733  -737  -726  -713  -708  -709  -712  -714  -714  -716  -727  -750  -770  -772  -743  -678  -606  -564  -556  -547  -508  -464  -461  -495  -519  -505  -452  -387  -338  -309  -304  -346  -464  -643  -808  -909  -966  -1019  -1067  -1099  -1111  -1094  -1061  -1046  -1061  -1082  -1074  -1008  -892  -770  -684  -650  -646  -635  -577  -453  -300  -206  -220  -332  -479  -583  -619  -615  -594  -559  -514  -469  -423  -374  -329  -295  -273  -252  -194  -68  94  227  299  327  319  250  107  -58  -172  -218  -224  -219  -224  -258  -324  -400  -453  -480  -499  -527  -586  -703  -849  -948  -960  -902  -782  -553  -235  48  214  286  315  317  290  226  113  -44  -219  -365  -457  -498  -495  -467  -441  -435  -447  -470  -499  -528  -552  -568  -578  -573  -536  -462  -391  -382  -400  -291  115  823  1630  2331  2843  3153  3317  3325  2950  1997  581  -923  -2070  -2547  -2382  -1862  -1259  -738  -388  -199  -72  65  209  332  425  487  524  542  550  557  574  611  659  691  704  728  783  843  857  790  664  586  665  857  1026  1109  1140  1159  1184  1232  1327  1461  1594  1720  1864  2011  2078  2005  1833  1650  1516  1447  1436  1477  1561  1636  1639  1575  1502  1463  1436  1330  1072  721  405  184  50  -16  -51  -104  -212  -358  -471  -497  -453  -379  -287  -190  -120  -91  -82  -79  -88  -121  -180  -249  -305  -337  -356  -386  -434  -495  -573  -656  -692  -647  -548  -456  -412  -425  -504  -636  -761  -813  -768  -661  -556  -494  -488  -549  -684  -846  -960  -994  -961  -892  -817  -758  -732  -743  -759  -754  -727  -664  -548  -414  -328  -325  -394  -488  -556  -577  -575  -588  -635  -702  -751  -760  -728  -673  -643  -678  -753  -823  -873  -918  -947  -926  -836  -695  -550  -458  -433  -434  -429  -425  -445  -491  -543  -592  -651  -711  -732  -675  -541  -402  -348  -407  -548  -684  -750  -763  -763  -765  -777  -788  -775  -723  -649  -596  -570  -518  -378  -157  54  182  243  296  352  359  263  79  -118  -265  -337  -355  -346  -311  -246  -191  -212  -310  -416  -479  -493  -460  -357  -161  86  290  394  400  322  223  253  503  960  1664  2615  3580  4264  4475  4075  3071  1707  343  -760  -1443  -1557  -1185  -661  -185  215  515  731  872  924  930  937  949  970  1038  1196  1411  1591  1688  1732  1751  1749  1745  1781  1870  1976  2051  2088  2107  2110  2078  2014  1955  1929  1934  1981  2103  2294  2475  2585  2654  2750  2885  3009  3068  3064  3042  3037  3070  3154  3272  3354  3305  3065  2693  2334  2066  1867  1691  1503  1228  756  108  -549  -1101  -1500  -1728  -1827  -1876  -1921  -1967  -2002  -2021  -2034  -2066  -2139  -2265  -2449  -2660  -2841  -2949  -3004  -3060  -3124  -3143  -3086  -3014  -2993  -3013  -3040  -3060  -3075  -3089  -3097  -3071  -2969  -2790  -2588  -2420  -2263  -2054  -1812  -1646  -1604  -1624  -1627  -1579  -1507  -1463  -1456  -1451  -1429  -1395  -1337  -1186  -889  -519  -217  -50  22  85  198  355  500  602  674  734  784  808  788  715  592  440  273  87  -110  -273  -367  -432  -541  -691  -801  -798  -679  -514  -396  -363  -385  -422  -452  -471  -478  -479  -480  -491  -525  -595  -685  -766  -832  -887  -914  -912  -897  -884  -874  -861  -833  -797  -814  -952  -1172  -1337  -1378  -1338  -1297  -1282  -1239  -1108  -848  -357  397  1249  2005  2545  2719  2416  1697  684  -482  -1565  -2352  -2782  -2798  -2381  -1747  -1164  -720  -411  -217  -92  13  125  231  306  336  323  267  189  137  165  303  498  656  739  777  796  806  831  918  1097  1327  1506  1573  1544  1463  1365  1278  1242  1301  1466  1688  1908  2107  2287  2434  2530  2573  2581  2580  2579  2546  2419  2172  1869  1603  1424  1331  1298  1283  1225  1069  817  556  373  249  110  -46  -164  -227  -266  -324  -431  -593  -778  -934  -1030  -1075  -1084  -1067  -1032  -989  -948  -902  -826  -723  -638  -607  -623  -650  -655  -628  -584  -558  -574  -616  -643  -632  -604  -575  -516  -407  -273  -170  -141  -185  -261  -317  -338  -336  -321  -287  -243  -210  -199  -210  -239  -276  -301  -292  -243  -183  -138  -110  -95  -90  -90  -79  -38  34  102  132  115  46  -63  -183  -284  -356  -413  -460  -478  -467  -456  -449  -408  -292  -133  -13  30  27  0  -52  -119  -171  -188  -165  -105  -28  32  23  -100  -276  -393  -455  -530  -621  -690  -717  -702  -669  -650  -653  -667  -686  -721  -791  -896  -1005  -1078  -1108  -1120  -1128  -1120  -1070  -990  -955  -974  -907  -617  -41  817  1728  2346  2551  2357  1750  813  -260  -1319  -2274  -2974  -3210  -2948  -2367  -1711  -1220  -1020  -1015  -1011  -920  -790  -692  -630  -581  -523  -438  -324  -210  -132  -86  -48  -38  -100  -225  -336  -370  -347  -325  -328  -348  -364  -346  -258  -90  117  321  500  663  860  1094  1279  1360  1374  1380  1416  1502  1623  1729  1787  1801  1788  1757  1707  1650  1613  1611  1637  1645  1577  1434  1282  1146  1011  897  839  827  824  811  783  707  533  290  77  -27  -7  109  275  443  556  575  526  458  398  349  325  370  520  726  879  924  879  770  619  484  439  489  568  630  669  710  790  913  1048  1168  1265  1358  1458  1532  1534  1434  1246  1052  938  927  998  1118  1241  1318  1319  1259  1181  1108  1048  1020  1054  1169  1349  1536  1662  1697  1645  1547  1475  1491  1609  1786  1942  2031  2067  2084  2100  2113  2112  2102  2094  2075  2014  1867  1611  1275  932  653  475  383  348  365  413  444  430  383  328  287  279  323  432  583  724  813  842  821  755  641  482  296  126  10  -75  -267  -713  -1382  -2058  -2571  -2896  -3066  -3133  -3154  -3162  -3175  -3238  -3401  -3647  -3878  -4009  -4036  -3994  -3892  -3725  -3498  -3241  -2994  -2742  -2372  -1782  -1032  -291  297  655  753  564  27  -857  -1931  -3033  -4086  -4965  -5524  -5683  -5394  -4789  -4250  -4053  -4105  -4190  -4230  -4248  -4258  -4230  -4114  -3898  -3636  -3420  -3282  -3173  -3048  -2907  -2743  -2537  -2311  -2111  -1951  -1789  -1568  -1309  -1107  -992  -905  -787  -612  -380  -107  156  353  483  609  793  1029  1244  1393  1488  1546  1600  1695  1840  2002  2139  2217  2210  2112  1942  1740  1551  1405  1297  1196  1100  1023  949  843  695  542  448  432  457  480  491  492  488  484  485  505  557  642  744  834  902  957  1008  1073  1195  1380  1559  1656  1673  1656  1647  1669  1733  1819  1885  1880  1773  1597  1437  1350  1323  1308  1241  1085  877  707  624  603  610  647  719  771  719  554  356  203  122  94  97  149  284  460  561  525  406  305  271  296  356  435  519  590  633  626  560  455  354  292  267  258  245  214  149  42  -108  -288  -457  -579  -651  -682  -661  -577  -447  -301  -133  58  243  388  489  570  647  710  745  749  723  661  554  422  323  310  405  596  828  1019  1123  1164  1204  1307  1520  1808  2054  2178  2202  2190  2179  2181  2192  2216  2258  2309  2357  2393  2369  2187  1774  1194  655  346  259  258  247  203  115  -36  -217  -343  -370  -327  -269  -246  -296  -431  -610  -739  -774  -778  -869  -1073  -1226  -1122  -707  -65  711  1564  2306  2597  2233  1293  -22  -1419  -2502  -3080  -3295  -3305  -3203  -3083  -2927  -2686  -2402  -2142  -1947  -1839  -1780  -1701  -1588  -1481  -1396  -1303  -1197  -1092  -992  -903  -858  -880  -942  -999  -1021  -979  -848  -666  -501  -354  -176  17  162  267  452  806  1233  1535  1630  1556  1357  1110  924  837  800  762  711  664  644  685  817  1010  1161  1181  1058  874  724  633  581  564  582  627  672  692  682  645  595  548  509  480  470  465  402  230  -6  -202  -312  -370  -408  -429  -435  -429  -417  -410  -443  -547  -701  -858  -1006  -1147  -1259  -1334  -1395  -1482  -1632  -1834  -2031  -2176  -2260  -2283  -2241  -2151  -2060  -2013  -2018  -2047  -2056  -2015  -1913  -1742  -1539  -1377  -1278  -1207  -1153  -1126  -1129  -1150  -1176  -1209  -1275  -1391  -1529  -1630  -1671  -1677  -1680  -1703  -1753  -1812  -1855  -1877  -1878  -1839  -1735  -1596  -1496  -1467  -1477  -1482  -1452  -1368  -1219  -1023  -840  -723  -654  -593  -527  -448  -336  -184  -34  69  142  246  427  663  883  1034  1126  1184  1206  1178  1103  999  899  854  879  915  890  809  737  710  709  709  710  737  812  910  986  1057  1180  1339  1447  1486  1541  1696  1912  2076  2135  2109  2019  1872  1738  1828  2358  3273  4223  4906  5284  5370  5057  4294  3121  1596  18  -1093  -1523  -1438  -992  -333  263  653  923  1119  1204  1204  1188  1193  1225  1266  1299  1318  1318  1286  1210  1099  983  902  881  914  980  1100  1338  1706  2113  2461  2713  2861  2928  2961  2992  3018  3010  2944  2822  2687  2598  2563  2541  2478  2340  2121  1872  1659  1487  1303  1073  830  628  480  328  109  -152  -376  -509  -567  -600  -679  -841  -1054  -1250  -1391  -1478  -1520  -1531  -1538  -1568  -1640  -1753  -1868  -1925  -1898  -1822  -1757  -1727  -1710  -1660  -1577  -1525  -1543  -1588  -1621  -1668  -1758  -1893  -2055  -2208  -2299  -2307  -2255  -2174  -2090  -2026  -1987  -1964  -1950  -1952  -1968  -1982  -1976  -1948  -1899  -1832  -1744  -1639  -1561  -1560  -1618  -1688  -1751  -1801  -1854  -1939  -2042  -2095  -2076  -2027  -1985  -1946  -1892  -1824  -1764  -1724  -1671  -1577  -1465  -1385  -1360  -1391  -1468  -1550  -1557  -1438  -1250  -1110  -1066  -1074  -1078  -1044  -964  -868  -787  -731  -701  -674  -598  -486  -414  -393  -341  -205  -29  92  127  118  120  157  216  263  285  289  287  292  290  226  52  -185  -397  -567  -712  -808  -846  -858  -873  -885  -886  -879  -885  -934  -1036  -1149  -1173  -1045  -829  -638  -519  -460  -370  -185  41  321  814  1552  2363  2989  3165  2806  2021  933  -318  -1531  -2487  -2964  -2872  -2391  -1808  -1296  -875  -495  -169  9  24  -12  2  79  175  267  344  385  399  444  581  791  980  1082  1120  1138  1155  1173  1199  1230  1257  1279  1304  1330  1353  1356  1345  1361  1453  1642  1906  2154  2285  2292  2246  2199  2144  2080  2040  2073  2208  2401  2552  2622  2648  2660  2628  2504  2285  2032  1816  1684  1627  1582  1471  1236  881  502  205  17  -81  -102  -57  15  70  91  96  110  143  186  214  199  141  70  -1  -75  -104  -19  160  337  436  460  450  437  430  429  422  397  346  264  162  72  3  -77  -186  -278  -324  -346  -363  -391  -476  -662  -921  -1159  -1300  -1351  -1360  -1360  -1357  -1337  -1297  -1247  -1198  -1149  -1080  -991  -904  -831  -768  -714  -674  -652  -631  -589  -527  -476  -449  -420  -379  -332  -280  -218  -157  -107  -74  -55  -50  -74  -142  -237  -309  -333  -327  -316  -313  -314  -306  -286  -261  -228  -181  -114  -8  136  285  412  511  575  615  649  683  730  814  936  1038  1041  959  879  839  820  808  797  764  674  526  353  152  -88  -320  -485  -588  -658  -703  -724  -726  -701  -638  -562  -536  -604  -753  -947  -1133  -1241  -1210  -951  -399  352  1168  1965  2599  2870  2596  1692  276  -1323  -2694  -3517  -3728  -3489  -2943  -2159  -1361  -858  -713  -748  -805  -835  -842  -833  -809  -771  -727  -685  -654  -621  -546  -416  -273  -169  -119  -86  -19  82  173  219  229  236  277  361  458  518  520  474  410  365  358  392  460  557  693  865  1033  1150  1207  1229  1234  1208  1128  1009  898  838  825  822  782  686  567  474  395  278  128  15  -22  -6  40  87  79  -34  -219  -343  -331  -252  -200  -189  -192  -200  -220  -262  -309  -333  -314  -250  -155  -48  49  120  171  213  238  229  180  111  51  13  1  24  78  143  211  270  305  311  306  314  350  410  467  492  478  441  403  375  357  352  361  379  396  403  393  364  328  297  251  150  -5  -161  -267  -316  -341  -370  -408  -441  -470  -508  -548  -569  -563  -550  -535  -496  -414  -314  -256  -267  -304  -326  -333  -319  -285  -251  -229  -215  -201  -184  -161  -133  -102  -59  14  125  253  381  487  561  618  673  708  694  601  406  125  -148  -336  -452  -559  -687  -816  -904  -925  -902  -880  -885  -920  -971  -1013  -1035  -1036  -1012  -956  -883  -830  -831  -901  -1026  -1188  -1366  -1458  -1294  -847  -227  504  1303  2023  2495  2553  2035  953  -432  -1848  -3074  -3830  -3930  -3437  -2572  -1676  -1080  -845  -773  -703  -654  -683  -750  -769  -700  -586  -501  -462  -438  -428  -447  -481  -505  -516  -522  -529  -537  -542  -539  -536  -533  -505  -412  -241  -38  137  285  437  586  702  778  837  902  987  1096  1243  1432  1622  1765  1848  1882  1886  1883  1886  1884  1847  1745  1600  1467  1367  1268  1132  961  803  701  650  620  567  448  261  86  22  66  155  250  304  274  173  56  -29  -89  -146  -192  -198  -171  -138  -101  -37  51  129  171  171  144  148  235  379  511  607  697  788  865  924  975  1006  987  903  778  666  611  632  728  865  996  1093  1150  1169  1166  1161  1157  1146  1118  1080  1053  1047  1045  1020  966  906  847  777  709  676  697  772  880  1001  1119  1226  1312  1372  1423  1489  1574  1655  1714  1746  1746  1715  1652  1541  1370  1155  937  765  660  584  461  246  -26  -309  -580  -803  -940  -1010  -1055  -1084  -1101  -1127  -1174  -1233  -1313  -1450  -1588  -1566  -1296  -828  -236  450  1173  1735  1859  1338  199  -1253  -2622  -3624  -4184  -4378  -4243  -3790  -3170  -2585  -2134  -1829  -1639  -1529  -1511  -1577  -1606  -1477  -1237  -1027  -910  -850  -804  -763  -725  -678  -620  -573  -546  -519  -476  -407  -295  -156  -48  -5  5  54  184  362  505  567  567  543  517  500  496  516  569  650  743  834  908  940  913  829  702  561  445  372  325  275  219  156  45  -160  -427  -659  -792  -844  -879  -945  -1053  -1160  -1207  -1223  -1268  -1322  -1359  -1384  -1400  -1412  -1421  -1426  -1452  -1511  -1590  -1687  -1794  -1867  -1869  -1789  -1649  -1508  -1414  -1357  -1303  -1245  -1170  -1054  -928  -854  -838  -834  -805  -758  -721  -708  -708  -711  -714  -719  -718  -693  -638  -577  -524  -461  -378  -274  -154  -49  14  41  45  39  46  121  326  643  940  1104  1150  1153  1148  1134  1122  1150  1244  1371  1464  1485  1435  1347  1253  1172  1109  1053  1013  1024  1102  1218  1336  1434  1496  1524  1541  1555  1562  1566  1579  1590  1565  1476  1329  1164  1013  895  824  795  788  789  799  828  872  902  885  807  701  601  477  296  192  407  1000  1793  2592  3250  3642  3730  3523  2975  2068  918  -256  -1208  -1763  -1911  -1727  -1337  -975  -817  -838  -940  -1071  -1201  -1288  -1314  -1297  -1252  -1177  -1075  -980  -926  -899  -858  -789  -730  -711  -696  -622  -507  -418  -387  -398  -419  -436  -455  -479  -490  -470  -408  -298  -154  -23  49  65  55  38  24  39  120  257  379  437  442  425  404  382  362  347  340  340  360  404  442  412  287  116  -26  -110  -143  -143  -135  -137  -147  -165  -193  -225  -248  -262  -281  -307  -329  -345  -364  -382  -380  -351  -326  -336  -360  -362  -312  -198  -61  41  96  113  105  96  130  237  387  505  558  546  433  170  -195  -531  -744  -837  -859  -878  -955  -1103  -1287  -1430  -1465  -1399  -1299  -1208  -1131  -1069  -1026  -999  -978  -963  -956  -946  -900  -802  -703  -662  -690  -743  -747  -678  -593  -533  -484  -411  -292  -156  -79  -108  -233  -405  -558  -649  -688  -717  -756  -787  -800  -800  -799  -801  -805  -810  -816  -824  -835  -839  -827  -798  -755  -687  -556  -335  -66  147  230  130  -185  -613  -935  -1052  -1032  -945  -812  -680  -669  -872  -1217  -1519  -1668  -1690  -1640  -1544  -1419  -1287  -1161  -1036  -910  -787  -677  -581  -456  -240  7  213  510  1035  1726  2492  3247  3791  3875  3284  1959  202  -1401  -2378  -2628  -2338  -1811  -1349  -1097  -952  -764  -515  -297  -171  -115  -71  -19  40  108  175  223  248  259  256  230  176  114  75  69  84  109  168  278  347  284  174  138  161  193  278  504  861  1195  1370  1409  1439  1550  1716  1850  1918  1948  1960  1945  1901  1853  1827  1804  1742  1629  1497  1399  1348  1302  1213  1047  815  581  420  331  243  112  -26  -114  -131  -106  -91  -107  -134  -143  -128  -110  -105  -108  -102  -69  -24  -31  -114  -209  -246  -218  -153  -86  -39  16  134  299  435  503  521  520  524  535  540  526  502  501  545  607  630  601  574  585  598  582  563  583  654  759  866  950  1011  1070  1137  1181  1176  1115  1009  871  730  645  639  673  712  760  810  816  743  624  524  471  439  410  390  382  384  388  389  383  359  308  235  166  115  74  31  -24  -88  -131  -143  -141  -135  -126  -119  -116  -118  -119  -111  -102  -103  -118  -134  -142  -147  -155  -140  -48  135  335  446  445  391  341  312  297  291  290  292  293  285  230  80  -139  -327  -415  -427  -408  -367  -299  -226  -184  -172  -154  -92  4  94  145  164  170  177  186  170  93  -55  -230  -354  -372  -250  49  524  1112  1736  2284  2607  2587  2074  915  -795  -2624  -4077  -4870  -4959  -4516  -3876  -3340  -2992  -2752  -2562  -2430  -2359  -2324  -2285  -2222  -2151  -2101  -2066  -2022  -1962  -1913  -1892  -1887  -1857  -1758  -1585  -1391  -1224  -1069  -867  -615  -385  -235  -166  -143  -113  -14  167  369  503  554  579  614  656  703  760  835  945  1099  1273  1422  1512  1545  1548  1546  1536  1484  1352  1165  1000  871  714  514  344  262  243  220  143  9  -144  -281  -377  -425  -446  -477  -538  -620  -701  -756  -781  -787  -786  -779  -776  -803  -878  -974  -1041  -1059  -1042  -994  -921  -843  -793  -794  -839  -895  -939  -960  -948  -893  -799  -691  -596  -538  -524  -548  -588  -612  -600  -550  -465  -374  -294  -209  -133  -104  -113  -137  -163  -181  -158  -63  90  232  312  341  350  346  331  316  304  292  286  303  363  464  581  689  775  838  877  895  894  882  872  886  933  991  1033  1047  1039  1018  1009  1067  1234  1461  1644  1733  1754  1748  1744  1750  1756  1731  1646  1517  1394  1293  1183  1026  850  720  664  656  671  707  762  826  897  973  1022  982  825  620  466  403  420  489  606  803  1089  1437  1900  2579  3420  4091  4229  3714  2605  1138  -245  -1239  -1818  -2033  -1983  -1811  -1576  -1305  -1085  -985  -1021  -1190  -1443  -1658  -1740  -1698  -1608  -1538  -1507  -1495  -1490  -1486  -1474  -1458  -1447  -1445  -1437  -1404  -1343  -1269  -1204  -1152  -1074  -909  -660  -406  -204  -40  100  207  281  357  472  644  834  980  1073  1152  1249  1377  1524  1655  1729  1745  1735  1727  1726  1710  1635  1470  1226  933  616  335  166  122  135  118  9  -191  -403  -555  -649  -719  -776  -831  -899  -968  -1011  -1024  -1024  -1018  -1000  -964  -922  -895  -891  -896  -887  -837  -730  -591  -463  -338  -186  -34  60  87  85  92  116  138  152  185  254  355  482  614  734  854  996  1153  1284  1342  1331  1302  1291  1298  1314  1331  1352  1374  1379  1357  1315  1279  1259  1234  1171  1080  1003  951  869  679  325  -148  -578  -815  -895  -964  -1094  -1247  -1363  -1427  -1469  -1533  -1634  -1728  -1773  -1780  -1768  -1711  -1577  -1404  -1284  -1246  -1226  -1138  -964  -778  -662  -622  -616  -604  -575  -552  -556  -595  -687  -847  -1042  -1208  -1326  -1438  -1588  -1773  -1953  -2076  -2109  -2083  -2060  -2040  -1964  -1792  -1585  -1461  -1453  -1492  -1521  -1530  -1520  -1485  -1425  -1344  -1198  -870  -249  647  1658  2552  3065  3024  2454  1469  253  -889  -1698  -2056  -1939  -1438  -785  -225  137  340  464  545  582  549  420  197  -48  -220  -305  -373  -483  -644  -821  -964  -1048  -1059  -988  -864  -752  -696  -699  -741  -797  -837  -830  -754  -612  -432  -243  -72  68  194  312  411  485  553  637  732  815  885  965  1050  1112  1131  1103  1024  919  836  793  777  781  786  735  573  343  159  77  64  79  95  84  20  -101  -218  -247  -202  -165  -182  -226  -230  -173  -106  -58  -5  90  234  387  505  588  657  713  759  822  923  1037  1125  1182  1220  1228  1214  1234  1310  1389  1426  1428  1417  1404  1400  1408  1434  1482  1539  1576  1564  1493  1393  1310  1259  1228  1219  1237  1261  1267  1258  1253  1252  1239  1212  1198  1190  1129  998  864  785  758  751  730  675  584  456  275  25  -268  -542  -767  -984  -1228  -1450  -1579  -1611  -1591  -1545  -1477  -1379  -1241  -1090  -990  -961  -967  -972  -976  -993  -1012  -995  -913  -802  -751  -806  -911  -968  -937  -856  -788  -751  -730  -716  -712  -719  -727  -722  -688  -621  -495  -276  -28  111  117  49  -63  -214  -358  -452  -491  -500  -496  -482  -454  -404  -342  -296  -279  -282  -301  -340  -389  -417  -383  -265  -82  90  182  235  402  793  1324  1843  2316  2776  3194  3404  3145  2291  977  -392  -1403  -1933  -2028  -1844  -1632  -1430  -1134  -796  -522  -337  -213  -119  -38  38  126  220  281  293  280  278  314  414  578  765  930  1045  1105  1120  1113  1119  1181  1327  1527  1710  1830  1895  1938  1985  2045  2105  2162  2245  2377  2538  2671  2732  2704  2591  2443  2336  2303  2319  2354  2369  2281  2015  1635  1297  1058  870  697  533  368  202  62  -25  -68  -97  -139  -221  -388  -674  -1045  -1426  -1745  -1942  -2010  -1991  -1918  -1802  -1674  -1572  -1514  -1496  -1524  -1622  -1789  -1967  -2107  -2206  -2272  -2299  -2291  -2263  -2228  -2191  -2145  -2062  -1921  -1744  -1602  -1537  -1530  -1543  -1537  -1453  -1253  -1000  -817  -758  -770  -779  -760  -727  -712  -742  -812  -886  -946  -998  -1041  -1074  -1099  -1111  -1110  -1105  -1117  -1167  -1243  -1294  -1290  -1255  -1224  -1207  -1198  -1196  -1201  -1216  -1233  -1225  -1159  -1035  -879  -717  -568  -466  -425  -425  -434  -440  -450  -472  -504  -530  -547  -562  -573  -578  -581  -558  -476  -332  -159  6  124  176  180  166  160  192  296  466  631  724  745  733  698  621  514  443  449  507  576  669  808  943  986  942  870  789  689  553  383  230  141  110  103  98  93  86  54  -26  -139  -232  -284  -312  -328  -318  -255  -156  -86  -84  -149  -227  -201  28  507  1229  2075  2826  3353  3651  3610  2975  1682  25  -1496  -2410  -2509  -2018  -1402  -934  -601  -327  -99  66  170  230  245  204  124  51  16  12  11  -1  -7  4  11  -8  -62  -136  -187  -190  -170  -153  -145  -144  -151  -175  -214  -235  -200  -115  -22  72  214  441  712  958  1147  1272  1339  1374  1413  1471  1543  1603  1618  1568  1484  1419  1384  1324  1177  957  752  611  503  393  282  180  92  3  -87  -158  -193  -218  -270  -348  -416  -454  -479  -512  -554  -590  -606  -609  -616  -655  -732  -820  -887  -913  -888  -808  -687  -564  -481  -447  -443  -450  -469  -501  -528  -530  -510  -490  -482  -471  -450  -441  -446  -425  -364  -310  -305  -347  -407  -453  -467  -448  -399  -340  -302  -271  -196  -51  114  238  301  319  313  292  266  241  226  222  226  229  229  232  242  255  272  298  326  339  332  316  326  387  480  568  637  701  766  826  862  842  741  576  402  269  203  196  218  232  188  53  -130  -265  -315  -314  -287  -217  -84  80  207  260  265  262  282  342  410  437  472  649  1034  1605  2278  2918  3419  3738  3760  3309  2356  1043  -368  -1518  -2108  -2062  -1561  -984  -596  -336  -21  372  705  886  963  1013  1058  1082  1084  1090  1131  1214  1306  1369  1398  1413  1432  1465  1515  1567  1601  1612  1612  1607  1588  1558  1562  1657  1820  1959  2045  2124  2232  2375  2561  2771  2958  3107  3245  3382  3506  3624  3735  3807  3823  3800  3767  3720  3610  3400  3136  2904  2733  2579  2403  2217  2065  1973  1925  1875  1789  1682  1603  1570  1547  1481  1355  1206  1075  986  959  995  1060  1113  1140  1152  1155  1158  1162  1149  1082  946  791  684  644  655  682  676  618  527  437  376  349  334  316  313  333  337  276  154  20  -95  -179  -223  -230  -223  -223  -237  -273  -343  -437  -520  -564  -576  -575  -575  -595  -654  -751  -856  -940  -994  -1027  -1039  -1028  -993  -918  -783  -626  -552  -626  -794  -958  -1096  -1243  -1398  -1513  -1564  -1574  -1576  -1588  -1613  -1662  -1734  -1794  -1798  -1752  -1705  -1705  -1759  -1831  -1880  -1907  -1931  -1955  -1978  -2048  -2248  -2598  -2998  -3326  -3552  -3740  -3933  -4095  -4178  -4191  -4175  -4164  -4190  -4293  -4489  -4725  -4900  -4973  -4982  -4985  -4999  -4985  -4841  -4502  -4043  -3602  -3234  -2916  -2615  -2313]
