reading_id,reading_time,wire_id,result_classification,heart_rate,heart_rate_alert,firmware_version,device_app_version,hardware_version,waveform_samples
5b53ec40-6502-11ed-8080-808080808080,Tue Nov 15 16:27:11 UTC 2022,e100638c1a39,NSR,72,NONE,20001.171.50,2.10.0,Charge 5,[-123  -495  -827  -1055  -1162  -1218  -1301  -1431  -1547  -1554  -1433  -1256  -1085  -932  -753  -464  -74  298  675  1159  1639  2005  2320  2434  1943  671  -1150  -2963  -4057  -4021  -3072  -1852  -1004  -765  -860  -882  -669  -303  42  263  388  494  599  662  678  703  775  853  890  885  890  1000  1283  1679  2039  2272  2382  2407  2388  2353  2342  2392  2481  2556  2598  2627  2672  2750  2858  2973  3075  3208  3454  3788  4069  4190  4129  3896  3581  3339  3246  3253  3295  3331  3349  3345  3284  3123  2882  2630  2414  2252  2145  2062  1955  1810  1655  1527  1451  1414  1376  1304  1195  1093  1028  987  963  931  846  727  632  572  530  506  519  570  627  645  622  583  557  574  640  724  806  878  908  836  636  377  180  114  185  371  591  738  781  772  762  766  779  798  828  849  805  647  413  217  124  128  228  396  554  654  711  753  782  742  547  170  -285  -654  -840  -891  -913  -956  -1017  -1089  -1161  -1198  -1170  -1062  -886  -697  -564  -506  -494  -501  -537  -643  -839  -1003  -856  -234  719  1709  2390  2546  2452  2511  2560  2172  1265  -3  -1408  -2546  -3033  -2899  -2423  -1747  -1013  -486  -286  -309  -424  -547  -629  -653  -617  -521  -396  -306  -275  -287  -319  -361  -400  -408  -327  -116  155  351  420  416  405  428  525  735  1053  1405  1695  1857  1906  1896  1854  1788  1728  1700  1714  1787  1929  2112  2278  2396  2502  2615  2687  2677  2612  2583  2659  2813  2949  2955  2774  2459  2052  1510  911  480  310  320  416  514  543  486  391  321  302  315  327  301  193  -19  -270  -448  -534  -596  -645  -628  -542  -456  -416  -414  -446  -520  -622  -713  -775  -822  -865  -908  -943  -960  -949  -908  -852  -812  -797  -797  -805  -827  -862  -900  -938  -986  -1045  -1086  -1056  -907  -683  -501  -399  -316  -191  -23  140  234  248  230  228  269  369  501  614  691  745  783  806  821  826  821  810  803  800  798  792  786  805  870  967  1061  1158  1293  1448  1572  1642  1652  1550  1291  969  816  1023  1576  2206  2612  2763  2788  2728  2507  1882  584  -1285  -3177  -4493  -4941  -4565  -3664  -2728  -2094  -1687  -1347  -1107  -1035  -1118  -1244  -1289  -1238  -1171  -1140  -1127  -1103  -1070  -1055  -1056  -1017  -873  -645  -440  -335  -299  -270  -230  -197  -188  -200  -218  -200  -90  124  368  560  698  803  866  883  876  866  865  875  883  860  784  687  648  704  783  786  710  650  657  676  645  589  557  553  541  477  335  122  -105  -280  -384  -435  -446  -428  -397  -373  -363  -347  -299  -224  -150  -96  -50  18  105  160  143  57  -65  -188  -284  -319  -284  -228  -199  -199  -211  -234  -288  -378  -489  -599  -684  -715  -695  -681  -706  -748  -770  -773  -770  -769  -770  -769  -761  -757  -789  -885  -1018  -1104  -1091  -998  -881  -763  -626  -481  -385  -347  -333  -359  -517  -855  -1256  -1530  -1620  -1608  -1577  -1550  -1511  -1431  -1319  -1210  -1133  -1090  -1066  -1040  -1001  -965  -971  -1050  -1176  -1225  -1046  -645  -149  397  1003  1590  2069  2363  2333  1857  934  -343  -1794  -3078  -3836  -3902  -3357  -2448  -1521  -896  -647  -593  -549  -464  -376  -331  -334  -337  -262  -60  201  395  470  469  453  462  496  526  537  536  542  560  582  602  651  770  933  1059  1121  1160  1222  1306  1351  1313  1238  1197  1208  1249  1292  1335  1399  1471  1496  1444  1355  1290  1270  1281  1304  1318  1289  1158  914  643  449  342  254  129  -24  -170  -313  -453  -548  -580  -585  -609  -689  -841  -1009  -1086  -1019  -874  -758  -716  -720  -740  -764  -790  -816  -851  -896  -923  -891  -780  -643  -574  -592  -637  -661  -665  -662  -656  -644  -628  -614  -609  -621  -653  -685  -665  -553  -391  -272  -236  -248  -269  -282  -275  -233  -158  -74  5  55  46  -10  -63  -105  -175  -282  -384  -448  -488  -532  -593  -645  -634  -557  -481  -458  -491  -556  -630  -693  -732  -741  -724  -714  -747  -756  -592  -182  442  1165  1803  2305  2770  3097  2982  2289  1044  -615  -2250  -3340  -3689  -3406  -2681  -1709  -811  -323  -266  -410  -574  -671  -618  -332  144  598  836  840  694  506  373  324  326  334  337  357  419  538  716  912  1049  1100  1108  1120  1142  1154  1154  1168  1242  1388  1589  1821  2039  2177  2224  2235  2246  2238  2188  2112  2055  2021  1976  1897  1791  1666  1526  1396  1314  1288  1264  1184  1027  833  668  555  451  274  -16  -345  -588  -696  -707  -669  -599  -518  -463  -447  -451  -458  -466  -483  -509  -530  -529  -493  -423  -347  -293  -271  -278  -308  -342  -360  -353  -317  -261  -211  -182  -170  -171  -172  -157  -108  -29  46  92  105  98  71  6  -95  -197  -243  -188  -62  53  116  140  144  133  104  55  -6  -69  -130  -205  -305  -416  -512  -565  -561  -504  -426  -369  -357  -392  -458  -526  -565  -567  -539  -494  -432  -371  -386  -466  -382  52  719  1466  2227  2782  2956  2810  2314  1394  222  -982  -2132  -2991  -3230  -2852  -2150  -1396  -815  -533  -467  -456  -420  -348  -240  -114  -6  73  136  175  175  134  76  41  52  107  188  239  226  202  239  326  399  430  432  419  405  410  457  550  689  886  1105  1263  1330  1334  1300  1249  1204  1178  1171  1174  1181  1189  1197  1196  1169  1088  924  683  415  166  -33  -142  -158  -137  -164  -309  -550  -780  -920  -982  -1022  -1077  -1148  -1215  -1260  -1291  -1313  -1327  -1339  -1348  -1352  -1356  -1375  -1406  -1433  -1443  -1440  -1433  -1424  -1412  -1394  -1362  -1306  -1240  -1202  -1224  -1291  -1359  -1401  -1419  -1422  -1397  -1322  -1204  -1085  -1001  -967  -973  -984  -946  -820  -646  -518  -485  -517  -564  -604  -651  -733  -863  -1016  -1155  -1273  -1384  -1494  -1581  -1605  -1552  -1465  -1386  -1311  -1238  -1204  -1237  -1308  -1365  -1387  -1394  -1430  -1543  -1710  -1759  -1431  -682  188  924  1548  2087  2497  2730  2577  1786  435  -1111  -2459  -3238  -3253  -2713  -2024  -1430  -974  -640  -402  -235  -134  -96  -100  -121  -134  -131  -119  -86  24  253  528  717  778  768  728  661  589  564  620  723  805  842  856  869  882  913  991  1115  1273  1485  1757  2033  2243  2355  2390  2391  2388  2380  2356  2323  2305  2335  2418  2524  2596  2581  2435  2177  1893  1648  1435  1265  1172  1127  1044  878  673  509  425  405  412  422  427  425  408  369  313  257  207  169  157  159  165  220  326  410  425  390  349  315  277  234  203  198  217  242  254  260  289  341  377  363  320  290  286  284  230  91  -82  -166  -83  111  306  440  522  585  655  734  789  772  652  460  285  178  106  31  -44  -112  -176  -228  -257  -260  -258  -286  -369  -484  -579  -627  -629  -589  -536  -510  -433  -130  451  1204  1954  2498  2740  2773  2680  2343  1599  405  -1117  -2557  -3343  -3248  -2535  -1637  -915  -538  -408  -312  -156  0  92  127  128  88  -3  -108  -136  -19  203  410  533  606  668  698  669  604  547  510  467  409  364  370  453  604  781  953  1097  1186  1243  1333  1493  1679  1814  1876  1878  1831  1750  1667  1607  1566  1526  1467  1376  1260  1133  993  819  594  318  48  -151  -289  -410  -528  -636  -750  -900  -1066  -1198  -1274  -1323  -1383  -1461  -1537  -1597  -1639  -1648  -1602  -1486  -1338  -1234  -1188  -1153  -1101  -1064  -1087  -1148  -1165  -1112  -1052  -1047  -1102  -1174  -1203  -1125  -913  -656  -497  -481  -544  -599  -613  -608  -606  -597  -558  -474  -355  -233  -148  -112  -112  -158  -292  -518  -721  -742  -580  -364  -166  -9  51  -19  -167  -316  -451  -594  -738  -854  -931  -970  -988  -1005  -1020  -1011  -991  -1007  -1049  -1048  -989  -939  -941  -972  -995  -1005  -1006  -969  -854  -690  -554  -416  -152  300  931  1656  2285  2612  2523  1989  1029  -270  -1680  -2859  -3546  -3594  -3014  -2148  -1461  -1090  -860  -622  -376  -197  -114  -93  -92  -76  -25  46  100  122  130  128  101  62  63  129  221  297  354  406  444  470  511  595  745  958  1178  1330  1387  1389  1402  1469  1570  1657  1728  1808  1893  1964  2017  2040  2031  2014  1990  1945  1903  1893  1897  1849  1678  1395  1110  923  811  670  439  185  23  -29  -57  -148  -317  -510  -669  -782  -864  -907  -882  -774  -626  -513  -461  -446  -461  -516  -600  -671  -707  -722  -740  -761  -781  -791  -767  -699  -598  -479  -369  -299  -279  -288  -305  -321  -334  -339  -319  -254  -159  -93  -120  -267  -471  -620  -650  -583  -470  -362  -299  -305  -368  -446  -484  -466  -438  -449  -474  -462  -400  -315  -246  -193  -130  -39  69  150  125  -50  -324  -571  -703  -733  -725  -712  -680  -610  -540  -541  -630  -748  -836  -870  -861  -840  -825  -806  -768  -715  -672  -648  -613  -500  -244  172  683  1205  1742  2294  2738  2881  2569  1738  435  -1111  -2516  -3426  -3668  -3276  -2466  -1569  -932  -685  -654  -625  -542  -433  -316  -210  -131  -81  -50  -42  -58  -92  -108  -61  52  178  258  291  309  330  353  379  433  548  706  838  898  903  885  866  870  937  1091  1280  1414  1467  1482  1504  1560  1676  1829  1951  1998  1983  1935  1866  1789  1719  1670  1619  1506  1294  1022  762  552  390  254  133  40  -30  -136  -333  -578  -751  -799  -767  -717  -689  -690  -701  -706  -705  -702  -692  -662  -604  -529  -465  -439  -463  -520  -585  -638  -669  -683  -672  -609  -486  -367  -336  -392  -459  -492  -497  -490  -470  -423  -352  -283  -230  -200  -207  -264  -370  -486  -559  -582  -584  -585  -566  -502  -399  -303  -251  -237  -230  -216  -199  -186  -181  -197  -245  -310  -365  -410  -451  -455  -399  -323  -267  -219  -156  -96  -90  -139  -193  -210  -172  -70  93  275  406  446  381  203  -27  -198  -257  -245  -221  -230  -312  -477  -672  -822  -882  -848  -727  -572  -461  -425  -436  -460  -482  -496  -523  -614  -785  -908  -782  -302  531  1549  2429  3003  3318  3362  3036  2275  1022  -667  -2425  -3685  -4037  -3415  -2122  -803  -49  71  -87  -211  -196  -54  139  288  350  356  342  333  337  360  395  427  447  455  452  449  469  532  624  700  745  771  797  848  938  1052  1156  1233  1279  1299  1318  1357  1439  1580  1750  1877  1925  1917  1885  1850  1828  1827  1849  1883  1906  1880  1774  1613  1461  1320  1138  915  712  544  377  216  101  26  -56  -164  -265  -345  -401  -433  -438  -428  -420  -443  -519  -629  -720  -752  -725  -656  -571  -494  -454  -460  -490  -517  -537  -558  -579  -594  -589  -559  -509  -470  -460  -426  -328  -197  -86  -29  -60  -195  -388  -549  -630  -645  -626  -584  -520  -454  -416  -410  -421  -443  -483  -556  -645  -707  -724  -718  -716  -742  -808  -895  -958  -964  -905  -794  -664  -574  -582  -683  -807  -884  -892  -853  -804  -753  -693  -625  -562  -520  -516  -554  -595  -585  -522  -466  -451  -458  -431  -330  -178  -50  8  -10  -97  -206  -278  -305  -336  -435  -618  -814  -934  -962  -947  -928  -908  -871  -816  -757  -711  -685  -678  -689  -719  -767  -835  -928  -997  -926  -678  -341  57  595  1330  2203  2977  3276  2777  1457  -350  -2155  -3465  -3953  -3685  -3061  -2439  -1907  -1388  -861  -444  -228  -173  -190  -227  -272  -322  -368  -389  -356  -260  -106  72  212  279  310  364  446  508  526  523  535  590  695  822  917  961  988  1048  1137  1220  1276  1308  1340  1378  1384  1318  1214  1146  1180  1346  1586  1785  1889  1916  1875  1750  1573  1414  1314  1256  1205  1126  987  789  589  448  359  283  215  159  106  43  -41  -139  -217  -259  -276  -282  -267  -215  -137  -58  22  115  207  281  327  343  344  349  378  430  486  506  477  441  465  581  732  834  885  942  1003  1022  986  925  884  872  867  841  779  703  653  644  653  638  560  426  289  178  77  0  11  117  243  330  357  323  253  181  143  166  218  241  214  133  -8  -167  -278  -338  -399  -467  -493  -455  -385  -324  -284  -257  -231  -187  -106  -5  65  89  93  109  141  170  179  162  105  -27  -273  -595  -863  -991  -1003  -963  -898  -817  -754  -755  -819  -896  -950  -976  -989  -999  -1011  -1016  -1012  -1003  -996  -936  -700  -226  423  1089  1619  1982  2200  2206  1899  1215  79  -1418  -2823  -3611  -3615  -3035  -2179  -1345  -804  -630  -651  -686  -690  -680  -663  -624  -562  -505  -467  -418  -313  -166  -37  56  132  186  211  224  243  269  288  300  312  328  357  435  598  809  979  1063  1086  1099  1150  1231  1290  1303  1306  1380  1564  1769  1871  1856  1800  1771  1766  1728  1634  1513  1401  1307  1219  1125  1018  891  729  503  238  25  -89  -157  -243  -373  -544  -726  -870  -951  -981  -985  -977  -957  -922  -868  -803  -752  -749  -787  -826  -842  -851  -873  -904  -927  -935  -947  -969  -972  -937  -889  -860  -839  -796  -711  -605  -528  -501  -507  -527  -551  -551  -497  -407  -343  -336  -362  -386  -394  -392  -391  -398  -409  -414  -425  -471  -551  -615  -639  -638  -635  -633  -618  -561  -438  -281  -169  -142  -190  -288  -419  -552  -629  -602  -503  -411  -373  -369  -348  -281  -207  -198  -282  -428  -581  -660  -623  -530  -452  -396  -347  -302  -271  -259  -256  -256  -245  -208  -147  -73  11  99  169  201  197  175  109  -58  -326  -599  -780  -847  -829  -762  -677  -606  -572  -589  -645  -696  -716  -718  -725  -745  -762  -773  -777  -712  -514  -157  369  1004  1613  2136  2613  3004  3103  2696  1738  363  -1130  -2311  -2869  -2840  -2447  -1852  -1218  -753  -543  -478  -412  -314  -239  -213  -197  -139  -35  71  143  173  179  195  239  283  276  221  184  225  340  470  556  583  585  617  717  860  989  1081  1163  1268  1428  1634  1828  1960  2028  2050  2035  2002  1988  2030  2128  2255  2354  2353  2231  2039  1865  1784  1790  1811  1782  1659  1424  1137  911  790  717  610  427  210  40  -82  -221  -372  -475  -509  -505  -489  -460  -411  -348  -289  -253  -255  -294  -349  -392  -411  -414  -417  -424  -424  -398  -339  -269  -215  -184  -168  -156  -132  -79  5  103  174  200  203  202  191  140  35  -99  -214  -257  -222  -147  -88  -87  -136  -192  -226  -246  -280  -330  -345  -282  -183  -126  -136  -191  -248  -289  -337  -430  -587  -765  -886  -919  -891  -833  -742  -593  -405  -254  -186  -199  -294  -461  -635  -739  -751  -704  -642  -601  -589  -591  -593  -591  -595  -620  -669  -721  -746  -723  -657  -584  -521  -456  -395  -350  -299  -237  -193  -175  -159  -122  -66  -8  40  67  45  -61  -276  -563  -825  -971  -1000  -973  -933  -881  -804  -729  -696  -703  -721  -735  -739  -717  -645  -539  -458  -448  -500  -545  -457  -136  418  1134  1897  2563  3018  3159  2839  1977  691  -763  -2075  -2955  -3210  -2857  -2144  -1381  -821  -550  -448  -374  -292  -227  -197  -192  -192  -190  -180  -156  -97  10  145  244  275  270  274  291  307  324  350  402  514  693  892  1041  1109  1114  1102  1108  1146  1204  1276  1389  1551  1713  1834  1929  2019  2094  2143  2172  2191  2203  2197  2157  2077  1953  1790  1618  1493  1433  1393  1318  1200  1075  957  796  542  247  23  -103  -205  -342  -486  -580  -622  -655  -700  -736  -743  -731  -726  -733  -745  -736  -680  -587  -505  -468  -466  -462  -434  -390  -354  -341  -354  -397  -456  -495  -483  -414  -323  -255  -210  -164  -114  -79  -67  -66  -66  -72  -100  -161  -252  -350  -409  -392  -299  -186  -139  -173  -213  -218  -218  -242  -277  -295  -294  -292  -291  -284  -272  -261  -261  -270  -276  -281  -302  -347  -401  -441  -455  -448  -449  -468  -487  -492  -485  -477  -467  -448  -418  -400  -413  -454  -513  -573  -608  -600  -550  -489  -448  -436  -435  -422  -386  -335  -293  -270  -261  -253  -225  -140  16  196  335  414  430  352  160  -77  -253  -349  -431  -547  -681  -788  -852  -906  -961  -981  -932  -835  -752  -712  -691  -651  -591  -548  -555  -621  -721  -819  -836  -578  38  799  1480  2054  2571  2997  3124  2702  1609  -89  -1971  -3358  -3851  -3569  -2850  -1977  -1229  -814  -648  -514  -364  -266  -235  -221  -191  -151  -123  -113  -110  -76  16  144  236  265  267  277  299  318  326  326  324  330  366  440  539  636  711  757  783  832  956  1132  1286  1400  1530  1701  1863  1969  2033  2080  2104  2089  2043  1999  1979  1967  1926  1834  1720  1609  1479  1321  1158  983  761  497  245  58  -70  -165  -223  -232  -211  -195  -207  -245  -290  -337  -391  -458  -525  -566  -579  -582  -584  -563  -492  -374  -245  -150  -115  -134  -173  -194  -189  -177  -171  -158  -123  -74  -51  -83  -143  -192  -235  -312  -422  -512  -537  -481  -367  -249  -162  -115  -104  -111  -114  -111  -118  -163  -236  -264  -214  -180  -247  -346  -367  -318  -261  -218  -203  -239  -325  -426  -501  -539  -556  -559  -548  -531  -515  -496  -476  -458  -447  -447  -469  -521  -602  -690  -749  -770  -761  -722  -644  -541  -463  -455  -501  -548  -554  -504  -430  -366  -307  -252  -216  -202  -194  -185  -184  -208  -250  -278  -279  -274  -260  -207  -128  -56  16  117  232  313  352  373  374  309  140  -89  -282  -396  -454  -477  -480  -505  -589  -710  -802  -818  -754  -638  -521  -447  -437  -485  -575  -688  -814  -905  -786  -241  669  1604  2340  2869  3198  3327  3164  2444  1076  -649  -2269  -3323  -3575  -3144  -2296  -1312  -553  -235  -215  -248  -239  -207  -173  -123  -42  60  173  283  371  425  451  460  453  441  435  437  439  431  404  367  347  367  425  517  665  883  1116  1287  1396  1492  1594  1689  1753  1769  1761  1761  1779  1817  1893  2011  2132  2182  2123  1998  1891  1842  1833  1838  1845  1825  1724  1500  1181  860  616  445  317  211  62  -196  -506  -719  -783  -760  -718  -679  -636  -583  -534  -519  -547  -591  -623  -643  -655  -662  -675  -708  -754  -790  -804  -802  -788  -752  -686  -591  -478  -380  -324  -306  -303  -296  -280  -258  -237  -223  -224  -252  -323  -429  -533  -617  -707  -806  -875  -872  -786  -652  -530  -460  -445  -461  -484  -492  -491  -493  -502  -514  -535  -560  -582  -598  -614  -620  -601  -558  -519  -505  -504  -496  -486  -492  -503  -481  -409  -326  -265  -236  -259  -348  -470  -580  -642  -652  -626  -576  -512  -450  -408  -389  -390  -399  -397  -357  -272  -173  -110  -98  -115  -129  -117  -65  16  91  132  148  166  182  156  53  -106  -262  -372  -445  -521  -623  -725  -782  -782  -744  -680  -607  -550  -524  -526  -553  -603  -665  -715  -735  -690  -542  -303  -2  413  1022  1817  2643  3229  3349  2938  2034  764  -684  -2078  -3144  -3622  -3434  -2789  -2014  -1343  -872  -598  -469  -410  -341  -209  -33  117  191  201  188  186  213  264  326  389  448  487  498  495  513  579  677  759  820  891  972  1028  1049  1063  1113  1209  1335  1457  1535  1563  1576  1609  1679  1784  1898  1984  2033  2059  2085  2113  2107  2037  1934  1856  1827  1830  1833  1781  1631  1406  1176  954  695  415  196  71  -18  -134  -270  -386  -463  -520  -573  -610  -622  -619  -618  -624  -635  -644  -647  -648  -650  -652  -643  -615  -575  -540  -512  -487  -472  -481  -524  -584  -629  -644  -636  -615  -587  -563  -541  -501  -428  -332  -252  -215  -205  -206  -217  -237  -277  -361  -472  -554  -581  -572  -552  -532  -503  -444  -364  -301  -291  -349  -444  -524  -571  -598  -616  -626  -633  -635  -618  -568  -490  -407  -340  -309  -348  -498  -726  -925  -1015  -987  -863  -705  -595  -561  -571  -584  -574  -532  -476  -436  -423  -414  -390  -361  -351  -360  -361  -321  -213  -43  131  242  281  283  270  239  188  109  -29  -233  -437  -571  -640  -690  -727  -736  -710  -661  -618  -608  -631  -669  -694  -701  -706  -708  -673  -596  -508  -446  -392  -253  86  653  1379  2197  2996  3495  3427  2753  1526  -119  -1852  -3250  -3944  -3752  -2852  -1728  -880  -503  -421  -405  -400  -405  -394  -344  -278  -225  -171  -105  -46  -1  34  55  57  54  75  147  261  363  406  399  386  415  506  636  762  849  890  919  977  1063  1125  1130  1139  1233  1395  1553  1661  1746  1855  1968  2035  2051  2051  2048  2022  1949  1841  1731  1610  1456  1271  1072  885  740  607  426  211  22  -127  -266  -392  -483  -534  -573  -639  -729  -803  -834  -825  -787  -717  -623  -534  -480  -462  -454  -437  -413  -395  -385  -391  -410  -431  -446  -448  -433  -413  -398  -388  -358  -295  -230  -213  -219  -182  -93  2  53  34  -29  -87  -110  -104  -89  -75  -63  -53  -50  -59  -89  -136  -180  -201  -180  -119  -57  -23  -13  -16  -24  -34  -41  -43  -56  -105  -210  -373  -537  -609  -543  -394  -259  -177  -134  -131  -177  -234  -262  -261  -253  -250  -248  -245  -238  -232  -229  -239  -268  -312  -347  -344  -284  -172  -57  10  25  11  -6  0  70  218  386  496  519  466  359  235  134  53  -33  -138  -267  -428  -592  -700  -737  -743  -749  -758  -769  -780  -785  -770  -735  -699  -686  -690  -681  -669  -692  -652  -365  232  1062  1948  2698  3210  3385  3113  2380  1254  -150  -1624  -2803  -3339  -3181  -2584  -1899  -1384  -1109  -967  -817  -626  -455  -356  -327  -341  -384  -440  -449  -337  -123  81  194  223  212  197  196  228  305  412  513  581  630  683  741  803  885  978  1046  1073  1068  1041  1028  1124  1414  1810  2100  2197  2184  2155  2140  2136  2138  2136  2094  1978  1818  1700  1661  1676  1713  1741  1704  1523  1194  817  472  163  -93  -254  -333  -409  -533  -691  -844  -972  -1076  -1148  -1157  -1093  -1013  -983  -1006  -1043  -1074  -1095  -1102  -1094  -1066  -1025  -983  -939  -876  -782  -681  -613  -589  -592  -617  -678  -762  -823  -811  -708  -546  -384  -248  -136  -61  -33  -56  -141  -275  -407  -486  -515  -523  -525  -528  -530  -533  -536  -539  -539  -537  -538  -547  -566  -586  -583  -536  -444  -365  -374  -467  -562  -608  -617  -616  -615  -607  -577  -524  -465  -403  -327  -248  -214  -254  -339  -414  -462  -502  -541  -581  -628  -658  -635  -562  -454  -322  -198  -125  -109  -119  -129  -135  -129  -98  -52  -14  16  81  210  367  481  515  479  387  281  207  159  89  -43  -211  -346  -424  -476  -513  -513  -459  -369  -291  -260  -273  -313  -365  -413  -465  -531  -604  -656  -650  -561  -361  8  586  1333  2153  2950  3573  3786  3403  2345  717  -1089  -2550  -3249  -3089  -2437  -1811  -1399  -1113  -836  -523  -242  -56  64  163  228  252  259  275  301  323  326  300  258  243  281  342  408  510  646  755  797  790  786  837  965  1130  1257  1310  1312  1303  1312  1355  1450  1607  1786  1932  2046  2147  2229  2294  2347  2368  2342  2278  2209  2167  2142  2085  1969  1812  1640  1462  1291  1142  1004  844  644  406  150  -77  -236  -336  -419  -512  -609  -687  -728  -734  -722  -711  -725  -795  -921  -1048  -1118  -1097  -983  -824  -695  -621  -578  -562  -617  -770  -912  -869  -644  -415  -290  -240  -225  -236  -289  -396  -543  -664  -691  -633  -564  -529  -524  -513  -456  -363  -300  -324  -434  -559  -632  -672  -711  -719  -695  -677  -671  -649  -582  -483  -417  -442  -545  -668  -753  -782  -764  -710  -644  -596  -576  -576  -599  -654  -721  -747  -696  -599  -515  -479  -476  -477  -468  -456  -464  -507  -582  -654  -685  -689  -687  -652  -578  -487  -382  -292  -261  -301  -388  -478  -531  -550  -533  -442  -247  -13  146  200  203  215  249  272  219  39  -206  -391  -463  -469  -456  -455  -499  -587  -677  -734  -755  -743  -700  -641  -591  -567  -571  -598  -636  -642  -538  -309  -77  88  305  715  1332  2066  2786  3317  3427  2946  1894  463  -1081  -2437  -3268  -3354  -2789  -1908  -1070  -521  -320  -322  -364  -381  -352  -251  -66  137  245  209  99  27  38  98  155  204  264  337  416  490  548  609  709  864  1038  1174  1255  1300  1306  1267  1240  1296  1437  1596  1724  1830  1927  1998  2045  2096  2155  2198  2217  2229  2250  2274  2293  2303  2304  2278  2198  2052  1867  1685  1508  1277  954  588  292  135  97  100  52  -104  -355  -621  -817  -905  -917  -905  -906  -922  -938  -940  -939  -949  -966  -975  -968  -946  -926  -919  -924  -930  -929  -901  -824  -719  -642  -620  -639  -675  -706  -717  -710  -705  -716  -736  -733  -677  -595  -562  -586  -616  -603  -530  -418  -314  -253  -231  -222  -213  -213  -240  -311  -404  -489  -557  -600  -609  -595  -576  -556  -539  -532  -535  -546  -562  -573  -575  -560  -533  -519  -531  -551  -556  -540  -486  -385  -270  -196  -191  -244  -326  -392  -392  -273  -25  256  443  490  404  177  -144  -424  -575  -632  -667  -707  -744  -768  -772  -749  -695  -633  -597  -585  -587  -596  -599  -591  -591  -636  -772  -950  -994  -749  -154  722  1646  2441  3070  3441  3412  2888  1864  496  -988  -2331  -3167  -3274  -2808  -2100  -1426  -940  -636  -467  -388  -312  -174  1  139  198  194  165  145  161  235  367  525  660  737  761  757  736  698  655  634  639  648  657  700  795  915  1034  1152  1276  1401  1511  1591  1630  1648  1705  1845  2033  2184  2267  2312  2349  2378  2385  2397  2425  2397  2268  2079  1868  1633  1382  1143  940  776  617  429  233  93  25  -27  -128  -287  -460  -606  -708  -768  -799  -824  -841  -835  -809  -788  -780  -789  -826  -893  -967  -1016  -1032  -1024  -995  -938  -855  -765  -689  -635  -590  -542  -504  -496  -508  -520  -523  -524  -541  -574  -580  -525  -443  -393  -407  -486  -594  -678  -706  -671  -571  -445  -357  -329  -332  -341  -353  -379  -407  -414  -394  -381  -408  -467  -531  -573  -571  -538  -509  -491  -443  -335  -196  -89  -37  -29  -52  -102  -175  -266  -364  -451  -489  -434  -275  -51  166  323  407  434  408  317  174  15  -150  -312  -413  -423  -387  -359  -360  -393  -463  -576  -724  -860  -930  -916  -836  -716  -599  -548  -595  -699  -809  -919  -994  -871  -415  276  1019  1732  2364  2873  3217  3260  2840  1893  472  -1150  -2468  -3099  -3085  -2690  -2110  -1527  -1118  -889  -713  -510  -298  -138  -61  -44  -55  -74  -90  -98  -101  -102  -90  -55  -8  22  29  55  163  368  598  753  808  810  816  850  889  903  903  937  1031  1179  1357  1536  1717  1933  2160  2320  2381  2375  2329  2250  2165  2113  2105  2118  2130  2139  2139  2110  2014  1826  1569  1296  1026  768  551  358  151  -60  -246  -393  -505  -606  -708  -782  -808  -806  -800  -799  -804  -816  -831  -845  -854  -855  -839  -801  -753  -722  -713  -715  -720  -725  -724  -708  -678  -648  -623  -599  -572  -541  -512  -491  -483  -486  -494  -505  -524  -561  -605  -626  -607  -558  -513  -491  -486  -475  -447  -418  -414  -439  -472  -499  -537  -593  -639  -658  -657  -647  -626  -603  -589  -583  -567  -529  -481  -436  -396  -383  -404  -430  -433  -414  -400  -410  -436  -463  -492  -526  -545  -491  -314  -50  175  284  313  329  324  227  0  -277  -465  -543  -595  -680  -794  -911  -982  -971  -913  -862  -832  -820  -819  -821  -823  -840  -884  -941  -1013  -1110  -1142  -964  -507  215  1131  2094  2879  3302  3335  2954  2079  747  -821  -2266  -3236  -3554  -3284  -2666  -1957  -1365  -996  -808  -704  -644  -621  -622  -618  -583  -511  -414  -296  -174  -88  -64  -92  -148  -199  -234  -273  -311  -306  -215  -26  224  458  594  615  579  555  550  536  525  566  697  896  1110  1304  1468  1597  1715  1854  2011  2151  2269  2378  2457  2480  2447  2359  2199  1974  1741  1571  1470  1368  1194  941  671  441  262  128  35  -33  -102  -168  -220  -287  -409  -555  -648  -663  -657  -695  -766  -806  -790  -753  -723  -707  -705  -715  -727  -723  -697  -662  -624  -585  -554  -539  -538  -544  -550  -542  -503  -432  -355  -294  -255  -239  -242  -246  -235  -212  -187  -166  -159  -174  -217  -275  -333  -381  -398  -373  -338  -329  -343  -361  -386  -429  -473  -477  -430  -360  -291  -239  -221  -236  -267  -290  -299  -300  -300  -302  -307  -314  -323  -327  -319  -291  -252  -223  -215  -220  -229  -236  -229  -192  -117  10  205  423  583  667  712  735  735  720  704  697  697  696  698  715  754  783  739  592  401  251  150  52  -42  -98  -105  -81  -54  -41  -36  -30  -25  -27  -46  -90  -158  -233  -290  -336  -378  -357  -156  319  1100  2042  2849  3355  3634  3764  3608  2926  1612  -237  -2212  -3579  -3845  -3182  -2064  -952  -258  -58  -76  -90  -76  -64  -58  -55  -56  -73  -116  -159  -148  -65  52  159  229  256  252  243  240  246  265  304  365  431  477  494  494  502  567  730  947  1126  1233  1295  1335  1358  1381  1427  1495  1567  1646  1731  1800  1834  1845  1851  1854  1827  1743  1616  1491  1376  1244  1093  938  749  476  173  -42  -158  -267  -404  -512  -556  -563  -577  -629  -726  -853  -986  -1099  -1176  -1230  -1265  -1268  -1248  -1219  -1180  -1135  -1101  -1087  -1089  -1089  -1062  -989  -872  -748  -675  -678  -730  -790  -840  -875  -894  -894  -873  -828  -767  -717  -688  -669  -656  -653  -655  -655  -654  -661  -687  -734  -789  -843  -888  -916  -926  -920  -894  -842  -781  -753  -787  -866  -941  -977  -971  -943  -915  -886  -845  -786  -707  -611  -510  -432  -402  -423  -474  -530  -579  -602  -585  -518  -400  -253  -115  -10  57  102  154  232  329  406  432  414  369  296  208  128  61  0  -57  -118  -191  -267  -318  -335  -330  -320  -315  -330  -376  -426  -421  -338  -212  -100  -32  25  123  262  473  874  1538  2393  3237  3791  3806  3232  2205  863  -627  -1958  -2795  -3008  -2705  -2094  -1409  -865  -545  -371  -234  -100  -5  33  45  57  66  59  52  68  105  140  162  171  174  177  184  222  321  453  553  592  587  568  550  536  530  564  681  874  1086  1264  1407  1564  1786  2039  2226  2304  2311  2303  2303  2314  2335  2357  2356  2298  2168  2013  1900  1844  1810  1758  1634  1383  1026  659  356  133  -37  -191  -318  -388  -403  -386  -353  -324  -342  -445  -603  -743  -835  -893  -924  -936  -940  -945  -948  -937  -908  -858  -801  -756  -709  -629  -509  -378  -271  -208  -192  -229  -324  -466  -611  -704  -729  -710  -665  -593  -502  -417  -359  -330  -345  -419  -525  -605  -634  -633  -628  -632  -642  -636  -590  -518  -464  -457  -493  -548  -602  -662  -745  -813  -811  -757  -721  -724  -738  -746  -749  -750  -739  -710  -670  -640  -630  -632  -639  -646  -645  -623  -583  -549  -535  -537  -540  -532  -507  -469  -434  -410  -389  -368  -357  -359  -359  -325  -240  -132  -50  -15  -7  -12  -54  -182  -380  -570  -701  -780  -821  -837  -845  -847  -831  -790  -743  -711  -704  -710  -719  -725  -721  -698  -660  -634  -632  -597  -386  93  810  1636  2386  2916  3186  3179  2823  2043  839  -639  -2037  -2935  -3151  -2777  -2084  -1453  -1120  -987  -838  -620  -420  -295  -234  -214  -223  -248  -258  -187  16  287  463  467  375  292  255  252  288  385  525  646  712  757  835  956  1080  1172  1234  1295  1372  1442  1478  1508  1595  1763  1973  2160  2273  2307  2308  2328  2362  2362  2333  2317  2315  2311  2277  2182  2045  1914  1784  1621  1417  1196  984  773  525  266  73  -38  -137  -267  -411  -510  -531  -528  -582  -671  -708  -646  -534  -453  -425  -417  -407  -396  -398  -419  -439  -447  -445  -442  -448  -472  -504  -528  -531  -520  -504  -491  -477  -451  -424  -417  -431  -445  -442  -414  -368  -325  -300  -293  -297  -306  -323  -365  -446  -543  -608  -630  -629  -620  -605  -575  -521  -459  -413  -391  -388  -428  -539  -692  -807  -844  -814  -739  -652  -598  -582  -563  -507  -436  -409  -445  -507  -555  -581  -593  -606  -633  -673  -697  -678  -619  -529  -428  -363  -358  -380  -392  -394  -405  -439  -496  -577  -670  -710  -642  -499  -367  -289  -257  -247  -245  -242  -243  -258  -282  -285  -240  -166  -100  -52  -10  32  82  134  176  192  183  172  185  229  284  318  302  227  95  -64  -204  -299  -358  -393  -409  -422  -454  -498  -522  -512  -481  -449  -435  -448  -469  -482  -488  -498  -498  -444  -288  -5  397  906  1495  2101  2683  3225  3554  3430  2765  1499  -271  -2047  -3210  -3461  -2939  -2016  -1120  -596  -451  -400  -259  -73  52  97  89  38  -59  -133  -72  114  290  374  397  410  421  437  484  580  685  729  714  702  717  752  799  858  928  1008  1102  1233  1403  1561  1646  1657  1629  1612  1656  1761  1882  2000  2120  2218  2278  2320  2350  2346  2306  2250  2185  2095  1976  1835  1663  1420  1101  783  559  425  320  209  99  -4  -109  -215  -305  -366  -412  -469  -552  -646  -712  -730  -715  -691  -673  -666  -685  -739  -814  -872  -898  -898  -888  -884  -900  -922  -909  -836  -730  -654  -630  -631  -634  -636  -647  -680  -732  -780  -805  -811  -808  -804  -794  -771  -734  -691  -645  -608  -597  -607  -625  -651  -690  -743  -815  -899  -970  -997  -957  -851  -725  -642  -626  -656  -697  -728  -743  -748  -736  -691  -605  -495  -403  -375  -417  -479  -537  -607  -680  -731  -759  -766  -756  -741  -736  -737  -725  -677  -584  -474  -397  -372  -377  -387  -391  -389  -380  -366  -351  -336  -317  -300  -309  -377  -498  -619  -693  -706  -662  -583  -499  -425  -357  -297  -257  -232  -208  -187  -171  -147  -92  -10  45  35  -10  -34  -23  -5  -9  -55  -160  -336  -573  -808  -963  -1026  -1024  -939  -731  -459  -264  -210  -245  -294  -335  -375  -401  -367  -283  -269  -394  -499  -310  361  1447  2611  3510  3983  3962  3425  2427  1053  -576  -2169  -3262  -3544  -3116  -2314  -1414  -651  -214  -83  -82  -77  -35  32  121  230  342  426  466  477  480  488  503  516  514  505  524  608  751  890  971  1000  1029  1101  1203  1278  1304  1309  1327  1383  1489  1616  1710  1754  1774  1785  1810  1893  2059  2283  2492  2623  2668  2666  2641  2590  2489  2326  2147  2014  1900  1717  1454  1178  929  711  551  445  336  193  50  -59  -152  -261  -380  -481  -546  -582  -603  -628  -675  -755  -842  -899  -917  -918  -919  -928  -941  -936  -892  -822  -756  -697  -617  -506  -410  -371  -392  -460  -549  -621  -658  -676  -702  -745  -791  -822  -824  -793  -747  -696  -613  -478  -359  -338  -385  -421  -429  -440  -487  -564  -628  -649  -629  -577  -499  -420  -386  -420  -500  -583  -643  -678  -683  -651  -596  -550  -533  -548  -587  -627  -645  -637  -629  -636  -645  -635  -608  -567  -506  -428  -350  -281  -225  -177  -119  -62  -17  32  92  141  163  156  123  80  55  37  -37  -220  -462  -643  -709  -700  -670  -649  -643  -637  -614  -583  -581  -608  -633  -649  -657  -654  -637  -587  -513  -485  -498  -390  -32  555  1304  2134  2883  3362  3440  2966  1845  264  -1373  -2622  -3163  -3058  -2630  -2133  -1693  -1333  -986  -643  -385  -254  -202  -171  -143  -120  -93  -50  0  36  49  49  44  38  32  35  59  107  177  274  397  518  603  650  699  791  915  1017  1084  1134  1166  1173  1164  1180  1271  1444  1657  1856  2002  2077  2097  2093  2082  2065  2041  2007  1965  1916  1861  1781  1648  1470  1298  1153  999  795  552  317  136  18  -70  -169  -299  -444  -560  -616  -629  -624  -613  -607  -613  -628  -642  -646  -639  -623  -601  -582  -572  -572  -579  -588  -600  -617  -637  -644  -632  -615  -595  -543  -427  -284  -212  -263  -384  -483  -522  -516  -471  -380  -261  -157  -108  -135  -239  -380  -488  -533  -538  -531  -516  -490  -454  -414  -386  -372  -361  -348  -342  -348  -353  -342  -312  -276  -251  -237  -223  -221  -274  -408  -571  -677  -701  -677  -643  -601  -543  -484  -438  -393  -355  -339  -345  -359  -367  -361  -333  -269  -172  -70  7  58  100  145  170  156  118  65  -11  -106  -193  -272  -348  -405  -440  -476  -530  -595  -653  -695  -720  -728  -723  -720  -720  -703  -670  -640  -648  -705  -717  -567  -263  134  645  1298  1991  2587  3022  3181  2899  2114  906  -514  -1856  -2795  -3087  -2776  -2149  -1480  -943  -626  -483  -404  -319  -211  -108  -44  -21  -19  -17  -7  14  52  112  177  220  249  292  367  474  600  711  777  792  772  750  763  842  991  1165  1297  1362  1381  1389  1404  1428  1457  1494  1544  1609  1702  1823  1951  2066  2153  2200  2199  2154  2080  1993  1905  1806  1659  1436  1163  900  704  579  469  309  89  -146  -343  -482  -599  -749  -934  -1097  -1184  -1186  -1115  -994  -858  -757  -742  -806  -888  -938  -954  -964  -986  -1021  -1055  -1060  -1019  -960  -922  -908  -903  -893  -864  -823  -790  -778  -769  -727  -643  -574  -604  -723  -827  -831  -736  -604  -494  -424  -402  -422  -451  -458  -445  -425  -403  -374  -351  -377  -482  -610  -649  -573  -458  -376  -343  -345  -359  -377  -406  -444  -471  -469  -436  -391  -356  -333  -305  -258  -199  -144  -102  -82  -106  -176  -254  -292  -284  -259  -235  -210  -179  -153  -154  -196  -255  -299  -306  -243  -115  17  106  154  191  249  321  374  395  412  439  445  386  259  99  -64  -215  -328  -387  -404  -404  -399  -389  -370  -348  -345  -376  -438  -514  -594  -649  -636  -555  -462  -415  -432  -495  -553  -493  -113  683  1659  2466  2978  3194  3094  2695  2033  1076  -161  -1479  -2525  -3009  -2876  -2292  -1539  -889  -484  -304  -241  -199  -152  -97  -35  18  51  63  62  56  61  98  180  287  373  418  454  526  637  736  781  775  746  726  740  805  920  1055  1158  1195  1172  1143  1188  1358  1606  1826  1978  2087  2169  2236  2291  2315  2295  2233  2158  2105  2071  2011  1891  1743  1633  1575  1514  1390  1192  979  807  642  413  136  -104  -274  -407  -524  -616  -684  -722  -720  -698  -689  -715  -774  -822  -805  -730  -657  -621  -609  -593  -576  -589  -657  -755  -822  -832  -803  -772  -751  -722  -662  -566  -483  -476  -528  -558  -509  -394  -287  -251  -274  -314  -335  -319  -281  -240  -201  -176  -191  -274  -414  -562  -669  -720  -720  -685  -642  -609  -586  -564  -549  -548  -559  -568  -571  -571  -574  -580  -582  -576  -564  -559  -566  -576  -573  -542  -482  -413  -368  -360  -381  -420  -466  -507  -533  -532  -486  -406  -321  -248  -195  -166  -154  -147  -146  -183  -289  -432  -539  -582  -586  -562  -507  -438  -393  -376  -352  -289  -190  -92  -40  -49  -102  -149  -134  -58  34  130  232  317  354  337  276  171  20  -149  -287  -382  -459  -525  -563  -575  -579  -596  -621  -623  -581  -512  -455  -424  -410  -392  -359  -353  -452  -599  -579  -259  334  1111  1907  2551  2998  3259  3228  2734  1707  226  -1457  -2871  -3589  -3543  -2934  -2051  -1244  -781  -652  -642  -570  -416  -268  -191  -174  -172  -154  -114  -55  5  45  56  51  57  103  199  334  495  642  725  741  729  717  718  747  836  996  1169  1275  1305  1310  1329  1368  1428  1536  1694  1861  2001  2114  2216  2290  2311  2318  2377  2465  2514  2484  2367  2187  1976  1742  1499  1293  1165  1095  1003  817  548  296  139  53  -24  -116  -204  -285  -381  -490  -572  -607  -611  -606  -597  -587  -586  -589  -587  -582  -580  -580  -578  -574  -574  -591  -632  -675  -687  -667  -635  -596  -553  -512  -477  -455  -450  -451  -448  -433  -411  -398  -409  -445  -489  -513  -521  -528  -535  -524  -479  -401  -313  -252  -248  -333  -507  -703  -829  -849  -782  -656  -510  -411  -422  -536  -665  -744  -764  -745  -702  -647  -602  -600  -649  -723  -792  -836  -852  -841  -785  -671  -548  -502  -542  -600  -626  -622  -612  -621  -671  -760  -851  -910  -933  -926  -885  -805  -710  -630  -572  -523  -473  -437  -432  -436  -404  -323  -221  -142  -123  -163  -241  -357  -514  -671  -771  -799  -775  -711  -623  -541  -487  -456  -421  -358  -263  -162  -99  -90  -111  -137  -161  -162  -115  -9  168  431  807  1344  1999  2644  3215  3642  3717  3255  2248  774  -942  -2423  -3208  -3181  -2558  -1695  -956  -580  -517  -520  -433  -293  -189  -148  -140  -134  -93  12  159  285  366  421  458  472  462  446  435  425  416  418  444  498  566  630  683  736  827  987  1188  1370  1499  1582  1642  1691  1733  1773  1824  1890  1964  2028  2064  2092  2132  2168  2182  2186  2189  2163  2054  1844  1596  1403  1284  1182  1018  769  487  223  -17  -223  -352  -397  -405  -433  -513  -629  -740  -809  -833  -840  -852  -865  -871  -871  -873  -880  -890  -895  -895  -899  -919  -955  -977  -947  -859  -753  -681  -658  -656  -651  -637  -619  -603  -566  -479  -360  -270  -241  -257  -294  -334  -370  -393  -379  -345  -349  -392  -422  -403  -345  -289  -264  -264  -266  -262  -251  -236  -219  -210  -233  -306  -412  -504  -547  -547  -512  -447  -373  -317  -292  -291  -304  -324  -354  -391  -423  -444  -456  -461  -460  -459  -457  -445  -422  -405  -413  -445  -484  -503  -489  -460  -429  -387  -333  -291  -273  -279  -301  -314  -285  -209  -104  -14  4  -24  -35  -15  3  11  17  29  35  -1  -124  -327  -525  -608  -544  -407  -296  -252  -263  -324  -444  -605  -749  -828  -827  -761  -660  -554  -472  -440  -483  -588  -687  -626  -249  417  1149  1753  2226  2627  2954  3173  3178  2725  1661  146  -1470  -2785  -3436  -3332  -2720  -1949  -1237  -691  -381  -280  -253  -191  -98  -43  -43  -53  -39  2  72  153  212  239  257  290  333  367  386  406  432  459  505  587  681  766  854  938  988  1004  1008  1025  1082  1200  1390  1629  1851  1987  2022  1993  1948  1923  1924  1940  1953  1961  1966  1961  1933  1889  1857  1823  1730  1525  1216  899  682  575  513  446  328  104  -199  -461  -597  -640  -656  -672  -678  -664  -654  -677  -730  -781  -806  -809  -806  -809  -818  -819  -784  -696  -592  -544  -585  -655  -664  -620  -608  -669  -742  -748  -684  -618  -592  -591  -579  -527  -440  -361  -320  -310  -308  -308  -332  -411  -543  -673  -729  -686  -590  -521  -499  -475  -438  -431  -456  -476  -468  -441  -427  -451  -503  -553  -585  -606  -616  -610  -595  -581  -569  -556  -536  -517  -506  -500  -491  -470  -438  -420  -428  -437  -434  -434  -437  -424  -397  -366  -336  -302  -255  -199  -154  -132  -129  -147  -189  -239  -274  -284  -281  -273  -266  -266  -284  -320  -361  -384  -389  -390  -403  -428  -433  -399  -355  -333  -329  -327  -314  -281  -224  -160  -127  -130  -121  -65  29  146  258  332  365  374  349  241  36  -199  -375  -490  -599  -697  -737  -697  -609  -562  -618  -717  -771  -756  -687  -601  -535  -476  -395  -305  -230  -202  -251  -272  -38  566  1438  2344  3043  3428  3573  3513  3100  2196  797  -886  -2339  -3072  -3002  -2390  -1634  -1064  -756  -604  -518  -469  -438  -368  -208  3  185  310  377  380  340  311  333  387  425  428  423  456  518  554  562  588  656  760  875  961  1013  1061  1123  1184  1220  1226  1216  1213  1260  1425  1723  2050  2257  2299  2227  2108  2005  1953  1944  1950  1956  1960  1957  1925  1838  1700  1557  1444  1342  1207  1017  774  506  262  56  -147  -347  -509  -633  -726  -780  -793  -783  -764  -744  -739  -759  -799  -840  -873  -894  -895  -858  -778  -682  -615  -592  -592  -599  -613  -636  -647  -630  -604  -597  -620  -658  -682  -665  -609  -544  -486  -429  -384  -373  -382  -392  -399  -406  -407  -383  -317  -230  -164  -140  -148  -183  -244  -325  -405  -443  -427  -416  -468  -565  -646  -677  -664  -633  -595  -549  -494  -450  -437  -453  -474  -485  -487  -486  -487  -488  -482  -468  -463  -489  -538  -578  -594  -596  -598  -606  -621  -635  -632  -606  -570  -554  -574  -609  -628  -608  -538  -439  -363  -335  -356  -419  -501  -564  -593  -596  -587  -568  -544  -527  -523  -519  -484  -387  -254  -152  -111  -114  -138  -174  -217  -246  -218  -94  102  294  426  493  502  465  371  190  -55  -298  -507  -686  -811  -862  -866  -858  -852  -840  -809  -752  -688  -645  -634  -642  -650  -650  -643  -635  -640  -635  -477  -11  682  1386  2013  2576  3055  3373  3323  2615  1137  -843  -2717  -3855  -4021  -3434  -2493  -1588  -990  -710  -569  -456  -375  -341  -320  -271  -191  -106  -39  2  8  -16  -45  -36  45  196  347  432  452  452  462  493  558  658  757  811  823  830  877  980  1110  1223  1313  1412  1520  1597  1643  1718  1884  2102  2264  2319  2313  2299  2293  2293  2297  2311  2334  2327  2203  1914  1546  1246  1059  936  835  721  566  382  211  84  -8  -95  -203  -321  -422  -505  -581  -657  -728  -780  -799  -793  -784  -781  -769  -745  -720  -699  -667  -627  -592  -576  -564  -531  -461  -372  -292]
