reading_id,reading_time,wire_id,result_classification,heart_rate,heart_rate_alert,firmware_version,device_app_version,hardware_version,waveform_samples
581955a0-638c-11ed-8080-808080808080,Sun Nov 13 19:49:54 UTC 2022,e100638c1a39,UNCLASSIFIABLE,68,NONE,20001.171.50,2.10.0,Charge 5,[-20751  -27162  -31298  -32768  -32768  -32768  -32768  -32768  -32768  -32768  -32768  -32768  -32768  -32768  -32768  -32768  -32768  -32768  -32768  -32768  -32768  -32768  -32768  -32768  -32768  -32768  -32768  -32768  -9952  8061  14604  17745  15275  8740  3323  2108  3730  4981  4374  3080  3057  4563  6037  6178  5271  4651  5038  5701  5662  4975  4602  6126  11321  20324  30548  32767  32767  32767  32767  32767  32767  32767  32767  32767  32767  32767  32767  32767  32767  32767  32767  32767  32767  32767  32767  32767  32767  32767  32767  32767  32767  32767  32767  32767  32767  32767  32767  32767  32767  32767  32767  32767  32767  32767  32767  32767  32767  32767  32767  32767  32767  32767  32767  32767  32767  32767  32767  32767  32767  32767  32767  31932  30870  30083  29579  29129  28608  28041  27448  26856  26347  25955  25634  25334  25064  24841  24561  24036  23251  22391  21617  20932  20268  19638  19162  18876  18602  18128  17388  16457  15508  14674  13887  13125  12580  12328  12192  11977  11614  11137  10637  10193  9852  9655  9611  9641  9610  9429  9115  8740  8373  8055  7785  7567  7435  7378  7295  7079  6761  6486  6336  6276  6210  6045  5720  5287  4896  4653  4547  4518  4508  4451  4299  4067  3815  3576  3339  3094  2865  2703  2633  2618  2597  2530  2398  2217  2041  1931  1876  1793  1624  1410  1242  1165  1156  1166  1145  1068  953  852  802  796  772  626  295  -129  -473  -653  -709  -716  -735  -785  -848  -904  -965  -1056  -1200  -1402  -1609  -1741  -1776  -1760  -1746  -1753  -1763  -1742  -1683  -1598  -1477  -1256  -798  -17  934  1718  2123  2109  1569  370  -1333  -3012  -4120  -4534  -4508  -4288  -3943  -3495  -3042  -2721  -2568  -2515  -2495  -2484  -2462  -2408  -2334  -2274  -2242  -2235  -2270  -2363  -2487  -2576  -2597  -2560  -2481  -2384  -2286  -2173  -2040  -1919  -1844  -1811  -1774  -1682  -1525  -1360  -1263  -1243  -1251  -1227  -1123  -909  -624  -345  -116  55  171  236  262  263  220  144  89  59  12  -36  -57  -81  -183  -413  -733  -1047  -1305  -1515  -1669  -1744  -1754  -1737  -1719  -1706  -1703  -1729  -1795  -1871  -1907  -1883  -1823  -1758  -1689  -1611  -1536  -1482  -1454  -1456  -1490  -1545  -1595  -1619  -1618  -1607  -1603  -1637  -1732  -1860  -1952  -1985  -1991  -1990  -1947  -1823  -1637  -1466  -1373  -1367  -1439  -1577  -1725  -1790  -1730  -1586  -1439  -1331  -1262  -1225  -1209  -1187  -1153  -1118  -1099  -1098  -1105  -1111  -1100  -1076  -1058  -1061  -1070  -1048  -949  -764  -536  -337  -221  -171  -123  -49  25  86  143  205  285  403  554  693  785  831  849  859  872  875  838  772  717  681  630  537  425  323  230  148  97  112  227  403  499  413  213  50  -24  -68  -124  -157  -97  109  465  921  1433  1992  2625  3388  4236  4955  5344  5271  4575  3236  1632  332  -363  -575  -581  -559  -545  -509  -417  -289  -188  -153  -168  -203  -233  -246  -253  -271  -314  -367  -398  -388  -354  -330  -334  -346  -337  -285  -197  -134  -155  -230  -289  -299  -274  -235  -187  -134  -90  -46  35  183  354  484  563  618  655  671  669  646  594  529  483  449  389  275  101  -100  -287  -462  -668  -911  -1121  -1238  -1314  -1460  -1703  -1976  -2219  -2391  -2465  -2461  -2439  -2436  -2453  -2478  -2495  -2474  -2374  -2193  -2002  -1875  -1820  -1812  -1836  -1874  -1917  -1963  -1991  -2000  -2024  -2083  -2140  -2157  -2141  -2122  -2120  -2134  -2157  -2186  -2220  -2243  -2224  -2148  -2040  -1954  -1921  -1954  -2062  -2223  -2366  -2438  -2451  -2443  -2430  -2405  -2359  -2307  -2258  -2197  -2120  -2028  -1927  -1840  -1790  -1779  -1821  -1932  -2070  -2133  -2064  -1917  -1780  -1666  -1542  -1415  -1309  -1224  -1152  -1089  -1024  -929  -781  -621  -501  -368  -164  50  206  299  344  355  355  357  345  258  43  -277  -653  -1078  -1496  -1780  -1883  -1870  -1813  -1744  -1660  -1562  -1469  -1407  -1369  -1326  -1272  -1218  -1168  -1139  -1152  -1206  -1206  -1010  -623  -193  226  758  1573  2723  3997  5009  5391  4877  3482  1617  -213  -1697  -2587  -2676  -2154  -1572  -1222  -950  -605  -239  43  182  186  126  64  49  88  124  140  186  284  418  574  722  847  963  1075  1156  1177  1166  1172  1217  1309  1438  1553  1603  1591  1573  1612  1742  1918  2060  2163  2293  2482  2663  2736  2671  2545  2466  2481  2544  2579  2563  2527  2503  2476  2401  2233  1992  1774  1652  1576  1436  1212  980  784  600  420  276  185  134  110  108  115  112  100  73  18  -55  -116  -140  -110  -9  136  250  277  240  199  183  187  204  252  360  508  635  715  774  832  892  949  992  1018  1023  1015  1017  1046  1096  1157  1209  1225  1221  1263  1375  1492  1559  1587  1607  1627  1670  1781  1954  2104  2157  2125  2070  2024  2006  2083  2340  2731  3072  3245  3293  3291  3269  3225  3147  3033  2920  2849  2815  2778  2707  2613  2546  2527  2521  2459  2278  1979  1638  1328  1058  784  445  15  -443  -809  -1017  -1103  -1164  -1300  -1569  -1870  -1949  -1651  -1017  -143  802  1541  1844  1572  670  -728  -2383  -4031  -5310  -5919  -5839  -5235  -4346  -3485  -2867  -2456  -2112  -1769  -1382  -881  -277  290  697  921  1006  1013  1008  1069  1257  1546  1818  1971  1988  1914  1778  1544  1213  888  655  516  451  435  432  423  432  522  736  1028  1305  1523  1692  1810  1863  1871  1862  1851  1836  1827  1866  2019  2283  2558  2756  2882  2969  3012  3008  2995  3013  3061  3083  3024  2876  2683  2478  2265  2064  1912  1823  1786  1791  1816  1828  1823  1815  1818  1839  1874  1910  1928  1888  1745  1507  1204  818  325  -209  -639  -871  -986  -1183  -1623  -2255  -2824  -3133  -3212  -3183  -3094  -2939  -2756  -2628  -2585  -2600  -2641  -2690  -2735  -2771  -2782  -2734  -2607  -2449  -2338  -2298  -2294  -2294  -2280  -2219  -2071  -1847  -1604  -1369  -1123  -872  -673  -546  -409  -161  155  399  514  573  670  827  997  1128  1189  1179  1111  1023  960  932  916  875  768  565  262  -83  -361  -503  -551  -586  -653  -759  -913  -1114  -1317  -1448  -1476  -1421  -1335  -1261  -1214  -1189  -1176  -1174  -1207  -1303  -1435  -1535  -1569  -1570  -1605  -1721  -1876  -1952  -1878  -1707  -1540  -1415  -1298  -1163  -1032  -929  -846  -800  -885  -1174  -1583  -1931  -2136  -2221  -2218  -2148  -2035  -1850  -1444  -712  172  912  1390  1667  1804  1738  1261  193  -1430  -3266  -4723  -5415  -5444  -5135  -4767  -4520  -4441  -4467  -4543  -4656  -4802  -4965  -5125  -5254  -5302  -5224  -5026  -4782  -4554  -4291  -3912  -3494  -3207  -3079  -2972  -2799  -2600  -2457  -2386  -2313  -2153  -1890  -1539  -1070  -485  80  448  575  548  491  518  662  839  958  1031  1144  1383  1751  2126  2360  2431  2420  2395  2361  2299  2194  2050  1857  1585  1249  938  729  595  470  349  262  203  124  11  -122  -245  -297  -251  -132  24  191  339  458  581  717  809  775  588  333  151  93  85  50  -13  -63  -72  -47  20  157  340  507  655  825  995  1085  1014  730  260  -253  -669  -955  -1145  -1261  -1275  -1088  -635  -57  392  609  635  479  132  -285  -578  -653  -517  -208  151  400  490  483  446  415  398  362  255  56  -213  -508  -763  -961  -1144  -1312  -1413  -1435  -1420  -1401  -1395  -1426  -1510  -1594  -1605  -1548  -1477  -1406  -1346  -1320  -1329  -1358  -1390  -1419  -1454  -1483  -1469  -1385  -1249  -1099  -928  -728  -546  -430  -362  -301  -244  -206  -184  -168  -158  -158  -169  -184  -196  -203  -206  -209  -217  -238  -252  -191  17  334  607  707  606  394  331  703  1592  2905  4495  6125  7432  7968  7408  5852  3808  1889  562  -32  -91  91  374  791  1330  1815  2104  2240  2347  2493  2679  2888  3093  3246  3339  3397  3441  3474  3495  3511  3547  3639  3807  4009  4156  4209  4209  4220  4286  4414  4582  4766  4931  5026  5041  5033  5093  5275  5527  5741  5880  5979  6064  6135  6188  6206  6162  5977  5540  4885  4190  3513  2771  1968  1263  800  566  425  272  117  22  -1  -6  -37  -80  -98  -133  -311  -701  -1166  -1487  -1600  -1592  -1527  -1408  -1255  -1116  -1005  -910  -798  -591  -231  211  595  857  1008  1073  1064  968  777  557  420  436  607  855  1088  1320  1623  1970  2258  2435  2530  2597  2671  2754  2836  2910  2963  2986  2981  2918  2708  2261  1614  930  338  -183  -711  -1229  -1665  -2002  -2273  -2475  -2583  -2619  -2652  -2740  -2888  -3062  -3243  -3460  -3719  -3963  -4156  -4312  -4442  -4556  -4704  -4913  -5131  -5282  -5345  -5341  -5280  -5168  -5043  -4973  -4987  -5069  -5185  -5315  -5441  -5551  -5668  -5807  -5939  -6029  -6077  -6125  -6235  -6455  -6759  -7045  -7201  -7147  -6780  -5986  -4801  -3465  -2202  -1114  -301  192  417  324  -340  -1708  -3395  -4723  -5330  -5343  -5025  -4565  -4101  -3712  -3406  -3156  -2913  -2661  -2436  -2279  -2196  -2141  -2046  -1888  -1710  -1564  -1467  -1378  -1243  -1076  -954  -913  -926  -952  -955  -885  -714  -494  -337  -293  -326  -384  -420  -371  -189  84  353  589  827  1081  1335  1584  1862  2225  2680  3126  3435  3566  3552  3422  3194  2936  2740  2636  2590  2568  2550  2517  2454  2355  2237  2142  2088  2050  2007  1970  1958  1965  1977  1987  1962  1861  1712  1604  1603  1721  1909  2090  2232  2334  2394  2421  2439  2440  2352  2060  1516  880  433  279  270  227  84  -165  -523  -967  -1426  -1796  -2008  -2087  -2077  -1915  -1497  -888  -332  2  139  162  119  18  -134  -288  -366  -343  -269  -214  -194  -173  -123  -70  -63  -108  -166  -214  -296  -482  -748  -973  -1080  -1103  -1102  -1118  -1155  -1193  -1206  -1183  -1123  -1040  -967  -925  -906  -891  -875  -877  -912  -972  -1014  -988  -901  -806  -743  -725  -748  -785  -813  -831  -846  -860  -864  -819  -693  -524  -399  -353  -341  -316  -254  -175  -124  -118  -127  -116  -62  22  106  189  287  411  617  1009  1631  2480  3530  4577  5328  5731  5920  5912  5474  4377  2856  1542  836  656  753  994  1310  1592  1753  1803  1814  1868  2008  2195  2340  2400  2415  2454  2568  2738  2891  2978  3004  3001  3014  3078  3188  3296  3360  3402  3507  3744  4088  4435  4702  4866  4930  4936  4970  5115  5374  5679  5936  6080  6115  6101  6085  6077  6075  6076  6079  6071  6034  5974  5918  5881  5862  5845  5806  5692  5412  4942  4450  4153  4065  4011  3846  3607  3437  3394  3408  3372  3201  2917  2657  2523  2498  2511  2527  2556  2609  2620  2399  1737  657  -558  -1659  -2593  -3385  -4034  -4553  -5027  -5531  -6068  -6614  -7142  -7612  -8009  -8322  -8511  -8572  -8569  -8580  -8677  -8878  -9115  -9286  -9357  -9367  -9357  -9346  -9338  -9334  -9329  -9314  -9271  -9169  -8962  -8613  -8202  -7880  -7686  -7557  -7465  -7402  -7317  -7137  -6846  -6537  -6321  -6202  -6102  -5955  -5762  -5580  -5456  -5388  -5350  -5326  -5301  -5259  -5192  -5100  -4990  -4860  -4707  -4547  -4395  -4214  -3942  -3565  -3119  -2628  -2065  -1461  -955  -650  -507  -424  -349  -281  -219  -118  76  345  594  759  858  945  1062  1212  1365  1491  1576  1621  1639  1642  1640  1633  1623  1609  1591  1583  1616  1720  1861  1969  2015  2025  2034  2065  2136  2228  2299  2324  2295  2210  2100  2019  1987  1989  2017  2078  2151  2183  2156  2101  2028  1910  1762  1638  1576  1583  1634  1680  1677  1611  1506  1414  1364  1352  1384  1476  1600  1695  1748  1798  1888  2000  2084  2135  2202  2332  2542  2783  2962  3038  3036  2970  2831  2647  2484  2354  2187  1914  1578  1280  1078  993  989  971  900  816  745  689  658  655  662  636  535  376  226  123  69  72  157  370  786  1492  2517  3765  5005  5864  5917  4958  3245  1333  -288  -1295  -1578  -1395  -1089  -753  -421  -232  -248  -395  -568  -688  -752  -790  -783  -678  -483  -267  -125  -129  -223  -262  -177  -34  68  108  130  176  255  359  466  532  547  566  622  695  779  893  1034  1170  1261  1302  1334  1387  1450  1500  1530  1544  1553  1580  1631  1670  1665  1651  1662  1643  1552  1429  1323  1241  1172  1090  949  699  299  -237  -791  -1190  -1386  -1486  -1611  -1795  -1980  -2097  -2148  -2178  -2211  -2241  -2261  -2271  -2281  -2289  -2280  -2237  -2163  -2087  -2048  -2045  -2049  -2018  -1922  -1790  -1691  -1659  -1675  -1698  -1690  -1623  -1509  -1394  -1308  -1226  -1138  -1070  -1040  -1033  -1042  -1094  -1227  -1423  -1603  -1703  -1734  -1737  -1724  -1685  -1619  -1561  -1546  -1554  -1545  -1519  -1497  -1484  -1479  -1467  -1422  -1332  -1211  -1107  -1072  -1106  -1152  -1163  -1132  -1072  -996  -910  -838  -805  -797  -783  -765  -755  -755  -755  -752  -749  -755  -775  -803  -832  -866  -904  -918  -861  -710  -513  -351  -261  -205  -138  -60  -3  18  17  1  -35  -85  -129  -158  -157  -94  30  162  253  306  352  404  464  546  659  810  1025  1298  1546  1642  1508  1179  820  593  518  499  449  335  182  37  -93  -222  -340  -427  -462  -444  -413  -395  -353  -238  -75  45  78  47  -14  -96  -191  -300  -417  -479  -359  4  584  1360  2279  3260  4255  5158  5682  5486  4487  2899  1075  -503  -1467  -1818  -1695  -1236  -712  -352  -145  -10  62  78  51  15  0  21  95  253  505  774  945  995  986  970  969  992  1040  1110  1193  1287  1396  1518  1640  1770  1944  2169  2390  2555  2675  2796  2938  3122  3345  3541  3654  3720  3812  3936  4038  4089  4108  4121  4138  4162  4199  4241  4252  4170  3966  3709  3501  3368  3286  3259  3292  3338  3354  3347  3349  3355  3321  3200  3008  2833  2765  2832  3003  3189  3306  3337  3316  3269  3213  3172  3177  3247  3383  3558  3725  3835  3869  3834  3733  3568  3334  2996  2550  2080  1670  1305  968  711  543  414  303  196  35  -223  -582  -986  -1346  -1606  -1776  -1888  -2010  -2262  -2685  -3150  -3527  -3842  -4129  -4346  -4527  -4671  -4605  -4256  -3789  -3367  -3083  -3015  -3202  -3644  -4283  -4992  -5642  -6150  -6493  -6734  -6925  -7098  -7351  -7715  -8056  -8269  -8388  -8471  -8545  -8636  -8766  -8924  -9078  -9237  -9434  -9629  -9696  -9533  -9172  -8745  -8361  -8014  -7645  -7254  -6907  -6622  -6285  -5728  -4921  -4004  -3141  -2441  -1960  -1693  -1585  -1571  -1637  -1812  -2091  -2378  -2546  -2470  -2057  -1363  -609  0  370  510  508  463  434  475  641  912  1204  1468  1693  1835  1844  1725  1548  1393  1278  1179  1087  986  837  605  326  79  -116  -291  -441  -530  -546  -487  -333  -70  266  603  885  1110  1294  1437  1503  1456  1295  1069  949  1149  1702  2491  3420  4462  5577  6594  7178  6982  5879  4081  2039  266  -846  -1238  -1091  -594  20  452  584  544  481  436  401  370  353  385  486  610  697  734  739  738  749  785  847  921  982  1009  968  828  628  460  384  416  562  786  1008  1176  1285  1340  1349  1334  1328  1395  1581  1830  2014  2081  2080  2064  2050  2036  2026  2016  1974  1867  1711  1564  1456  1381  1320  1241  1060  709  281  -14  -72  43  215  348  422  477  547  621  664  666  639  605  571  533  501  491  504  526  544  559  594  667  768  868  944  984  1007  1045  1100  1150  1184  1221  1266  1277  1198  1030  839  696  624  612  638  680  724  764  798  818  822  824  845  888  932  951  937  871  716  479  248  100  46  59  119  209  293  338  351  355  357  329  251  176  168  183  138  47  -24  -60  -86  -117  -147  -170  -182  -185  -184  -185  -188  -162  -67  85  241  360  435  458  418  326  213  98  -13  -117  -205  -270  -331  -418  -540  -677  -820  -953  -1049  -1103  -1121  -1104  -1062  -1009  -941  -868  -810  -776  -760  -760  -771  -772  -738  -688  -694  -761  -684  -260  418  1171  1981  2857  3739  4481  4761  4277  3046  1357  -406  -1854  -2712  -2927  -2637  -2092  -1556  -1207  -1086  -1103  -1146  -1186  -1247  -1332  -1414  -1457  -1439  -1380  -1318  -1248  -1140  -987  -823  -692  -602  -542  -507  -476  -420  -338  -240  -108  59  216  326  400  456  499  536  597  739  992  1280  1454  1455  1363  1278  1234  1214  1215  1255  1342  1466  1593  1681  1711  1677  1564  1383  1168  932  688  493  386  337  282  166  -34  -283  -503  -663  -783  -893  -1004  -1104  -1160  -1165  -1143  -1110  -1079  -1065  -1078  -1117  -1167  -1208  -1234  -1271  -1354  -1474  -1572  -1603  -1585  -1556  -1535  -1527  -1529  -1538  -1541  -1517  -1465  -1380  -1265  -1193  -1209  -1262  -1294  -1302  -1298  -1281  -1239  -1186  -1143  -1091  -987  -842  -737  -747  -881  -1073  -1221  -1284  -1276  -1209  -1090  -944  -800  -692  -638  -618  -593  -558  -545  -584  -663  -738  -777  -784  -779  -771  -759  -745  -736  -735  -737  -729  -700  -655  -617  -599  -601  -613  -623  -605  -530  -407  -278  -173  -99  -64  -75  -131  -212  -267  -231  -66  171  345  333  96  -279  -620  -823  -909  -913  -838  -708  -583  -522  -531  -579  -659  -806  -1054  -1413  -1864  -2356  -2842  -3271  -3589  -3780  -3862  -3805  -3545  -3109  -2660  -2326  -2092  -1891  -1660  -1271  -578  407  1540  2679  3784  4813  5496  5470  4613  3054  1146  -528  -1546  -1920  -1812  -1369  -799  -339  -116  -77  -102  -134  -155  -157  -140  -110  -78  -56  -51  -50  -27  48  185  354  498  592  666  744  797  802  781  778  831  992  1279  1604  1834  1951  2037  2126  2187  2204  2215  2265  2354  2440  2495  2542  2611  2691  2744  2758  2751  2745  2754  2785  2808  2717  2390  1874  1390  1089  934  821  689  538  395  273  166  83  45  47  61  64  63  59  43  12  -19  -45  -86  -181  -365  -644  -931  -1106  -1129  -1050  -936  -830  -733  -645  -596  -583  -573  -548  -515  -477  -417  -304  -159  -59  -51  -111  -186  -241  -255  -189  3  296  582  795  969  1135  1279  1409  1538  1637  1688  1710  1728  1745  1744  1732  1766  1887  2064  2231  2327  2353  2362  2425  2591  2834  3056  3173  3173  3107  3037  2994  2971  2965  2972  2979  2975  2969  3006  3151  3412  3694  3884  3965  3995  4044  4178  4408  4660  4846  4940  4961  4898  4696  4342  3893  3461  3157  3009  2941  2865  2767  2674  2567  2352  1990  1574  1224  996  883  824  752  641  466  202  -91  -307  -418  -475  -507  -518  -514  -501  -482  -455  -422  -399  -426  -542  -733  -919  -1043  -1112  -1176  -1292  -1474  -1664  -1789  -1862  -1956  -2110  -2286  -2434  -2545  -2607  -2597  -2541  -2495  -2487  -2513  -2563  -2625  -2686  -2739  -2797  -2866  -2929  -2948  -2877  -2665  -2277  -1738  -1077  -244  786  1925  2982  3661  3630  2707  1070  -773  -2317  -3270  -3596  -3533  -3354  -3124  -2890  -2754  -2660  -2505  -2327  -2181  -2037  -1869  -1731  -1676  -1652  -1555  -1309  -927  -509  -138  144  306  351  319  233  111  -19  -151  -282  -369  -355  -234  -70  64  162  242  292  308  313  335  392  496  637  774  877  957  1036  1113  1169  1197  1204  1187  1130  1039  940  864  829  827  828  778  585  180  -361  -855  -1180  -1347  -1435  -1506  -1589  -1687  -1787  -1866  -1917  -1952  -1972  -1974  -1948  -1890  -1815  -1759  -1736  -1734  -1758  -1833  -1966  -2089  -2119  -2062  -2013  -2032  -2093  -2148  -2182  -2202  -2214  -2215  -2194  -2145  -2073  -2002  -1963  -1966  -1989  -2001  -1994  -1995  -2029  -2092  -2143  -2162  -2157  -2140  -2097  -2004  -1880  -1786  -1763  -1811  -1906  -1987  -2011  -2010  -2015  -2012  -1996  -2004  -2089  -2281  -2501  -2598  -2518  -2344  -2178  -2069  -2001  -1947  -1909  -1894  -1886  -1856  -1806  -1766  -1758  -1779  -1796  -1736  -1525  -1189  -862  -621  -411  -197  -23  95  193  301  427  551  633  662  661  635  563  434  267  106  -7  -75  -132  -228  -400  -624  -810  -921  -1032  -1237  -1533  -1846  -2153  -2477  -2776  -2957  -3004  -2995  -3007  -3072  -3171  -3269  -3345  -3401  -3459  -3549  -3711  -3971  -4290  -4586  -4808  -4941  -4990  -4978  -4922  -4830  -4720  -4615  -4527  -4466  -4431  -4383  -4256  -4032  -3753  -3471  -3189  -2846  -2420  -2011  -1739  -1579  -1349  -902  -261  485  1289  2128  3056  4176  5409  6437  6848  6311  4814  2728  684  -631  -894  -356  435  1026  1308  1446  1545  1589  1604  1673  1823  1991  2106  2161  2191  2225  2265  2297  2309  2306  2300  2298  2305  2333  2398  2504  2617  2688  2713  2727  2766  2839  2935  3032  3110  3171  3242  3340  3441  3521  3579  3640  3719  3798  3846  3858  3861  3904  4014  4173  4317  4371  4279  4044  3771  3579  3458  3313  3117  2906  2659  2348  2041  1824  1691  1591  1507  1442  1392  1319  1194  1035  887  769  684  640  635  660  698  689  498  25  -609  -1126  -1391  -1489  -1535  -1576  -1608  -1621  -1623  -1610  -1557  -1452  -1353  -1338  -1392  -1442  -1454  -1446  -1426  -1339  -1113  -791  -532  -426  -424  -435  -409  -348  -248  -84  125  311  439  531  599  619  575  492  405  329  275  270  360  571  839  1054  1181  1260  1325  1372  1403  1432  1454  1461  1478  1528  1583  1599  1589  1595  1628  1669  1712  1776  1874  1987  2074  2118  2138  2177  2272  2422  2572  2676  2759  2876  3025  3159  3289  3455  3644  3807  3930  4024  4088  4118  4125  4104  4032  3913  3801  3718  3625  3508  3411  3356  3316  3249  3115  2902  2655  2434  2255  2087  1856  1488  1042  696  506  326  24  -326  -526  -448  -44  679  1612  2581  3487  4310  4942  5088  4508  3289  1700  -26  -1639  -2891  -3683  -4024  -3975  -3725  -3514  -3433  -3433  -3457  -3486  -3509  -3508  -3463  -3383  -3284  -3157  -2976  -2742  -2516  -2357  -2248  -2132  -2000  -1852  -1655  -1402  -1163  -1000  -923  -911  -928  -942  -932  -893  -838  -777  -710  -633  -544  -433  -268  -20  275  521  667  727  734  721  700  659  595  534  511  544  617  706  797  854  831  713  547  415  340  286  238  205  180  134  18  -184  -417  -618  -808  -1043  -1289  -1449  -1504  -1523  -1569  -1649  -1760  -1904  -2060  -2190  -2280  -2349  -2443  -2587  -2770  -2954  -3089  -3142  -3124  -3074  -3027  -3010  -3055  -3185  -3361  -3500  -3580  -3621  -3628  -3592  -3535  -3493  -3472  -3443  -3388  -3327  -3284  -3262  -3242  -3187  -3025  -2680  -2162  -1539  -873  -278  109  278  322  319  293  272  346  644  1213  1917  2512  2847  2958  2999  3153  3549  4114  4610  4906  5069  5200  5310  5349  5288  5147  4936  4631  4262  3952  3779  3702  3639  3538  3403  3265  3154  3062  2945  2755  2460  2073  1706  1485  1408  1368  1266  1062  796  554  377  250  164  114  93  87  84  82  85  87  68  13  -61  -120  -152  -162  -154  -149  -205  -389  -694  -1036  -1359  -1637  -1846  -1983  -2073  -2132  -2173  -2220  -2303  -2439  -2612  -2785  -2949  -3096  -3200  -3269  -3355  -3487  -3638  -3752  -3807  -3823  -3816  -3793  -3763  -3738  -3648  -3339  -2770  -2042  -1167  -140  838  1541  1829  1506  486  -1024  -2737  -4358  -5545  -6136  -6227  -5979  -5534  -5092  -4831  -4762  -4781  -4803  -4798  -4783  -4785  -4798  -4797  -4773  -4758  -4774  -4802  -4813  -4801  -4779  -4765  -4763  -4765  -4765  -4767  -4774  -4786  -4792  -4784  -4762  -4723  -4633  -4453  -4185  -3891  -3638  -3408  -3142  -2840  -2547  -2293  -2027  -1676  -1225  -706  -174  286  633  874  1044  1208  1419  1695  2006  2239  2283  2177  2046  1926  1786  1641  1543  1500  1462  1371  1232  1109  1074  1160  1315  1455  1559  1644  1706  1745  1768  1773  1736  1634  1500  1403  1367  1363  1373  1424  1549  1726  1886  1995  2061  2096  2104  2100  2095  2089  2069  2025  1970  1909  1825  1733  1689  1720  1808  1910  1983  2025  2065  2132  2251  2431  2622  2754  2831  2902  2963  2985  2960  2907  2872  2866  2848  2797  2764  2801  2908  3039  3159  3259  3328  3359  3374  3405  3460  3513  3537  3533  3521  3514  3507  3477  3416  3384  3467  3659  3865  4011  4067  4041  3985  3952  3970  4050  4178  4316  4441  4538  4597  4622  4624  4615  4618  4651  4708  4776  4837  4872  4881  4874  4866  4863  4871  4893  4925  4940  4869  4637  4270  3897  3609  3379  3154  2923  2685  2413  2114  1840  1579  1286  1004  805  655  458  212  8  -104  -178  -322  -593  -914  -1150  -1257  -1302  -1348  -1416  -1524  -1707  -1957  -2220  -2473  -2696  -2862  -3026  -3296  -3653  -3951  -4115  -4216  -4375  -4647  -4952  -5166  -5266  -5321  -5374  -5429  -5502  -5630  -5798  -5942  -6039  -6115  -6208  -6331  -6435  -6452  -6379  -6169  -5699  -4958  -4067  -3114  -2157  -1363  -1011  -1329  -2386  -4022  -5811  -7260  -8086  -8288  -8046  -7570  -7001  -6451  -6013  -5668  -5348  -5069  -4841  -4585  -4226  -3773  -3259  -2753  -2357  -2102  -1906  -1712  -1534  -1387  -1250  -1106  -953  -794  -634  -483  -350  -232  -120  -13  86  209  390  593  743  820  864  896  913  950  1076  1288  1511  1699  1853  1974  2068  2130  2114  1968  1730  1523  1428  1402  1340  1173  930  719  608  556  490  396  321  288  260  177  10  -226  -484  -690  -795  -789  -681  -501  -316  -191  -151  -178  -238  -307  -372  -416  -430  -420  -394  -361  -338  -336  -352  -368  -339  -224  -45  122  227  259  247  231  237  273  326  361  334  223  75  -25  -69  -106  -160  -192  -160  -73  25  102  144  152  145  145  170  214  242  218  157  114  98  67  -2  -62  -37  86  257  419  538  588  573  539  521  517  513  510  508  510  519  540  570  608  660  720  765  772  718  601  472  411  454  562  680  799  928  1072  1218  1331  1389  1420  1466  1532  1586  1601  1582  1548  1493  1401  1276  1169  1131  1130  1098  1030  956  892  854  853  883  925  954  964  963  962  964  989  1075  1237  1433  1604  1722  1774  1789  1890  2180  2664  3391  4412  5608  6750  7606  7952  7680  6832  5517  3906  2283  988  293  366  1139  2214  3106  3542  3579  3466  3381  3360  3394  3475  3587  3695  3764  3782  3728  3570  3324  3068  2855  2645  2388  2138  1982  1932  1923  1876  1744  1565  1427  1360  1339  1341  1369  1427  1503  1560  1587  1599  1609  1610  1575  1479  1357  1292  1319  1390  1453  1493  1516  1518  1449  1254  972  705  492  333  228  117  -104  -438  -772  -999  -1104  -1155  -1240  -1391  -1580  -1776  -1960  -2110  -2197  -2208  -2156  -2079  -2010  -1963  -1935  -1928  -1943  -1980  -2029  -2082  -2133  -2173  -2205  -2239  -2266  -2272  -2268  -2271  -2288  -2296  -2231  -2039  -1806  -1729  -1858  -2028  -2080  -2009  -1916  -1880  -1874  -1833  -1766  -1707  -1658  -1622  -1607  -1590  -1544  -1489  -1494  -1588  -1723  -1823  -1860  -1846  -1806  -1755  -1700  -1645  -1580  -1503  -1439  -1411  -1408  -1409  -1405  -1405  -1428  -1459  -1462  -1438  -1426  -1433  -1437  -1430  -1423  -1427  -1440  -1454  -1466  -1475  -1478  -1472  -1454  -1427  -1400  -1387  -1402  -1456  -1535  -1611  -1664  -1679  -1624  -1480  -1299  -1172  -1130  -1137  -1160  -1192  -1235  -1270  -1270  -1237  -1197  -1167  -1135  -1071  -940  -735  -523  -413  -438  -532  -607  -634  -640  -647  -657  -662  -678  -737  -840  -951  -1052  -1174  -1314  -1417  -1446  -1417  -1360  -1303  -1279  -1301  -1367  -1452  -1526  -1562  -1531  -1413  -1242  -1107  -1065  -1061  -927  -451  453  1643  2868  3892  4506  4594  4153  3191  1742  -2  -1718  -3034  -3640  -3494  -2899  -2287  -1933  -1819  -1756  -1620  -1447  -1329  -1295  -1308  -1330  -1333  -1283  -1156  -992  -873  -833  -854  -901  -947  -983  -1023  -1071  -1113  -1121  -1063  -920  -723  -503  -245  21  199  253  238  207  188  213  320  495  670  782  822  834  879  990  1133  1259  1393  1598  1893  2279  2736  3142  3395  3554  3659  3649  3547  3454  3412  3430  3480  3459  3249  2814  2279  1810  1511  1423  1463  1460  1337  1115  829  516  240  72  30  61  88  16  -225  -563  -821  -940  -1034  -1208  -1449  -1674  -1819  -1885  -1914  -1918  -1840  -1597  -1187  -700  -191  377  1018  1644  2140  2444  2592  2657  2683  2690  2690  2681  2637  2538  2415  2328  2294  2288  2293  2316  2348  2330  2193  1948  1712  1598  1602  1635  1638  1620  1593  1519  1364  1190  1099  1087  1070  1012  921  813  720  664  631  603  585  579  571  544  501  462  442  441  454  476  509  563  643  738  828  897  928  889  760  580  420  296  190  117  88  80  75  84  143  273  431  542  583  583  573  555  522  488  482  507  542  568  575  553  480  333  147  4  -67  -100  -144  -266  -498  -760  -929  -970  -941  -906  -896  -930  -1013  -1113  -1181  -1194  -1169  -1146  -1199  -1404  -1743  -2117  -2426  -2547  -2412  -2125  -1768  -1240  -438  619  1862  3085  3843  3711  2558  575  -1732  -3720  -4951  -5344  -5106  -4584  -4089  -3775  -3649  -3650  -3725  -3854  -4011  -4165  -4289  -4358  -4376  -4372  -4365  -4357  -4341  -4323  -4310  -4305  -4304  -4308  -4324  -4351  -4380  -4398  -4397  -4382  -4361  -4346  -4336  -4326  -4320  -4323  -4335  -4345  -4332  -4286  -4214  -4135  -4071  -4033  -4020  -4030  -4064  -4113  -4158  -4171  -4113  -3954  -3739  -3562  -3492  -3555  -3715  -3864  -3935  -3950  -3958  -3980  -4006  -4022  -4015  -3983  -3940  -3899  -3821  -3631  -3306  -2924  -2575  -2301  -2100  -1946  -1821  -1704  -1544  -1297  -997  -739  -590  -527  -472  -370  -236  -116  -26  37  89  169  318  562  879  1169  1331  1388  1433  1508  1574  1595  1579  1569  1634  1829  2111  2341  2446  2487  2546  2635  2707  2736  2739  2758  2823  2929  3041  3133  3201  3242  3254  3252  3270  3339  3456  3576  3666  3734  3799  3867  3929  3966  3980  4018  4126  4278  4402  4459  4465  4462  4487  4552  4649  4766  4877  4946  4968  4991  5065  5173  5251  5269  5258  5282  5392  5582  5775  5895  5933  5947  6005  6121  6254  6374  6501  6644  6770  6849  6899  6945  6978  6976  6943  6881  6803  6746  6731  6740  6722  6605  6349  6005  5659  5299  4851  4301  3739  3277  2946  2699  2472  2237  2003  1791  1587  1348  1051  783  715  940  1447  2199  3093  3945  4684  5320  5700  5539  4615  2889  689  -1310  -2571  -2986  -2761  -2286  -1936  -1811  -1761  -1651  -1500  -1385  -1314  -1249  -1186  -1141  -1100  -1056  -1021  -1006  -1021  -1084  -1190  -1301  -1382  -1425  -1434  -1416  -1367  -1285  -1209  -1165  -1119  -1058  -1012  -992  -973  -931  -853  -737  -593  -429  -242  -61  62  125  175  248  333  405  455  472  439  358  252  140  35  -51  -134  -251  -428  -648  -878  -1091  -1303  -1535  -1773  -1969  -2085  -2140  -2173  -2198  -2227  -2272  -2319  -2354  -2382  -2414  -2480  -2585  -2678  -2715  -2713  -2703  -2704  -2723  -2745  -2737  -2682  -2613  -2563  -2535  -2517  -2496  -2467  -2449  -2472  -2526  -2563  -2533  -2421  -2257  -2094  -1974  -1915  -1917  -1975  -2076  -2203  -2318  -2372  -2341  -2247  -2133  -2043  -1999  -1989  -1999  -2022  -2053  -2081  -2091  -2061  -1969  -1847  -1777  -1824  -1973  -2140  -2247  -2279  -2269  -2253  -2247  -2246  -2239  -2215  -2184  -2165  -2162  -2158  -2122  -2041  -1925  -1802  -1712  -1655  -1570  -1439  -1331  -1283  -1249  -1175  -1063  -953  -867  -815  -809  -839  -869  -880  -892  -941  -1031  -1127  -1187  -1183  -1111  -1000  -922  -943  -1045  -1161  -1282  -1419  -1531  -1578  -1556  -1469  -1349  -1254  -1215  -1205  -1188  -1158  -1140  -1149  -1178  -1213  -1245  -1268  -1282  -1296  -1320  -1369  -1446  -1507  -1503  -1442  -1373  -1324  -1287  -1244  -1199  -1165  -1142  -1095  -995  -873  -787  -742  -699  -636  -584  -601  -706  -863  -1012  -1100  -1123  -1125  -1147  -1196  -1253  -1297  -1323  -1351  -1403  -1460  -1471  -1429  -1382  -1369  -1389  -1431  -1515  -1628  -1607  -1254  -534  453  1505  2402  3109  3682  4069  4104  3577  2410  777  -976  -2443  -3315  -3556  -3353  -2913  -2407  -2016  -1818  -1714  -1567  -1338  -1060  -781  -541  -354  -195  -24  158  298  369  402  445  520  631  749  821  836  834  881  1024  1240  1442  1562  1603  1602  1584  1573  1604  1712  1889  2082  2257  2414  2583  2799  3031  3193  3256  3250  3191  3071  2922  2795  2676  2504  2290  2111  1999  1920  1815  1640  1410  1202  1067  974  852  698  579  537  561  630  712  792  888  986  1045  1060  1053  1046  1046  1054  1073  1098  1117  1122  1115  1129  1222  1387  1527  1555  1467  1319  1190  1116  1078  1042  1004  976  974  1001  1045  1095  1141  1179  1231  1328  1452  1551  1593  1601  1624  1714  1886  2078  2201  2236  2217  2178  2136  2109  2101  2105  2108  2102  2086  2066  2058  2058  2034  1953  1836  1761  1752  1759  1755  1757  1760  1710  1558  1346  1186  1132  1160  1241  1336  1403  1423  1410  1379  1334  1272  1184  1062  935  853  834  854  869  839  760  663  564  462  380  338  331  337  342  337  301  209  81  -21  -63  -47  25  145  266  332  328  286  225  136  13  -118  -225  -281  -275  -221  -150  -115  -142  -188  -206  -202  -206  -233  -267  -285  -287  -290  -303  -316  -312  -277  -206  -122  -75  -90  -151  -217  -254  -268  -313  -440  -624  -781  -867  -910  -954  -1015  -1079  -1125  -1147  -1167  -1195  -1224  -1243  -1239  -1181  -1055  -903  -795  -741  -672  -538  -412  -417  -543  -671  -747  -795  -835  -882  -981  -1174  -1417  -1602  -1692  -1727  -1734  -1709  -1661  -1630  -1643  -1682  -1720  -1748  -1768  -1777  -1767  -1716  -1621  -1520  -1473  -1532  -1684  -1776  -1575  -957  20  1179  2325  3359  4213  4731  4706  3956  2445  466  -1385  -2509  -2644  -2047  -1295  -831  -711  -756  -800  -797  -767  -716  -637  -525  -377  -225  -132  -126  -175  -241  -310  -369  -393  -354  -238  -73  89  210  277  300  300  295  311  366  439  483  499  542  628  726  835  966  1107  1251  1392  1509  1582  1615  1623  1616  1580  1504  1420  1390  1431  1479  1444  1324  1183  1029  825  585  357  146  -62  -254  -414  -568  -739  -914  -1083  -1236  -1340  -1381  -1401  -1427  -1432  -1417  -1413  -1421  -1441  -1508  -1657  -1873  -2080  -2200  -2228  -2189  -2096  -1978  -1890  -1861  -1877  -1921  -1975  -2009  -1997  -1929  -1831  -1751  -1713  -1707  -1720  -1743  -1766  -1785  -1801  -1830  -1878  -1918  -1938  -1960  -1993  -2029  -2076  -2138  -2213  -2302  -2392  -2455  -2483  -2484  -2469  -2446  -2434  -2450  -2495  -2545  -2571  -2572  -2565  -2559  -2544  -2511  -2484  -2525  -2681  -2903  -3070  -3125  -3116  -3100  -3098  -3097  -3077  -3037  -2997  -2977  -2983  -3003  -3020  -3013  -2962  -2858  -2730  -2637  -2605  -2619  -2657  -2700  -2722  -2707  -2653  -2566  -2430  -2203  -1854  -1403  -923  -524  -284  -167  -81  18  133  270  445  656  903  1170  1404  1576  1724  1894  2083  2241  2329  2358  2371  2392  2399  2351  2259  2187  2168  2176  2151  2050  1892  1738  1612  1492  1365  1240  1119  979  791  566  369  245  172  98  6  -65  -83  -73  -82  -112  -136  -145  -161  -210  -280  -327  -326  -289  -269  -289  -235  73  663  1433  2317  3295  4388  5570  6588  6984  6409  4940  3032  1260  124  -230  -40  416  962  1449  1845  2223  2607  2945  3205  3409  3574  3690  3764  3809  3833  3844  3846  3821  3744  3631  3538  3472  3358  3144  2895  2736  2730  2851  3020  3156  3232  3264  3257  3207  3134  3096  3133  3221  3316  3420  3547  3677  3770  3809  3811  3800  3788  3780  3779  3759  3677  3503  3252  2984  2729  2433  2056  1688  1453  1342  1252  1129  986  815  599  378  226  154  99  1  -137  -271  -368  -429  -481  -557  -649  -717  -745  -759  -781  -793  -749  -638  -514  -465  -521  -624  -697  -725  -739  -761  -781  -794  -810  -837  -867  -884  -878  -850  -799  -733  -662  -588  -530  -504  -495  -497  -519  -551  -571  -571  -558  -559  -608  -711  -828  -908  -940  -942  -934  -930  -941  -977  -1028  -1066  -1079  -1071  -1049  -1025  -1018  -1037  -1071  -1092  -1091  -1085  -1096  -1135  -1195  -1268  -1329  -1361  -1353  -1309  -1247  -1200  -1184  -1187  -1193  -1185  -1151  -1100  -1055  -1038  -1073  -1180  -1323  -1414  -1385  -1247  -1079  -984  -1007  -1098  -1184  -1225  -1221  -1202  -1191  -1191  -1195  -1194  -1159  -1064  -933  -829  -786  -781  -789  -811  -862  -931  -985  -994  -942  -821  -652  -487  -373  -303  -240  -182  -163  -201  -283  -395  -511  -590  -619  -619  -613  -601  -572  -534  -508  -505  -518  -523  -487  -393  -272  -186  -161  -178  -240  -396  -643  -854  -797  -324  430  1222  2026  2926  3886  4800  5454  5478  4630  3009  969  -937  -2183  -2550  -2167  -1459  -926  -744  -743  -739  -698  -646  -605  -574  -552  -547  -565  -593  -611  -603  -560  -485  -410  -394  -473  -607  -719  -780  -806  -804  -766  -680  -552  -419  -317  -242  -152  -7  182  360  487  560  589  596  613  664  740  804  835  839  833  810  758  687  615  542  463  389  297  119  -189  -558  -866  -1074  -1245  -1459  -1710  -1917  -2040  -2113  -2165  -2214  -2266  -2325  -2421  -2573  -2736  -2847  -2900  -2927  -2941  -2936  -2922  -2923  -2966  -3066  -3215  -3369  -3467  -3490  -3466  -3430  -3398  -3375  -3370  -3399  -3456  -3519  -3568  -3599  -3631  -3691  -3773  -3823  -3799  -3741  -3709  -3708  -3710  -3689  -3639  -3613  -3677  -3816  -3945  -4025  -4081  -4138  -4194  -4265  -4377  -4521  -4640  -4697  -4710  -4708  -4703  -4702  -4706  -4689  -4577  -4294  -3847  -3343  -2901  -2593  -2416  -2259  -1952  -1436  -847  -342  74  451  760  962  1107  1272  1465  1651  1845  2089  2355  2550  2634  2659  2689  2738  2774  2790  2837  2938  3066  3215  3399  3607  3826  4034  4195  4333  4523  4790  5060  5260  5404  5558  5742  5910  6016  6059  6042  5943  5775  5604  5494  5450  5442  5449  5462  5479  5500  5531  5573  5626  5702  5811  5918  5968  5926  5799  5611  5360  5007  4555  4080  3616  3130  2754  2755  3118  3607  4124  4661  5205  5845  6608  7197  7122  6096  4264  2131  322  -747  -1114  -1068  -886  -714  -528  -296  -110  -50  -85  -147  -186  -178  -121  -44  10  27  22  11  -1  -14  -18  -5  16  30  34  33  39  58  90  129  168  197  220  257  312  368  402  409  408  438  527  651  755  827  905  1001  1103  1214  1339  1438  1464  1392  1257  1137  1041  904  718  545  380  141  -186  -506  -765  -990  -1206  -1405  -1570  -1678  -1735  -1778  -1825  -1845  -1813  -1747  -1691  -1667  -1664  -1663  -1659  -1662  -1685  -1730  -1791  -1857  -1911  -1922  -1849  -1688  -1496  -1354  -1308  -1364  -1498  -1644  -1694  -1589  -1388  -1216  -1144  -1154  -1208  -1275  -1338  -1401  -1464  -1499  -1479  -1415  -1346  -1303  -1288  -1279  -1268  -1263  -1277  -1308  -1339  -1351  -1329  -1266  -1162  -1051  -981  -964  -975  -984  -962  -890  -779  -665  -574  -524  -532  -622  -785  -953  -1052  -1064  -1015  -940  -868  -816  -794  -797  -792  -756  -693  -610  -520  -444  -383  -334  -302  -283  -242  -149  -22  102  226  341  385  316  184  85  56  68  77  54  -19  -142  -288  -419  -518  -585  -627  -659  -697  -747  -802  -829  -807  -763  -714  -645  -557  -506  -551  -715  -980  -1264  -1363  -1061  -375  479  1368  2313  3352  4410  5203  5339  4593  3050  1101  -724  -2030  -2688  -2774  -2444  -1968  -1662  -1610  -1662  -1699  -1711  -1738  -1799  -1845  -1799  -1672  -1557  -1492  -1406  -1210  -944  -745  -675  -682  -699  -687  -637  -560  -468  -371  -288  -242  -229  -214  -163  -80  -3  41  52  45  31  16  3  -9  -11  21  94  172  209  204  190  190  194  186  152  95  28  -61  -214  -490  -905  -1344  -1647  -1780  -1838  -1941  -2189  -2573  -2949  -3180  -3256  -3256  -3243  -3238  -3244  -3266  -3312  -3373  -3422  -3442  -3435  -3418  -3439  -3564  -3813  -4090  -4277  -4354  -4373  -4358  -4260  -4031  -3713  -3424  -3225  -3083  -2939  -2770  -2576  -2332  -1947  -1353  -661  -97  260  491  646  727  761  809  913  1053  1205  1400  1644  1859  1987  2044  2059  2034  1956  1804  1595  1403  1281  1177  974  589  86  -344  -573  -634  -628  -611  -590  -552  -479  -345  -156  53  247  414  570  730  895  1073  1286  1516  1700  1789  1781  1714  1651  1652  1718  1809  1913  2062  2288  2568  2826  3014  3137  3216  3285  3391  3544  3754  4066  4464  4829  5071  5172  5112  4935  4859  5062  5460  5912  6393  6917  7531  8266  9010  9488  9336  8264  6321  3997  1975  729  323  507  879  1103  1165  1247  1375  1439  1419  1368  1317  1260  1197  1146  1113  1083  1024  905  751  636  595  615  681  779  876  951  1001  1025  1028  1027  1046  1104  1184  1240  1253  1239  1242  1308  1448  1614  1738  1792  1807  1839  1911  2013  2128  2250  2346  2330  2123  1776  1464  1291  1180  993  706  398  112  -154  -378  -522  -613  -770  -1126  -1664  -2168  -2440  -2495  -2465  -2434  -2407  -2377  -2366  -2396  -2441  -2469  -2501  -2588  -2731  -2866  -2934  -2945  -2942  -2959  -2983  -2964  -2888  -2809  -2775  -2775  -2774  -2753  -2735  -2773  -2878  -2983  -3031  -3013  -2929  -2792  -2640  -2516  -2452  -2442  -2453  -2464  -2471  -2473  -2458  -2410  -2339  -2277  -2252  -2292  -2418  -2590  -2713  -2723  -2631  -2499  -2399  -2366  -2399  -2497  -2624  -2714  -2722  -2657  -2566  -2503  -2486  -2500  -2523  -2540  -2536  -2502  -2434  -2340  -2247  -2191  -2208  -2304  -2431  -2519  -2550  -2578  -2655  -2781  -2921  -3039  -3124  -3191  -3260  -3325  -3351  -3321  -3253  -3186  -3148  -3132  -3121  -3112  -3107  -3107  -3110  -3108  -3069  -2962  -2802  -2666  -2622  -2582  -2300  -1621  -585  647  1855  2923  3901  4693  4922  4259  2716  697  -1112  -2152  -2337  -1951  -1347  -767  -261  242  764  1198  1443  1536  1607  1737  1907  2055  2150  2222  2314  2433  2565  2695  2821  2947  3068  3171  3253  3328  3414  3502  3560  3582  3598  3645  3739  3856  3945  3996  4037  4088  4154  4257  4440  4689  4917  5069  5158  5221  5267  5296  5314  5330  5346  5346  5297  5174  4997  4819  4663  4518  4353  4139  3860  3509  3101  2699  2365  2119  1948  1840  1784  1732  1612  1386  1101  855  712  652  634  642  653  611  478  283  103  -5  -50  -69  -96  -133  -158  -168  -185  -235  -308  -364  -387  -391  -395  -398  -399  -399  -403  -420  -447  -485  -539  -597  -627  -624  -619  -651  -731  -842  -947  -1013  -1025  -994  -937  -879  -841  -820  -803  -780  -746  -708  -676  -659  -676  -759  -912  -1075  -1183  -1225  -1228  -1215  -1196  -1179  -1167  -1160  -1150  -1136  -1120  -1106  -1101  -1117  -1163  -1242  -1341  -1432  -1493  -1534  -1586  -1652  -1691  -1645  -1509  -1333  -1181  -1093  -1068  -1084  -1123  -1175  -1207  -1172  -1033  -837  -695  -692  -837  -1057  -1235  -1301  -1250  -1108  -933  -801  -756  -802  -916  -1052  -1146  -1171  -1117  -982  -811  -693  -691  -805  -968  -1090  -1126  -1098  -1052  -1011  -971  -938  -933  -965  -1021  -1075  -1112  -1121  -1082  -977  -815  -656  -560  -533  -536  -551  -595  -677  -759  -793  -761  -677  -584  -521  -468  -357  -124  185  441  559  553  486  420  374  315  196  18  -167  -310  -410  -494  -586  -680  -753  -796  -823  -855  -899  -952  -1017  -1087  -1138  -1162  -1180  -1206  -1235  -1245  -1206  -1095  -911  -612  -151  457  1223  2161  3189  4210  5129  5701  5587  4645  3048  1151  -569  -1656  -1955  -1678  -1195  -758  -444  -291  -282  -321  -343  -346  -347  -366  -410  -456  -442  -308  -102  45  63  -2  -45  1  110  224  312  363  396  447  509  548  563  599  692  814  917  1004  1106  1210  1279  1316  1352  1408  1506  1689  1961  2235  2415  2503  2537  2525  2466  2363  2210  2012  1795  1559  1305  1080  939  870  788  628  395  159  3  -52  -69  -136  -310  -539  -720  -832  -918  -978  -977  -937  -908  -914  -949  -991  -1008  -1001  -1010  -1058  -1124  -1161  -1134  -1049  -962  -899  -846  -796  -758  -740  -769  -850  -937  -987  -1001  -999  -997  -997  -989  -949  -864  -762  -693  -671  -675  -687  -705  -725  -737  -734  -714  -676  -628  -591  -580  -589  -602  -594  -551  -495  -479  -533  -632  -719  -764  -778  -778  -759  -700  -594  -471  -392  -407  -499  -617  -739  -857  -952  -1014  -1041  -1032  -996  -962  -961  -982  -992  -986  -987  -1008  -1037  -1054  -1048  -1015  -966  -919  -890  -881  -880  -875  -872  -888  -922  -943  -911  -811  -675  -565  -522  -539  -578  -608  -618  -618  -615  -612  -606  -589  -559  -529  -508  -487  -452  -371  -216  -31  96  134  130  148  218  315  386  441  534  673  804  873  877  877  942  1065  1194  1311  1432  1563  1720  1944  2229  2493  2654  2715  2740  2801  2921  3022  2978  2795  2607  2487  2402  2297  2121  1865  1584  1305  989  660  420  318  300  295  255  181  96  18  -48  -90  -89  -61  -46  -55  -67  -66  -48  -33  -42  -42  59  348  827  1445  2206  3146  4236  5333  6142  6265  5454  3802  1718  -208  -1457  -1862  -1639  -1167  -750  -511  -399  -299  -172  -67  -22  -25  -43  -53  -54  -74  -129  -189  -208  -202  -218  -253  -275  -266  -226  -169  -107  -37  44  124  186  235  288  341  376  411  505  698  940  1138  1241  1273  1297  1381  1543  1725  1848  1890  1904  1944  1989  1990  1957  1932  1933  1952  1968  1927  1769  1511  1237  970  650  286  10  -96  -85  -50  -78  -220  -454  -694  -887  -1026  -1110  -1148  -1167  -1191  -1222  -1248  -1255  -1218  -1112  -965  -860  -857  -958  -1105  -1219  -1261  -1230  -1124  -966  -825  -749  -729  -733  -759  -819  -906  -1005  -1105  -1179  -1210  -1236  -1275  -1282  -1233  -1149  -1062  -992  -939  -896  -863  -844  -836  -834  -838  -852  -874  -886  -872  -859  -890  -949  -989  -970  -882  -751  -618  -518  -482  -510  -563  -607  -641  -649  -613  -552  -518  -536  -584  -624  -642  -653  -688  -775  -907  -1014  -1021  -929  -793  -675  -606  -560  -474  -346  -230  -159  -117  -85  -64  -46  -19  22  70  117  173  231  256  214  114  0  -99  -205  -336  -492  -671  -843  -959  -1009  -1025  -1030  -1025  -1009  -1003  -1021  -1037  -1011  -937  -843  -759  -709  -707  -791  -969  -1090  -897  -302  527  1380  2177  2943  3665  4182  4230  3592  2236  394  -1504  -2980  -3663  -3499  -2741  -1730  -875  -537  -677  -922  -1008  -937  -796  -649  -535  -476  -470  -487  -501  -496  -459  -403  -356  -334  -329  -330  -331  -330  -330  -328  -322  -307  -281  -254  -231  -203  -146  -36  149  409  681  887  1032  1204  1434  1673  1896  2138  2409  2663  2865  3023  3147  3229  3269  3269  3197  3028  2807  2626  2522  2464  2384  2193  1865  1494  1194  1010  926  903  898  882  837  748  608  401  147  -75  -192  -196  -125  -33  27  28  -28  -114  -193  -251  -285  -293  -283  -271  -263  -273  -338  -492  -654  -675  -544  -377  -242  -151  -108  -96  -86  -79  -91  -126  -163  -194  -226  -264  -297  -339  -423  -554  -710  -869  -999  -1080  -1125  -1156  -1180  -1189  -1172  -1138  -1107  -1083  -1057  -1030  -1018  -1045  -1119  -1214  -1286  -1330  -1364  -1368  -1294  -1140  -952  -790  -695  -662  -637  -574  -486  -423  -406  -402  -360  -262  -140  -48  0]
