reading_id,reading_time,wire_id,result_classification,heart_rate,heart_rate_alert,firmware_version,device_app_version,hardware_version,waveform_samples
25dc9e90-6ea8-11ed-8080-808080808080,Sun Nov 27 23:06:38 UTC 2022,e100638c1a39,NSR,75,NONE,20001.171.50,2.10.0,Charge 5,[2399  2411  2408  2364  2264  2125  2002  1941  1944  1979  2038  2137  2255  2308  2209  1939  1572  1244  1068  1044  1086  1135  1183  1206  1134  911  579  245  -13  -191  -350  -529  -684  -768  -801  -801  -721  -497  -189  24  14  -250  -767  -1435  -1999  -2229  -2041  -1552  -1091  -773  -294  422  1073  1595  2084  2441  2562  2360  1604  211  -1517  -3151  -4308  -4702  -4331  -3529  -2772  -2431  -2466  -2541  -2502  -2404  -2269  -2107  -1969  -1900  -1910  -1962  -1969  -1856  -1648  -1451  -1344  -1300  -1256  -1187  -1101  -1013  -953  -931  -926  -912  -881  -835  -772  -658  -485  -301  -175  -138  -166  -192  -176  -139  -116  -109  -107  -108  -127  -178  -237  -236  -132  29  149  194  200  198  163  48  -149  -385  -620  -824  -986  -1145  -1316  -1458  -1537  -1551  -1511  -1468  -1496  -1638  -1838  -1976  -1976  -1873  -1754  -1645  -1489  -1286  -1142  -1150  -1280  -1410  -1471  -1487  -1496  -1485  -1373  -1099  -781  -632  -687  -852  -1059  -1215  -1203  -1016  -769  -590  -493  -410  -320  -232  -149  -114  -155  -228  -278  -295  -307  -367  -498  -650  -749  -776  -770  -763  -757  -733  -681  -606  -468  -220  42  179  196  175  135  52  -89  -273  -442  -533  -540  -517  -516  -568  -682  -825  -926  -937  -858  -726  -590  -493  -464  -509  -591  -666  -729  -787  -783  -653  -440  -249  -146  -143  -195  -239  -239  -222  -300  -589  -1018  -1371  -1530  -1529  -1435  -1290  -1127  -999  -943  -936  -921  -866  -804  -800  -906  -1140  -1369  -1366  -1040  -402  486  1435  2324  3133  3644  3528  2710  1408  -119  -1636  -2843  -3513  -3590  -3212  -2692  -2292  -2032  -1789  -1460  -1097  -859  -806  -841  -853  -793  -678  -617  -703  -891  -1044  -1032  -799  -452  -175  -29  53  122  196  283  374  447  479  429  242  -53  -325  -468  -498  -474  -412  -282  -47  242  453  581  812  1280  1821  2074  1871  1423  1074  951  961  1005  1070  1162  1268  1343  1319  1149  889  638  423  227  66  -35  -75  -71  -50  -38  -49  -73  -90  -97  -121  -202  -333  -458  -540  -600  -659  -709  -753  -800  -836  -824  -759  -684  -637  -588  -478  -310  -149  -43  5  36  78  103  76  24  -26  -100  -218  -348  -430  -447  -433  -409  -372  -312  -213  -84  35  108  146  183  225  273  347  443  527  590  626  600  462  235  64  81  232  384  495  585  675  773  865  911  899  866  846  870  998  1268  1600  1826  1841  1642  1311  988  777  675  613  548  496  492  540  609  663  700  752  838  943  1030  1069  1035  894  673  477  434  666  1252  2097  2924  3508  3852  4037  4013  3679  2891  1524  -209  -1787  -2698  -2660  -1838  -813  -112  245  516  716  740  658  585  526  422  245  81  73  254  531  786  916  896  811  744  710  702  728  787  832  801  704  619  585  579  573  566  564  566  568  565  543  491  419  356  331  348  384  424  467  485  427  276  94  -29  -71  -73  -69  -65  -68  -104  -215  -435  -759  -1110  -1383  -1531  -1597  -1654  -1724  -1779  -1797  -1795  -1796  -1814  -1840  -1852  -1827  -1768  -1740  -1796  -1886  -1905  -1806  -1630  -1485  -1437  -1448  -1459  -1471  -1537  -1680  -1789  -1701  -1441  -1211  -1120  -1124  -1154  -1186  -1213  -1230  -1248  -1286  -1342  -1382  -1400  -1421  -1458  -1500  -1530  -1513  -1434  -1321  -1181  -1005  -825  -710  -682  -701  -724  -735  -726  -700  -668  -643  -629  -618  -604  -577  -534  -492  -458  -419  -380  -362  -363  -372  -372  -337  -218  -4  195  247  186  141  135  129  114  77  -26  -249  -574  -905  -1175  -1364  -1430  -1385  -1341  -1363  -1399  -1417  -1449  -1510  -1575  -1600  -1561  -1456  -1264  -935  -436  183  747  1071  1252  1556  2021  2495  2666  2088  668  -1128  -2682  -3596  -3796  -3456  -2905  -2358  -1794  -1247  -856  -652  -544  -454  -394  -416  -494  -535  -457  -251  -15  119  102  -32  -202  -335  -420  -457  -420  -281  -23  315  594  674  581  480  493  603  730  817  858  921  1145  1629  2263  2799  3122  3308  3412  3405  3301  3180  3082  2999  2917  2840  2808  2866  2994  3120  3162  3085  2926  2759  2636  2574  2558  2554  2522  2412  2190  1911  1659  1455  1337  1382  1538  1638  1609  1516  1460  1478  1496  1442  1365  1367  1438  1459  1367  1211  1077  1020  1014  1003  979  968  986  1034  1105  1196  1312  1425  1484  1463  1400  1380  1452  1578  1678  1723  1729  1690  1531  1187  728  335  104  1  -8  63  147  146  34  -112  -183  -157  -91  -30  20  57  72  48  -35  -170  -291  -324  -249  -131  -46  -8  9  17  18  17  16  17  16  9  -9  -29  -8  104  302  501  625  666  637  536  380  231  117  -9  -203  -452  -680  -792  -768  -685  -621  -599  -600  -603  -603  -603  -627  -697  -768  -755  -630  -422  -148  252  914  1761  2525  3144  3686  3975  3725  2884  1572  -78  -1743  -2908  -3336  -3169  -2617  -1870  -1182  -725  -442  -216  -45  31  40  27  13  5  23  102  249  381  383  269  161  112  78  40  20  35  67  93  101  100  106  150  257  399  503  546  559  558  504  346  122  -35  7  294  699  1001  1082  959  694  397  188  100  109  185  267  279  191  20  -195  -409  -582  -716  -866  -1079  -1337  -1574  -1741  -1835  -1884  -1905  -1903  -1915  -2001  -2157  -2319  -2426  -2445  -2386  -2257  -2056  -1833  -1682  -1634  -1641  -1664  -1705  -1778  -1868  -1939  -1970  -1946  -1841  -1662  -1481  -1381  -1386  -1477  -1603  -1689  -1669  -1520  -1301  -1115  -1014  -977  -988  -1067  -1234  -1440  -1603  -1691  -1716  -1666  -1521  -1326  -1186  -1162  -1233  -1337  -1427  -1505  -1585  -1652  -1676  -1660  -1643  -1657  -1693  -1713  -1699  -1667  -1645  -1644  -1652  -1661  -1686  -1751  -1841  -1915  -1956  -1960  -1898  -1738  -1521  -1347  -1254  -1192  -1098  -974  -881  -903  -1082  -1358  -1611  -1797  -1942  -2052  -2118  -2136  -2113  -2079  -2058  -2049  -2039  -2006  -1950  -1907  -1909  -1955  -2016  -2075  -2148  -2247  -2328  -2256  -1895  -1312  -685  -25  679  1290  1786  2283  2675  2615  1836  363  -1484  -3218  -4314  -4521  -4077  -3333  -2478  -1665  -1020  -585  -340  -222  -151  -64  92  335  602  787  864  881  876  859  857  921  1061  1205  1300  1405  1626  1966  2297  2503  2593  2636  2662  2666  2641  2601  2594  2681  2859  3049  3184  3289  3433  3622  3800  3941  4055  4111  4076  3968  3805  3607  3442  3343  3284  3239  3201  3161  3095  2959  2721  2408  2091  1827  1626  1456  1277  1073  889  785  767  789  812  827  840  857  881  911  944  980  1017  1032  1010  979  977  1004  1037  1059  1078  1109  1133  1102  976  802  689  684  729  755  749  727  705  698  709  722  695  583  381  118  -184  -474  -660  -703  -626  -473  -312  -225  -237  -313  -407  -493  -564  -620  -651  -654  -654  -653  -630  -599  -583  -578  -555  -497  -414  -341  -295  -273  -265  -274  -294  -286  -188  21  273  466  578  649  688  692  716  808  919  976  957  864  721  572  446  361  318  288  234  160  103  78  59  24  -21  -57  -78  -97  -118  -126  -114  -106  -165  -278  -208  273  1049  1797  2289  2560  2848  3188  3312  2910  1743  -121  -2124  -3581  -4125  -3813  -3045  -2282  -1738  -1385  -1117  -879  -664  -471  -349  -350  -430  -517  -591  -625  -625  -650  -712  -747  -720  -651  -588  -541  -462  -317  -134  38  176  286  394  501  587  649  697  729  770  869  1048  1262  1438  1531  1548  1540  1550  1573  1577  1557  1560  1633  1742  1809  1776  1629  1429  1270  1173  1079  921  678  397  153  -47  -230  -396  -548  -686  -784  -835  -871  -921  -981  -1022  -1002  -913  -812  -752  -730  -735  -763  -817  -881  -917  -906  -877  -860  -828  -744  -619  -517  -477  -489  -532  -592  -651  -690  -706  -719  -726  -683  -541  -346  -220  -230  -341  -453  -492  -473  -449  -413  -330  -215  -131  -122  -181  -270  -343  -376  -364  -292  -168  -40  40  67  65  58  55  57  57  52  37  19  8  18  51  66  19  -86  -203  -281  -302  -274  -208  -107  1  77  104  94  68  35  -13  -71  -106  -62  70  220  333  431  542  659  743  736  645  520  362  152  -51  -177  -219  -229  -265  -368  -573  -874  -1176  -1362  -1413  -1395  -1375  -1396  -1474  -1582  -1704  -1905  -2191  -2298  -1915  -1078  -152  477  715  822  1165  1809  2274  1913  526  -1500  -3419  -4528  -4647  -4181  -3565  -2912  -2283  -1848  -1645  -1531  -1365  -1159  -1030  -1023  -1047  -1006  -891  -736  -547  -338  -153  -16  71  104  107  148  241  314  326  320  353  437  518  560  591  623  635  636  682  826  1047  1244  1352  1399  1436  1492  1570  1674  1824  2024  2228  2364  2411  2386  2282  2098  1890  1723  1596  1455  1272  1094  994  971  934  772  451  73  -210  -343  -374  -374  -373  -371  -382  -476  -719  -1041  -1271  -1315  -1206  -1035  -894  -819  -777  -740  -724  -736  -755  -759  -746  -736  -766  -865  -1005  -1111  -1141  -1114  -1072  -1034  -1000  -956  -884  -788  -696  -641  -628  -632  -626  -629  -671  -748  -833  -893  -926  -944  -941  -897  -817  -731  -663  -611  -552  -458  -340  -248  -206  -193  -190  -197  -214  -213  -144  22  252  422  440  401  448  552  622  647  659  666  639  554  431  303  168  34  -64  -115  -132  -122  -98  -85  -100  -164  -299  -473  -601  -640  -610  -534  -422  -304  -227  -204  -209  -217  -220  -221  -223  -224  -214  -182  -139  -117  -157  -270  -441  -647  -857  -1022  -1098  -1071  -953  -798  -689  -670  -723  -800  -854  -854  -797  -705  -625  -619  -759  -987  -978  -414  630  1772  2624  3036  3272  3730  4389  4785  4391  2934  651  -1700  -3273  -3644  -2937  -1660  -419  397  721  688  542  479  531  658  856  1133  1423  1616  1679  1675  1661  1634  1551  1407  1289  1253  1261  1283  1333  1410  1509  1656  1880  2131  2320  2447  2561  2663  2716  2700  2639  2584  2567  2584  2601  2588  2573  2600  2655  2689  2694  2679  2651  2606  2544  2470  2387  2282  2126  1909  1657  1413  1204  1001  778  569  412  311  255  219  173  79  -83  -279  -441  -553  -639  -735  -863  -982  -1029  -999  -948  -940  -946  -863  -720  -648  -671  -722  -749  -741  -713  -694  -690  -695  -701  -703  -684  -630  -560  -511  -495  -493  -485  -467  -449  -431  -420  -451  -577  -789  -1001  -1140  -1205  -1226  -1215  -1168  -1095  -1028  -1001  -1019  -1062  -1099  -1117  -1123  -1117  -1103  -1086  -1051  -979  -895  -844  -823  -789  -741  -699  -661  -620  -583  -571  -598  -645  -677  -688  -687  -686  -695  -724  -762  -789  -800  -806  -808  -762  -622  -419  -255  -205  -258  -349  -424  -470  -486  -469  -426  -365  -302  -254  -215  -159  -77  13  99  192  326  513  694  779  717  523  249  -21  -211  -305  -350  -364  -322  -241  -210  -296  -464  -634  -767  -866  -932  -971  -1013  -1091  -1168  -1117  -918  -720  -603  -507  -282  288  1288  2429  3175  3100  2156  629  -1109  -2710  -3948  -4794  -5188  -4986  -4223  -3263  -2522  -2086  -1773  -1494  -1309  -1236  -1219  -1213  -1218  -1240  -1257  -1215  -1080  -898  -771  -739  -768  -813  -841  -786  -570  -210  149  385  487  507  498  502  533  570  610  702  926  1329  1810  2164  2307  2325  2324  2362  2449  2539  2558  2491  2395  2327  2285  2244  2203  2167  2122  2067  1998  1913  1832  1751  1631  1484  1364  1291  1237  1135  899  535  202  43  53  122  158  136  101  79  50  5  -2  90  306  584  801  886  870  830  814  815  811  791  758  733  756  825  887  884  798  688  614  557  485  390  267  130  25  -27  -48  -56  -60  -67  -78  -87  -92  -105  -135  -178  -215  -222  -200  -168  -131  -81  -29  11  30  -5  -134  -329  -506  -607  -611  -537  -477  -513  -614  -693  -720  -745  -820  -929  -1002  -1005  -970  -939  -927  -925  -921  -921  -931  -946  -958  -960  -948  -915  -849  -749  -648  -592  -600  -658  -780  -1017  -1344  -1627  -1757  -1703  -1481  -1187  -967  -882  -891  -963  -1097  -1247  -1322  -1277  -1164  -1076  -1053  -1071  -1118  -1218  -1339  -1284  -822  21  1001  1899  2523  2747  2683  2459  1962  1023  -370  -2026  -3537  -4341  -4038  -2868  -1570  -664  -250  -197  -242  -227  -177  -136  -106  -86  -54  16  108  181  229  273  326  397  493  598  670  703  736  800  887  957  985  986  983  995  1014  1017  1020  1085  1216  1339  1409  1449  1493  1540  1585  1633  1675  1708  1764  1865  1954  1942  1840  1745  1701  1651  1531  1356  1195  1073  978  902  808  632  373  125  -16  -56  -63  -72  -79  -59  1  81  121  90  19  -35  -55  -56  -52  -39  -1  68  150  215  267  331  386  389  340  282  246  222  178  121  122  223  342  358  272  183  137  86  -33  -199  -330  -399  -436  -459  -462  -442  -381  -279  -184  -142  -153  -174  -160  -163  -270  -433  -555  -617  -645  -650  -627  -544  -383  -199  -79  -51  -82  -135  -178  -201  -219  -253  -334  -456  -518  -422  -196  80  337  508  584  620  660  706  747  771  767  722  604  390  125  -126  -337  -492  -590  -660  -719  -763  -789  -807  -821  -825  -828  -866  -951  -1052  -1134  -1164  -1102  -927  -692  -458  -170  253  727  1114  1404  1689  2129  2750  3197  2967  1888  170  -1817  -3543  -4439  -4303  -3411  -2271  -1349  -891  -830  -881  -852  -776  -731  -724  -731  -739  -749  -753  -741  -709  -667  -630  -609  -606  -609  -603  -571  -512  -446  -402  -380  -363  -358  -371  -381  -345  -220  -20  168  267  290  315  429  672  990  1250  1344  1258  1071  881  713  559  455  420  417  404  370  319  244  131  -21  -215  -447  -666  -806  -851  -846  -881  -1025  -1251  -1456  -1575  -1612  -1598  -1553  -1490  -1409  -1284  -1116  -968  -900  -858  -719  -469  -223  -71  0  35  49  40  1  -54  -103  -134  -150  -155  -146  -93  11  120  188  218  228  233  236  225  182  99  -2  -89  -129  -118  -109  -161  -244  -278  -280  -315  -374  -404  -398  -377  -362  -358  -361  -366  -362  -337  -293  -252  -222  -194  -169  -154  -146  -151  -193  -293  -419  -513  -568  -617  -662  -661  -596  -512  -458  -437  -401  -296  -140  -13  37  30  3  -14  -9  11  25  28  55  139  264  373  435  477  548  672  829  955  960  788  509  259  77  -105  -327  -534  -654  -683  -666  -636  -604  -573  -553  -551  -564  -575  -567  -528  -472  -432  -446  -515  -494  -101  750  1775  2623  3220  3734  4241  4515  4156  2893  838  -1446  -3176  -3788  -3332  -2373  -1479  -929  -693  -543  -327  -84  84  156  168  152  113  60  19  3  10  26  37  47  86  184  334  484  571  578  522  437  362  318  306  336  420  551  711  884  1048  1162  1220  1248  1261  1245  1188  1104  1033  996  992  1029  1122  1257  1380  1436  1416  1343  1225  1056  848  636  463  324  137  -132  -409  -609  -719  -770  -820  -926  -1103  -1297  -1438  -1518  -1595  -1711  -1849  -1946  -1950  -1881  -1800  -1709  -1568  -1393  -1261  -1211  -1222  -1252  -1262  -1220  -1109  -962  -838  -764  -714  -656  -591  -547  -536  -526  -459  -293  -68  103  169  169  155  139  108  66  30  12  11  23  53  85  83  23  -64  -115  -104  -64  -26  6  33  59  114  219  358  491  571  584  554  512  485  481  492  510  525  532  533  538  563  608  654  685  716  779  877  971  1021  1029  1029  1048  1085  1112  1102  1031  892  724  609  597  679  811  955  1106  1252  1347  1387  1425  1485  1534  1536  1495  1447  1408  1337  1201  1042  923  850  793  723  636  551  478  397  309  247  226  230  240  254  270  268  206  65  -77  -34  408  1318  2485  3536  4209  4451  4250  3530  2211  338  -1798  -3677  -4721  -4597  -3490  -1978  -683  -71  -152  -453  -610  -653  -644  -513  -269  -49  61  87  64  -6  -125  -258  -350  -389  -401  -410  -409  -341  -150  106  295  359  349  320  295  283  315  420  583  752  905  1035  1118  1144  1122  1059  975  911  896  957  1118  1348  1551  1643  1611  1479  1253  972  738  629  610  587  496  358  230  123  22  -85  -225  -404  -590  -768  -924  -1028  -1075  -1076  -999  -807  -557  -389  -373  -458  -539  -573  -590  -614  -632  -628  -597  -547  -501  -471  -447  -409  -363  -334  -339  -384  -450  -493  -458  -314  -118  22  65  50  23  0  -14  -20  -20  -10  13  44  65  67  58  50  42  17  -36  -97  -132  -131  -122  -121  -109  -67  -7  54  96  104  82  51  31  31  43  42  25  16  14  2  -16  -26  -29  -31  -38  -47  -53  -53  -49  -34  -9  21  43  45  42  88  234  439  603  680  689  660  617  582  562  556  551  520  427  236  -48  -335  -514  -561  -513  -428  -355  -313  -301  -319  -354  -402  -489  -660  -918  -1156  -1183  -862  -203  641  1479  2226  2883  3358  3520  3224  2329  907  -687  -2084  -3022  -3270  -2787  -1969  -1311  -933  -703  -552  -472  -414  -316  -180  -77  -40  -35  -19  14  49  73  80  62  16  -33  -47  -22  11  26  17  39  143  300  449  562  631  667  696  724  723  675  601  539  509  519  564  646  757  875  995  1130  1259  1310  1233  1081  949  863  742  494  177  -44  -116  -139  -222  -386  -575  -728  -823  -860  -862  -858  -892  -1027  -1267  -1496  -1558  -1396  -1117  -896  -809  -842  -988  -1226  -1459  -1581  -1564  -1448  -1309  -1217  -1187  -1193  -1209  -1218  -1188  -1106  -1015  -977  -988  -1004  -1009  -1021  -1067  -1160  -1298  -1453  -1579  -1648  -1662  -1625  -1535  -1406  -1292  -1263  -1319  -1390  -1415  -1380  -1280  -1122  -951  -835  -796  -814  -879  -981  -1086  -1133  -1094  -1002  -905  -826  -770  -737  -732  -778  -847  -876  -854  -784  -659  -525  -455  -454  -488  -524  -554  -583  -593  -566  -526  -507  -505  -494  -459  -418  -378  -314  -213  -104  -20  22  39  64  117  212  366  556  718  813  868  932  985  968  898  838  812  806  762  608  373  161  27  -35  -43  16  154  310  395  402  394  402  390  274  20  -231  -252  20  506  1108  1687  2133  2541  3066  3630  3878  3377  2003  84  -1820  -3135  -3535  -3184  -2484  -1711  -1052  -668  -547  -526  -503  -469  -453  -473  -504  -513  -496  -471  -448  -387  -244  -52  91  147  160  184  218  225  202  183  191  222  253  274  310  381  484  597  690  743  779  848  977  1158  1358  1546  1684  1718  1632  1505  1424  1384  1343  1301  1287  1319  1368  1397  1397  1364  1278  1142  979  803  625  466  331  208  87  -42  -201  -376  -504  -557  -557  -525  -475  -431  -401  -366  -300  -191  -60  61  147  181  179  192  262  373  477  540  566  565  539  482  387  271  171  117  137  243  388  499  547  546  515  458  361  217  79  20  43  97  152  203  250  292  321  335  338  320  261  165  63  -19  -72  -96  -109  -146  -227  -329  -432  -542  -630  -641  -559  -428  -329  -297  -297  -274  -200  -98  -16  23  32  15  -45  -171  -329  -461  -548  -582  -540  -442  -359  -327  -330  -339  -347  -351  -348  -343  -354  -408  -496  -553  -531  -463  -393  -323  -243  -160  -101  -83  -87  -90  -88  -72  -24  52  129  179  207  246  311  395  486  563  596  515  252  -129  -443  -581  -592  -570  -550  -520  -469  -413  -377  -358  -341  -328  -358  -467  -615  -723  -777  -819  -827  -654  -185  510  1279  1969  2504  2985  3472  3737  3442  2393  682  -1263  -2926  -3966  -4232  -3737  -2753  -1757  -1109  -848  -795  -776  -719  -644  -590  -563  -557  -580  -644  -733  -799  -808  -753  -647  -505  -331  -136  39  146  190  229  294  378  476  587  681  719  688  619  559  537  582  717  898  1028  1062  1027  974  936  931  966  1035  1109  1156  1176  1189  1188  1131  993  816  651  508  391  320  285  244  169  56  -81  -226  -377  -527  -647  -736  -841  -987  -1127  -1181  -1134  -1060  -1025  -1027  -1035  -1027  -1003  -980  -952  -893  -823  -782  -773  -774  -763  -723  -644  -536  -425  -330  -255  -210  -212  -265  -337  -383  -383  -348  -303  -259  -208  -148  -98  -85  -115  -164  -204  -222  -220  -185  -103  2  78  92  52  -13  -75  -111  -112  -86  -50  -10  27  56  98  191  309  359  271  96  -56  -139  -191  -234  -260  -263  -226  -146  -56  -15  -49  -130  -209  -260  -274  -234  -121  30  149  211  237  239  224  219  247  301  365  420  439  407  348  295  282  313  338  317  271  232  208  190  163  139  155  254  410  488  399  252  211  319  496  633  693  695  619  416  117  -158  -326  -406  -474  -575  -667  -665  -572  -484  -453  -457  -465  -481  -523  -590  -655  -705  -750  -786  -761  -611  -268  312  1029  1718  2388  3091  3688  3902  3496  2402  761  -1075  -2613  -3427  -3417  -2847  -2037  -1196  -546  -252  -204  -191  -156  -147  -180  -229  -255  -253  -238  -193  -82  68  180  218  222  244  313  423  565  687  715  655  535  372  289  403  668  957  1168  1273  1328  1392  1500  1662  1834  1948  1992  2012  2036  2059  2080  2126  2224  2332  2328  2117  1769  1469  1332  1327  1360  1360  1294  1168  974  682  344  84  -55  -118  -164  -249  -387  -529  -616  -633  -614  -606  -633  -680  -716  -729  -730  -728  -718  -695  -665  -649  -661  -694  -726  -741  -730  -695  -646  -601  -582  -597  -623  -639  -640  -634  -632  -661  -746  -886  -1033  -1131  -1164  -1159  -1139  -1089  -979  -817  -666  -580  -557  -561  -567  -583  -626  -706  -794  -851  -872  -895  -960  -1060  -1150  -1196  -1203  -1198  -1193  -1186  -1164  -1112  -1030  -980  -1039  -1184  -1307  -1349  -1333  -1307  -1291  -1272  -1225  -1158  -1114  -1124  -1164  -1186  -1170  -1141  -1125  -1124  -1129  -1135  -1135  -1116  -1055  -932  -751  -550  -384  -288  -255  -251  -243  -205  -123  -1  125  212  245  245  226  189  146  108  54  -54  -229  -432  -608  -721  -756  -732  -680  -604  -496  -372  -262  -188  -149  -132  -130  -117  -20  221  521  738  948  1334  1880  2501  3141  3616  3786  3655  3081  1891  231  -1501  -2822  -3275  -2737  -1633  -595  76  419  571  677  779  849  898  947  992  1023  1047  1083  1142  1219  1277  1275  1214  1154  1152  1231  1379  1541  1658  1717  1745  1758  1757  1734  1665  1552  1454  1418  1448  1530  1646  1769  1877  1957  2015  2058  2092  2124  2145  2156  2165  2154  2095  1988  1868  1780  1724  1643  1483  1270  1095  1003  968  937  852  680  455  240  69  -50  -113  -129  -125  -111  -85  -49  -25  -31  -73  -133  -181  -205  -223  -245  -255  -212  -103  30  122  153  156  154  127  42  -88  -191  -189  -83  51  139  161  152  153  191  270  357  400  356  224  84  4  -57  -154  -254  -305  -312  -305  -300  -297  -290  -279  -269  -271  -301  -371  -485  -631  -760  -801  -743  -648  -571  -501  -426  -365  -345  -401  -555  -762  -920  -983  -978  -952  -932  -928  -954  -1014  -1087  -1140  -1170  -1201  -1241  -1261  -1233  -1162  -1094  -1080  -1125  -1203  -1305  -1432  -1553  -1608  -1585  -1534  -1485  -1428  -1376  -1374  -1437  -1525  -1576  -1552  -1464  -1358  -1284  -1252  -1221  -1152  -1056  -972  -911  -847  -788  -783  -862  -997  -1157  -1342  -1531  -1673  -1784  -1909  -2021  -2076  -2082  -2069  -2063  -2074  -2079  -2052  -1997  -1955  -1954  -1992  -2065  -2211  -2473  -2742  -2749  -2306  -1556  -862  -378  102  864  1915  2872  3137  2332  599  -1521  -3340  -4300  -4290  -3643  -2806  -2085  -1598  -1306  -1078  -844  -648  -521  -426  -347  -298  -282  -284  -288  -282  -258  -224  -198  -185  -183  -202  -252  -321  -384  -435  -479  -505  -494  -449  -405  -386  -368  -287  -101  160  405  578  693  775  830  873  913  958  1001  1018  993  937  874  818  774  740  706  674  687  776  880  872  661  311  -16  -221  -315  -358  -395  -436  -478  -533  -597  -685  -841  -1044  -1189  -1188  -1047  -888  -841  -874  -887  -882  -894  -898  -860  -783  -677  -549  -425  -335  -263  -178  -74  72  281  507  676  762  802  843  938  1126  1360  1517  1546  1510  1469  1436  1405  1374  1336  1290  1244  1215  1207  1205  1199  1192  1179  1146  1090  1037  1033  1115  1254  1376  1440  1444  1374  1211  999  855  876  1079  1359  1560  1631  1638  1671  1772  1908  2008  2063  2137  2272  2448  2606  2704  2747  2777  2821  2863  2861  2799  2718  2690  2714  2717  2662  2590  2541  2522  2526  2549  2585  2615  2605  2514  2342  2160  2056  2040  2057  2032  1922  1757  1615  1541  1520  1522  1533  1549  1566  1578  1583  1592  1609  1609  1527  1310  1003  711  489  328  202  81  -40  -126  -141  -150  -234  -367  -472  -544  -615  -688  -733  -717  -647  -605  -633  -632  -559  -520  -493  -259  354  1313  2433  3487  4184  4150  3127  1229  -1010  -2931  -4072  -4269  -3684  -2818  -2146  -1752  -1506  -1345  -1264  -1233  -1206  -1140  -1029  -907  -808  -738  -696  -684  -698  -717  -717  -685  -626  -565  -524  -513  -522  -517  -474  -403  -336  -298  -278  -236  -140  8  189  366  503  590  629  634  623  615  635  698  785  853  885  897  900  900  899  903  919  939  940  892  780  640  532  451  319  112  -103  -288  -471  -659  -800  -884  -950  -1024  -1094  -1141  -1154  -1124  -1059  -989  -947  -938  -946  -952  -941  -904  -854  -817  -805  -807  -800  -770  -725  -693  -681  -673  -656  -640  -644  -667  -685  -692  -691  -666  -584  -429  -232  -47  81  145  159  114  -18  -218  -390  -469  -473  -458  -455  -470  -491  -515  -550  -593  -616  -600  -562  -555  -619  -756  -912  -1019  -1052  -1032  -979  -901  -836  -832  -884  -937  -961  -962  -952  -942  -953  -1014  -1118  -1204  -1217  -1191  -1199  -1247  -1244  -1114  -906  -761  -753  -840  -946  -1011  -1016  -986  -925  -805  -648  -531  -501  -545  -636  -745  -850  -935  -970  -923  -773  -544  -321  -188  -151  -153  -162  -202  -305  -447  -555  -591  -561  -485  -410  -418  -533  -667  -715  -644  -506  -412  -406  -436  -467  -505  -557  -613  -648  -636  -558  -407  -220  -82  -61  -148  -213  -43  479  1260  2140  2991  3579  3614  2998  1766  31  -1796  -3179  -3794  -3602  -2864  -1984  -1235  -757  -560  -511  -485  -449  -405  -372  -364  -367  -344  -240  -31  208  369  422  430  452  517  633  788  956  1097  1185  1255  1374  1537  1673  1759  1824  1891  1954  1995  2001  1965  1884  1782  1705  1698  1802  2020  2274  2455  2525  2514  2455  2368  2287  2233  2166  2015  1788  1577  1445  1380  1337  1280  1176  1010  808  605  435  309  207  103  8  -66  -161  -317  -505  -666  -782  -867  -939  -993  -988  -946  -995  -1184  -1405  -1551  -1621  -1660  -1692  -1717  -1732  -1749  -1797  -1914  -2090  -2274  -2441  -2597  -2726  -2797  -2785  -2679  -2494  -2272  -2033  -1782  -1546  -1333  -1134  -970  -879  -855  -860  -872  -882  -891  -911  -952  -987  -972  -903  -816  -730  -653  -603  -580  -561  -536  -514  -506  -511  -514  -497  -434  -312  -155  -25  45  83  123  176  236  282  313  349  413  495  555  549  445  253  48  -86  -130  -133  -167  -262  -360  -392  -365  -296  -144  97  345  518  608  646  641  583  459  288  101  -101  -328  -541  -695  -784  -833  -860  -867  -843  -776  -687  -618  -583  -560  -528  -490  -463  -463  -492  -512  -421  -125  404  1132  1965  2750  3353  3759  3965  3843  3252  2189  765  -721  -1784  -2106  -1749  -993  -197  396  739  872  899  915  949  991  1026  1050  1074  1131  1234  1329  1347  1315  1292  1263  1216  1182  1162  1140  1113  1085  1064  1051  1048  1074  1147  1230  1264  1275  1327  1405  1453  1458  1456  1485  1561  1660  1731  1745  1716  1711  1818  2026  2178  2138  1954  1785  1686  1583  1436  1299  1226  1195  1127  940  658  387  173  -19  -203  -355  -459  -530  -601  -681  -739  -762  -760  -739  -693  -634  -594  -590  -635  -740  -877  -982  -1028  -1036  -1018  -963  -871  -779  -726  -716  -725  -733  -725  -683  -584  -433  -295  -247  -311  -429  -519  -556  -563  -567  -580  -613  -660  -703  -727  -730  -713  -696  -735  -891  -1134  -1343  -1445  -1459  -1438  -1422  -1415  -1383  -1279  -1100  -904  -758  -673  -624  -588  -532  -439  -340  -294  -322  -386  -432  -450  -470  -523  -602  -681  -735  -761  -769  -776  -773  -732  -644  -539  -456  -413  -396  -385  -386  -442  -585  -757  -853  -853  -796  -686  -547  -429  -358  -310  -242  -115  87  340  568  710  790  881  1003  1105  1156  1154  1087  928  666  336  45  -113  -155  -149  -140  -125  -93  -60  -80  -156  -190  -113  4  85  128  158  174  143  72  118  448  987  1525  2044  2692  3509  4334  4774  4280  2622  252  -1977  -3365  -3633  -2995  -1962  -1032  -520  -403  -405  -339  -230  -142  -89  -61  -46  -37  -34  -58  -128  -224  -297  -328  -325  -287  -195  -44  142  320  449  547  706  986  1330  1622  1795  1866  1879  1870  1860  1879  1946  2047  2139  2199  2228  2249  2285  2331  2360  2365  2365  2366  2342  2230  2008  1747  1539  1419  1372  1353  1262  1006  649  376  257  209  138  -1  -234  -530  -788  -926  -955  -941  -920  -890  -860  -871  -924  -941  -870  -745  -630  -564  -550  -552  -526  -444  -328  -243  -218  -225  -234  -242  -255  -279  -311  -353  -402  -445  -463  -449  -423  -413  -426  -451  -459  -442  -425  -422  -422  -423  -439  -487  -554  -604  -622  -612  -584  -548  -515  -500  -514  -559  -611  -644  -655  -654  -653  -657  -667  -671  -641  -576  -512  -484  -497  -543  -594  -633  -668  -713  -781  -864  -904  -830  -658  -486  -436  -557  -769  -934  -998  -1004  -997  -980  -919  -813  -718  -681  -686  -673  -587  -424  -238  -82  19  65  89  128  171  191  183  152  90  -40  -261  -503  -662  -713  -715  -718  -734  -749  -744  -707  -633  -545  -481  -456  -439  -415  -415  -466  -540  -592  -638  -754  -932  -936  -468  507  1705  2742  3404  3714  3721  3351  2477  1003  -968  -2934  -4228  -4499  -3839  -2665  -1553  -892  -646  -559  -482  -421  -400  -404  -412  -415  -415  -415  -412  -393  -353  -308  -251  -137  53  255  380  408  386  371  387  436  507  585  655  708  742  765  785  803  825  868  947  1072  1248  1440  1593  1708  1841  1991  2075  2019  1828  1568  1334  1199  1162  1154  1113  1048  985  923  858  797  735  649  509  333  195  141  143  158  167  154  85  -61  -228  -338  -370  -345  -299  -257  -217  -169  -100  -4  53  0  -147  -346  -553  -681  -667  -533  -365  -248  -193  -160  -143  -157  -200  -266  -335  -365  -347  -336  -387  -515  -678  -801  -846  -824  -743  -628  -519  -446  -414  -410  -411  -402  -389  -397  -429  -442  -404  -349  -334  -363  -389  -387  -373  -366  -333  -224  -52  88  119  36  -87  -180  -232  -266  -289  -284  -240  -175  -104  -27  39  80  94  94  87  75  69  106  217  369  476  497  448  336  156  -50  -208  -292  -342  -398  -469  -537  -591  -646  -715  -764  -724  -601  -501  -504  -591  -664  -658  -613  -594  -608  -641  -666  -616  -384  112  874  1735  2430  2862  3110  3127  2639  1449  -290  -2143  -3593  -4262  -4132  -3567  -2928  -2273  -1622  -1163  -961  -857  -717  -561  -463  -429  -411  -384  -361  -365  -406  -466  -521  -555  -558  -496  -344  -147  -2  66  145  298  446  478  431  421  493  638  828  1014  1155  1251  1313  1323  1261  1163  1090  1069  1076  1086  1090  1091  1092  1092  1082  1058  1029  1012  1004  963  841  662  504  397  300  176  22  -142  -285  -385  -456  -513  -537  -503  -423  -337  -310  -384  -488  -518  -485  -450  -423  -400  -399  -447  -551  -676  -758  -746  -608  -375  -151  -25  3  -15  -42  -70  -101  -128  -131  -92  -24  24  22  -12  -55  -97  -138  -161  -132  -27  114  218  253  247  233  221  221  259  349  462  538  561  562  577  607  628  621  589  559  564  618  707  799  870  922  968  1005  1026  1035  1035  1033  1053  1112  1188  1224  1200  1167  1178  1248  1372  1512  1606  1638  1654  1698  1769  1808  1740  1530  1205  848  567  395  258  75  -143  -335  -455  -502  -500  -484  -487  -527  -599  -669  -714  -729  -711  -651  -589  -662  -918  -1108  -927  -311  610  1570  2319  2843  3226  3413  3212  2397  826  -1261  -3126  -4051  -3833  -2758  -1454  -574  -295  -319  -339  -267  -126  51  222  334  406  513  663  786  843  860  875  917  1006  1116  1194  1224  1220  1184  1106  1001  913  863  853  901  1033  1215  1372  1458  1484  1483  1493  1544  1621  1677  1682  1646  1599  1575  1587  1612  1639  1687  1756  1810  1821  1785  1703  1546  1272  941  705  622  597  490  228  -99  -341  -486  -646  -848  -1000  -1053  -1047  -1037  -1037  -1042  -1048  -1060  -1081  -1094  -1071  -1015  -943  -862  -778  -708  -659  -613  -542  -427  -285  -160  -70  22  159  305  358  266  106  -14  -65  -63  -41  -23  -12  0  9  -14  -115  -280  -442  -544  -574  -570  -592  -628  -600  -485  -351  -260  -221  -214  -220  -227  -228  -218  -185  -124  -51  1  18  4  -39  -99  -146  -160  -137  -82  -14  34  50  37  0  -45  -57  7  144  294  392  426  430  439  474  519  546  567  665  907  1227  1485  1619  1645  1550  1326  1040  815  713  692  680  630  530  397  276  202  181  225  352  537  698  776  777  744  704  664  621  550  413  255  195  256  399  717  1262  1857  2353  2711  2691  1992  659  -1031  -2823  -4320  -5071  -4991  -4337  -3400  -2466  -1791  -1428  -1250  -1142  -1085  -1086  -1143  -1239  -1358  -1472  -1510  -1442  -1388  -1480  -1675  -1833  -1897  -1918  -1937  -1954  -1958  -1957  -1961  -1963  -1961  -1973  -1980  -1922  -1780  -1611  -1499  -1468  -1482  -1516  -1580  -1670  -1752  -1812  -1855  -1875  -1861  -1816  -1770  -1782  -1866  -1957  -1994  -2002  -2038  -2129  -2260  -2389  -2495  -2596  -2720  -2882  -3089  -3362  -3734  -4158  -4506  -4722  -4859  -4977  -5076  -5125  -5133  -5158  -5168  -4917  -4138  -2995  -2028  -1481  -1112  -687  -269  -12  73  73  57  43  22  -14  -70  -157  -320  -592  -898  -1101  -1184  -1276  -1496  -1806  -2054  -2180  -2272  -2413  -2575  -2689  -2737  -2766  -2869  -3126  -3511  -3902  -4203  -4397  -4527  -4657  -4815  -4975  -5121  -5275  -5447  -5606  -5725  -5809  -5913  -6119  -6441  -6785  -7061  -7253  -7369  -7405  -7377  -7320  -7258  -7198  -7160  -7157  -7171  -7171  -7155  -7143  -7121  -7015  -6764  -6419  -6048  -5575  -4902  -4155  -3568  -3186  -2854  -2421  -1885  -1339  -799  -235  313  792  1186  1532  1924  2389  2820  3105  3229  3257  3274  3339  3469  3673  3973  4369  4811  5225  5546  5741  5842  5949  6134  6368  6582  6763  6945  7144  7331  7468  7559  7643  7813  8233  8975  9911  10845  11666  12425  13213  13854  13949  13145  11319  8776  6279  4592  3970  4160  4691  5092  5077  4667  4073  3448  2841  2308  1916  1675  1517  1330  1032  645  247  -113  -428  -682  -895  -1116  -1354  -1582  -1753  -1793  -1678  -1428  -1043  -586  -200  46  180  282  530  1110  1939  2665  3081  3321  3596  3962  4360  4728  5037  5278  5470  5652  5830  5977  6097  6227  6370  6476  6515  6530  6625  6854  7142  7373  7563  7797  8047  8210  8254  8236  8222  8242  8302  8386  8469  8518  8530  8522  8512  8493  8429  8263  7915  7311  6483  5664  5135  4924  4815  4650  4451  4307  4242  4151  3852  3257  2510  1899  1585  1484  1422  1303  1121  925  768  660  572  452  244  -82  -489  -854  -1060  -1109  -1083  -1036  -972  -907  -898  -1002  -1212  -1460  -1684  -1859  -1991  -2090  -2160  -2202  -2244  -2321  -2418  -2490  -2530  -2581  -2661  -2725  -2722  -2658  -2571  -2507  -2501  -2546  -2632  -2770  -2928  -3033  -3033  -2925  -2757  -2610  -2535  -2531  -2602  -2753  -2939  -3090  -3190  -3257  -3303  -3357  -3481  -3716  -3993  -4132  -4048  -3876  -3774  -3767  -3812  -3859  -3881  -3886  -3884  -3871  -3830  -3724  -3585  -3564  -3682  -3646  -3222  -2538  -1812  -1133  -576  -217  -145  -538  -1517  -2976  -4615  -6057  -6891  -6850  -6146  -5247  -4379  -3659  -3246  -3124  -3106  -3070  -3021  -3000  -3001  -2952  -2767  -2461  -2160  -1960  -1855  -1809  -1813  -1877  -2003  -2172  -2350  -2458  -2397  -2188  -1969  -1823  -1718  -1551  -1234  -812  -456  -284  -264  -308  -363  -426  -523  -672  -830  -929  -961  -961  -956  -927  -819  -610  -362  -173  -93  -121  -236  -386  -502  -563  -595  -620  -658  -734  -857  -1013  -1173  -1311  -1407  -1437  -1372  -1211  -1018  -886  -845  -856  -880  -903  -931  -967  -1005  -1037  -1055  -1036  -980  -933  -931  -971  -1019  -1044  -1032  -964  -801  -555  -316  -169  -135  -221  -432  -699  -889  -954  -941  -891  -798  -652  -477  -335  -255  -221  -213  -226  -255  -286  -298  -243  -83  120  225  164  39  0  69  164  224  256  270  261  223  170  126  106  118  182  303  442  552  651  790  961  1078  1065  927  772  734  824  964  1101  1196  1191  1040  765  479  274  143  86  160  348  529  620  638  626  599  555  499  456  465  575  793  1063  1397  1879  2466  2986  3347  3628  3940  4241  4295  3765  2420  478  -1362  -2410  -2454  -1758  -849  -210  48  107  152  293  522  736  850  859  814  770  746  730  703  644  553  469  424  395  349  290  245  241  281  336  402  489  585  655  690  702  698  672  624  572  547  559  594  649  741  859  939  886  656  339  91  -43  -146  -273  -404  -489  -520  -551  -633  -768  -943  -1165  -1406  -1605  -1748  -1860  -1956  -2029  -2082  -2137  -2207  -2279  -2348  -2408  -2446  -2458  -2456  -2454  -2455  -2451  -2427  -2371  -2297  -2240  -2223  -2234  -2210  -2086  -1885  -1705  -1598  -1532  -1467  -1384  -1278  -1150  -1030  -959  -929  -894  -820  -701  -567  -466  -395  -294  -144  11  137  222  252  195  38  -178  -362  -452  -447  -378  -282  -170  -23  142  260  300  297  287  276  255  218  165  84  -23  -125  -187  -211  -217  -190  -87  95  281  387  404  368  320  289  297  352  439  530  614  717  847  965  1011  929  706  385  35  -268  -473  -563  -524  -325  2  308  440  395  285  197  123  22  -117  -264  -359  -360  -274  -127  112  457  779  1022  1380  2041  2957  3899  4546  4621  3969  2575  708  -1081  -2346  -2881  -2659  -1957  -1217  -688  -383  -208  -60  80  199  317  459  605  715  775  799  816  835  852  863  868  872  875  877  887  922  979  1016  1010  988  938  831  752  863  1248  1782  2204  2388  2407  2375  2354  2360  2380  2394  2402  2453  2605  2845  3064  3134  2989  2684  2373  2189  2133  2111  2058  1961  1817  1599  1301  1008  832  787  802  819  802  734  636  556  523  540  595  656  702  736  762  771  752  709  665  637  630  648  720  871  1098  1344  1509  1496  1281  1016  949  1100  1260  1308  1289  1264  1254  1257  1255  1219  1109  901  638  426  329  314  328  368  445  529  547  473  346  220  114  4  -117  -211  -248  -243  -223  -210  -216  -239  -279  -331  -353  -311  -247  -236  -311  -451  -602  -718  -775  -771  -725  -671  -629  -608  -637  -712  -779  -805  -808  -821  -848  -861  -868  -935  -1092  -1286  -1470  -1637  -1768  -1839  -1856  -1852  -1848  -1846  -1833  -1795  -1741  -1712  -1744  -1818  -1897  -1974  -2072  -2192  -2229  -1951  -1194  -139  828  1500  1884  2016  1890  1386  319  -1266  -2977  -4316  -4974  -4944  -4389  -3553  -2798  -2360  -2130  -1918  -1648  -1307  -975  -776  -739  -796  -874  -934  -978  -1015  -1040  -1051  -1060  -1067  -1046  -948  -764  -545  -355  -203  -74  28  105  179  257  338  436  560  696  823  939  1055  1187  1357  1520  1540  1375  1167  1053  1041  1065  1069  1031  972  927  881  797  678  565  467  371  280  188  67  -72  -177  -224  -283  -444  -689  -897  -976  -947  -900  -899  -946  -1013  -1052  -1024  -932  -805  -699  -688  -769  -860  -911  -941  -975  -995  -974  -929  -882  -834  -796  -766  -719  -631  -483  -298  -162  -158  -296  -519  -733  -878  -941  -939  -914  -899  -889  -831  -679  -503  -464  -598  -770  -873  -894  -859  -807  -763  -711  -636  -537  -416  -260  -33  277  616  888  1051  1145  1218  1295  1384  1474  1534  1549  1542  1543  1564  1576  1537  1443  1311  1132  895  660  525  497  460  299  27  -221  -347  -370  -370  -389  -417  -434  -442  -451  -453  -408  -290  -165  -110  -54  172  688  1429  2127  2562  2710  2688  2606  2319  1522  132  -1605  -3218  -4172  -4174  -3405  -2362  -1507  -1028  -799  -618  -419  -248  -152  -116  -99  -93  -118  -187  -257  -254  -147  19  176  270  296  295  305  335  361  359  346  366  434  527  608  653  664  651  609  537  466  446  533  730  958  1112  1168  1164  1137  1116  1138  1239  1392  1503  1526  1508  1491  1465  1398  1288  1135  897  566  231  -5  -114  -138  -132  -141  -210  -368  -563  -699  -722  -643  -499  -354  -263  -239  -293  -442  -640  -793  -855  -839  -744  -562  -358  -242  -254  -339  -416  -448  -447  -432  -417  -405  -401  -423  -485  -570  -632  -652  -647  -636  -623  -608  -600  -610  -638  -680  -751  -877  -1043  -1186  -1269  -1310  -1308  -1239  -1108  -942  -783  -677  -633  -624  -626  -635  -667  -737  -848  -980  -1096  -1169  -1188  -1169  -1154  -1152  -1127  -1081  -1051  -1052  -1058  -1009  -859  -647  -461  -338  -259  -211  -195  -220  -313  -495  -749  -1009  -1190  -1261  -1266  -1254  -1240  -1221  -1189  -1142  -1090  -1053  -1042  -1058  -1103  -1169  -1244  -1321  -1428  -1591  -1691  -1475  -917  -239  498  1261  1858  2307  2762  3039  2790  1885  427  -1291  -2806  -3674  -3710  -3104  -2265  -1476  -834  -434  -294  -270  -188  47  378  639  739  730  708  735  814  918  1049  1226  1424  1597  1733  1830  1891  1949  2059  2227  2400  2517  2576  2629  2705  2778  2818  2840  2875  2923  2948  2922  2854  2774  2693  2629  2617  2684  2846  3094  3343  3462  3408  3253  3103  3006  2945  2875  2764  2620  2477  2321  2111  1857  1632  1482  1397  1339  1263  1141  977  780  537  240  -56  -268  -359  -350  -277  -184  -119  -93  -91  -114  -179  -283  -389  -463  -491  -479  -464  -483  -529  -574  -593  -586  -575  -565  -516  -384  -192  -21  73  92  42  -78  -228  -334  -342  -241  -65  104  202  234  233  219  190  141  74  13  -21  -24  -4  11  -38  -216  -499  -778  -955  -998  -942  -861  -806  -798  -852  -980  -1150  -1291  -1351  -1342  -1299  -1231  -1133  -1050  -1076  -1231  -1421  -1546  -1594  -1599  -1583  -1535  -1436  -1302  -1188  -1134  -1133  -1163  -1204  -1258  -1357  -1547  -1819  -2081  -2240  -2301  -2354  -2479  -2667  -2842  -2960  -3016  -3013  -2964  -2910  -2881  -2868  -2858  -2882  -2945  -2950  -2810  -2527  -2076  -1443  -702  85  918  1753  2388  2471  1742  280  -1490  -3001  -3840  -3888  -3285  -2332  -1351  -553  53  544  890  1036  1036  983  918  835  721  594  484  390  305  247  249  339  534  803  1046  1178  1201  1175  1146  1131  1132  1144  1140  1064  866  579  325  227  331  570  810  946  981  969  944  908  870  848  841  826  782  711  609  475  361  306  278  237  147  -64  -408  -773  -1021  -1137  -1199  -1261  -1310  -1329  -1325  -1320  -1344  -1429  -1589  -1773  -1897  -1948  -1974  -1986  -1950  -1841  -1673  -1490  -1336  -1216  -1111  -1009  -909  -811  -679  -479  -253  -87  11  101  209  300  343  346  341  351  385  451  536  578  532  448  393  376  377  394  432  487  529  543  541  529  490  404  304  278  396  666  958  1067  962  810  733  720  725  737  777  848  919  957  964  970  1002  1063  1140  1220  1293  1356  1413  1481  1556  1616  1668  1727  1795  1880  1994  2123  2240  2316  2319  2247  2132  1999  1871  1767  1691  1641  1610  1596  1592  1576  1511  1386  1249  1160  1130  1124  1111  1082  1033  948  824  737  813  1132  1738  2570  3359  3864  4149  4330  4229  3600  2491  1093  -402  -1609  -2120  -1946  -1366  -579  212  747  935  928  902  918  972  1044  1113  1159  1154  1067  899  707  544  409  258  55  -169  -327  -368  -312  -192  -39  112  224  261  234  203  216  262  317  369  412  444  462  474  516  610  730  837  894  876  779  648  555  526  531  536  529  516  507  494  434  286  77  -119  -274  -411  -565  -746  -916  -1036  -1145  -1312  -1516  -1668  -1740  -1773  -1781  -1757  -1707  -1646  -1586  -1542  -1515  -1497  -1485  -1481  -1478  -1477  -1488  -1521  -1569  -1605  -1606  -1563  -1489  -1417  -1372  -1353  -1342  -1339  -1353  -1387  -1428  -1464  -1508  -1574  -1649  -1730  -1833  -1931  -1977  -1961  -1904  -1842  -1764  -1621  -1447  -1370  -1480  -1726  -1950  -2041  -2007  -1911  -1805  -1717  -1655  -1600  -1539  -1485  -1458  -1461  -1486  -1522  -1557  -1587  -1597  -1550  -1422  -1255  -1132  -1082  -1069  -1054  -1026  -983  -906  -773  -609  -479  -405  -366  -338  -305  -244  -124  59  246  336  284  149  35  -8  -10  -34  -139  -327  -521  -637  -667  -642  -583  -503  -420  -351  -305  -283  -258  -188  -50  112  232  276  289  397  761  1423  2232  2968  3487  3756  3832  3713  3252  2322  1068  -74  -732  -893  -733  -342  185  681  1074  1410  1701  1910  2026  2082  2094  2065  2030  2000  1913  1691  1360  1057  851]
