reading_id,reading_time,wire_id,result_classification,heart_rate,heart_rate_alert,firmware_version,device_app_version,hardware_version,waveform_samples
ce7bc240-690a-11ed-8080-808080808080,Sun Nov 20 19:37:45 UTC 2022,e100638c1a39,NSR,71,NONE,20001.171.50,2.10.0,Charge 5,[-11604  -12233  -12626  -12705  -12401  -11597  -10277  -8605  -7002  -6024  -5911  -6444  -7176  -7698  -7924  -8008  -8012  -7892  -7680  -7405  -6957  -6239  -5420  -4796  -4423  -4077  -3554  -2930  -2469  -2288  -2263  -2235  -2152  -2050  -1992  -1936  -1635  -839  331  1556  2766  3990  5049  5754  6081  6147  6094  5973  5770  5501  5229  5018  4899  4815  4676  4465  4155  3580  2639  1584  829  500  395  308  181  45  70  569  1661  3028  4079  4396  4140  3932  4364  5564  6977  7745  7282  5671  3777  2484  1992  2091  2375  2362  2010  1797  2075  2708  3437  4140  4717  5140  5651  6545  7718  8752  9396  9695  9793  9789  9734  9676  9659  9693  9761  9810  9797  9719  9557  9297  9021  8855  8835  8926  9087  9257  9345  9307  9196  9117  9107  9098  8994  8735  8329  7835  7234  6408  5412  4432  3402  2097  569  -900  -2126  -3123  -4074  -5119  -6185  -7098  -7787  -8316  -8776  -9182  -9491  -9716  -9948  -10346  -11141  -12381  -13730  -14650  -14730  -14023  -12871  -11328  -9241  -6695  -4215  -2834  -3421  -5759  -8725  -11185  -12585  -13040  -12999  -12824  -12560  -11946  -10776  -9303  -8005  -7016  -6092  -5084  -4090  -3172  -2232  -1294  -554  -55  381  974  1893  3134  4415  5394  6017  6494  7051  7813  8680  9343  9630  9708  9910  10467  11326  12236  13048  13778  14396  14776  14895  14900  14965  15147  15354  15479  15510  15473  15360  15151  14879  14546  13899  12565  10689  9041  8184  7955  7883  7634  7127  6512  6007  5697  5453  5085  4574  4066  3660  3316  2830  1961  800  -217  -800  -1004  -990  -821  -548  -289  -146  -143  -261  -420  -488  -383  -114  322  1023  2028  3241  4674  6536  8784  11006  12888  14402  15601  16485  17090  17588  18082  18474  18666  18644  18444  18199  18007  17733  17144  16270  15421  14874  14663  14661  14752  14889  15035  15132  15111  14921  14569  14156  13809  13579  13407  13222  12974  12540  11828  11034  10510  10361  10424  10531  10540  10216  9319  7964  6702  5990  5759  5589  5144  4482  3977  3984  4647  5769  6836  7452  7631  7532  7141  6221  4455  1890  -779  -2736  -3712  -4007  -4045  -4017  -3951  -3925  -4006  -4197  -4511  -4915  -5321  -5763  -6438  -7552  -9080  -10705  -12065  -12998  -13538  -13840  -14109  -14442  -14792  -15058  -15152  -14954  -14266  -13037  -11589  -10368  -9540  -9003  -8568  -8066  -7459  -6870  -6419  -5963  -5160  -3933  -2595  -1511  -880  -629  -530  -639  -1225  -2262  -3474  -4674  -5879  -7199  -8605  -9987  -11321  -12493  -13322  -13885  -14378  -14680  -14530  -13930  -13092  -12301  -11832  -11746  -11904  -12131  -12268  -12152  -11691  -11042  -10517  -10235  -10121  -10145  -10326  -10589  -10787  -10869  -10916  -11024  -11187  -11286  -11195  -10903  -10514  -10108  -9634  -9005  -8254  -7590  -7213  -7103  -7071  -6941  -6640  -6228  -5863  -5653  -5557  -5450  -5241  -4950  -4694  -4553  -4496  -4459  -4396  -4183  -3557  -2366  -872  420  1254  1744  2100  2436  2759  3002  3108  3092  3005  2932  2974  3167  3476  3863  4257  4564  4733  4752  4644  4498  4367  4169  3788  3253  2819  2775  3102  3550  3994  4507  5241  6282  7523  8719  9675  10313  10675  10793  10503  9603  7945  5406  2240  -725  -2520  -2829  -2232  -1473  -1039  -1137  -1493  -1725  -1868  -2215  -2921  -3889  -4864  -5569  -5891  -5983  -6131  -6524  -7165  -8042  -9226  -10635  -11978  -13000  -13617  -13899  -13987  -13978  -13873  -13634  -13292  -12908  -12440  -11814  -11135  -10627  -10404  -10396  -10365  -9946  -8931  -7613  -6542  -5941  -5639  -5325  -4721  -3763  -2666  -1746  -1211  -1017  -911  -674  -277  204  731  1288  1802  2161  2329  2375  2393  2449  2562  2697  2806  2863  2880  2897  2934  2982  3081  3336  3798  4398  5028  5623  6169  6685  7192  7694  8136  8444  8565  8483  8284  8123  8063  8038  7970  7858  7762  7721  7708  7674  7550  7199  6433  5282  4145  3421  3126  2953  2486  1424  -54  -1391  -2249  -2742  -3172  -3752  -4406  -4845  -4840  -4333  -3476  -2598  -1962  -1578  -1219  -652  63  641  939  1045  1101  1207  1392  1619  1866  2181  2612  3125  3638  4133  4693  5417  6201  6760  6998  7068  7103  7164  7296  7475  7671  7894  8121  8323  8530  8779  9088  9539  10242  11196  12237  13114  13609  13586  12937  11691  10173  8811  7873  7415  7374  7756  8623  9810  10917  11501  11288  10534  9859  9611  9715  9886  9780  9143  7818  5711  2913  -256  -3454  -6491  -9400  -12378  -15455  -18370  -20832  -22577  -23443  -23610  -23472  -23314  -23185  -22969  -22550  -21972  -21330  -20521  -19382  -18044  -16811  -15799  -14970  -14212  -13326  -12251  -11202  -10282  -9239  -7968  -6805  -6075  -5740  -5558  -5344  -5010  -4506  -3932  -3525  -3352  -3260  -3105  -2897  -2733  -2657  -2636  -2645  -2661  -2650  -2602  -2478  -2205  -1787  -1366  -1096  -997  -995  -1023  -1031  -969  -796  -519  -200  62  208  290  419  595  722  747  726  771  972  1302  1614  1790  1828  1796  1765  1765  1786  1823  1889  2005  2193  2455  2742  2987  3137  3187  3172  3107  2995  2911  2979  3176  3333  3325  3123  2779  2426  2179  2069  2083  2183  2321  2502  2767  3073  3301  3398  3427  3440  3412  3272  3000  2697  2503  2440  2409  2335  2240  2152  2062  1998  2023  2180  2416  2570  2542  2404  2255  2120  2004  1921  1880  1900  2023  2302  2740  3265  3800  4425  5299  6259  7036  7722  8413  8857  8750  7920  6303  4084  1843  319  -47  679  2080  3647  4908  5654  6094  6495  6968  7535  8099  8504  8709  8791  8835  8902  9031  9220  9417  9550  9611  9672  9813  10015  10190  10295  10358  10413  10493  10650  10921  11235  11459  11582  11717  11933  12206  12500  12778  12997  13140  13193  13161  13105  13071  13048  13016  12980  12968  12946  12743  12197  11381  10545  9843  9158  8211  6842  5098  3131  1204  -456  -1941  -3440  -4934  -6384  -7918  -9707  -11741  -13720  -15328  -16552  -17526  -18311  -18906  -19323  -19621  -19837  -19929  -19845  -19617  -19340  -19105  -18961  -18852  -18626  -18158  -17479  -16726  -16035  -15501  -15150  -14928  -14755  -14518  -14030  -13197  -12231  -11465  -11013  -10751  -10516  -10174  -9641  -9005  -8491  -8188  -7929  -7506  -6947  -6492  -6257  -6119  -5899  -5486  -4873  -4207  -3688  -3360  -3113  -2870  -2630  -2398  -2156  -1923  -1753  -1644  -1492  -1167  -695  -259  2  119  178  204  189  142  44  -153  -410  -629  -808  -1009  -1247  -1534  -1912  -2372  -2829  -3203  -3464  -3650  -3835  -4022  -4137  -4153  -4133  -4075  -3748  -2902  -1748  -858  -475  -368  -223  142  700  1221  1529  1668  1786  1968  2202  2449  2765  3346  4280  5391  6590  7959  9344  10344  10696  10316  9137  7271  5191  3359  1990  1374  1727  2791  4111  5320  6115  6410  6357  6117  5800  5535  5406  5389  5412  5404  5340  5270  5249  5263  5281  5288  5293  5344  5442  5527  5592  5714  5961  6306  6622  6798  6824  6783  6804  6980  7282  7571  7745  7854  8011  8213  8373  8455  8465  8421  8388  8434  8551  8662  8698  8662  8597  8499  8328  8074  7776  7517  7328  7064  6476  5482  4255  3024  1938  1132  702  564  467  109  -682  -1770  -2832  -3702  -4446  -5138  -5715  -6136  -6520  -6946  -7301  -7475  -7499  -7448  -7339  -7144  -6843  -6508  -6264  -6166  -6176  -6236  -6286  -6214  -5838  -5108  -4307  -3805  -3696  -3841  -4095  -4338  -4485  -4536  -4522  -4436  -4282  -4133  -4089  -4160  -4239  -4237  -4184  -4150  -4146  -4148  -4156  -4204  -4332  -4572  -4906  -5254  -5564  -5892  -6248  -6516  -6630  -6655  -6654  -6596  -6397  -6058  -5717  -5497  -5358  -5203  -4993  -4711  -4350  -3990  -3755  -3669  -3671  -3706  -3744  -3795  -3967  -4404  -5054  -5662  -6094  -6449  -6844  -7284  -7682  -7978  -8196  -8371  -8486  -8520  -8461  -8295  -8079  -7948  -7998  -8209  -8485  -8707  -8730  -8387  -7590  -6357  -4769  -3079  -1790  -1224  -1214  -1615  -2546  -3970  -5643  -7294  -8549  -9053  -8820  -8013  -6703  -5239  -4209  -3779  -3642  -3536  -3417  -3257  -2986  -2648  -2376  -2228  -2166  -2169  -2208  -2191  -2064  -1894  -1784  -1736  -1633  -1367  -947  -497  -155  20  66  54  35  46  120  257  398  491  552  661  916  1342  1825  2241  2603  2974  3339  3676  4091  4735  5557  6338  6970  7439  7706  7786  7751  7612  7341  6998  6725  6601  6567  6490  6273  5923  5554  5279  5132  5093  5130  5197  5268  5352  5506  5796  6172  6493  6708  6868  6999  7094  7169  7262  7398  7595  7877  8211  8504  8694  8778  8794  8794  8799  8774  8629  8292  7797  7282  6872  6558  6230  5871  5564  5270  4856  4352  3951  3754  3702  3702  3709  3722  3776  3898  4056  4170  4211  4219  4216  4149  3941  3625  3349  3208  3149  3074  2937  2768  2667  2706  2847  3008  3157  3320  3502  3624  3560  3235  2754  2383  2285  2416  2628  2763  2750  2674  2609  2491  2216  1788  1318  912  590  320  100  -37  -92  -113  -161  -270  -425  -567  -666  -745  -823  -865  -829  -839  -1191  -1843  -2066  -1219  426  2071  3179  3643  3572  3206  2611  1388  -737  -3303  -5435  -6414  -6054  -4794  -3333  -2240  -1752  -1714  -1782  -1714  -1438  -1006  -572  -318  -332  -579  -908  -1135  -1224  -1305  -1485  -1711  -1843  -1816  -1663  -1481  -1365  -1335  -1315  -1151  -703  -72  434  642  627  526  387  218  48  -86  -166  -180  -100  93  364  617  778  770  525  82  -394  -764  -991  -1110  -1156  -1204  -1442  -2057  -2949  -3744  -4226  -4532  -4822  -5061  -5163  -5166  -5206  -5408  -5760  -6092  -6258  -6268  -6214  -6149  -6056  -5918  -5738  -5502  -5172  -4759  -4367  -4102  -3959  -3845  -3739  -3711  -3801  -3982  -4149  -4153  -4025  -3968  -4038  -4119  -4121  -4037  -3932  -3877  -3873  -3888  -3901  -3893  -3859  -3846  -3896  -3984  -4110  -4329  -4621  -4864  -4969  -4959  -4933  -4955  -5016  -5057  -5030  -4914  -4696  -4390  -4062  -3747  -3353  -2707  -1814  -1000  -568  -483  -514  -494  -376  -176  85  413  811  1201  1479  1635  1722  1785  1868  2049  2421  2993  3603  4022  4159  4109  3998  3842  3619  3390  3250  3212  3215  3225  3258  3340  3452  3543  3607  3686  3830  4076  4387  4687  4962  5250  5581  6023  6618  7211  7557  7645  7762  8235  9203  10431  11351  11506  10691  8861  6260  3332  504  -1797  -3101  -3176  -2312  -965  524  1781  2556  2971  3308  3647  3878  3955  3944  3914  3888  3888  3969  4172  4433  4629  4710  4720  4698  4630  4531  4492  4566  4669  4679  4559  4381  4247  4166  4082  3991  3927  3883  3846  3842  3880  3946  4083  4363  4760  5146  5422  5570  5623  5731  6150  7011  8120  9078  9639  9890  10096  10417  10859  11382  11902  12315  12624  12876  13075  13262  13542  13943  14359  14657  14820  14951  15144  15392  15610  15727  15712  15555  15297  14971  14475  13665  12591  11380  9889  7934  5921  4590  4113  4009  3785  3308  2692  2034  1293  364  -766  -2013  -3282  -4451  -5372  -6008  -6579  -7469  -8825  -10293  -11441  -12251  -12906  -13496  -14121  -14887  -15761  -16578  -17162  -17418  -17335  -17015  -16690  -16614  -16905  -17456  -18006  -18381  -18633  -18904  -19228  -19530  -19780  -19997  -20183  -20346  -20494  -20597  -20626  -20558  -20376  -20108  -19806  -19425  -18820  -17817  -16338  -14648  -13277  -12459  -11916  -11272  -10426  -9569  -8905  -8385  -7831  -7202  -6625  -6237  -6010  -5721  -5162  -4364  -3585  -3088  -2895  -2764  -2417  -1803  -1136  -637  -353  -189  -20  206  497  904  1395  1852  2436  3462  4897  6418  7641  8271  8206  7481  6200  4398  2117  -205  -1807  -2208  -1522  -285  765  934  24  -1457  -2786  -3658  -4222  -4720  -5290  -5923  -6466  -6768  -6852  -6836  -6796  -6797  -6963  -7444  -8269  -9204  -9915  -10334  -10641  -10962  -11265  -11494  -11694  -11900  -11974  -11775  -11432  -11185  -11104  -11065  -10893  -10522  -10023  -9456  -8823  -8140  -7408  -6578  -5630  -4684  -3980  -3633  -3513  -3427  -3231  -2805  -2146  -1377  -639  -74  214  266  206  137  110  112  100  83  132  332  732  1217  1549  1661  1674  1678  1686  1711  1787  1911  2007  2045  2104  2207  2273  2306  2473  2939  3574  4047  4229  4281  4396  4651  4976  5228  5340  5359  5388  5576  6007  6542  6931  7104  7191  7319  7481  7596  7638  7661  7723  7823  7914  7969  8004  8035  8053  8057  8057  8051  8015  7929  7813  7721  7672  7662  7706  7794  7856  7866  7918  8156  8589  9028  9277  9333  9305  9274  9264  9289  9362  9471  9564  9590  9527  9385  9142  8745  8256  7838  7538  7253  6907  6518  6168  5935  5788  5582  5189  4634  4101  3768  3634  3563  3415  3125  2728  2357  2125  1977  1748  1436  1309  1643  2421  3384  4270  4844  4863  4213  2880  862  -1581  -3830  -5217  -5444  -4817  -3940  -3207  -2668  -2129  -1417  -606  71  450  555  534  505  557  770  1130  1507  1777  1928  2034  2165  2321  2440  2491  2498  2497  2492  2476  2435  2368  2304  2256  2192  2076  1887  1663  1506  1477  1562  1703  1832  1907  1950  2004  2080  2149  2196  2226  2254  2290  2313  2280  2172  1998  1812  1676  1568  1378  1038  589  137  -214  -416  -496  -544  -648  -792  -889  -918  -979  -1189  -1543  -1905  -2146  -2247  -2275  -2285  -2264  -2169  -2005  -1845  -1752  -1722  -1722  -1748  -1826  -1968  -2160  -2388  -2682  -3096  -3595  -4059  -4462  -4883  -5313  -5642  -5849  -5992  -6091  -6154  -6215  -6284  -6326  -6291  -6150  -5960  -5826  -5778  -5770  -5752  -5706  -5628  -5538  -5493  -5515  -5563  -5599  -5618  -5599  -5474  -5162  -4695  -4249  -3986  -3901  -3897  -3879  -3765  -3498  -3106  -2706  -2436  -2361  -2423  -2518  -2603  -2677  -2755  -2834  -2869  -2817  -2667  -2449  -2238  -2116  -2120  -2253  -2488  -2766  -3034  -3248  -3365  -3393  -3394  -3416  -3454  -3477  -3478  -3473  -3469  -3465  -3463  -3464  -3453  -3388  -3239  -3052  -2910  -2813  -2700  -2635  -2763  -2852  -2319  -1041  389  1399  1804  1603  1051  470  -354  -1894  -4097  -6315  -7687  -7632  -6320  -4591  -3297  -2678  -2369  -1974  -1423  -791  -186  244  485  698  1004  1343  1606  1768  1881  2029  2259  2561  2885  3109  3117  2964  2843  2862  2968  3060  3110  3160  3231  3308  3399  3532  3702  3865  4002  4145  4337  4560  4737  4817  4810  4755  4704  4685  4695  4717  4732  4735  4734  4718  4662  4564  4443  4288  4040  3638  3097  2518  2014  1653  1424  1222  946  595  237  -78  -320  -469  -548  -595  -625  -650  -701  -786  -889  -995  -1096  -1178  -1230  -1257  -1281  -1285  -1199  -1009  -808  -677  -587  -469  -315  -182  -115  -110  -128  -144  -149  -147  -133  -109  -81  -67  -84  -142  -232  -322  -387  -423  -441  -444  -408  -291  -66  233  508  670  716  708  699  697  686  647  614  659  805  1027  1305  1597  1819  1930  1974  2022  2089  2142  2162  2162  2156  2142  2113  2070  2035  2042  2097  2172  2251  2374  2568  2795  2997  3152  3253  3256  3106  2827  2550  2400  2402  2511  2654  2763  2825  2862  2881  2880  2874  2895  2970  3081  3187  3312  3532  3824  4065  4193  4205  4142  4237  4764  5620  6484  7333  8305  9269  9916  10078  9610  8294  6250  4061  2281  1317  1539  2827  4459  5749  6391  6445  6248  6106  6076  6107  6152  6158  6046  5704  5077  4283  3561  3065  2724  2191  980  -1049  -3368  -5281  -6517  -7165  -7503  -7859  -8336  -8797  -9135  -9353  -9480  -9538  -9530  -9402  -9056  -8461  -7692  -6852  -6046  -5352  -4772  -4291  -3881  -3391  -2636  -1724  -1022  -691  -512  -193  325  881  1297  1525  1612  1638  1717  1936  2243  2482  2587  2634  2741  3005  3429  3891  4253  4500  4708  4922  5104  5209  5246  5249  5263  5359  5626  6075  6550  6859  6990  7085  7276  7614  8059  8525  8912  9148  9258  9336  9430  9543  9731  10053  10430  10707  10823  10837  10855  11012  11432  12051  12601  12887  12962  12976  13004  13081  13330  13811  14252  14146  12975  10544  7318  4020  966  -1890  -4681  -7515  -10364  -13046  -15361  -17265  -18907  -20376  -21566  -22440  -23129  -23698  -24112  -24333  -24327  -24120  -23799  -23427  -23047  -22716  -22475  -22278  -22005  -21570  -20974  -20267  -19544  -18891  -18287  -17680  -17047  -16367  -15684  -15095  -14579  -14050  -13515  -13028  -12588  -12149  -11700  -11245  -10753  -10194  -9661  -9338  -9263  -9276  -9189  -8909  -8381  -7593  -6731  -6111  -5821  -5639  -5301  -4704  -3821  -2645  -1384  -333  464  1113  1628  1870  1503  307  -1550  -3668  -5459  -6278  -5937  -4879  -3735  -2882  -2308  -1805  -1309  -921  -718  -663  -650  -577  -345  62  509  818  955  1001  1018  1023  1021  1011  991  979  1023  1164  1373  1588  1811  2035  2195  2279  2359  2500  2720  2984  3250  3525  3806  4036  4171  4219  4244  4331  4477  4581  4563  4455  4391  4470  4653  4860  5047  5210  5395  5612  5703  5446  4836  4162  3718  3521  3374  3113  2733  2344  2103  2122  2282  2326  2197  2059  2003  1878  1446  710  -3  -403  -507  -490  -451  -380  -277  -214  -216  -199  -147  -138  -177  -199  -201  -253  -416  -648  -831  -913  -917  -829  -594  -240  87  263  294  261  218  189  233  428  775  1182  1571  1906  2143  2249  2232  2129  1998  1908  1880  1886  1898  1905  1900  1868  1796  1703  1659  1697  1744  1738  1727  1770  1836  1859  1808  1706  1651  1719  1871  2007  2081  2121  2207  2388  2608  2763  2858  2993  3208  3419  3494  3384  3177  3023  2986  3021  3092  3206  3337  3416  3415  3372  3324  3278  3265  3330  3474  3652  3799  3866  3859  3831  3822  3819  3756  3583  3492  3892  4927  6238  7291  7706  7422  6608  5429  3970  2239  294  -1561  -2830  -3140  -2534  -1446  -369  432  884  1016  979  946  1003  1125  1227  1247  1207  1172  1177  1196  1180  1173  1297  1542  1723  1699  1534  1416  1454  1574  1671  1726  1765  1817  1906  2029  2147  2226  2294  2423  2622  2824  2980  3085  3147  3181  3209  3234  3252  3284  3363  3483  3594  3659  3665  3588  3400  3142  2902  2718  2558  2343  2019  1664  1432  1376  1428  1506  1561  1551  1439  1214  911  598  338  170  91  59  16  -59  -135  -167  -139  -61  33  87  35  -158  -422  -613  -677  -672  -666  -697  -779  -888  -974  -1018  -1023  -959  -779  -526  -320  -226  -215  -230  -235  -224  -211  -211  -214  -180  -70  84  207  258  235  142  0  -144  -247  -299  -337  -411  -522  -619  -663  -618  -438  -145  130  277  312  317  326  269  56  -259  -507  -627  -720  -856  -1003  -1106  -1140  -1119  -1095  -1134  -1279  -1520  -1814  -2127  -2421  -2636  -2733  -2792  -2993  -3440  -4007  -4458  -4722  -4968  -5465  -6348  -7403  -8268  -8897  -9578  -10485  -11396  -11958  -12111  -12070  -12008  -11958  -11894  -11782  -11595  -11350  -11112  -10929  -10787  -10581  -10146  -9457  -8710  -8143  -7825  -7665  -7559  -7412  -7058  -6382  -5547  -4856  -4457  -4341  -4453  -4638  -4528  -3716  -2260  -697  539  1298  1576  1586  1518  1125  -49  -2082  -4441  -6296  -7020  -6511  -5246  -4008  -3322  -3096  -2921  -2580  -2115  -1624  -1179  -822  -574  -437  -368  -259  -2  422  942  1433  1777  1935  1961  1940  1938  1980  2067  2195  2398  2753  3304  3939  4454  4774  4996  5219  5428  5566  5646  5707  5751  5797  5925  6223  6700  7251  7748  8110  8297  8334  8311  8315  8393  8534  8691  8822  8908  8942  8921  8826  8641  8398  8173  7998  7821  7605  7381  7165  6902  6559  6219  5998  5917  5923  5962  5983  5939  5813  5585  5170  4443  3469  2563  1971  1645  1366  942  359  -226  -682  -997  -1221  -1408  -1603  -1797  -1923  -1912  -1746  -1495  -1292  -1218  -1248  -1310  -1360  -1412  -1471  -1455  -1310  -1146  -1080  -1092  -1097  -1058  -996  -915  -792  -655  -572  -559  -590  -641  -728  -884  -1080  -1228  -1286  -1284  -1257  -1219  -1163  -1083  -1007  -949  -885  -819  -788  -815  -900  -1003  -1060  -1039  -963  -895  -874  -864  -820  -761  -732  -749  -782  -791  -768  -734  -713  -694  -631  -472  -219  79  378  647  861  986  1013  988  981  1036  1181  1386  1572  1708  1849  2046  2256  2393  2435  2427  2395  2343  2295  2284  2306  2316  2297  2253  2154  1948  1641  1318  1060  866  688  463  139  -230  -497  -600  -601  -576  -578  -648  -790  -947  -1045  -1071  -1063  -1049  -1037  -1027  -991  -849  -541  -56  617  1422  2156  2654  2950  3097  2982  2403  1142  -834  -3116  -5010  -5966  -5802  -4782  -3442  -2202  -1331  -943  -873  -887  -892  -864  -812  -766  -715  -643  -556  -476  -460  -553  -711  -850  -925  -926  -890  -860  -832  -764  -659  -559  -485  -424  -360  -278  -178  -77  4  33  12  6  50  109  140  138  119  101  82  44  -2  -36  -46  -40  -26  -16  -36  -124  -277  -452  -605  -720  -809  -899  -1030  -1294  -1799  -2446  -2964  -3246  -3414  -3578  -3725  -3798  -3807  -3817  -3849  -3860  -3831  -3803  -3831  -3925  -4043  -4127  -4166  -4183  -4194  -4206  -4230  -4264  -4301  -4342  -4384  -4412  -4420  -4420  -4422  -4427  -4428  -4414  -4378  -4297  -4155  -3993  -3902  -3927  -4032  -4172  -4342  -4534  -4727  -4936  -5193  -5454  -5613  -5620  -5506  -5283  -4915  -4403  -3819  -3235  -2695  -2258  -1974  -1794  -1604  -1342  -1019  -683  -394  -175  30  308  649  931  1077  1146  1246  1396  1557  1727  1915  2084  2195  2264  2342  2471  2646  2804  2912  3031  3234  3487  3676  3740  3680  3504  3269  3082  2984  2937  2912  2908  2925  2945  2932  2852  2722  2612  2601  2704  2874  3043  3166  3241  3289  3318  3333  3343  3330  3246  3064  2837  2656  2539  2416  2227  1982  1735  1550  1452  1417  1388  1297  1097  818  554  381  306  259  148  22  68  344  716  1097  1531  2164  3071  3909  4023  3085  1297  -929  -3072  -4580  -5184  -4965  -4207  -3301  -2526  -1919  -1419  -1001  -683  -506  -475  -536  -629  -719  -779  -799  -792  -793  -838  -924  -977  -941  -869  -834  -831  -793  -673  -507  -386  -335  -306  -261  -209  -174  -165  -169  -173  -164  -121  2  239  527  756  900  1050  1279  1528  1693  1768  1833  1946  2088  2199  2243  2237  2217  2215  2216  2139  1954  1746  1586  1463  1364  1289  1216  1118  1006  876  689  462  289  227  273  426  667  905  1042  1041  918  724  535  422  427  520  627  702  743  782  847  942  1021  1012  905  759  606  452  328  262  240  255  338  510  710  839  874  875  909  995  1118  1240  1312  1316  1277  1216  1140  1059  960  832  728  715  761  791  791  808  894  1057  1242  1392  1476  1482  1419  1322  1229  1144  1064  1021  1033  1077  1113  1126  1120  1099  1070  1039  1017  1022  1094  1262  1477  1627  1637  1512  1322  1140  975  805  640  515  455  453  471  476  455  415  375  354  365  406  462  503  517  512  496  472  462  529  731  999  1138  1012  680  318  32  -193  -401  -640  -996  -1501  -2047  -2447  -2622  -2651  -2637  -2622  -2611  -2599  -2564  -2478  -2334  -2198  -2154  -2172  -2144  -2047  -1948  -1938  -2063  -2185  -2153  -1997  -1636  -790  607  2168  3286  3535  2864  1498  -313  -2374  -4374  -5875  -6532  -6194  -5011  -3484  -2185  -1380  -964  -667  -318  79  427  636  686  632  570  592  725  910  1059  1142  1185  1236  1346  1562  1892  2269  2584  2864  3303  4030  4882  5539  5851  5918  5901  5880  5893  5966  6084  6202  6305  6457  6769  7253  7730  8001  8009  7796  7440  7029  6645  6331  6051  5697  5157  4360  3422  2648  2177  1821  1359  803  312  -20  -278  -687  -1353  -2093  -2654  -2959  -3073  -3083  -3047  -3020  -3060  -3155  -3240  -3282  -3262  -3192  -3126  -3073  -2972  -2763  -2451  -2128  -1928  -1906  -1983  -2049  -2050  -1965  -1762  -1426  -1046  -755  -560  -380  -236  -234  -398  -568  -573  -516  -623  -874  -1062  -1107  -1121  -1308  -1790  -2420  -2930  -3241  -3438  -3595  -3768  -3987  -4200  -4351  -4458  -4566  -4716  -4939  -5209  -5443  -5560  -5486  -5110  -4382  -3452  -2620  -2082  -1797  -1647  -1595  -1657  -1842  -2147  -2544  -2960  -3285  -3453  -3505  -3533  -3595  -3688  -3777  -3874  -4072  -4422  -4822  -5113  -5241  -5252  -5179  -5013  -4803  -4657  -4625  -4630  -4472  -3941  -3104  -2345  -1945  -1830  -1824  -1872  -1965  -2046  -2035  -1898  -1669  -1394  -1106  -850  -651  -414  18  633  1193  1500  1582  1545  1393  1094  750  567  597  675  653  539  386  213  44  -107  -261  -416  -519  -515  -382  -96  334  799  1165  1411  1634  1962  2353  2539  2406  2284  2589  3379  4383  5216  5501  4962  3544  1512  -710  -2729  -4137  -4677  -4473  -3745  -2698  -1760  -1291  -1184  -1110  -903  -634  -467  -426  -344  -139  107  354  646  1001  1341  1543  1546  1407  1257  1184  1154  1107  1056  1028  1021  1024  1024  1010  989  991  1047  1143  1245  1365  1579  1959  2457  2914  3211  3384  3561  3821  4181  4660  5166  5505  5623  5653  5699  5729  5693  5628  5588  5551  5457  5267  5006  4743  4516  4301  4058  3801  3599  3488  3370  3093  2658  2222  1914  1741  1633  1483  1212  809  334  -84  -329  -406  -427  -522  -758  -1076  -1328  -1425  -1393  -1310  -1214  -1105  -1021  -1062  -1249  -1470  -1617  -1664  -1612  -1462  -1240  -1018  -850  -705  -524  -327  -194  -154  -167  -183  -175  -132  -66  -18  -34  -142  -322  -509  -647  -713  -723  -718  -756  -925  -1269  -1618  -1746  -1737  -1830  -2014  -2164  -2266  -2344  -2391  -2392  -2339  -2238  -2114  -2015  -2003  -2103  -2249  -2346  -2366  -2340  -2304  -2276  -2257  -2240  -2227  -2221  -2223  -2240  -2279  -2341  -2425  -2575  -2857  -3234  -3543  -3682  -3696  -3662  -3607  -3529  -3446  -3399  -3411  -3463  -3574  -3788  -4057  -4259  -4339  -4344  -4330  -4319  -4314  -4325  -4367  -4445  -4538  -4583  -4480  -4226  -3950  -3694  -3329  -2791  -2212  -1772  -1560  -1449  -1059  -121  1208  2623  3929  4896  5262  4923  3876  2204  205  -1716  -3216  -4031  -4086  -3508  -2490  -1300  -252  455  800  919  993  1104  1241  1362  1430  1424  1356  1265  1213  1238  1318  1465  1751  2199  2707  3132  3447  3803  4369  5080  5688  6106  6459  6815  7123  7358  7580  7835  8107  8354  8530  8616  8639  8642  8655  8681  8670  8497  8078  7533  7098  6816  6459  5778  4776  3759  3012  2412  1611  598  -274  -762  -935  -998  -1082  -1192  -1275  -1318  -1338  -1330  -1238  -1020  -733  -498  -373  -291  -109  255  688  975  993  751  365  33  -92  -15  152  290  340  279  102  -125  -289  -364  -423  -508  -568  -532  -418  -346  -411  -595  -812  -986  -1079  -1100  -1087  -1065  -1044  -1027  -1024  -1045  -1099  -1165  -1208  -1215  -1212  -1253  -1382  -1571  -1724  -1787  -1790  -1775  -1757  -1733  -1689  -1612  -1501  -1379  -1286  -1286  -1433  -1681  -1888  -1957  -1921  -1866  -1836  -1834  -1858  -1913  -1983  -2035  -2054  -2052  -2045  -2043  -2050  -2062  -2058  -2014  -1918  -1783  -1652  -1573  -1558  -1567  -1533  -1408  -1197  -944  -684  -429  -198  -32  48  95  186  355  574  775  897  919  846  688  474  251  68  -32  -56  -49  -48  -59  -64  -23  79  191  234  210  170  139  131  211  419  658  817  898  943  1087  1585  2496  3548  4385  4728  4361  3231  1533  -406  -2180  -3387  -3864  -3703  -3077  -2169  -1197  -399  65  215  179  54  -110  -270  -374  -398  -375  -401  -537  -733  -881  -935  -931  -915  -908  -908  -909  -906  -899  -883  -838  -753  -654  -587  -546  -429  -138  247  528  619  598  567  580  655  762  832  818  705  504  275  102  17  1  -12  -131  -387  -685  -926  -1101  -1220  -1267  -1250  -1251  -1348  -1536  -1797  -2222  -2876  -3603  -4144  -4401  -4475  -4499  -4551  -4653  -4762  -4800  -4758  -4698  -4661  -4653  -4685  -4785  -4937  -5079  -5176  -5247  -5281  -5231  -5090  -4924  -4796  -4697  -4532  -4226  -3825  -3410  -3003  -2615  -2258  -1928  -1652  -1464  -1346  -1235  -1075  -888  -752  -675  -592  -491  -456  -558  -748  -875  -822  -616  -362  -132  36  117  123  95  78  134  310  552  733  799  792  769  765  793  836  854  830  785  747  704  609  431  208  30  -33  -9  -14  -148  -391  -622  -751  -784  -775  -741  -697  -686  -759  -939  -1196  -1449  -1633  -1744  -1816  -1872  -1941  -2064  -2237  -2395  -2488  -2521  -2507  -2413  -2218  -1991  -1829  -1740  -1659  -1563  -1478  -1396  -1269  -1105  -966  -858  -726  -582  -563  -769  -1103  -1356  -1436  -1415  -1389  -1398  -1447  -1498  -1483  -1372  -1213  -1053  -903  -768  -675  -633  -633  -645  -621  -510  -317  -139  -63  -106  -215  -206  165  935  1904  2921  4048  5343  6486  6865  6040  4069  1520  -827  -2335  -2681  -2029  -908  272  1372  2227  2688  2893  3162  3634  4195  4681  5011  5198  5310  5425  5641  6037  6542  7000  7365  7689  8027  8450  8951  9408  9752  10071  10462  10897  11293  11636  11959  12235  12417  12540  12723  13045  13470  13944  14474  15023  15471  15747  15889  15960  16024  16129  16272  16375  16334  16123  15862  15701  15653  15637  15619  15614  15604  15516  15294  15007  14802  14733  14754  14824  14922  15016  15069  15079  15067  15059  15061  15026  14853  14456  13802  12892  11803  10726  9888  9393  9132  8874  8403  7562  6312  4784  3085  1227  -665  -2399  -3958  -5520  -7259  -9084  -10651  -11791  -12583  -13111  -13527  -13928  -14117  -13838  -13090  -12082  -11061  -10252  -9785  -9499  -9005  -8107  -6995  -5946  -5043  -4244  -3462  -2627  -1815  -1190  -786  -383  303  1275  2229  2895  3253  3470  3767  4313  5125  6061  6978  7768  8340  8750  9219  9900  10672  11258  11548  11663  11777  12004  12359  12729  12964  12984  12761  12262  11443  10292  8829  7028  4945  2748  495  -1807  -4088  -6403  -8831  -11204  -13395  -15511  -17639  -19726  -21663  -23397  -24930  -26278  -27562  -28879  -30179  -31437  -32595  -32768  -32768  -32768  -32768  -32768  -32768  -32424  -31783  -30767  -29321  -27633  -25998  -24560  -23217  -21868  -20505  -19119  -17818  -16668  -15360  -13631  -11605  -9494  -7607  -6304  -5634  -5405  -5468  -5757  -6177  -6552  -6766  -6811  -6648  -6143  -5213  -3960  -2623  -1378  -259  709  1440  1971  2532  3288  4166  5044  5888  6623  7137  7365  7255  6759  5866  4580  2921  895  -1508  -4123  -6588  -8816  -11049  -13392  -15789  -18225  -20528  -22388  -23736  -24783  -25663  -26302  -26647  -26797  -26870  -26849  -26563  -25810  -24548  -23007  -21559  -20358  -19214  -17930  -16514  -15072  -13689  -12418  -11207  -9931  -8643  -7582  -6873  -6410  -6046  -5716  -5374  -4982  -4564  -4107  -3480  -2622  -1734  -1070  -632  -234  252  834  1405  1847  2164  2444  2736  3026  3288  3534  3827  4216  4619  4888  5010  5107  5264  5440  5541  5570  5656  5899  6263  6678  7109  7484  7740  7918  8059  8127  8144  8285  8713  9310  9784  10051  10262  10513  10769  10981  11155  11331  11511  11657  11790  12010  12349  12689  12867  12784  12454  12046  11705  11439  11280  11305  11496  11736  11897  11933  11887  11823  11778  11756  11745  11763  11864  12067  12301  12465  12519  12455  12256  11951  11629  11378  11241  11211  11263  11374  11499  11587  11675  11850  12118  12376  12536  12606  12618  12606  12625  12680  12714  12705  12684  12677  12680  12647  12554  12441  12362  12301  12205  12068  11931  11815  11719  11657  11637  11648  11687  11733  11705  11554  11424  11517  11902  12640  13725  14853  15804  16637  17230  17249  16492  14951  12840  10666  9065  8423  8614  9156  9660  9965  10025  9899  9657  9202  8367  7189  5911  4704  3536  2327  1086  -110  -1218  -2328  -3588  -4990  -6431  -7897  -9394  -10849  -12203  -13416  -14390  -15127  -15847  -16653  -17339  -17729  -17889  -17961  -18038  -18176  -18414  -18716  -18972  -19109  -19118  -19021  -18813  -18405  -17654  -16589  -15501  -14609  -13847  -13080  -12274  -11484  -10764  -10058  -9337  -8697  -8200  -7815  -7529  -7326  -7173  -7061  -6995  -6951  -6894  -6863  -6922  -7066  -7241  -7397  -7495  -7536  -7544  -7528  -7476  -7383  -7256  -7120  -6998  -6890  -6790  -6686  -6522  -6229  -5796  -5322  -4908  -4525  -4118  -3720  -3350  -2925  -2390  -1851  -1455  -1155  -787  -362  -56  84  187  334  493  615  679  699  709  697  610  438  262  209  330  548  790  1089  1419  1644  1664  1496  1251  1063  988  1004  1097  1276  1513  1728  1868  1956  2066  2240  2447  2626  2727  2745  2712  2662  2633  2679  2841  3068  3239  3284  3209  3029  2776  2557  2504  2615  2748  2790  2739  2660  2611  2635  2746  2865  2897  2868  2855  2859  2848  2821  2795  2778  2758  2731  2710  2706  2687  2575  2309  1925  1527  1205  1001  904  871  866  869  865  842  805  775  763  769  778  753  662  524  394  293  157  7  87  502  994  1389  1788  2309  2984  3700  4211  4230  3472  1887  -176  -2226  -3827  -4575  -4320  -3412  -2368  -1454  -766  -352  -179  -141  -138  -132  -148  -235  -409  -630  -853  -1042  -1165  -1228  -1261  -1264  -1253  -1304  -1459  -1647  -1766  -1793  -1750  -1596  -1274  -888  -646  -588  -607  -655  -722  -763  -753  -711  -673  -631  -507  -259  18  197  285  394  566  743  868  932  967  996  1017  1019  987  872  620  284  -17  -285  -592  -940  -1313  -1748  -2211  -2574  -2770  -2831  -2799  -2721  -2672  -2699  -2791  -2908  -3008  -3068  -3088  -3085  -3061  -2995  -2871  -2679  -2410  -2094  -1800  -1550  -1348  -1212  -1132  -1078  -1027  -935  -758  -526  -337  -230  -111  143  504  827  1071  1303  1528  1675  1711  1650  1504  1324  1197  1143  1099  1013  915  881  929  1003  1049  1039  940  735  480  291  236  255  255  206  125  42  -3  0  31  74  123  182  229  195  29  -218  -434  -543  -561  -528  -456  -356  -258  -183  -135  -101  -55  20  105  160  174  169  164  174  208  259  303  292  204  85  -1  -2  157  476  833  1103  1235  1230  1124  985  891  885  958  1067  1166  1244  1289  1259  1150  1026  943  887  804  657  457  261  131  94  101  51  -77  -190  -195  -101  19  106  158  208  248  228  110  -60  -168  -137  67  558  1443  2626  3824  4771  5290  5218  4404  2827  681  -1608  -3483  -4472  -4348  -3255  -1802  -695  -117  225  588  963  1214  1300  1301  1305  1367  1493  1620  1673  1650  1607  1582  1576  1594  1652  1737  1809  1863  1938  2039  2140  2245  2353  2436  2484  2515  2511  2420  2256  2126  2099  2132  2159  2161  2164  2220  2377  2635  2910  3086  3135  3117  3085  3041  2963  2859  2780  2747  2702  2540  2194  1725  1279  959  763  641  552  494  459  379  181  -133  -457  -692  -844  -959  -1033  -1051  -1025  -976  -928  -898  -892  -911  -963  -1057  -1171  -1252  -1266  -1213  -1113  -1027  -992  -980  -1020  -1174  -1363  -1465  -1486  -1499  -1528  -1566  -1626  -1745  -1911  -2088  -2338  -2789  -3383  -3857  -4064  -4088  -4058  -4014  -3935  -3816  -3696  -3625  -3602  -3588  -3555  -3499  -3429  -3368  -3348  -3371  -3397  -3369  -3237  -2982  -2676  -2466  -2431  -2536  -2690  -2792  -2786  -2674  -2519  -2403  -2339  -2276  -2177  -2070  -2002  -1970  -1927  -1851  -1742  -1592  -1379  -1090  -758  -456  -222  -21  211  499  785  1011  1200  1401  1610  1818  2048  2312  2574  2796  2989  3184  3389  3617  3837  3958  3916  3744  3547  3445  3478  3573  3655  3733  3844  3975  4082  4155  4229  4310  4374  4436  4555  4742  4949  5132  5291  5428  5544  5738  6143  6636  6961  7145  7387  7735  8181  8625  8612  7660  5736  3139  436  -1569  -2351  -1999  -1060  -116  587  1055  1303  1378  1373  1341  1290  1225  1178  1189  1285  1453  1643  1797  1885  1935  2003  2120  2275  2425  2518  2543  2536  2530  2537  2547  2520  2399  2177  1946  1807  1762  1756  1770  1823  1909  2000  2093  2193  2260  2199  1903  1392  863  485  225  -33  -333  -715  -1289  -2049  -2757  -3190  -3372  -3481  -3685  -4042  -4434  -4684  -4732  -4632  -4459  -4288  -4173  -4123  -4125  -4202  -4376  -4604  -4810  -4986  -5138  -5236  -5260  -5243  -5225  -5251  -5363  -5550  -5727  -5813  -5809  -5766  -5728  -5701  -5681  -5675  -5626  -5418  -5062  -4729  -4518  -4347  -4083  -3737  -3410  -3066  -2571  -1981  -1524  -1280  -1061  -656  -77  489  942  1357  1798  2198  2486  2690  2870  3046  3214  3396  3631  3945  4306  4629  4861  5019  5128  5188  5192  5082  4752  4182  3476  2718  1939  1135  238  -714  -1513  -2017  -2276  -2432  -2625  -2973  -3554  -4356  -5272  -6212  -7149  -7978  -8561  -8962  -9337  -9668  -9859  -9916  -9901  -9827  -9681  -9469  -9218  -8958  -8669  -8285  -7796  -7314  -6981  -6827  -6735  -6555  -6218  -5760  -5298  -4931  -4637  -4318  -3944  -3563  -3172  -2738  -2276  -1819  -1380  -1012  -796  -744  -781  -833  -871  -896  -905  -902  -899  -894  -872  -847  -863  -949  -1080  -1209  -1327  -1439  -1511  -1531  -1552  -1623  -1735  -1844  -1932  -1964  -1832  -1521  -1227  -1016  -731  -365  5  492  1229  2146  3000  3442  3189  2198  624  -1217  -2954  -4308  -4987  -4783  -3833  -2488  -1205  -414  -150  -77  82  336  547  626  588  493  398  338  307  289  291  366  553  817  1072  1268  1409  1533  1718  2027  2401  2696  2832  2849  2827  2821  2846  2881  2905  2970  3188  3569  3959  4213  4339  4424  4513  4621  4770  4943  5073  5144  5200  5255  5287  5289  5271  5207  5043  4805  4607  4528  4546  4593  4643  4716  4809  4873  4818  4554  4086  3499  2895  2427  2258  2395  2664  2867  2951  2982  3004  3007  3001  3020  3074  3154  3239  3309  3380  3495  3673  3880  4037  4095  4091  4107  4213  4385  4522  4608  4700  4741  4591  4246  3867  3613  3519  3519  3535  3528  3501  3475  3459  3449  3444  3448  3460  3463  3426  3324  3185  3076  3020  2997  2991  2995  2986  2934  2836  2737  2686  2682  2685  2657  2588  2487  2383  2305  2256  2218  2178  2106  1935  1639  1281  936  654  493  456  475  458  320  -26  -628  -1365  -1963  -2268  -2382  -2482  -2624  -2748  -2824  -2908  -3085  -3421  -3911  -4400  -4695  -4770  -4737  -4677  -4611  -4564  -4584  -4694  -4855  -5018  -5159  -5256  -5289  -5278  -5270  -5301  -5355  -5352  -5158  -4668  -4004  -3459  -3165  -2992  -2783  -2522  -2284  -2098  -1944  -1803  -1645  -1468  -1338  -1297  -1314  -1341  -1369  -1407  -1452  -1491  -1534  -1595  -1661  -1719  -1787  -1852  -1862  -1763  -1548  -1294  -1107  -1032  -1033  -1075  -1176  -1274  -1125  -510  500  1605  2514  3134  3588  3981  4176  3787  2426  118  -2566  -4780  -5776  -5352  -4024  -2570  -1463  -803  -501  -397  -355  -335  -339  -364  -392  -407  -414  -432  -468  -517  -571  -630  -691  -751  -817  -887  -916  -847  -671  -444  -259  -166  -128  -71  28  157  313  471  581  646  732  865  1002  1113  1223  1384  1628  1894  2078  2175  2281  2477  2740  2965  3066  3058  3035  3070  3142  3163  3067  2853  2559  2272  2080  1975  1882  1772  1679  1611  1522  1394  1291  1313  1482  1707  1865  1917  1905  1865  1801  1680  1469  1204  981  858  805  732  561  323  126  9  -58  -96  -104  -102  -164  -376  -688  -947  -1096  -1191  -1279  -1371  -1455  -1508  -1527  -1530  -1534  -1537  -1532  -1535  -1599  -1753  -1916  -1952  -1839  -1659  -1454  -1251  -1117  -1076  -1085  -1107  -1128  -1112  -969  -643  -243  37  136  138  134  155  195  234  259  272  283  309  369  444  491  496  485  508  608  760  867  908  977  1120  1249  1277  1196  1064  951  865  766  641  521  442  410  405  403  395  388  414  529  756  1003  1111  1073  1085  1267  1470  1476  1234  885  602  394  179  -43  -231  -407  -643  -960  -1313  -1734  -2364  -3176  -3869  -4229  -4350  -4429  -4545  -4671  -4780  -4864  -4906  -4871  -4725  -4466  -4165  -3925  -3795  -3793  -3964  -4189  -3999  -3025  -1507  -1  1058  1551  1779  2024  2057  1406  -107  -2203  -4312  -5923  -6757  -6723  -5944  -4730  -3432  -2425  -1957  -1875  -1857  -1778  -1680  -1619  -1593  -1558  -1491  -1424  -1376  -1317  -1226  -1128  -1060  -996  -866  -667  -478  -363  -318  -297  -253  -174  -72  24  87  117  133  152  167  170  193  321  634  1114  1625  2006  2217  2354  2506  2651  2731  2739  2724  2753  2865  3024  3141  3162  3102  2998  2862  2676  2472  2306  2172  2018  1800  1504  1208  1026  976  991  1014  1028  1025  989  906  794  699  658  662  665  668  725  844  960  998  937  844  806  806  774  718  684  679  683  690  697  700  678  608  504  404  325  278  302  417  587  752  872  958  1032  1084  1100  1089  1074  1100  1213  1400  1571  1665  1724  1846  2086  2379  2596  2677  2655  2554  2351  2052  1746  1524  1388  1333  1360  1434  1514  1590  1665  1733  1797  1878  1956  1981  1926  1814  1713  1654  1606  1557  1525  1509  1497  1484  1468  1460  1473  1490  1441  1241  892  527  273  154  122  92  -47  -370  -821  -1273  -1649  -1921  -2063  -2100  -2121  -2201  -2331  -2455  -2573  -2750  -3028  -3391  -3759  -4015  -4088  -3955  -3672  -3434  -3418  -3625  -3947  -4197  -4115  -3441  -2176  -830  -7  39  -827  -2545  -4473  -5848  -6397  -6259  -5642  -4721  -3750  -2973  -2410  -1993  -1735  -1638  -1635  -1647  -1645  -1631  -1599  -1486  -1207  -785  -388  -151  -69  -76  -119  -129  15  394  890  1276  1478  1561  1575  1546  1505  1471  1462  1480  1522  1583  1632  1623  1535  1390  1245  1161  1189  1373  1680  1971  2121  2131  2076  2004  1903  1752  1567  1385  1214  1054  905  746  562  351  93  -227  -587  -918  -1147  -1247  -1259  -1237  -1221  -1213  -1186  -1141  -1115  -1136  -1186  -1224  -1242  -1254  -1275  -1307  -1346  -1382  -1395  -1383  -1344  -1271  -1172  -1072  -986  -924  -890  -885  -901  -931  -950  -932  -852  -692  -470  -273  -181  -187  -213  -222  -251  -320  -396  -451  -497  -550  -642  -786  -927  -972  -844  -532  -155  111  197  124  -91  -398  -698  -934  -1074  -1067  -897  -619  -320  -90  47  170  351  560  718  795  834  894  987  1077  1136  1165  1187  1229  1289  1345  1388  1404  1351  1181  921  668  489  395  386  455  578  746  998  1325  1607  1752  1803  1864  2004  2229  2476  2660  2754  2754  2650  2468  2251  2025  1813  1656  1566  1477  1313  1094  922  848  847  873  897  923  977  1067  1154  1166  1072  933  820  771  836  1008  1184  1271  1201  1018  1053  1749  3155  4751  5891  6232  5774  4857  3882  2848  1519  -164  -1959  -3340  -3825  -3347  -2189  -836  157  554  555  464  415  409  428  466  514  555  589  617  598  485  308  150  55  7  -8  47  255  605  945  1116  1116  1050  987  929  882  878  947  1076  1207  1289  1353  1460  1603  1711  1756  1773  1805  1886  2026  2186  2323  2429  2498  2477  2278  1881  1442  1163  1083  1088  1054  893  571  142  -281  -605  -791  -881  -951  -1066  -1268  -1520  -1714  -1804  -1824  -1796  -1731  -1653  -1589  -1559  -1589  -1696  -1847  -1982  -2089  -2174  -2208  -2168  -2093  -2040  -2013  -1956  -1818  -1614  -1420  -1312  -1308  -1376  -1471  -1588  -1715  -1784  -1743  -1631  -1528  -1468  -1432  -1368  -1269  -1210  -1191  -1074  -812  -513  -300  -282  -462  -697  -879  -1002  -1100  -1184  -1219  -1186  -1131  -1094  -1052  -985  -944  -986  -1043  -1006  -887  -769  -715  -746  -855  -1026  -1222  -1360  -1381  -1289  -1123  -935  -763  -660  -681  -799  -882  -810  -559  -212  103  306  406  439  400  259  43  -145  -238  -250  -235  -229  -257  -324  -404  -460  -480  -477  -451  -379  -238  -46  117  191  174  99  11  -52  -90  -112  -112  -48  105  296  411  401  303  172  26  -132  -277  -361  -376  -371  -416  -560  -794  -1084  -1399  -1684  -1885  -2016  -2136  -2277  -2413  -2491  -2500  -2472  -2440  -2416  -2392  -2372  -2367  -2379  -2405  -2436  -2475  -2524  -2578  -2627  -2585  -2284  -1625  -597  691  1899  2559  2395  1435  -215  -2426  -4769  -6625  -7581  -7552  -6688  -5379  -4175  -3420  -3066  -2865  -2609  -2246  -1883  -1613  -1391  -1145  -903  -738  -675  -658  -597  -445  -266  -184  -247  -393  -540  -629  -642  -585  -460  -300  -173  -118  -113  -102  -30  90  188  233  260  306  365  412  446  499  617  798  979  1093  1132  1146  1232  1463  1766  1961  1967  1814  1541  1229  997  870  762  575  262  -125  -446  -616  -709  -824  -960  -1054  -1093  -1112  -1138  -1157  -1152  -1120  -1081  -1037  -954  -786  -529  -237  15  196  313  394  477  573  660  717  751  773  768  718  636  587  669  902  1181  1365  1374  1252  1107  981  879  845  942  1167  1413  1566  1606  1579  1513  1399  1245  1117  1080  1141  1293  1553  1836  1900  1590  1077  710  643  772  950  1122  1295  1493  1732  2000  2231  2364  2402  2396  2388  2410  2458  2511  2579  2683  2787  2826  2794  2739  2676  2581  2458  2365  2377  2553  2870  3185  3367  3417  3413  3393  3343  3267  3229  3272  3333  3336  3299  3274  3276  3304  3369  3465  3561  3629  3659  3655  3621  3557  3458  3324  3179  3046  2942  2884  2879  2919  2992  3102  3269  3467  3602  3584  3384  3083  2818  2638  2486  2281  1979  1632  1359  1185  1041  908  825  804  803  781  729  666  628  628  610  491  265  -3  -231  -357  -373  -316  -207  -99  -62  -40  89  410  1115  2321  3640  4422  4336  3409  1771  -383  -2742  -4901  -6371  -6687  -5824  -4440  -3339  -2716  -2308  -1987  -1802  -1754  -1770  -1785  -1758  -1667  -1532  -1412  -1337  -1280  -1210  -1125  -1023  -921  -855  -840  -861  -905  -973  -1068  -1149  -1146  -1060  -972  -935  -934  -936  -924  -914  -906  -850  -655  -275  174  483  582  593  659  787  866  842  755  669  646  689  730  713  626  513  435  395  315  108  -245  -651  -966  -1190  -1462  -1859  -2294  -2637  -2861  -3013  -3118  -3169  -3167  -3146  -3145  -3141  -3092  -3025  -2998  -3049  -3180  -3334  -3431  -3454  -3446  -3436  -3426  -3407  -3393  -3424  -3497  -3534  -3465  -3324  -3208  -3170  -3203  -3278  -3362  -3421  -3448  -3461  -3458  -3400  -3248  -3046  -2898  -2855  -2881  -2910  -2899  -2855  -2810  -2784  -2756  -2698  -2617  -2555  -2529  -2525  -2532  -2568  -2632  -2678  -2662  -2577  -2388  -2050  -1616  -1237  -1022  -948  -938  -934  -875  -699  -422  -152  11  70  117  255  478  672  755  755  750  804  911  961  883  769  743  832  986  1131  1192  1145  1035  909  765  610  503  475  498  532  569  638  785  1028  1320  1560  1685  1732  1792  1917  2077  2178  2172  2129  2143  2208  2248  2208  2108  2020  1990  1990  1963  1896  1774  1553  1217  851  590  467  401  323  217  71  -121  -314  -436  -471  -467  -459  -439  -391  -350  -374  -434  -448  -453  -542  -670  -629  -107  1057  2553  3824  4532  4585  3957  2719  1081  -738  -2537  -3902  -4313  -3747  -2772  -1884  -1235  -856  -695  -620  -554  -487  -379  -180  59  230  290  274  227  176  116  53  38  150  416  740  953  1000  994  1037  1124  1226  1328  1406  1457  1494  1512  1501  1475  1486  1578  1728  1888  2048  2232  2460  2702  2868  2921  2910  2886  2867  2874  2929  3028  3137  3225  3272  3274  3244  3207  3146  2956  2564  2096  1765  1610  1496  1330  1126  929  781  698  652  619  608  620  615  551  422  253  99  18  41  155  295  403  486  572  646  648  530  341  217  239  335  391  369  309  277  297  320  260  68  -170  -260  -113  100  142  19  -63  3  142  243  277  277  270  249  193  114  51  22  19  41  99  193  297  372  395  384  364  347  339  342  353  360  322  202  33  -95  -154  -187  -211  -192  -106  8  88  100  69  43  44  64  85  100  106  78  -12  -150  -267  -316  -310  -292  -303  -353  -388  -379  -376  -418  -496  -580  -611  -586  -571  -581  -583  -565  -550  -575  -654  -746  -787  -750  -656  -550  -467  -423  -414  -425  -447  -501  -646  -917  -1199  -1300  -1193  -1034  -950  -942  -954  -943  -904  -876  -911  -1011  -1113  -1179  -1231  -1288  -1329  -1325  -1268  -1178  -1095  -1064  -1148  -1413  -1805  -2151  -2332  -2373  -2351  -2296  -2186  -2003  -1784  -1564  -1298  -953]
