reading_id,reading_time,wire_id,result_classification,heart_rate,heart_rate_alert,firmware_version,device_app_version,hardware_version,waveform_samples
0bdd9a40-6ac4-11ed-8080-808080808080,Wed Nov 23 00:16:16 UTC 2022,e100638c1a39,NSR,82,NONE,20001.171.50,2.10.0,Charge 5,[1047  1759  2172  2296  2326  2378  2449  2534  2648  2768  2844  2851  2796  2715  2661  2731  3015  3431  3752  3876  3883  3861  3808  3674  3460  3264  3176  3177  3217  3279  3332  3209  2614  1447  85  -930  -1466  -1781  -2142  -2667  -3356  -4086  -4686  -5109  -5418  -5649  -5800  -5872  -5888  -5885  -5879  -5858  -5806  -5741  -5698  -5660  -5565  -5385  -5154  -4894  -4587  -4244  -3952  -3806  -3832  -3964  -4093  -4147  -4136  -4108  -4086  -4058  -3964  -3731  -3416  -3178  -3096  -3121  -3180  -3217  -3217  -3199  -3152  -3032  -2838  -2637  -2481  -2385  -2346  -2328  -2232  -1982  -1639  -1360  -1225  -1177  -1108  -939  -686  -457  -337  -313  -323  -327  -319  -310  -314  -333  -364  -391  -389  -357  -303  -219  -69  162  428  629  712  714  703  718  756  775  746  693  622  485  246  -50  -316  -488  -529  -409  -152  131  320  395  407  374  244  -21  -355  -626  -767  -809  -755  -509  -14  643  1345  2043  2735  3478  4242  4652  4225  2816  694  -1524  -3093  -3570  -3040  -1960  -862  -104  226  274  269  301  330  374  461  579  754  1023  1365  1693  1899  1942  1865  1727  1587  1490  1455  1495  1630  1890  2290  2747  3101  3274  3320  3333  3356  3399  3472  3574  3665  3713  3770  3919  4152  4347  4414  4387  4346  4316  4262  4147  3949  3597  3030  2333  1618  874  117  -497  -879  -1113  -1365  -1773  -2359  -3018  -3590  -3974  -4217  -4442  -4666  -4819  -4891  -4968  -5122  -5278  -5287  -5138  -4952  -4780  -4570  -4267  -3882  -3527  -3330  -3307  -3394  -3518  -3603  -3554  -3289  -2851  -2400  -2040  -1782  -1629  -1569  -1540  -1493  -1423  -1354  -1302  -1246  -1118  -866  -543  -269  -112  -51  -40  -39  -37  -31  -5  56  129  168  181  258  473  750  945  1061  1179  1285  1326  1320  1325  1388  1506  1626  1705  1752  1795  1847  1930  2080  2278  2448  2512  2407  2108  1723  1443  1342  1347  1370  1370  1345  1315  1289  1239  1153  1074  1047  1081  1158  1214  1166  955  689  719  1238  1998  2794  3645  4479  5125  5414  5153  4180  2540  595  -1080  -1900  -1566  -412  775  1441  1648  1730  1839  1955  2074  2212  2384  2626  2941  3242  3422  3474  3467  3473  3532  3637  3777  3962  4164  4294  4291  4194  4109  4103  4149  4228  4372  4584  4807  4967  5039  4990  4722  4190  3511  2837  2239  1745  1349  1027  778  550  227  -198  -580  -811  -950  -1099  -1317  -1642  -2083  -2592  -3101  -3541  -3856  -4049  -4174  -4303  -4488  -4708  -4886  -5020  -5180  -5402  -5634  -5777  -5797  -5761  -5728  -5690  -5623  -5546  -5502  -5502  -5516  -5510  -5468  -5392  -5303  -5219  -5107  -4911  -4641  -4369  -4132  -3922  -3733  -3567  -3434  -3335  -3243  -3121  -2948  -2767  -2624  -2511  -2440  -2429  -2448  -2418  -2268  -2009  -1731  -1516  -1391  -1370  -1469  -1649  -1806  -1879  -1887  -1854  -1740  -1472  -1065  -665  -405  -260  -123  36  171  252  278  260  223  168  88  -21  -190  -375  -465  -484  -555  -672  -748  -751  -693  -608  -535  -490  -479  -512  -569  -547  -335  92  748  1591  2382  2908  3239  3506  3620  3358  2550  1173  -540  -2046  -2813  -2774  -2136  -1141  -241  234  420  536  645  754  847  929  1047  1195  1304  1330  1290  1224  1175  1188  1307  1529  1777  1975  2117  2217  2255  2214  2119  1996  1840  1667  1546  1506  1509  1507  1456  1332  1144  934  797  838  1032  1251  1426  1548  1605  1619  1654  1751  1856  1877  1781  1606  1431  1296  1113  771  330  -42  -295  -466  -560  -578  -569  -570  -559  -495  -371  -276  -319  -447  -479  -378  -266  -226  -243  -254  -223  -170  -116  -72  -50  -43  3  155  395  611  723  749  743  737  753  807  879  894  796  644  524  449  387  312  204  87  59  194  449  704  901  1045  1121  1120  1085  1060  1058  1071  1079  1038  904  700  514  404  378  481  785  1226  1616  1858  1991  2062  2088  2094  2108  2129  2118  2034  1874  1678  1498  1361  1256  1145  974  747  540  414  379  433  579  779  941  1002  983  929  864  743  459  42  -207  -37  456  1091  1680  1953  1924  1923  2077  2127  1686  546  -1230  -3364  -5351  -6627  -6925  -6437  -5682  -5087  -4689  -4344  -3978  -3609  -3294  -3040  -2812  -2604  -2451  -2369  -2344  -2355  -2373  -2376  -2343  -2194  -1844  -1388  -1060  -954  -978  -1020  -1022  -950  -799  -608  -443  -339  -279  -172  114  607  1183  1675  1966  2063  2075  2103  2181  2306  2471  2641  2739  2671  2397  2022  1723  1544  1392  1205  988  795  668  544  315  -4  -278  -432  -509  -564  -611  -656  -711  -770  -812  -829  -833  -836  -839  -837  -813  -749  -657  -577  -524  -466  -388  -323  -301  -312  -332  -354  -401  -475  -516  -479  -407  -357  -322  -286  -243  -186  -121  -67  -33  -21  -31  -61  -118  -201  -293  -366  -404  -404  -369  -296  -182  -49  48  74  0  -173  -354  -431  -400  -338  -289  -264  -244  -205  -155  -143  -209  -340  -486  -604  -661  -617  -450  -224  -54  22  58  116  214  320  421  545  665  697  569  271  -93  -368  -492  -526  -550  -586  -614  -619  -605  -595  -639  -780  -978  -1129  -1175  -1121  -964  -705  -400  -177  -213  -553  -865  -595  517  2162  3710  4622  4563  3464  1701  -124  -1663  -2784  -3361  -3405  -3064  -2510  -1964  -1606  -1450  -1402  -1363  -1244  -1012  -736  -528  -412  -340  -319  -377  -472  -516  -456  -312  -152  -3  128  215  257  302  390  499  578  616  655  718  797  898  1052  1298  1636  2007  2319  2504  2578  2622  2705  2833  2976  3091  3138  3100  2989  2829  2635  2426  2207  1969  1711  1449  1191  922  648  415  248  99  -86  -321  -567  -752  -852  -909  -967  -1029  -1074  -1079  -1016  -879  -711  -587  -544  -554  -544  -492  -440  -433  -475  -539  -587  -608  -614  -612  -602  -579  -545  -519  -526  -584  -704  -854  -969  -1023  -1043  -1042  -987  -837  -636  -487  -411  -349  -279  -257  -317  -400  -434  -438  -466  -500  -479  -383  -258  -169  -142  -151  -169  -180  -166  -121  -69  -39  -32  -32  -39  -65  -125  -217  -312  -389  -432  -384  -222  -52  20  7  -24  -1  116  295  476  662  840  923  852  691  556  490  462  429  370  303  259  258  285  290  182  -91  -442  -693  -758  -679  -547  -426  -336  -282  -260  -274  -349  -370  -40  734  1689  2554  3193  3456  3311  2949  2358  1208  -498  -2233  -3424  -3702  -2972  -1679  -650  -310  -367  -336  -87  194  352  403  446  506  487  329  144  85  162  281  369  438  539  665  770  845  930  1051  1171  1259  1372  1524  1635  1667  1666  1667  1696  1802  2020  2298  2540  2701  2797  2853  2868  2843  2808  2788  2792  2813  2825  2765  2567  2266  1999  1862  1818  1755  1569  1211  700  168  -191  -315  -304  -265  -237  -228  -259  -353  -482  -577  -609  -605  -596  -593  -592  -585  -559  -512  -459  -413  -368  -341  -349  -381  -421  -459  -490  -498  -448  -333  -201  -118  -123  -187  -239  -236  -199  -167  -151  -141  -134  -160  -261  -412  -528  -571  -570  -557  -536  -503  -483  -500  -519  -490  -419  -350  -317  -317  -313  -310  -317  -275  -162  -59  -53  -156  -303  -396  -402  -354  -290  -240  -202  -145  -49  60  117  74  -37  -168  -300  -451  -693  -1057  -1426  -1643  -1679  -1610  -1508  -1414  -1342  -1296  -1272  -1262  -1272  -1310  -1375  -1489  -1699  -1954  -2024  -1797  -1406  -847  -45  763  1354  1789  1998  1653  651  -689  -2082  -3486  -4710  -5325  -5108  -4270  -3282  -2544  -2119  -1873  -1741  -1707  -1722  -1737  -1724  -1672  -1609  -1583  -1614  -1652  -1641  -1606  -1596  -1565  -1453  -1317  -1243  -1239  -1278  -1332  -1328  -1127  -637  -4  480  702  754  761  790  857  954  1087  1250  1415  1612  1903  2246  2495  2594  2611  2604  2575  2525  2473  2440  2382  2181  1764  1260  895  711  569  390  225  116  43  5  21  64  91  84  51  10  -12  -18  -43  -121  -234  -322  -357  -358  -353  -358  -362  -323  -209  -78  -35  -91  -164  -199  -217  -248  -289  -336  -395  -445  -459  -441  -405  -363  -331  -320  -328  -351  -384  -429  -484  -529  -553  -572  -595  -612  -619  -622  -624  -618  -591  -531  -444  -359  -309  -303  -343  -454  -640  -832  -942  -920  -768  -552  -382  -306  -292  -296  -290  -256  -194  -125  -71  -28  57  233  485  749  931  952  815  574  263  -39  -222  -265  -254  -280  -367  -444  -444  -393  -354  -342  -344  -360  -401  -467  -562  -747  -1031  -1166  -804  69  1175  2235  3003  3370  3493  3501  3262  2562  1340  -186  -1626  -2670  -3121  -2903  -2190  -1345  -708  -442  -465  -549  -559  -497  -377  -212  -46  89  198  311  434  523  557  555  519  419  264  182  262  402  474  484  505  595  762  982  1239  1520  1772  1930  2006  2098  2276  2506  2718  2924  3173  3422  3555  3532  3422  3291  3129  2927  2737  2597  2499  2410  2274  2021  1622  1146  722  413  200  41  -117  -291  -435  -528  -607  -702  -811  -906  -962  -968  -931  -880  -841  -813  -795  -783  -755  -685  -615  -632  -734  -800  -730  -548  -366  -272  -286  -387  -519  -619  -664  -670  -652  -618  -576  -547  -541  -543  -539  -521  -467  -366  -267  -262  -400  -603  -736  -764  -745  -735  -749  -777  -798  -789  -741  -667  -598  -545  -515  -514  -529  -540  -558  -589  -615  -603  -538  -466  -438  -421  -381  -326  -233  -55  170  338  408  406  346  214  39  -105  -161  -66  226  630  915  885  515  2  -370  -501  -496  -457  -408  -364  -360  -422  -521  -595  -623  -630  -648  -685  -724  -742  -753  -804  -902  -957  -842  -439  312  1303  2404  3570  4466  4544  3630  1958  -174  -2345  -3913  -4452  -3982  -2805  -1525  -699  -381  -342  -393  -426  -418  -396  -392  -425  -488  -530  -464  -263  0  220  345  396  446  541  649  693  648  576  569  638  724  779  812  867  985  1167  1381  1587  1783  2006  2301  2632  2905  3064  3119  3111  3086  3068  3069  3102  3147  3131  2955  2588  2141  1764  1504  1317  1125  873  594  390  310  291  215  -8  -382  -789  -1086  -1228  -1244  -1190  -1132  -1101  -1070  -1001  -871  -726  -654  -690  -783  -859  -886  -883  -872  -828  -752  -706  -739  -823  -896  -926  -901  -808  -662  -510  -389  -319  -325  -401  -509  -611  -680  -722  -797  -979  -1234  -1432  -1488  -1388  -1155  -876  -681  -619  -643  -682  -699  -699  -698  -700  -688  -632  -506  -326  -184  -192  -327  -444  -449  -368  -248  -90  93  264  415  549  638  655  605  526  451  387  341  341  392  453  463  348  70  -273  -512  -586  -573  -546  -527  -514  -506  -500  -493  -490  -518  -598  -707  -794  -858  -950  -1044  -982  -714  -337  205  950  1611  2056  2539  3109  3376  2917  1645  -201  -2177  -3701  -4401  -4330  -3720  -2852  -2063  -1548  -1246  -1024  -838  -726  -699  -699  -654  -539  -403  -318  -296  -288  -251  -189  -139  -124  -132  -144  -140  -68  119  365  536  588  595  645  770  961  1183  1378  1494  1559  1669  1891  2177  2418  2566  2653  2701  2685  2606  2537  2507  2455  2336  2189  2087  2032  1942  1729  1368  939  606  438  323  130  -129  -339  -432  -437  -417  -427  -513  -686  -881  -999  -987  -852  -668  -536  -492  -501  -536  -588  -640  -651  -592  -504  -450  -441  -442  -404  -313  -219  -162  -152  -199  -256  -245  -187  -155  -184  -258  -333  -390  -483  -672  -893  -981  -837  -556  -327  -241  -267  -353  -451  -522  -568  -616  -641  -596  -520  -520  -622  -742  -793  -744  -629  -498  -369  -255  -166  -89  -27  16  69  155  251  310  278  114  -147  -408  -605  -716  -744  -776  -912  -1104  -1234  -1266  -1238  -1171  -1050  -884  -738  -668  -675  -741  -846  -957  -1029  -973  -643  16  852  1651  2319  2815  3001  2732  1902  437  -1423  -3074  -4032  -4248  -3863  -3061  -2216  -1653  -1347  -1143  -991  -847  -637  -385  -195  -102  -57  -25  -17  -64  -150  -226  -269  -285  -284  -268  -249  -228  -184  -84  77  305  606  914  1124  1226  1321  1508  1783  2063  2286  2446  2560  2652  2755  2882  3000  3083  3136  3182  3208  3137  2898  2553  2257  2078  1968  1853  1671  1432  1215  1041  841  575  273  -48  -371  -616  -706  -638  -484  -322  -186  -102  -102  -168  -234  -258  -260  -267  -289  -342  -457  -608  -708  -714  -666  -615  -573  -537  -515  -525  -573  -636  -674  -674  -644  -599  -559  -547  -576  -638  -679  -638  -514  -368  -246  -141  -51  -12  -11  0  23  35  44  56  58  25  -61  -170  -244  -243  -171  -72  -1  24  26  18  -7  -52  -71  4  156  285  342  373  430  509  578  621  645  610  434  91  -304  -597  -739  -809  -895  -999  -1072  -1101  -1128  -1169  -1195  -1184  -1159  -1144  -1141  -1149  -1154  -1111  -925  -578  -307  -336  -431  -188  470  1404  2420  3224  3485  2959  1558  -509  -2675  -4256  -4817  -4421  -3519  -2537  -1775  -1401  -1301  -1239  -1100  -911  -766  -698  -638  -503  -298  -109  4  48  55  50  44  38  40  67  125  186  246  370  535  585  491  427  536  787  1051  1228  1347  1531  1837  2162  2377  2479  2567  2725  2929  3075  3069  2889  2596  2299  2065  1882  1700  1506  1344  1221  1101  975  831  602  220  -261  -682  -933  -1027  -1045  -1062  -1119  -1217  -1321  -1389  -1416  -1418  -1387  -1291  -1134  -972  -851  -759  -666  -570  -498  -494  -595  -801  -1045  -1225  -1306  -1316  -1253  -1072  -787  -492  -278  -173  -151  -167  -207  -287  -404  -526  -632  -725  -794  -823  -828  -812  -741  -587  -381  -201  -116  -138  -239  -387  -537  -635  -675  -702  -749  -780  -751  -680  -597  -489  -368  -276  -229  -215  -221  -236  -243  -197  -60  122  251  294  298  310  337  360  372  384  390  350  235  74  -65  -156  -225  -302  -376  -434  -480  -506  -503  -473  -390  -242  -98  -63  -174  -367  -543  -665  -690  -467  161  1068  1867  2374  2742  3034  3102  2853  2206  960  -803  -2533  -3695  -4061  -3644  -2679  -1606  -866  -583  -548  -540  -495  -441  -395  -322  -176  42  259  385  381  259  77  -78  -164  -177  -88  137  441  702  859  938  995  1067  1147  1204  1230  1250  1300  1445  1754  2173  2525  2699  2739  2736  2735  2780  2901  3039  3101  3044  2881  2685  2510  2321  2073  1794  1513  1224  951  765  678  598  394  -5  -514  -916  -1089  -1100  -1068  -1055  -1063  -1075  -1086  -1100  -1095  -1018  -854  -667  -540  -504  -554  -688  -860  -973  -984  -925  -846  -774  -726  -711  -755  -885  -1060  -1185  -1203  -1130  -1029  -958  -913  -854  -775  -723  -723  -759  -798  -823  -833  -835  -842  -856  -853  -776  -600  -435  -453  -653  -856  -954  -972  -973  -988  -1009  -991  -891  -711  -503  -340  -266  -270  -307  -350  -379  -365  -300  -216  -153  -94  13  158  266  295  268  216  161  98  -14  -215  -480  -714  -817  -769  -643  -550  -544  -603  -694  -791  -865  -896  -866  -741  -576  -601  -957  -1374  -1391  -764  425  1781  2871  3596  3897  3535  2438  805  -1071  -2756  -3694  -3664  -3041  -2364  -1907  -1678  -1483  -1095  -570  -182  -53  -72  -98  -83  -37  20  82  137  162  152  127  136  226  397  582  710  769  784  765  732  736  810  923  1021  1114  1250  1461  1743  2038  2247  2336  2390  2516  2724  2920  3001  2953  2867  2826  2834  2839  2780  2629  2408  2137  1814  1472  1167  912  675  427  143  -175  -503  -803  -1033  -1155  -1181  -1169  -1157  -1151  -1140  -1116  -1099  -1116  -1167  -1212  -1211  -1140  -1003  -843  -733  -734  -816  -889  -918  -944  -986  -1004  -934  -752  -519  -353  -322  -382  -443  -451  -408  -350  -314  -300  -290  -282  -287  -318  -383  -469  -547  -605  -640  -663  -690  -716  -706  -649  -589  -593  -677  -795  -901  -969  -993  -963  -865  -714  -571  -492  -469  -452  -410  -368  -366  -398  -417  -399  -357  -308  -259  -204  -127  -21  111  272  447  598  689  717  700  654  562  395  192  47  -18  -91  -253  -471  -634  -693  -679  -615  -508  -386  -286  -236  -255  -374  -603  -800  -738  -436  -94  328  981  1755  2481  3095  3434  3259  2491  1232  -350  -1930  -2990  -3263  -2989  -2530  -2025  -1539  -1196  -1020  -915  -788  -591  -360  -191  -109  -57  -5  49  118  181  212  213  206  200  209  248  312  379  420  425  416  424  466  555  747  1089  1519  1874  2057  2100  2090  2077  2058  2012  1968  2055  2373  2803  3119  3238  3199  3088  2982  2854  2609  2250  1889  1578  1295  1053  875  737  598  440  276  122  -47  -242  -443  -655  -867  -1011  -1053  -1026  -963  -862  -722  -593  -562  -655  -778  -798  -705  -604  -567  -582  -599  -570  -471  -335  -232  -197  -230  -325  -446  -535  -575  -586  -572  -522  -453  -406  -396  -409  -430  -448  -454  -437  -383  -306  -256  -284  -397  -520  -559  -531  -544  -620  -675  -646  -575  -556  -638  -757  -797  -740  -691  -735  -835  -896  -847  -687  -496  -372  -335  -338  -338  -339  -380  -498  -655  -763  -792  -780  -766  -750  -711  -633  -532  -429  -321  -219  -150  -110  -59  9  68  103  114  84  -6  -132  -236  -300  -369  -489  -653  -816  -954  -1089  -1228  -1325  -1309  -1137  -859  -606  -460  -390  -368  -486  -922  -1616  -2009  -1617  -700  182  858  1437  1950  2460  2984  3052  2223  756  -842  -2250  -3215  -3599  -3490  -3040  -2394  -1789  -1408  -1217  -1099  -1015  -948  -865  -767  -670  -568  -473  -416  -404  -409  -400  -377  -357  -351  -356  -357  -336  -273  -168  -55  24  95  244  533  908  1247  1491  1657  1778  1881  1980  2112  2347  2711  3104  3373  3455  3334  2994  2545  2225  2186  2404  2734  2977  2964  2597  1938  1252  805  636  594  526  382  211  94  57  63  82  109  126  64  -148  -468  -734  -831  -780  -691  -644  -641  -642  -614  -550  -471  -417  -405  -407  -381  -325  -275  -272  -323  -367  -346  -272  -222  -259  -378  -514  -612  -659  -670  -673  -669  -625  -506  -354  -282  -364  -547  -708  -779  -782  -766  -763  -788  -848  -934  -1030  -1108  -1135  -1050  -800  -459  -208  -129  -179  -294  -424  -524  -554  -498  -396  -322  -304  -320  -347  -365  -345  -269  -158  -70  -28  -18  -29  -46  -53  -62  -92  -120  -68  104  281  277  117  32  162  410  598  685  751  844  915  871  659  347  68  -118  -229  -275  -284  -327  -454  -610  -697  -715  -735  -772  -800  -819  -840  -860  -855  -799  -690  -562  -459  -295  131  841  1616  2340  3004  3429  3388  2855  1870  379  -1458  -3175  -4330  -4662  -4133  -2983  -1607  -495  -5  -25  -158  -199  -182  -170  -181  -205  -227  -240  -239  -204  -116  8  154  319  459  488  408  313  260  245  278  409  648  921  1123  1211  1233  1291  1463  1724  1970  2152  2307  2463  2590  2670  2720  2757  2785  2808  2829  2827  2766  2594  2271  1872  1566  1412  1319  1220  1139  1084  949  587  22  -492  -754  -793  -752  -721  -733  -790  -869  -928  -948  -934  -891  -830  -768  -701  -626  -563  -513  -457  -402  -378  -399  -462  -538  -589  -612  -625  -638  -649  -655  -657  -657  -661  -667  -674  -693  -740  -817  -911  -1000  -1054  -1071  -1063  -1042  -1017  -1000  -991  -983  -985  -1025  -1112  -1154  -1017  -734  -499  -422  -444  -462  -411  -309  -268  -362  -524  -639  -675  -658  -623  -594  -576  -569  -567  -564  -559  -560  -570  -577  -567  -524  -438  -321  -213  -140  -100  -87  -85  -84  -77  -65  -63  -80  -96  -58  83  307  509  599  574  489  367  181  -62  -310  -547  -775  -937  -969  -904  -837  -813  -812  -790  -730  -665  -649  -678  -736  -849  -972  -866  -296  661  1653  2409  2938  3278  3311  2886  1910  325  -1673  -3469  -4451  -4494  -3892  -3000  -1965  -915  -181  47  -82  -351  -608  -759  -796  -754  -649  -502  -339  -165  -30  5  5  81  209  288  268  180  126  189  330  456  517  533  566  670  834  1011  1184  1353  1529  1748  2013  2252  2398  2469  2565  2770  3045  3273  3406  3453  3347  2977  2392  1839  1512  1395  1353  1275  1161  1060  926  652  256  -98  -331  -524  -727  -876  -922  -897  -859  -856  -885  -897  -880  -854  -825  -797  -780  -764  -718  -626  -515  -420  -355  -315  -289  -288  -359  -526  -685  -642  -336  74  377  477  424  309  204  138  107  90  87  91  67  -32  -209  -393  -517  -562  -554  -516  -455  -363  -230  -85  -29  -118  -277  -412  -480  -476  -461  -508  -581  -596  -546  -505  -518  -539  -511  -454  -422  -441  -499  -574  -647  -693  -706  -703  -698  -692  -679  -660  -642  -623  -585  -523  -442  -349  -227  -45  169  323  376  375  363  335  256  92  -172  -490  -762  -929  -1005  -1017  -955  -799  -601  -503  -594  -823  -1048  -1145  -1081  -916  -718  -504  -276  -151  -257  -395  -100  759  1848  2780  3265  3146  2523  1602  451  -945  -2424  -3543  -3956  -3676  -2882  -1892  -1151  -855  -831  -853  -824  -742  -638  -557  -523  -517  -489  -387  -186  89  363  539  592  554  453  327  264  364  641  944  1080  1057  1033  1115  1316  1579  1797  1927  2051  2281  2627  3001  3316  3537  3694  3824  3891  3812  3590  3355  3217  3183  3173  3072  2821  2506  2265  2088  1836  1419  898  446  200  144  167  184  153  58  -75  -193  -306  -477  -681  -817  -857  -850  -842  -840  -817  -744  -628  -515  -438  -398  -391  -421  -483  -553  -623  -703  -775  -790  -741  -669  -631  -646  -668  -652  -616  -594  -578  -542  -476  -398  -333  -310  -334  -374  -394  -395  -399  -434  -524  -639  -722  -752  -753  -738  -701  -646  -621  -669  -735  -748  -734  -735  -745  -751  -754  -754  -745  -733  -760  -852  -979  -1090  -1120  -1007  -796  -627  -569  -576  -585  -569  -529  -458  -331  -163  -25  53  109  170  218  239  249  258  260  250  227  197  136  -25  -325  -670  -919  -1048  -1127  -1181  -1174  -1111  -1049  -1005  -944  -855  -780  -771  -857  -1046  -1307  -1517  -1380  -613  605  1604  1941  1873  1893  2189  2538  2459  1537  -257  -2401  -4054  -4694  -4356  -3412  -2373  -1639  -1292  -1167  -1079  -961  -839  -754  -718  -697  -625  -446  -189  30  131  139  130  157  228  290  297  306  400  544  648  704  764  858  964  1061  1173  1376  1747  2224  2595  2735  2703  2611  2522  2448  2416  2518  2834  3268  3589  3681  3600  3430  3209  2944  2627  2276  1948  1693  1517  1386  1213  864  303  -305  -739  -939  -977  -889  -675  -405  -201  -119  -153  -293  -489  -645  -715  -723  -704  -676  -684  -787  -1009  -1275  -1450  -1442  -1246  -946  -693  -569  -514  -424  -288  -204  -247  -383  -539  -699  -860  -979  -1035  -1048  -1028  -961  -835  -687  -586  -549  -535  -509  -474  -448  -487  -639  -830  -897  -795  -649  -581  -624  -755  -911  -1017  -1046  -1000  -899  -757  -595  -475  -465  -558  -683  -796  -881  -911  -867  -775  -673  -536  -311  -74  -9  -159  -369  -463  -361  -76  318  634  652  397  135  21  2  -34  -129  -238  -304  -316  -307  -315  -360  -432  -511  -593  -666  -695  -665  -590  -515  -483  -484  -477  -443  -400  -374  -282  40  594  1245  1990  2850  3555  3706  3155  1948  128  -2000  -3763  -4622  -4471  -3520  -2261  -1236  -700  -548  -507  -464  -485  -555  -558  -444  -270  -129  -20  121  292  415  456  454  444  426  387  335  296  275  257  249  315  518  811  1052  1176  1257  1389  1603  1870  2118  2276  2347  2411  2524  2678  2840  2982  3089  3150  3158  3082  2887  2597  2314  2102  1938  1790  1652  1505  1266  895  480  144  -84  -253  -424  -638  -864  -1016  -1049  -996  -912  -834  -778  -755  -766  -793  -816  -830  -842  -861  -880  -894  -908  -921  -919  -881  -799  -694  -604  -568  -592  -639  -680  -721  -768  -802  -809  -796  -781  -786  -804  -804  -778  -753  -747  -745  -722  -663  -583  -519  -498  -549  -688  -869  -998  -1047  -1071  -1122  -1193  -1231  -1211  -1167  -1128  -1071  -971  -833  -700  -614  -580  -557  -513  -455  -410  -386  -373  -360  -337  -299  -249  -176  -50  136  321  439  481  458  339  92  -268  -669  -985  -1108  -1029  -845  -668  -560  -529  -560  -621  -687  -746  -794  -858  -977  -1124  -1249  -1348  -1373  -1152  -499  572  1682  2390  2691  2815  2837  2693  2149  812  -1315  -3481  -4766  -4718  -3519  -1903  -648  -57  -57  -393  -716  -819  -731  -571  -447  -401  -418  -457  -456  -365  -204  -23  179  399  584  703  745  671  505  354  332  498  784  1028  1153  1205  1241  1281  1319  1369  1525  1887  2398  2848  3104  3235  3353  3451  3465  3406  3344  3300  3190  2923  2526  2154  1929  1842  1808  1744  1560  1175  610  38  -337  -469  -461  -420  -389  -379  -412  -509  -640  -735  -766  -761  -752  -749  -752  -756  -758  -765  -782  -808  -838  -872  -914  -955  -972  -904  -699  -411  -179  -72  -79  -173  -295  -373  -393  -383  -371  -365  -357  -334  -301  -285  -318  -417  -578  -748  -830  -758  -559  -343  -206  -159  -156  -161  -162  -166  -194  -260  -335  -371  -362  -346  -350  -368  -378  -352  -240  -28  205  355  392  354  266  124  -73  -284  -451  -546  -592  -643  -734  -857  -961  -980  -929  -926  -1034  -1169  -1206  -1106  -953  -832  -689  -451  -258  -352  -668  -817  -533  136  1008  1960  2868  3417  3254  2318  769  -1120  -2881  -4027  -4426  -4212  -3497  -2532  -1756  -1372  -1218  -1100  -991  -927  -892  -847  -787  -739  -716  -716  -720  -698  -629  -534  -472  -475  -507  -466  -226  226  715  1034  1147  1149  1124  1104  1104  1132  1170  1192  1222  1350  1671  2179  2699  3020  3107  3084  3058  3049  3036  3005  2959  2880  2716  2438  2100  1808  1626  1502  1306  969  543  153  -104  -263  -411  -523  -550  -570  -634  -691  -702  -692  -694  -742  -856  -1010  -1128  -1175  -1191  -1208  -1230  -1256  -1270  -1234  -1119  -955  -818  -743  -690  -651  -685  -800  -922  -974  -942  -885  -860  -875  -905  -928  -941  -956  -966  -920  -760  -505  -246  -63  7  -45  -200  -378  -491  -497  -409  -225  64  386  608  683  661  586  440  209  -43  -224  -316  -382  -485  -628  -772  -884  -944  -969  -985  -985  -896  -662  -388  -285  -396  -548  -611  -673  -863  -1040  -795  31  1088  2026  2813  3414  3606  3185  2059  284  -1747  -3384  -4199  -4262  -3831  -3100  -2301  -1666  -1251  -979  -774  -586  -410  -266  -149  -48  0  -38  -153  -282  -339  -259  -55  174  323  366  350  323  314  361  494  669  803  865  886  923  1058  1329  1643  1865  1989  2130  2391  2772  3167  3446  3545  3472  3287  3079  2901  2779  2714  2648  2470  2128  1697  1320  1074  929  796  619  400  140  -180  -527  -806  -965  -1017  -970  -822  -625  -477  -443  -536  -733  -962  -1121  -1155  -1075  -944  -836  -776  -734  -692  -661  -648  -640  -624  -607  -587  -531  -425  -306  -201  -113  -67  -129  -343  -642  -870  -952  -908  -773  -602  -476  -436  -475  -581  -703  -741  -635  -453  -314  -262  -249  -224  -159  -33  144  317  431  465  386  153  -172  -433  -542  -566  -602  -672  -721  -706  -665  -674  -773  -915  -1005  -1054  -1140  -1242  -1276  -1214  -1096  -995  -923  -792  -547  -224  201  837  1630  2358  2916  3235  3036  2154  785  -871  -2613  -3980  -4560  -4342  -3589  -2591  -1611  -897  -560  -480  -454  -377  -261  -181  -178  -211  -228  -206  -138  -49  21  70  128  225  357  479  534  526  512  514  510  499  537  696  974  1269  1486  1629  1773  1995  2314  2661  2932  3074  3127  3149  3153  3113  3023  2922  2852  2784  2648  2434  2197  1967  1740  1526  1348  1185  930  471  -158  -745  -1102  -1230  -1231  -1171  -1074  -968  -904  -900  -919  -911  -858  -768  -671  -609  -604  -650  -719  -765  -739  -619  -450  -307  -221  -194  -263  -451  -683  -828  -840  -783  -740  -734  -744  -747  -730  -689  -639  -606  -595  -594  -593  -594  -610  -655  -709  -718  -652  -553  -490  -482  -497  -504  -506  -530  -573  -582  -464  -162  223  492  558  477  345  217  90  -56  -212  -377  -591  -845  -1046  -1139  -1150  -1125  -1072  -993  -913  -860  -846  -881  -981  -1113  -1196  -1164  -1034  -910  -833  -665  -294  229  849  1546  2273  2931  3275  2959  1885  249  -1627  -3279  -4247  -4391  -3841  -2786  -1572  -751  -571  -706  -782  -748  -706  -719  -741  -699  -609  -517  -423  -315  -201  -92  -10  19  -14  -91  -174  -242  -275  -228  -49  237  525  773  1027  1289  1496  1636  1776  1969  2191  2400  2611  2837  3025  3131  3172  3180  3171  3136  3051  2902  2733  2620  2589  2579  2472  2145  1612  1026  521  154  -55  -160  -250  -373  -528  -704  -857  -924  -879  -745  -565  -394  -292  -298  -402  -545  -647  -684  -681  -654  -600  -533  -489  -478  -485  -490  -489  -487  -496  -526  -567  -589  -564  -503  -467  -498  -557  -590  -598  -601  -609  -605  -563  -472  -387  -386  -468  -555  -605  -639  -688  -751  -798  -800  -738  -624  -511  -459  -484  -548  -604  -634  -643  -622  -534  -349  -62  289  597  716  583  289  8  -165  -280  -411  -558  -675  -743  -800  -887  -1008  -1125  -1203  -1238  -1244  -1233  -1211  -1171  -1103  -1032  -997  -999  -1015  -991  -871  -658  -331  146  738  1407  2171  2852  3024  2447  1283  -179  -1676  -2935  -3711  -3891  -3544  -2913  -2296  -1871  -1597  -1350  -1112  -912  -732  -545  -380  -287  -268  -274  -264  -235  -219  -243  -274  -256  -158  -7  142  282  452  646  805  898  937  954  977  1014  1097  1302  1649  2044  2379  2631  2840  3037  3200  3292  3300  3219  3062  2883  2760  2715  2717  2730  2720  2634  2388  1950  1452  1101  929  786  585  386  261  195  123  9  -122  -219  -260  -283  -308  -323  -311  -263  -191  -123  -76  -50  -42  -69  -153  -286  -426  -551  -645  -676  -609  -457  -263  -84  14  11  -39  -83  -117  -152  -178  -174  -131  -60  5  30  -17  -153  -328  -461  -533  -564  -525  -367  -149  2  46  26  -10  -78  -191  -312  -412  -514  -612  -679  -727  -771  -805  -811  -783  -719  -609  -453  -280  -135  -50  -13  18  74  147  216  262  268  187  -43  -390  -717  -920  -993  -971  -881  -769  -693  -696  -776  -889  -969  -995  -986  -975  -990  -1051  -1149  -1248  -1306  -1258  -1029  -578  85  855  1564  2182  2747  3069  2863  2008  487  -1487  -3331  -4420  -4510  -3806  -2838  -2131  -1761  -1426  -984  -595  -409  -381  -393  -402  -431  -490  -557  -600  -596  -536  -441  -351  -280  -218  -165  -130  -102  -44  74  231  358  436  546  763  1028  1208  1257  1232  1198  1220  1359  1633  1999  2367  2643  2811  2911  2960  2944  2857  2737  2631  2519  2335  2057  1717  1347  969  639  427  325  221  27  -230  -470  -639  -722  -753  -783  -827  -856  -848  -817  -794  -811  -886  -1014  -1142  -1200  -1140  -971  -756  -574  -466  -418  -392  -367  -349  -340  -335  -332  -340  -377  -433  -462  -433  -385  -388  -480  -631  -767  -848  -863  -736  -378  114  468  498  228  -156  -438  -532  -475  -305  -78  98  141  30  -185  -402  -523  -519  -400  -207  -28  64  64  1  -79  -139  -159  -131  -54  38  57  -63  -288  -492  -598  -629  -634  -629  -611  -586  -565  -549  -507  -372  -73  350  728  922  958  918  834  709  546  348  106  -180  -491  -781  -996  -1094  -1081  -1006  -915  -816  -704  -601  -541  -524  -538  -580  -653  -748  -873  -1043  -1211  -1223  -940  -361  386  1091  1634  2180  2886  3491  3481  2567  853  -1207  -2946  -3844  -3948  -3693  -3287  -2617  -1781  -1147  -849  -687  -511  -364  -301  -300  -316  -328  -322  -288  -224  -162  -132  -129  -105  -10  144  290  373  400  403  405  410  410  397  382  432  645  1025  1436  1744  1958  2142  2320  2480  2599  2656  2663  2653  2647  2652  2659  2638  2542  2358  2148  1986  1852  1675  1460  1269  1099  866  540  199  -83  -315  -570  -857  -1081  -1175  -1149  -1023  -824  -607  -444  -395  -458  -563  -633  -651  -634  -600  -560  -507  -427  -333  -271  -314  -515  -809  -1029  -1090  -1033  -908  -706  -460  -268  -189  -227  -370  -557  -683  -697  -621  -514  -434  -408  -450  -571  -733  -857  -910  -907  -845  -709  -556  -480  -480  -496  -509  -539  -590  -656  -711  -743  -750  -711  -606  -466  -363  -326  -329  -340  -349  -345  -313  -255  -236  -351  -590  -814  -911  -902  -879  -884  -857  -722  -487  -275  -219  -307  -419  -486  -511  -511  -486  -423  -297  -114  63  165  187  175  180  255  419  585  594  398  88  -208  -405  -517  -641  -808  -948  -1023  -1068  -1099  -1083  -990  -846  -714  -629  -598  -625  -715  -791  -667  -289  109  318  436  729  1367  2275  3176  3744  3652  2689  1005  -953  -2743  -3942  -4160  -3448  -2398  -1612  -1253  -1115  -980  -823  -707  -627  -523  -379  -212  -14  194  332  340  231  80  -26  -58  -45  -24  -6  11  58  192  441  743  1010  1225  1400  1493  1476  1404  1376  1435  1574  1814  2159  2523  2800  2977  3138  3320  3440  3424  3318  3206  3109  2975  2759  2484  2221  1981  1688  1326  1012  837  768  728  648  500  308  85  -177  -430  -594  -672  -733  -809  -888  -974  -1064  -1127  -1139  -1095  -984  -806  -624  -516  -494  -511  -525  -517  -482  -432  -390  -375  -402  -487  -603  -688  -695  -621  -503  -403  -361  -374  -402  -390  -306  -184  -98  -72  -77  -84  -84  -83  -94  -127  -176  -225  -272  -322  -381  -469  -581  -661  -667  -639  -632  -651  -673  -689  -690  -638  -510  -368  -304  -297  -262  -195  -153  -177  -270  -392  -481  -483  -410  -363  -385  -405  -395  -400  -441  -502  -548  -535  -458  -347  -216  -66  91  245  386  497  561  576  541  465  377  306  249  211  201  196  151  47  -95  -250  -392  -463  -415  -277  -137  -84  -160  -343  -588  -819  -1002  -1169  -1310  -1387  -1345  -1074  -497  351  1252  1912  2314  2666  3005  3144  2809  1684  -190  -2144  -3478  -4033  -3994  -3589  -3011  -2355  -1641  -984  -584  -480  -522  -574  -568  -464  -272  -73  46  80  71  57  49  50  72  120  178  229  290  381  481  560  626  691  744  785  857  1001  1188  1353  1492  1650  1823  1940  1970  1964  2028  2239  2534  2757  2849  2865  2822  2643  2286  1869  1556  1362  1183  978  800  685  578  395  122  -149  -331  -420  -469  -522  -583  -629  -640  -620  -593  -589  -651  -789  -953  -1097  -1205  -1276  -1302  -1266  -1147  -959  -769  -651  -633  -676  -720  -723  -682  -636  -616  -615  -618  -623  -639  -666  -669  -599  -470  -345  -268  -239  -241  -254  -276  -324  -408  -506  -576  -601  -600  -594  -588  -585  -596  -630  -679  -707  -672  -553  -369  -195  -122  -182  -325  -470  -575  -632  -651  -631  -554  -423  -280  -167  -96  -66  -58  -38  15  91  179  298  453  605  708  744  733  710  672  513  116  -417  -806  -908  -809  -657  -548  -493  -463  -463  -520  -618  -706  -748  -732  -656  -515  -345  -218  -142  -19  269  802  1541  2308  2935  3358  3448  2974  1859  209  -1770  -3591  -4587  -4505  -3677  -2549  -1513  -926  -797  -796  -679  -435  -193  -52  9  53  108  168  224  251  198  26  -211  -393  -469  -469  -388  -180  131  428  632  769  873  932  945  958  1018  1131  1265  1395  1514  1631  1778  2004  2306  2595  2777  2844  2842  2801  2726  2622  2524  2463  2408  2308  2169  2029  1865  1588  1141  585  78  -235  -363  -423  -489  -553  -596  -633  -685  -774  -922  -1116  -1284  -1356  -1315  -1198  -1038  -862  -717  -650  -664  -719  -766  -782  -792  -829  -871  -875  -829  -758  -740  -820  -915  -929  -850  -699  -517  -376  -322  -379  -580  -887  -1156  -1263  -1201  -1045  -881  -768  -718  -705  -692  -667  -641  -627  -625  -639  -682  -759  -839  -874  -833  -731  -619  -554  -558  -625  -721  -803  -835  -786  -638  -445  -312  -277  -295  -319  -343  -368  -384  -355  -238  -32  218  442  585  649  659  555  241  -222  -613  -787  -789  -725  -660  -620  -609  -631  -689  -766  -819  -827  -799  -782  -865  -1120  -1447  -1565  -1231  -483  368  1017  1423  1792  2333  3036  3523  3269  2151  555  -1016  -2189  -2819  -3064  -3087  -2848  -2357  -1775  -1220  -775  -541  -518  -597  -691  -769  -796  -688  -377  44  365  487  485  453  424  392  361  345  351  371  405  472  560  623  629  615  689  940  1294  1571  1750  1957  2215  2425  2560  2681  2797  2863  2876  2889  2974  3147  3325  3411  3388  3256  2958  2444  1793  1198  788  555  431  353  290  225  153  61  -80  -268  -435  -530  -590  -677  -781  -856  -906  -966  -1044  -1115  -1161  -1182  -1181  -1158  -1121  -1091  -1084  -1101  -1121  -1101  -984  -766  -535  -396  -361  -369  -376  -380  -404  -445  -465  -440  -417  -465  -596  -741  -788  -677  -477  -327  -282  -290  -286  -256  -244  -301  -424  -552  -625  -645  -664  -709  -739  -711  -651  -614  -630  -681  -705  -648  -514  -356  -237  -195  -278  -527  -867  -1118  -1163  -997  -692  -371  -143  -27  36  94  150  207  284  373  443  486  501  483  400  192  -148  -491  -699  -775  -796  -781  -719  -651  -620  -624  -643  -656  -645  -598  -527  -482  -507  -599  -757  -938  -984  -727  -93  873  1971  2935  3618  3957  3837  3072  1539  -591  -2745  -4202  -4517  -3783  -2640  -1760  -1299  -1080  -933  -732  -468  -257  -176  -198  -262  -330  -378  -399  -406  -414  -391  -283  -95  105  258  363  445  508  555  593  619  650  723  843  980  1111  1217  1274  1299  1387  1626  1995  2339  2515  2553  2611  2747  2873  2923  2921  2909  2898  2868  2799  2690  2534  2308  1985  1551  1045  578  256  84  -25  -164  -330  -468  -561  -617  -625  -592  -557  -552  -573  -638  -784  -981  -1130  -1182  -1158  -1077  -960  -844  -757  -712  -700  -704  -710  -719  -735  -756  -767  -745  -673  -578  -517  -519  -572  -640  -688  -706  -708  -684  -588  -405  -207  -94  -111  -221  -345  -451  -564  -666  -711  -699  -666  -640  -628  -620  -608  -586  -545  -484  -422  -389  -387  -395  -427  -524  -665  -778  -823  -827  -823  -794  -695  -549  -429  -368  -329  -262  -159  -48  38  103  191  341  519  628  571  316  -19  -255  -331  -332  -348  -402  -467  -507  -529  -599  -761  -966  -1108  -1152  -1144  -1119  -1075  -1025  -1045  -1147  -1156  -936  -515  44  647  1173  1623  2139  2807  3430  3597  2949  1403  -708  -2740  -4054  -4383  -3897  -2984  -2074  -1408  -970  -677  -476  -321  -187  -77  -30  -89  -229  -378  -445  -385  -257  -138  -57  -2  104  344  645  840  909  959  1036  1079  1031  916  803  732  704  741  892  1180  1558  1927  2219  2461  2713  2988  3269  3516  3655  3640  3504  3340  3220  3111  2909  2559  2130  1780  1598  1516  1391  1118  726  372  180  125  112  84  7  -141  -340  -535  -704  -855  -975  -1020  -961  -822  -653  -488  -339  -226  -185  -241  -383  -563  -713  -791  -819  -847  -892  -940  -978  -997  -974  -873  -699  -537  -435  -308  -108  48  18  -219  -535  -750  -825  -863  -941  -1045  -1104  -1037  -834  -573  -358  -252  -238  -256  -276  -312  -377  -450  -496  -506  -498  -496  -525  -603  -719  -837  -933  -989  -984  -932  -883  -867  -882  -916  -956  -981  -924  -700  -331  29  251  337  363  385  397  333  138  -126  -320  -388  -388  -393  -437  -512  -582  -646  -736  -841  -915  -944  -945  -915  -837  -726  -635  -591  -582  -593  -638  -714  -727  -528  -25  784  1766  2606  3002  2934  2538  1816  752  -602  -2164  -3629  -4497  -4455  -3560  -2193  -920  -178  -63  -391  -797  -981  -864  -512  -99  161  200  116  58  101  208  308  367  401  442  500  568  639  711  803  928  1070  1202  1308  1373  1409  1446  1493  1546  1636  1804  2014  2190  2326  2484  2674  2833  2931  2987  2990  2913  2795  2709  2680  2659  2563  2307  1874  1392  1044  850  678  458  254  123  41  -51  -165  -262  -318  -341  -338  -328  -352  -444  -585  -726  -829  -863  -820  -731  -642  -579  -539  -515  -504  -516  -575  -669  -719  -653  -503  -356  -272  -248  -260  -302  -382  -486  -586  -658  -681  -670  -699  -797  -859  -798  -696  -659  -667  -667  -659  -660  -664  -660  -647  -629  -614  -609  -623  -655  -682  -688  -679  -665  -656  -658  -679  -712  -747  -760  -708  -567  -365  -166  -16  101  212  302  365  416  448  409  236  -55  -377  -657  -871  -1012  -1082  -1100  -1097  -1092  -1082  -1059  -1025  -997  -985  -996  -1041  -1111  -1145  -1028  -711  -330  7  388  863  1366  1895  2447  2871  2933  2417  1237  -410  -2090  -3321  -3805  -3560  -2822  -1933  -1257  -956  -898  -873  -813  -759  -735  -699  -600  -452  -345  -306  -238  -85  87  207  242  193  111  68  103  200  355  592  873  1076  1149  1148  1141  1171  1260  1381  1464  1480  1476  1575  1877  2304  2652  2828  2898  2951  3009  3040  3004  2916  2820  2691  2430  2025  1634  1417  1373  1378  1290  1036  674  327  47  -176  -336  -414  -426  -403  -389  -438  -594  -806  -960  -1005  -988  -952  -895  -802  -673  -531  -419  -357  -322  -296  -289  -310  -334  -332  -331  -387  -511  -653  -751  -782  -729  -580  -386  -247  -203  -213  -228  -221  -184  -134  -91  -58  -50  -145  -421  -793  -1046  -1078  -971  -855  -808  -852  -966  -1084  -1124  -1049  -909  -785  -688  -584  -461  -351  -307  -347  -427  -499  -546  -568  -569  -567  -570  -563  -508  -364  -121  167  422  595  666  638  525  324  32  -260  -437  -498  -548  -647  -740  -752  -722  -763  -891  -1002  -1031  -1012  -990  -945  -833  -678  -570  -590  -716  -733  -381  284  949  1470  1919  2357  2818  3184  3115  2379  1037  -659  -2312  -3483  -3890  -3534  -2679  -1748  -1198  -1152  -1267  -1207  -966  -699  -535  -502  -550  -623  -668  -634  -481  -252  -60  24  19  -37  -116  -181  -194  -124  20  188  354  530  692  818  927  1038  1158  1294  1474  1738  2060  2329  2470  2504  2489  2469  2463  2473  2495  2543  2620  2688  2667  2500  2233  1987  1819  1688  1528  1317  1103  953  872  815  702  411  -85  -614  -965  -1098  -1097  -1011  -828  -604  -483  -558  -756  -901  -899  -801  -682  -577  -514  -523  -606  -725  -820  -857  -813  -664  -445  -258  -182  -213  -307  -432  -550  -627  -654  -656  -662  -686  -724  -768  -828  -900  -948  -921  -791  -611  -482  -456  -508  -583  -631  -644  -645  -660  -698  -744  -766  -741  -697  -681  -669  -606  -498  -407  -363  -359  -369  -372  -378  -409  -453  -474  -450  -387  -313  -242  -150  -2  164  260  240  144  49  -2  -48  -162  -359  -573  -730  -809  -820  -787  -745  -720  -720  -736  -748  -750  -756  -771  -785  -818  -941  -1184  -1430  -1485  -1140  -254  930  1912  2598  3284  3988  4323  3845  2400  309  -1767  -3158  -3566  -3277  -2805  -2387  -2022  -1644  -1165  -648  -293  -162  -167  -205  -198  -132  -50  13  57  84  88  67  29  -8  -30  -20  28  95  146  186  246  325  417  579  872  1235  1524  1669  1708  1704  1701  1737  1865  2124  2457  2729  2879  2938  2948  2932  2911  2902  2897  2841  2666  2377  2085  1858  1633  1332  982  671  458  323  190  -15  -298  -584  -783  -861  -859  -831  -790  -720  -614  -495  -410  -377  -380  -397  -416  -428  -435  -441  -445  -443  -436  -442  -496  -586  -598  -461  -307  -320  -512  -755  -917  -972  -968  -923  -812  -642  -482  -383  -325  -283  -287  -369  -496  -590  -617  -604  -588  -602  -672  -791  -925  -1038  -1107  -1103  -986  -757  -507  -352  -315  -342  -382  -424  -463  -482  -491  -542  -634  -698  -691  -618  -510  -400  -314  -248  -174  -69  56  185  303  370  326  143  -111  -319  -444  -525  -593  -658  -721  -767  -802  -855  -918  -939  -892  -831  -834  -899  -935  -886  -807  -779  -749  -602  -347  -58  288  801  1571  2554  3439  3695  3013  1545  -364  -2263  -3643  -4284  -4221  -3586  -2666  -1756  -1034  -623  -500  -484  -436  -333  -193  -49  56  120  176  225  214  102  -56  -126  -31  168  359  515  684  855  959  960  873  755  669  639  649  692  770  894  1113  1491  1982  2409  2651  2752  2794  2812  2817  2815  2806  2789  2771  2748  2678  2521  2313  2107  1829  1365  809  425  314  330  289  90  -270  -671  -939  -1021  -997  -948  -907  -882  -877  -890  -922  -966  -1023  -1088  -1137  -1153  -1154  -1154  -1147  -1112  -1041  -946  -829  -671  -492  -363  -315  -309  -310  -338  -436  -596  -756  -857  -890  -887  -878  -882  -907  -928  -894  -793  -676  -561  -430  -301  -217  -180  -185  -263  -437  -644  -788  -842  -863  -923  -1036  -1153  -1223  -1196  -1002  -644  -259  5  125  157  160  168  177  154  56  -138  -400  -661  -853  -945  -962  -952  -934  -908  -876  -853  -861  -908  -980  -1046  -1086  -1099  -1094  -1080  -1083  -1139  -1256  -1352  -1320  -1062  -495  259  916  1377  1722  2019  2291  2326  1781  615  -905  -2399  -3376  -3542  -3138  -2660  -2313  -2016  -1759  -1621  -1538  -1346  -1002  -651  -432  -336  -286  -245  -199  -149  -141  -199  -254  -232  -152  -81  -56  -52  -12  107  271  386  429  481  635  875  1083  1190  1247  1360  1592  1903  2168  2306  2363  2448  2616  2861  3149  3398  3497  3385  3103  2784  2558  2433  2315  2133  1849  1401  832  352  114  68  98  167  286  427  508  464  297  69  -161  -355  -471  -506  -504  -494  -457  -366  -240  -140  -96  -81  -62  -34  -9  33  135  283  400  423  358  268  219  227  259  291  317  333  338  337  335  330  328  343  391  455  483  425  285  128  0]
