reading_id,reading_time,wire_id,result_classification,heart_rate,heart_rate_alert,firmware_version,device_app_version,hardware_version,waveform_samples
976305a0-62c2-11ed-8080-808080808080,Sat Nov 12 19:45:42 UTC 2022,e100638c1a39,NSR,78,NONE,20001.171.50,2.10.0,Charge 5,[-2720  -3413  -3874  -4094  -4181  -4203  -4184  -4150  -4129  -4137  -4176  -4237  -4299  -4357  -4429  -4505  -4562  -4604  -4640  -4668  -4687  -4692  -4673  -4621  -4552  -4507  -4506  -4527  -4543  -4553  -4577  -4633  -4720  -4813  -4873  -4889  -4875  -4847  -4823  -4805  -4787  -4766  -4746  -4727  -4713  -4705  -4701  -4696  -4693  -4703  -4737  -4784  -4826  -4864  -4898  -4899  -4852  -4776  -4678  -4565  -4469  -4410  -4354  -4260  -4151  -4088  -4087  -4118  -4146  -4156  -4159  -4166  -4181  -4202  -4249  -4357  -4547  -4773  -4947  -5022  -5026  -5006  -4966  -4874  -4722  -4560  -4449  -4367  -4210  -3890  -3456  -3056  -2770  -2559  -2373  -2209  -2050  -1810  -1399  -789  -42  700  1292  1648  1762  1612  1128  342  -543  -1282  -1723  -1843  -1628  -1043  -257  366  659  789  964  1197  1381  1498  1649  1891  2152  2373  2667  3187  3831  4310  4504  4533  4539  4594  4724  4917  5160  5505  6020  6674  7307  7747  7954  8038  8173  8505  9062  9688  10167  10444  10646  10944  11466  12207  12958  13457  13679  13902  14481  15489  16615  17487  17999  18271  18486  18800  19264  19784  20224  20534  20772  21011  21300  21670  22131  22679  23277  23810  24150  24334  24584  25117  25886  26561  26909  27064  27369  28045  28938  29637  29956  30101  30374  30891  31558  32286  32767  32767  32767  32767  32767  32767  32767  32767  32767  32767  32767  32767  32767  32767  32767  32767  32767  32767  32767  32767  32767  32767  32767  32767  32767  32767  32767  32767  32767  32767  32767  32767  32767  32767  32767  32767  32767  32767  32767  32767  32767  32767  32767  32767  32767  32767  32767  32767  32767  32767  32767  32767  32767  32767  32767  32767  32767  32767  32767  32767  32767  32767  32767  32767  32767  32767  32767  32767  32767  32767  32767  32767  32767  32767  32767  32767  32767  32767  32767  32767  32767  32767  32767  32767  32767  32767  32767  32767  32767  32767  32767  32767  32767  32767  32767  32767  32767  32767  32767  32767  1451  -32768  -32768  -32768  -32768  -32768  -32768  -32768  -32768  -32768  -32768  -32768  -32768  -32768  -32768  -32768  -32768  -32768  -32768  -32768  -32768  -32768  -32768  -32768  -32768  -32768  -32768  -32768  -32768  -32768  -32768  -32768  -32768  -32768  -32768  -32768  -32768  -32768  -32768  -32768  -32768  -32768  -32768  -32768  -32768  -32768  -32768  -32768  -32768  -32768  -32768  -32768  -32768  -32768  -32768  -32768  -32768  -21604  -4727  10500  23605  32767  32767  32767  32767  32767  32767  32767  32767  32767  32767  32767  32767  32767  32767  32767  32767  32767  32767  32767  32767  32767  32767  32767  32767  32767  32767  32767  32219  31210  30731  30571  30508  30468  30468  30471  30309  29783  28888  27849  26898  25985  24754  23002  20926  18740  16417  13854  11108  8488  6269  4448  2824  1152  -698  -2647  -4314  -5210  -5303  -5037  -5042  -5993  -7935  -10122  -11887  -13073  -13947  -15021  -16550  -18263  -19877  -21458  -23083  -24695  -26245  -27681  -29014  -30300  -31392  -32009  -32094  -31828  -31484  -31343  -31236  -29766  -24579  -14450  -988  12605  24178  32767  32767  32767  32767  32767  32767  32767  32767  32767  32767  32767  32767  32767  32767  32767  32767  32767  32767  32767  32767  32767  32767  32767  32767  32767  32767  32767  32767  32767  32767  32767  32767  32767  32767  32767  32767  32767  32767  32767  32767  32767  32767  32767  32767  32767  32767  32767  32767  32767  32767  32767  32767  32767  32767  32767  32767  32767  32767  32767  32767  32767  32767  32767  32767  32767  32767  32767  32767  32767  32767  32767  32767  32767  32767  32767  32767  32767  32767  32767  31604  29709  27491  25367  23380  21212  18664  15727  12784  10498  9192  8691  8632  8583  7977  6386  4096  1954  475  -468  -1291  -2308  -3527  -4785  -5915  -6749  -7312  -7955  -8975  -10210  -11250  -11927  -12445  -13137  -14121  -15187  -16110  -16967  -17850  -18561  -18985  -19484  -20508  -21879  -22944  -23424  -23600  -23766  -23970  -24181  -24453  -24875  -25402  -25907  -26332  -26689  -27016  -27372  -27734  -28000  -28150  -28239  -28280  -28270  -28296  -28486  -28814  -29099  -29267  -29448  -29779  -30222  -30613  -30836  -30908  -30910  -30908  -30940  -31007  -31065  -31037  -30852  -30517  -30136  -29836  -29671  -29548  -29305  -28913  -28495  -28167  -27971  -27867  -27709  -27353  -26833  -26305  -25851  -25503  -25323  -25274  -25173  -24863  -24358  -23813  -23390  -23129  -22905  -22565  -22089  -21604  -21240  -20966  -20649  -20258  -19885  -19630  -19524  -19503  -19450  -19316  -19175  -19102  -19000  -18715  -18273  -17820  -17449  -17182  -16966  -16715  -16413  -16115  -15842  -15559  -15250  -14949  -14691  -14495  -14375  -14321  -14280  -14192  -14057  -13957  -13932  -13871  -13696  -13523  -13468  -13481  -13415  -13148  -12675  -12098  -11545  -11118  -10844  -10687  -10596  -10516  -10378  -10150  -9887  -9694  -9610  -9592  -9532  -9305  -8855  -8190  -7389  -6672  -6270  -6182  -6254  -6397  -6586  -6762  -6852  -6846  -6790  -6735  -6692  -6605  -6403  -6112  -5848  -5669  -5537  -5438  -5387  -5309  -5120  -4785  -4250  -3570  -3016  -2753  -2621  -2331  -1719  -862  -38  504  740  777  607  49  -969  -2147  -3010  -3378  -3387  -3119  -2543  -1782  -1151  -839  -778  -814  -851  -853  -794  -655  -485  -404  -512  -790  -1105  -1314  -1375  -1344  -1303  -1269  -1117  -695  -80  417  589  489  308  196  175  191  202  203  204  220  262  347  494  668  792  837  844  861  900  960  1074  1315  1685  2039  2211  2201  2132  2090  2081  2076  2040  1952  1826  1704  1627  1596  1593  1600  1612  1620  1594  1500  1346  1186  1060  960  864  779  724  658  511  293  107  60  215  507  763  881  895  865  822  761  666  567  519  546  620  716  844  991  1105  1166  1201  1239  1290  1335  1341  1311  1267  1217  1176  1172  1224  1327  1456  1573  1646  1670  1673  1674  1677  1676  1672  1668  1681  1729  1809  1896  1961  1986  1971  1943  1949  2020  2129  2220  2267  2260  2153  1889  1497  1133  981  1103  1390  1684  1890  1982  1969  1869  1718  1602  1589  1644  1686  1683  1640  1571  1474  1323  1137  1019  1071  1323  1717  2131  2445  2563  2432  2150  1915  1787  1671  1502  1316  1171  1092  1064  1051  1025  972  902  851  834  839  851  863  872  881  893  904  885  790  595  332  90  -63  -137  -78  364  1366  2619  3545  3918  3964  3942  3857  3488  2634  1387  143  -713  -1083  -1123  -1034  -920  -814  -720  -607  -414  -160  17  36  -25  -72  -91  -99  -103  -95  -55  42  193  318  333  240  118  25  -34  -84  -93  50  425  899  1225  1323  1306  1302  1343  1393  1446  1562  1778  2093  2471  2809  3028  3166  3283  3372  3423  3469  3533  3616  3710  3804  3852  3804  3652  3412  3142  2932  2777  2593  2382  2221  2092  1874  1528  1125  728  354  35  -213  -433  -644  -809  -889  -893  -885  -932  -1036  -1140  -1168  -1086  -932  -784  -689  -650  -648  -658  -664  -652  -612  -556  -507  -475  -459  -478  -552  -657  -724  -712  -670  -662  -697  -746  -786  -813  -845  -912  -1025  -1154  -1237  -1230  -1116  -930  -761  -677  -675  -713  -772  -851  -932  -990  -1027  -1070  -1133  -1210  -1287  -1354  -1370  -1276  -1097  -944  -880  -888  -931  -997  -1075  -1134  -1152  -1137  -1120  -1163  -1325  -1578  -1805  -1925  -1942  -1852  -1634  -1354  -1155  -1088  -1099  -1128  -1157  -1171  -1109  -908  -610  -359  -254  -277  -356  -407  -377  -257  -50  201  397  480  456  324  86  -211  -509  -745  -870  -876  -794  -680  -583  -527  -513  -558  -681  -872  -1062  -1147  -1084  -956  -851  -776  -717  -727  -950  -1438  -1870  -1731  -909  223  1256  1938  2241  2424  2671  2791  2517  1729  389  -1268  -2646  -3252  -3081  -2413  -1561  -865  -548  -510  -519  -500  -474  -461  -465  -468  -452  -414  -357  -295  -232  -174  -137  -130  -142  -151  -118  -15  126  229  266  266  256  232  172  69  -37  -56  70  285  475  590  652  680  686  683  678  669  660  675  743  859  999  1157  1316  1440  1522  1579  1584  1487  1297  1093  946  862  807  723  553  315  101  -29  -90  -111  -117  -124  -143  -160  -133  -62  -7  -13  -66  -130  -174  -209  -264  -322  -308  -153  126  406  542  488  278  -24  -310  -475  -511  -466  -359  -170  112  427  674  810  861  847  772  669  597  588  618  656  700  755  815  836  797  765  819  946  1066  1124  1113  1038  895  722  600  563  571  580  578  576  587  614  618  509  218  -157  -402  -383  -148  115  244  238  180  119  80  72  81  88  93  119  204  342  480  571  628  668  674  631  557  463  350  242  186  204  254  235  93  -96  -239  -322  -359  -369  -386  -424  -472  -486  -435  -359  -321  -337  -395  -469  -549  -671  -823  -818  -473  104  605  891  1133  1596  2356  3203  3697  3455  2407  750  -1092  -2583  -3369  -3440  -3038  -2478  -1962  -1511  -1104  -802  -629  -498  -328  -121  71  196  240  239  240  273  338  445  623  845  1022  1108  1114  1070  1024  1039  1140  1275  1355  1353  1310  1281  1320  1450  1622  1747  1763  1664  1492  1312  1194  1187  1304  1515  1725  1845  1869  1837  1786  1737  1703  1676  1641  1596  1554  1515  1450  1326  1156  979  791  568  310  47  -198  -435  -685  -926  -1111  -1243  -1390  -1562  -1693  -1742  -1743  -1746  -1767  -1779  -1730  -1616  -1512  -1484  -1514  -1552  -1570  -1562  -1537  -1501  -1459  -1415  -1350  -1244  -1149  -1170  -1320  -1477  -1507  -1388  -1239  -1212  -1283  -1318  -1308  -1344  -1441  -1550  -1639  -1678  -1610  -1384  -1071  -848  -839  -1040  -1328  -1546  -1619  -1545  -1334  -1065  -890  -899  -1052  -1233  -1342  -1341  -1245  -1112  -1013  -977  -983  -1013  -1083  -1215  -1381  -1533  -1636  -1639  -1503  -1289  -1091  -931  -782  -650  -577  -571  -594  -622  -658  -695  -712  -699  -651  -568  -455  -334  -216  -82  77  229  344  416  449  460  460  433  352  231  125  66  42  36  36  24  -20  -97  -177  -234  -270  -302  -339  -388  -425  -427  -403  -370  -387  -539  -756  -832  -708  -456  -75  426  982  1562  2160  2769  3257  3307  2705  1553  172  -1025  -1769  -2148  -2394  -2522  -2375  -1994  -1642  -1462  -1381  -1320  -1263  -1133  -817  -383  -67  -31  -251  -572  -812  -879  -762  -476  -122  136  231  208  125  -2  -155  -270  -290  -238  -178  -134  -88  -41  -18  -23  -37  -43  -14  102  334  628  901  1120  1284  1394  1468  1535  1617  1703  1760  1782  1781  1755  1690  1601  1523  1471  1444  1453  1486  1494  1411  1228  1010  817  666  565  508  475  455  440  402  321  208  107  55  55  89  132  165  197  254  342  423  459  465  479  501  490  425  346  297  285  285  258  185  110  107  176  246  272  266  249  211  154  119  145  205  236  214  172  139  112  84  61  40  6  -51  -108  -133  -116  -81  -57  -52  -61  -78  -98  -114  -123  -125  -107  -57  9  59  71  52  13  -32  -63  -65  -33  20  80  125  122  49  -63  -154  -199  -213  -203  -137  13  211  372  442  425  346  245  176  164  197  246  282  300  319  363  426  478  507  528  549  580  626  670  636  463  219  43  -13  -7  -1  -23  -83  -165  -234  -275  -303  -330  -351  -356  -351  -353  -387  -464  -544  -579  -585  -589  -539  -326  47  380  553  813  1424  2214  2844  3225  3400  3387  3208  2780  1900  548  -969  -2178  -2666  -2310  -1430  -513  144  427  406  338  367  448  553  717  919  1070  1115  1057  928  766  636  608  662  712  721  715  717  722  697  608  465  319  209  142  116  137  207  302  393  471  522  532  525  552  652  800  926  987  989  970  996  1132  1370  1606  1739  1757  1703  1615  1510  1396  1269  1107  890  631  394  247  187  159  119  38  -103  -321  -592  -847  -1025  -1109  -1126  -1117  -1102  -1087  -1077  -1088  -1137  -1221  -1309  -1367  -1373  -1310  -1160  -945  -733  -590  -534  -543  -588  -647  -707  -796  -941  -1091  -1144  -1081  -990  -946  -942  -936  -896  -831  -773  -744  -740  -741  -739  -740  -766  -823  -876  -876  -820  -739  -684  -700  -743  -713  -615  -545  -537  -543  -526  -488  -449  -413  -380  -359  -354  -359  -364  -351  -308  -244  -190  -160  -145  -135  -131  -144  -185  -265  -372  -475  -530  -500  -382  -242  -172  -212  -326  -454  -553  -609  -633  -648  -657  -644  -595  -537  -522  -573  -656  -721  -752  -768  -777  -761  -694  -590  -495  -447  -448  -479  -514  -539  -541  -503  -427  -352  -290  -221  -157  -138  -163  -206  -264  -326  -391  -503  -706  -955  -1138  -1203  -1191  -1158  -1126  -1092  -1058  -1029  -964  -799  -531  -257  -80  -25  -82  -239  -401  -337  135  946  1812  2512  3016  3343  3462  3323  2756  1533  -237  -2040  -3287  -3574  -2925  -1876  -1055  -724  -679  -605  -462  -374  -374  -406  -431  -445  -459  -460  -420  -319  -188  -72  44  201  366  472  503  494  485  498  537  586  618  608  530  373  184  53  31  95  191  267  311  352  417  504  600  708  815  896  980  1135  1349  1533  1644  1714  1763  1770  1693  1522  1316  1176  1123  1092  1023  915  801  694  553  348  107  -101  -213  -212  -140  -79  -66  -72  -86  -138  -237  -329  -358  -357  -393  -456  -482  -446  -398  -396  -428  -432  -366  -243  -116  -32  -5  -20  -47  -59  -40  6  55  95  137  188  257  337  363  290  175  100  86  108  139  191  306  481  670  857  1029  1115  1070  954  856  808  798  818  869  951  1055  1163  1213  1155  1032  911  813  717  601  464  323  180  21  -143  -269  -332  -348  -354  -365  -375  -374  -370  -384  -431  -503  -578  -620  -593  -513  -441  -410  -406  -406  -404  -403  -397  -379  -352  -327  -314  -312  -313  -304  -274  -233  -202  -191  -191  -194  -199  -222  -296  -448  -625  -724  -719  -668  -632  -657  -750  -868  -983  -1094  -1216  -1353  -1467  -1510  -1507  -1538  -1653  -1829  -1992  -2073  -2034  -1869  -1648  -1488  -1436  -1454  -1500  -1544  -1560  -1536  -1497  -1487  -1492  -1322  -703  352  1465  2302  2761  2846  2664  2275  1522  286  -1212  -2524  -3227  -3178  -2599  -1918  -1469  -1304  -1269  -1207  -1085  -974  -934  -954  -999  -1025  -1006  -963  -920  -843  -670  -419  -199  -80  -28  16  79  146  208  281  363  421  438  434  441  489  604  782  997  1219  1436  1636  1811  1975  2157  2344  2484  2553  2567  2566  2597  2703  2879  3057  3168  3204  3201  3187  3171  3147  3115  3075  3030  2980  2920  2861  2825  2793  2697  2489  2198  1899  1656  1512  1461  1456  1441  1377  1278  1194  1154  1134  1089  980  757  404  29  -206  -279  -293  -315  -310  -244  -165  -130  -139  -165  -197  -246  -319  -409  -513  -630  -738  -801  -812  -803  -821  -898  -1013  -1125  -1229  -1337  -1445  -1544  -1636  -1732  -1840  -1940  -2008  -2047  -2074  -2090  -2101  -2127  -2173  -2194  -2156  -2095  -2063  -2060  -2051  -2000  -1913  -1831  -1788  -1783  -1800  -1824  -1821  -1721  -1480  -1182  -974  -909  -946  -1044  -1165  -1260  -1296  -1244  -1082  -856  -674  -597  -594  -600  -584  -556  -532  -520  -517  -505  -481  -454  -428  -385  -302  -150  61  268  406  483  540  598  643  668  672  655  639  661  728  828  928  991  1000  967  922  910  995  1215  1514  1794  2030  2215  2302  2266  2144  2025  1924  1704  1247  687  269  37  -157  -421  -728  -996  -1175  -1274  -1326  -1362  -1410  -1474  -1545  -1620  -1685  -1712  -1698  -1679  -1682  -1689  -1705  -1777  -1854  -1710  -1136  -199  794  1558  2004  2214  2321  2325  1932  807  -974  -2906  -4310  -4664  -4027  -2950  -2006  -1528  -1478  -1549  -1539  -1461  -1360  -1241  -1123  -1058  -1066  -1106  -1095  -980  -810  -673  -581  -494  -407  -352  -340  -344  -289  -98  210  511  699  768  773  767  776  800  849  949  1110  1300  1470  1591  1677  1759  1845  1945  2088  2286  2495  2638  2694  2685  2627  2535  2448  2412  2445  2504  2532  2496  2370  2148  1879  1655  1504  1369  1204  1046  946  900  853  772  682  619  587  563  522  439  326  253  259  298  315  321  365  479  629  736  771  764  751  745  756  792  860  960  1067  1138  1149  1137  1185  1366  1647  1912  2080  2147  2154  2149  2160  2184  2204  2212  2216  2251  2350  2483  2547  2436  2118  1681  1296  1085  1020  973  833  552  190  -110  -257  -283  -272  -278  -304  -335  -360  -377  -379  -350  -280  -192  -139  -157  -240  -372  -534  -678  -758  -802  -916  -1202  -1642  -2083  -2398  -2590  -2721  -2845  -2991  -3143  -3245  -3269  -3219  -3122  -3036  -3012  -3036  -3076  -3129  -3214  -3332  -3451  -3532  -3566  -3576  -3591  -3618  -3641  -3641  -3602  -3530  -3444  -3351  -3226  -3041  -2794  -2510  -2242  -2048  -1926  -1833  -1776  -1793  -1896  -2087  -2322  -2494  -2515  -2344  -1987  -1508  -1043  -739  -632  -638  -672  -716  -770  -797  -711  -437  -31  329  525  581  571  531  513  657  1078  1688  2347  3052  3768  4423  4999  5324  5061  4072  2636  1214  122  -458  -475  -133  320  843  1334  1590  1629  1637  1702  1808  1923  2016  2101  2215  2346  2444  2492  2514  2546  2602  2696  2854  3098  3367  3543  3556  3431  3253  3129  3120  3224  3385  3538  3659  3758  3832  3864  3823  3671  3443  3236  3106  3047  3027  3013  2983  2928  2840  2712  2557  2400  2267  2173  2102  1986  1738  1376  1011  682  313  -168  -715  -1200  -1591  -1944  -2263  -2537  -2823  -3170  -3541  -3878  -4156  -4371  -4519  -4594  -4611  -4621  -4688  -4840  -5017  -5101  -5038  -4888  -4732  -4578  -4420  -4308  -4271  -4274  -4277  -4269  -4246  -4202  -4113  -3933  -3661  -3359  -3101  -2938  -2876  -2876  -2891  -2897  -2889  -2868  -2850  -2853  -2868  -2842  -2705  -2450  -2179  -2011  -1961  -1965  -1977  -1982  -1958  -1868  -1722  -1576  -1474  -1415  -1381  -1364  -1363  -1370  -1374  -1374  -1374  -1356  -1285  -1178  -1096  -1073  -1086  -1108  -1141  -1195  -1235  -1229  -1209  -1225  -1253  -1193  -957  -607  -333  -240  -279  -361  -407  -377  -305  -258  -262  -281  -279  -247  -181  -61  123  324  459  501  495  483  470  438  391  355  353  377  412  458  522  597  645  662  721  900  1178  1465  1717  1930  2042  1988  1808  1639  1613  1718  1831  1882  1882  1827  1680  1464  1268  1152  1126  1180  1284  1428  1620  1826  1972  2020  1981  1874  1726  1557  1342  1080  871  793  828  997  1379  1983  2767  3642  4325  4530  4200  3317  1953  487  -717  -1566  -1992  -1902  -1372  -679  -95  271  450  509  512  510  541  620  732  846  931  972  995  1058  1190  1349  1468  1523  1534  1523  1508  1509  1534  1580  1638  1702  1768  1854  1981  2126  2238  2307  2348  2364  2366  2411  2552  2751  2906  2972  2970  2908  2749  2476  2135  1838  1679  1645  1663  1680  1686  1670  1589  1444  1314  1234  1099  806  390  -27  -387  -661  -810  -847  -859  -924  -1058  -1219  -1348  -1415  -1431  -1444  -1530  -1733  -2016  -2267  -2387  -2378  -2335  -2318  -2306  -2262  -2199  -2160  -2175  -2210  -2200  -2153  -2144  -2199  -2269  -2294  -2229  -2031  -1688  -1268  -884  -616  -500  -549  -742  -1009  -1261  -1440  -1533  -1543  -1482  -1340  -1069  -707  -398  -207  -77  29  74  15  -125  -269  -354  -382  -386  -399  -427  -440  -417  -378  -353  -345  -343  -349  -380  -453  -577  -752  -951  -1114  -1202  -1228  -1233  -1243  -1257  -1255  -1231  -1201  -1178  -1159  -1131  -1084  -1027  -989  -975  -952  -874  -707  -479  -294  -211  -174  -127  -86  -70  -48  18  122  229  363  578  829  991  1035  1079  1276  1675  2148  2500  2651  2659  2600  2501  2376  2254  2169  2136  2146  2179  2220  2262  2317  2414  2571  2771  2950  3032  3016  2968  2934  2913  2896  2873  2846  2851  2952  3123  3303  3554  3905  4240  4558  4959  5390  5761  5938  5577  4414  2608  612  -967  -1633  -1496  -1079  -722  -571  -686  -934  -1138  -1256  -1335  -1428  -1549  -1645  -1657  -1616  -1604  -1631  -1647  -1636  -1627  -1644  -1687  -1726  -1703  -1561  -1291  -988  -767  -613  -445  -261  -132  -86  -83  -65  -15  41  66  68  114  266  494  688  779  773  714  652  610  589  575  559  553  574  619  695  831  1039  1268  1436  1494  1374  996  427  -113  -473  -653  -727  -784  -883  -1044  -1267  -1522  -1751  -1903  -1966  -1956  -1880  -1713  -1450  -1172  -985  -904  -858  -792  -691  -552  -388  -229  -89  69  308  601  845  1000  1133  1302  1478  1602  1688  1806  1999  2230  2433  2598  2781  3037  3321  3523  3605  3623  3629  3629  3599  3514  3392  3270  3152  3013  2847  2655  2417  2095  1705  1328  1031  833  735  693  619  444  164  -197  -636  -1126  -1584  -1924  -2133  -2253  -2320  -2356  -2371  -2376  -2394  -2453  -2554  -2672  -2765  -2814  -2848  -2930  -3076  -3220  -3306  -3387  -3571  -3880  -4231  -4531  -4738  -4874  -5028  -5266  -5554  -5807  -5979  -6070  -6110  -6119  -6077  -5940  -5718  -5514  -5430  -5461  -5536  -5610  -5715  -5905  -6137  -6270  -6239  -6142  -6117  -6181  -6270  -6365  -6498  -6655  -6765  -6764  -6626  -6381  -6127  -5943  -5825  -5734  -5627  -5500  -5401  -5241  -4753  -3831  -2724  -1720  -895  -249  202  400  113  -844  -2268  -3701  -4739  -5115  -4779  -3982  -3147  -2516  -2018  -1558  -1169  -900  -751  -687  -631  -507  -298  -70  116  271  407  494  533  603  778  1015  1186  1235  1212  1195  1248  1401  1600  1747  1812  1843  1884  1975  2193  2568  3014  3400  3645  3749  3759  3739  3728  3739  3776  3827  3871  3899  3926  3952  3965  3946  3882  3790  3704  3638  3590  3552  3506  3447  3375  3243  2984  2615  2246  1944  1700  1505  1390  1361  1372  1355  1236  979  662  414  284  233  209  180  136  82  31  -17  -64  -99  -118  -122  -96  3  212  473  659  720  726  781  938  1153  1314  1378  1395  1421  1465  1513  1541  1542  1565  1673  1844  1990  2081  2156  2243  2328  2400  2488  2635  2817  2945  2982  2983  3030  3161  3338  3475  3548  3600  3659  3711  3743  3791  3922  4154  4411  4586  4648  4620  4534  4432  4358  4326  4327  4373  4493  4689  4929  5166  5343  5426  5430  5398  5378  5381  5353  5205  4924  4622  4431  4372  4372  4360  4293  4160  3958  3677  3322  2942  2527  1970  1291  707  363  220  176  104  -178  -770  -1466  -1941  -2117  -2144  -2165  -2281  -2561  -2937  -3241  -3410  -3516  -3672  -3966  -4345  -4531  -4294  -3749  -3086  -2321  -1522  -815  -302  -286  -1115  -2769  -4892  -6919  -8185  -8348  -7738  -6976  -6323  -5787  -5453  -5334  -5291  -5192  -4989  -4742  -4543  -4391  -4212  -3981  -3717  -3414  -3087  -2794  -2559  -2354  -2159  -1967  -1746  -1464  -1140  -788  -355  124  478  635  724  885  1145  1458  1755  2029  2368  2808  3254  3609  3847  3966  4020  4165  4545  5132  5725  6130  6312  6361  6422  6606  6870  7042  7014  6824  6564  6291  6049  5894  5840  5843  5857  5848  5815  5775  5732  5675  5611  5557  5508  5409  5212  4967  4794  4729  4679  4528  4236  3843  3466  3223  3096  2960  2772  2603  2522  2503  2459  2313  2061  1791  1606  1510  1423  1290  1143  1039  959  813  536  144  -261  -555  -708  -800  -890  -960  -993  -1009  -1022  -1005  -933  -828  -749  -720  -728  -758  -807  -873  -965  -1105  -1288  -1467  -1619  -1783  -1999  -2243  -2451  -2608  -2746  -2864  -2924  -2936  -2993  -3188  -3491  -3770  -3940  -4017  -4062  -4120  -4182  -4219  -4234  -4289  -4451  -4692  -4918  -5117  -5427  -5971  -6622  -7101  -7318  -7410  -7493  -7567  -7606  -7608  -7595  -7609  -7709  -7944  -8249  -8460  -8474  -8335  -8204  -8263  -8517  -8750  -8758  -8441  -7730  -6753  -5886  -5436  -5551  -6367  -7797  -9420  -10862  -11894  -12199  -11669  -10693  -9669  -8672  -7787  -7211  -6925  -6715  -6456  -6150  -5827  -5542  -5348  -5231  -5127  -4982  -4721  -4278  -3744  -3313  -3051  -2890  -2749  -2559  -2290  -2019  -1840  -1734  -1604  -1387  -1088  -757  -442  -181  32  242  436  567  644  720  810  936  1208  1700  2255  2626  2760  2797  2878  3049  3260  3417  3480  3470  3398  3275  3148  3058  2947  2717  2408  2178  2100  2115  2160  2224  2287  2259  2062  1763  1520  1389  1331  1330  1407  1556  1715  1837  1938  2044  2138  2202  2243  2278  2322  2370  2413  2455  2488  2506  2513  2519  2510  2456  2348  2230  2165  2158  2172  2184  2194  2201  2192  2145  2070  2031  2063  2093  2044  1957  1923  1952  1992  2001  1988  1981  1975  1932  1839  1736  1674  1660  1670  1682  1687  1673  1628  1567  1541  1555  1531  1431  1322  1261  1242  1236  1222  1197  1172  1163  1172  1174  1118  978  790  623  509  443  411  391  358  319  321  389  470  474  382  250  143  83  60  65  122  250  390  467  555  887  1616  2551  3355  3923  4286  4376  4039  3099  1497  -409  -1854  -2265  -1763  -894  -136  249  280  217  231  283  335  419  546  679  777  834  871  918  994  1085  1158  1200  1245  1321  1392  1413  1389  1342  1287  1225  1169  1138  1134  1138  1139  1128  1065  900  654  431  311  270  252  248  273  316  346  346  324  315  381  560  809  1018  1115  1114  1069  1006  926  817  652  422  178  -17  -160  -286  -421  -563  -708  -839  -933  -997  -1048  -1079  -1092  -1113  -1168  -1247  -1314  -1338  -1286  -1131  -925  -775  -732  -761  -818  -903  -1042  -1212  -1336  -1378  -1352  -1260  -1099  -912  -779  -707  -627  -497  -336  -163  -13  55  17  -91  -212  -295  -326  -305  -215  -46  178  432  668  810  840  828  868  1011  1210  1354  1394  1375  1356  1373  1420  1472  1518  1555  1577  1581  1576  1573  1586  1629  1708  1804  1885  1942  1966  1931  1838  1743  1722  1802  1925  2035  2102  2104  2059  2011  1989  2047  2184  2301  2356  2428  2605  2847  3030  3091  3062  2980  2847  2624  2354  2269  2563  3216  4079  4936  5574  5918  6062  6131  6059  5529  4320  2655  1015  -116  -436  -107  344  578  666  812  1054  1266  1347  1312  1228  1158  1123  1110  1074  973  833  728  694  701  717  726  710  649  550  441  319  142  -104  -379  -626  -792  -843  -773  -616  -448  -343  -306  -303  -316  -369  -464  -535  -515  -413  -314  -316  -378  -381  -320  -285  -325  -431  -572  -734  -917  -1114  -1307  -1491  -1678  -1855  -1987  -2086  -2234  -2502  -2837  -3086  -3194  -3272  -3435  -3660  -3842  -3908  -3864  -3771  -3689  -3649  -3648  -3661  -3656  -3574  -3366  -3089  -2885  -2831  -2887  -2991  -3088  -3144  -3154  -3148  -3155  -3172  -3182  -3188  -3225  -3291  -3320  -3280  -3223  -3196  -3198  -3199  -3153  -3040  -2913  -2844  -2826  -2810  -2799  -2839  -2948  -3087  -3188  -3208  -3135  -2955  -2711  -2509  -2400  -2341  -2287  -2250  -2248  -2253  -2206  -2085  -1910  -1692  -1487  -1405  -1474  -1612  -1748  -1873  -1979  -2047  -2074  -2069  -2020  -1918  -1823  -1802  -1802  -1738  -1646  -1597  -1572  -1518  -1453  -1472  -1658  -1992  -2343  -2576  -2665  -2682  -2674  -2608  -2438  -2208  -2035  -1974  -1982  -1996  -1971  -1879  -1742  -1631  -1570  -1549  -1573  -1546  -1320  -930  -492  0  618  1415  2398  3397  4097  4271  3828  2753  1238  -286  -1438  -2000  -1854  -1166  -369  224  596  889  1166  1338  1350  1275  1183  1104  1114  1291  1586  1858  2046  2173  2255  2313  2378  2448  2489  2495  2489  2488  2482  2463  2459  2528  2696  2925  3153  3335  3447  3504  3552  3611  3639  3609  3581  3659  3886  4170  4358  4376  4256  4079  3919  3800  3720  3683  3683  3706  3728  3709  3605  3423  3215  3010  2796  2575  2370  2177  1970  1742  1531  1378  1274  1168  1040  907  796  740  761  841  955  1110  1328  1567  1712  1688  1505  1217  922  736  688  705  689  574  371  160  7  -92  -178  -278  -393  -508  -603  -675  -757  -882  -1015  -1127  -1236  -1327  -1389  -1451  -1503  -1499  -1429  -1323  -1217  -1107  -966  -788  -592  -416  -295  -219  -163  -120  -77  -16  56  139  238  322  351  332  298  269  259  292  395  538  651  690  633  442  125  -190  -377  -428  -410  -358  -269  -162  -72  -25  -40  -141  -310  -468  -552  -571  -562  -552  -558  -582  -607  -612  -588  -544  -500  -466  -442  -439  -485  -580  -648  -565  -288  70  358  510  518  308  -183  -772  -1013  -606  264  1159  1884  2485  2936  3083  2771  1885  452  -1154  -2390  -3021  -3162  -2911  -2318  -1568  -874  -350  -31  159  345  541  721  927  1183  1438  1616  1689  1687  1650  1608  1578  1555  1526  1518  1571  1674  1786  1876  1927  1941  1942  1946  1943  1911  1847  1786  1764  1796  1881  2010  2168  2326  2432  2461  2414  2288  2101  1924  1819  1791  1804  1829  1850  1858  1842  1775  1651  1501  1364  1254  1174  1110  982  710  330  -60  -453  -865  -1244  -1551  -1803  -1993  -2131  -2277  -2472  -2711  -2973  -3208  -3353  -3375  -3277  -3116  -2993  -2979  -3083  -3277  -3511  -3727  -3845  -3767  -3441  -2996  -2677  -2603  -2707  -2856  -2956  -3004  -3052  -3133  -3260  -3467  -3724  -3901  -3866  -3590  -3208  -2932  -2841  -2858  -2899  -2940  -2978  -3004  -3013  -3004  -2972  -2919  -2847  -2776  -2746  -2774  -2817  -2833  -2821  -2807  -2800  -2796  -2790  -2792  -2819  -2851  -2843  -2787  -2732  -2723  -2763  -2826  -2883  -2920  -2912  -2791  -2496  -2074  -1670  -1404  -1258  -1108  -830  -385  109  435  488  346  129  -98  -327  -552  -750  -932  -1113  -1270  -1370  -1410  -1409  -1400  -1416  -1478  -1565  -1632  -1661  -1667  -1642  -1542  -1325  -1029  -770  -604  -491  -394  -323  -262  -99  286  876  1577  2310  3091  3987  4859  5446  5605  5210  4275  3130  2183  1673  1681  2111  2704  3248  3658  3880  3926  3897  3866  3830  3745  3580  3363  3196  3172  3276  3438  3645  3879  4034  3979  3668  3237  2925  2841  2921  3059  3178  3241  3262  3317  3498  3786  4053  4199  4233  4224  4236  4310  4447  4595  4713  4829  4974  5153  5399  5719  6048  6335  6566  6742  6856  6869  6730  6458  6155  5927  5805  5721  5549  5211  4785  4450  4290  4224  4123  3914  3592  3198  2784  2394  2074  1807  1364  502  -575  -1348  -1661  -1850  -2241  -2840  -3483  -4020  -4380  -4607  -4810  -5004  -5148  -5274  -5465  -5737  -5988  -6104  -6069  -5970  -5896  -5868  -5850  -5806  -5736  -5660  -5600  -5568  -5563  -5564  -5536  -5451  -5326  -5210  -5112  -4991  -4820  -4635  -4504  -4452  -4449  -4450  -4426  -4357  -4256  -4200  -4207  -4161  -3972  -3683  -3393  -3183  -3069  -3005  -2946  -2888  -2847  -2820  -2769  -2656  -2505  -2388  -2335  -2313  -2301  -2314  -2362  -2420  -2440  -2398  -2315  -2227  -2177  -2178  -2200  -2207  -2188  -2149  -2105  -2051  -1968  -1845  -1694  -1543  -1422  -1345  -1278  -1184  -1068  -969  -915  -883  -837  -782  -751  -748  -780  -879  -1073  -1357  -1669  -1895  -1977  -1920  -1728  -1445  -1186  -1026  -921  -804  -690  -623  -592  -553  -495  -418  -287  -78  137  258  305  462  932  1787  2860  3843  4552  4989  5197  5131  4646  3664  2355  1100  354  354  908  1599  2126  2391  2461  2471  2498  2523  2476  2313  2088  1920  1863  1877  1920  1977  2037  2089  2114  2102  2064  1991  1862  1683  1498  1347  1231  1123  982  818  684  622  635  708  815  931  1040  1139  1245  1384  1551  1687  1747  1760  1804  1950  2210  2512  2741  2865  2955  3090  3279  3447  3496  3393  3198  3006  2847  2705  2567  2410  2196  1915  1620  1356  1129  944  776  560  319  163  130  169  236  299  339  362  374  353  270  142  5  -140  -290  -389  -412  -403  -417  -482  -573  -637  -659  -654  -634  -604  -573  -546  -530  -528  -530  -522  -494  -451  -399  -328  -236  -134  -36  28  42  22  -3  -1  59  147  210  244  262  260  223  130  -15  -170  -272  -298  -269  -205  -105  15  105  146  167  203  264  334  385  402  391  383  446  632  885  1065  1092  1001  873  785  758  773  814  868  943  1061  1214  1370  1535  1727  1904  2019  2077  2099  2109  2122  2137  2150  2161  2173  2199  2261  2351  2426  2456  2442  2374  2234  2050  1881  1743  1603  1433  1236  1034  852  715  612  507  471  688  1185  1760  2248  2626  2949  3260  3468  3301  2500  1064  -668  -2151  -2933  -2922  -2409  -1857  -1585  -1553  -1529  -1445  -1379  -1361  -1361  -1365  -1393  -1466  -1560  -1622  -1648  -1706  -1849  -2043  -2192  -2252  -2253  -2250  -2272  -2315  -2363  -2425  -2513  -2593  -2582  -2426  -2150  -1841  -1602  -1486  -1450  -1401  -1285  -1143  -1049  -1021  -1022  -1040  -1080  -1140  -1201  -1244  -1249  -1186  -1047  -883  -755  -628  -440  -225  -70  -9  -49  -161  -275  -360  -437  -514  -578  -629  -691  -809  -1025  -1322  -1635  -1941  -2212  -2379  -2439  -2467  -2503  -2524  -2495  -2410  -2290  -2154  -2043  -1996  -1995  -1989  -1955  -1894  -1820  -1748  -1684  -1623  -1563  -1487  -1384  -1279  -1204  -1156  -1081  -926  -730  -582  -468  -291  -56  121  175  139  72  14  -27  -74  -128  -171  -204  -228  -243  -256  -274  -297  -315  -316  -316  -375  -538  -763  -899  -798  -527  -314  -266  -306  -343  -346  -325  -315  -375  -553  -793  -964  -1014  -1001  -988  -996  -1017  -1028  -979  -817  -564  -329  -196  -166  -205  -296  -415  -508  -529  -476  -381  -271  -175  -120  -127  -236  -508  -923  -1332  -1573  -1616  -1545  -1468  -1455  -1562  -1807  -1984  -1764  -1028  20  1010  1664  2070  2553  3132  3425  3135  2224  829  -688  -1855  -2479  -2707  -2616  -2117  -1269  -343  382  761  830  721  529  336  236  275  420  590  716  784  823  850  853  847  868  925  999  1063  1090  1077  1063  1074  1084  1069  1057  1085  1143  1188  1204  1225  1292  1406  1532  1644  1730  1801  1876  1952  2006  2002  1881  1656  1458  1418  1563  1790  1959  2031  2050  2050  2036  2001  1946  1870  1769  1664  1584  1531  1493  1470  1475  1493  1455  1266  925  565  313  170  33  -207  -562  -912  -1132  -1211  -1213  -1208  -1228  -1267  -1306  -1334  -1330  -1242  -1029  -757  -554  -472  -461  -462  -452  -422  -340  -150  162  488  688  741  724  705  700  705  718  733  722  631  427  159  -70  -201  -266  -321  -372  -395  -386  -369  -371  -384  -364  -260  -47  246  544  782  975  1170  1347  1443  1427  1324  1189  1082  1038  1064  1159  1288  1394  1456  1507  1595  1734  1886  1995  2061  2116  2159  2188  2259  2442  2665  2745  2636  2513  2576  2908  3434  4002  4517  4940  5219  5200  4691  3657  2276  832  -495  -1734  -2923  -3868  -4229  -3918  -3243  -2620  -2280  -2195  -2207  -2215  -2206  -2200  -2164  -2033  -1808  -1560  -1363  -1241  -1164  -1092  -1019  -956  -890  -793  -647  -483  -345  -246  -180  -140  -128  -133  -112  16  311  745  1180  1453  1538  1527  1487  1412  1310  1247  1265  1317  1348  1370  1420  1512  1680  1979  2350  2618  2698  2645  2525  2318  1970  1526  1084  637  143  -300  -556  -639  -699  -854  -1079  -1264  -1355  -1376  -1367  -1357  -1361  -1365  -1341  -1283  -1224  -1192  -1185  -1184  -1169  -1119  -1027  -907  -783  -656  -511  -371  -281  -234  -179  -97  -23  12  14  0  -23  -76  -170  -275  -345  -366  -359  -349  -343  -319  -255  -165  -92  -50  -27  -8  20  73  144  210  246  258  273  315  374  417  438  500  685  974  1212  1259  1106  875  683  475  106  -401  -847  -1077  -1111  -1092  -1217  -1631  -2271  -2883  -3261  -3411  -3465  -3563  -3809  -4211  -4675  -5094  -5415  -5646  -5855  -6087  -6296  -6422  -6467  -6449  -6365  -6247  -6144  -6022  -5801  -5530  -5362  -5291  -5070  -4472  -3590  -2733  -2094  -1704  -1607  -1823  -2303  -3039  -4030  -5080  -5795  -5906  -5462  -4700  -3872  -3157  -2630  -2260  -1975  -1731  -1513  -1300  -1034  -632  -133  271  475  543  588  687  874  1113  1325  1459  1524  1554  1576  1607  1663  1743  1818  1872  1910  1955  2051  2229  2448  2637  2785  2935  3095  3220  3308  3415  3557  3682  3756  3793  3805  3774  3676  3538  3414  3319  3246  3202  3171  3097  2954  2787  2645  2515  2351  2127  1879  1671  1544  1499  1512  1538  1529  1462  1369  1305  1270  1228  1166  1100  1049  1022  1017  1023  1014  963  873  784  747  786  894  1024  1124  1176  1194  1204  1215  1204  1121  959  796  698  670  696  754  802  818  814  804  795  791  803  842  899  945  952  892  757  585  432  319  229  126  -7  -153  -275  -347  -378  -407  -468  -542  -552  -454  -290  -124  2  61  41  -42  -151  -245  -312  -374  -451  -519  -536  -513  -496  -515  -561  -586  -560  -501  -431  -330  -174  -8  64  -9  -166  -293  -343  -324  -255  -241  -399  -580  -447  91  895  1848  2771  3390  3536  3188  2385  1207  -161  -1403  -2302  -2830  -2943  -2686  -2317  -2026  -1822  -1657  -1457  -1182  -880  -616  -420  -314  -288  -297  -307  -313  -322  -335  -348  -360  -374  -396  -421  -425  -389  -307  -201  -113  -62  -19  56  173  306  433  536  598  636  699  806  922  1002  1049  1097  1161  1214  1236  1231  1222  1247  1336  1467  1573  1617  1617  1607  1595  1549  1402  1139  853  656  571  554  547  497  371  153  -153  -493  -761  -893  -916  -895  -885  -903  -941  -993  -1030  -1022  -969  -893  -810  -742  -710  -706  -681  -581  -408  -192  55  306  483  542  519  479  456  434  394  342  299  283  294  308  309  315  356  433  513  599  734  903  1030  1078  1074  1049  1013  995  1036  1137  1250  1336  1383  1399  1415  1447  1465  1427  1352  1304  1338  1452  1583  1664  1670  1628  1571  1505  1435  1383  1354  1338  1333  1326  1286  1188  1052  921  812  722  662  624  581  523  450  354  245  165  114  45  -70  -198  -307  -420  -553  -688  -846  -1049  -1162  -962  -421  272  912  1392  1667  1702  1534  1214  590  -584  -2228  -3880  -5060  -5505  -5236  -4537  -3752  -3062  -2510  -2109  -1870  -1754  -1700  -1675  -1659  -1619  -1526  -1383  -1230  -1116  -1068  -1073  -1107  -1166  -1247  -1295  -1174  -773  -215  187  235  -30  -409  -680  -767  -751  -717  -697  -693  -712  -765  -827  -821  -667  -379  -61  213  463  707  915  1050  1109  1123  1150  1246  1453  1777  2126  2361  2437  2428  2404  2377  2320  2222  2093  1954  1805  1634  1459  1331  1244  1126  944  727  517  359  293  311  358  384  372  335  299  275  239  154  32  -75  -149  -207  -284  -424  -626  -839  -1066  -1363  -1710  -1999  -2159  -2223  -2283  -2424  -2667  -2963  -3236  -3387  -3348  -3186  -3042  -2976  -2959  -2947  -2903  -2808  -2662  -2488  -2337  -2257  -2244  -2266  -2295  -2295  -2208  -2005  -1752  -1558  -1444  -1330  -1158  -976  -868  -833  -788  -664  -463  -214  97  522  1046  1517  1764  1785  1711  1657  1653  1663  1621  1480  1270  1027  691  229  -241  -571  -715  -733  -709  -687  -672  -660  -650  -627  -570  -489  -439  -463  -550  -651  -696  -614  -340  167  879  1719  2640  3563  4299  4713  4740  4221  3096  1623  197  -872  -1450  -1561  -1303  -834  -341  100  550  1010  1337  1441  1382  1234  999  672  319  53  -69  -94  -86  -79  -87  -142  -274  -452  -608  -701  -739  -760  -827  -993  -1219  -1377  -1333  -1038  -610  -275  -144  -150  -202  -265  -331  -377  -380  -361  -364  -374  -307  -102  189  434  564  628  716  844  946  932  752  460  187  17  -70  -153  -293  -489  -669  -777  -824  -861  -929  -1022  -1110  -1178  -1233  -1282  -1313  -1303  -1227  -1089  -931  -803  -749  -784  -875  -952  -968  -914  -821  -745  -712  -689  -660  -644  -644  -638  -607  -554  -518  -576  -787  -1083  -1297  -1310  -1131  -870  -668  -584  -576  -568  -527  -469  -413  -364  -330  -316  -321  -351  -411  -477  -509  -489  -440  -381  -295  -170  -46  49  135  202  209  135  20  -59  -67  -34  13  87  182  260  298  299  277  243  213  201  212  262  372  553  774  964  1080  1158  1272  1432  1572  1668  1823  2156  2658  3248  3920  4660  5285  5530  5251  4542  3639  2658  1533  272  -897  -1629  -1635  -978  -87  620  978  1059  1042  1042  1061  1075  1092  1112  1117  1116  1139  1194  1259  1320  1395  1533  1746  1964  2107  2169  2187  2188  2178  2138  2027  1798  1497  1272  1206  1241  1302  1373  1489  1684  1877  1912  1767  1575  1445  1392  1378  1362  1326  1275  1215  1171  1164  1184  1170  1035  736  331  -40  -271  -371  -426  -491  -567  -637  -706  -809  -952  -1118  -1331  -1642  -2040  -2418  -2656  -2739  -2742  -2727  -2708  -2686  -2700  -2829  -3110  -3441  -3663  -3712  -3614  -3416  -3186  -2997  -2870  -2782  -2710  -2661  -2656  -2688  -2723  -2741  -2749  -2761  -2778  -2776  -2715  -2568  -2357  -2149  -2006  -1944  -1947  -2014  -2159  -2350  -2494  -2526  -2433  -2221  -1940  -1684  -1529  -1466  -1456  -1509  -1669  -1935  -2234  -2467  -2581  -2598  -2576  -2550  -2524  -2478  -2372  -2177  -1901  -1614  -1391  -1244  -1113  -939  -743  -592  -498  -415  -297  -134  30  147  206  224  207  154  80  12  -56  -174  -364  -594  -814  -1014  -1200  -1344  -1426  -1480  -1539  -1606  -1680  -1773  -1897  -2048  -2135  -1975  -1479  -705  262  1288  2157  2695  2831  2500  1715  719  -277  -1274  -2131  -2587  -2619  -2312  -1715  -1040  -610  -499  -497  -406  -221  -69  -39  -125  -311  -558  -770  -866  -813  -609  -327  -77  97  209  294  386  465  493  487  483  502  540  583  621  675  783  944  1107  1223  1288  1361  1512  1727  1925  2062  2164  2267  2377  2470  2530  2558  2565  2564  2557  2517  2413  2253  2091  1972  1885  1795  1697  1628  1634  1702  1763  1755  1670  1577  1589  1741  1936  2063  2097  2078  2052  2035  2020  1998  1986  2010  2100  2255  2420  2521  2531  2474  2396  2334  2294  2264  2246  2252  2291  2354  2423  2500  2586  2659  2677  2568  2287  1933  1688  1619  1652  1703  1740  1760  1779  1818  1890  1994  2129  2296  2528  2839  3136  3294  3359  3454  3580  3671  3706  3702  3667  3579  3421  3221  3023  2851  2730  2684  2713  2794  2907  3019  3085  3057  2917  2724  2586  2554  2607  2691  2753  2736  2596  2352  2105  1945  1865  1800  1713  1614  1539  1513  1533  1568  1585  1564  1500  1409  1289  1084  785  489  299  235  257  302  312  226  49  -58  75  495  1195  2084  2917  3433  3462  2878  1687  83  -1598  -2982  -3764  -3832  -3364  -2698  -2084  -1705  -1630  -1702  -1751  -1760  -1763  -1775  -1798  -1828  -1872  -1952  -2066  -2189  -2325  -2476  -2613  -2726  -2842  -2931  -2912  -2806  -2728  -2723  -2746  -2746  -2697  -2603  -2490  -2385  -2304  -2259  -2235  -2184  -2064  -1869  -1669  -1564  -1545  -1517  -1444  -1356  -1282  -1195  -1044  -855  -713  -637  -564  -463  -360  -275  -208  -159  -147  -210  -377  -596  -784  -966  -1219  -1509  -1724  -1821  -1828  -1788  -1755  -1770  -1826  -1880  -1892  -1863  -1831  -1815  -1809  -1806  -1819  -1873  -1971  -2076  -2145  -2173  -2178  -2158  -2065  -1847  -1550  -1291  -1140  -1085  -1078  -1079  -1069  -1051  -1025  -994  -956  -898  -816  -719  -620  -534  -470  -429  -422  -460  -515  -546  -538  -506  -481  -477  -489  -528  -599  -663  -678  -646  -601  -574  -571  -572  -573  -591  -642  -710  -757  -753  -695  -615  -556  -534  -545  -587  -656  -739  -812  -855  -863  -849  -828  -815  -820  -847  -893  -969  -1129  -1432  -1847  -2233  -2454  -2508  -2492  -2478  -2483  -2499  -2520  -2539  -2557  -2568  -2544  -2468  -2363  -2290  -2297  -2278  -2022  -1506  -940  -480  -62  503  1330  2302  3061  3109  2106  219  -1887  -3510  -4262  -4176  -3610  -2921  -2281  -1786  -1495  -1386  -1383  -1421  -1466  -1494  -1461  -1317  -1079  -849  -720  -688  -696  -687  -627  -515  -351  -120  156  406  556  575  510  444  417  416  418  419  433  476  544  638  798  1039  1321  1608  1886  2126  2314  2461  2579  2691  2804  2883  2915  2938  2997  3089  3173  3230  3283  3350  3391  3370  3314  3231  3068  2816  2525  2222  1884  1509  1170  967  914  949  992  1001  977  942  925  934  940  916  868  827  809  799  777  737  687  635  614  624  594  482  336  221  162  150  159  172  179  160  91  -21  -141  -226  -241  -169  -36  123  318  549  768  931  1032  1066  1002  816  543  267  45  -149  -372  -635  -931  -1267  -1609  -1872  -2014  -2049  -2017  -1963  -1926  -1913  -1910  -1908  -1918  -1973  -2094  -2232  -2267  -2111  -1823  -1557  -1409  -1364  -1367  -1375  -1378  -1393  -1430  -1463  -1425  -1277  -1077  -931  -883  -901  -963  -1076  -1212  -1314  -1383  -1465  -1545  -1555  -1493  -1440  -1441  -1437  -1330  -1160  -1036  -800  -162  821  1754  2271  2238  1693  770  -298  -1370  -2457  -3434  -3988  -3918  -3292  -2386  -1572  -1120  -994  -957  -865  -763  -714  -714  -731  -739  -724  -659  -518  -335  -197  -150  -165  -198  -183  -27  332  840  1315  1586  1648  1616  1582  1590  1658  1774  1900  2006  2097  2227  2481  2854  3202  3385  3368  3187  2924  2707  2608  2603  2637  2668  2686  2704  2721  2724  2724  2768  2904  3088  3168  3003  2613  2178  1871  1725  1675  1648  1608  1557  1506  1461  1416  1366  1341  1371  1430  1480  1513  1530  1538  1541  1531  1477  1332  1071  729  411  261  344  560  743  857  993  1194  1401  1549  1639  1717  1818  1919  1980  2018  2098  2269  2493  2667  2753  2799  2847  2912  3009  3113  3164  3129  3023  2867  2660  2418  2194  2026  1911  1818  1735  1669  1616  1567  1528  1506  1493  1465  1401  1283  1098  881  713  630  575  421  47  -526  -1127  -1593  -1874  -2032  -2173  -2337  -2452  -2437  -2271  -2030  -1833  -1709  -1562  -1296  -924  -512  -124  162  297  332  392  534  702  825  950  1182  1511  1819  2024  2136  2203  2256  2293  2300  2260  2163  2026  1899  1811  1686  1380  876  403  276  607  1215  1843  2376  2845  3196  3165  2500  1147  -709  -2621  -4094  -4955  -5285  -5106  -4476  -3731  -3299  -3346  -3741  -4305  -4897  -5361  -5596  -5631  -5542  -5403  -5306  -5272  -5225  -5136  -5044  -4966  -4932  -4961  -5019  -5073  -5112  -5110  -5004  -4730  -4353  -4019  -3779  -3618  -3565  -3642  -3792  -3962  -4144  -4337  -4500  -4591  -4620  -4616  -4585  -4509  -4368  -4181  -4013  -3901  -3820  -3730  -3625  -3518  -3404  -3272  -3098  -2853  -2560  -2311  -2147  -2045  -1990  -1976  -1979  -1980  -1976  -1973  -1975  -1978  -1964  -1921  -1848  -1758  -1661  -1570  -1463  -1270  -952  -591  -314  -168  -147  -230  -338  -366  -266  -69  137  313  521  825  1151  1365  1445  1473  1507  1538  1551  1544  1526  1519  1576  1749  2013  2259  2384  2375  2279  2173  2102  2040  1982  1996  2086  2191  2286  2354  2379  2378  2373  2371  2368  2355  2333  2316  2321  2355  2409  2471  2550  2683  2878  3103  3301  3412  3412  3308  3142  2975  2828  2661  2442  2217  2061  1983  1935  1877  1789  1684  1608  1579  1566  1540  1505  1479  1438  1329  1141  926  733  566  394  198  -10  -219  -417  -577  -681  -729  -740  -737  -735  -735  -735  -736  -736  -737  -733  -708  -628  -474  -307  -219  -204  -103  275  924  1609  2110  2350  2256  1677  609  -601  -1500  -1920  -2026  -2014  -1909  -1623  -1131  -552  -1]
