reading_id,reading_time,wire_id,result_classification,heart_rate,heart_rate_alert,firmware_version,device_app_version,hardware_version,waveform_samples
321baf00-6397-11ed-8080-808080808080,Sun Nov 13 21:07:35 UTC 2022,e100638c1a39,UNREADABLE,0,NONE,20001.171.50,2.10.0,Charge 5,[4080  4534  4785  4767  4529  4201  3950  3867  3991  4351  4841  5235  5384  5251  4820  4189  3584  3178  2984  2914  2870  2791  2628  2328  1909  1489  1132  772  403  147  31  -63  -225  -421  -586  -690  -737  -746  -737  -736  -780  -900  -1059  -1141  -1078  -958  -865  -732  -454  -81  217  345  295  73  -280  -673  -996  -1185  -1272  -1353  -1461  -1544  -1558  -1508  -1426  -1315  -1127  -855  -585  -402  -307  -280  -362  -632  -1088  -1622  -2087  -2361  -2396  -2216  -1888  -1548  -1334  -1275  -1322  -1422  -1535  -1619  -1661  -1688  -1743  -1892  -2188  -2561  -2847  -2998  -3106  -3244  -3420  -3646  -3892  -4068  -4136  -4152  -4175  -4209  -4227  -4217  -4193  -4164  -4096  -3943  -3710  -3445  -3203  -3031  -2954  -2942  -2923  -2826  -2682  -2606  -2489  -2075  -1533  -1244  -1047  -569  38  303  -136  -1469  -3532  -5757  -7598  -8827  -9367  -9192  -8442  -7429  -6451  -5609  -4874  -4221  -3659  -3252  -3048  -2972  -2911  -2838  -2758  -2647  -2517  -2418  -2375  -2373  -2381  -2369  -2321  -2257  -2212  -2192  -2158  -2072  -1947  -1823  -1718  -1646  -1603  -1512  -1337  -1197  -1204  -1287  -1309  -1207  -1017  -812  -621  -434  -276  -191  -154  -96  50  319  632  849  904  805  572  261  -54  -355  -630  -838  -957  -1005  -997  -939  -854  -793  -795  -841  -889  -912  -899  -852  -776  -695  -645  -637  -639  -593  -474  -347  -281  -236  -130  50  252  428  604  820  1051  1237  1333  1350  1376  1465  1578  1673  1739  1780  1840  1972  2150  2275  2297  2254  2212  2204  2220  2274  2372  2463  2503  2513  2537  2579  2584  2502  2376  2292  2281  2324  2389  2464  2570  2705  2817  2875  2889  2868  2832  2806  2770  2700  2621  2520  2323  2004  1661  1413  1291  1256  1271  1321  1387  1437  1461  1472  1473  1439  1346  1219  1112  1032  949  862  779  675  562  584  955  1821  3123  4475  5408  5687  5240  4129  2575  799  -979  -2466  -3377  -3550  -3065  -2201  -1232  -409  72  244  285  299  299  290  280  266  250  265  371  593  842  977  947  828  733  706  731  795  897  1001  1047  1011  921  830  776  786  879  1018  1125  1157  1133  1086  1036  1009  1060  1236  1488  1692  1798  1862  1915  1935  1912  1845  1720  1542  1328  1108  931  812  701  534  300  64  -104  -204  -266  -302  -311  -303  -290  -277  -255  -223  -234  -406  -820  -1385  -1874  -2128  -2183  -2157  -2096  -1978  -1812  -1643  -1494  -1386  -1323  -1223  -1039  -856  -738  -642  -533  -407  -251  -99  -2  36  51  68  88  137  289  595  1003  1377  1604  1681  1689  1689  1655  1500  1188  821  518  280  38  -213  -415  -496  -446  -347  -301  -294  -257  -208  -210  -312  -516  -735  -907  -1064  -1202  -1304  -1434  -1652  -1990  -2487  -3079  -3569  -3861  -4061  -4290  -4559  -4808  -4976  -5065  -5134  -5223  -5312  -5359  -5371  -5433  -5639  -5962  -6255  -6405  -6393  -6290  -6192  -6049  -5630  -4740  -3442  -2138  -1296  -1020  -1136  -1550  -2197  -2852  -3377  -4081  -5363  -6951  -8070  -8321  -7831  -6899  -5889  -5122  -4669  -4362  -4045  -3739  -3545  -3464  -3378  -3151  -2768  -2353  -1974  -1427  -286  1654  3897  5571  6245  5986  4929  3433  2182  1595  1532  1725  2064  2396  2379  1772  839  132  -120  -99  1  121  241  363  576  974  1480  1886  2087  2152  2196  2300  2570  3105  3813  4433  4820  4961  4652  3519  1613  -362  -1701  -2278  -2390  -2353  -2297  -2203  -2015  -1717  -1325  -869  -433  -142  42  518  1849  4145  6713  8640  9602  9845  9775  9735  9822  9778  9215  8129  6823  5402  3784  1833  -368  -2126  -2440  -685  2760  6313  8355  8481  7220  5416  3874  2868  2077  1123  68  -639  -544  546  2291  3878  4759  5060  5152  5111  4619  3381  1761  573  154  202  406  699  1087  1504  1917  2497  3516  4958  6368  7263  7606  7678  7641  7472  7113  6478  5600  4773  4314  4254  4421  4578  4310  3140  1148  -844  -2093  -2582  -2780  -3106  -3686  -4417  -5102  -5548  -5707  -5692  -5607  -5469  -5244  -4909  -4442  -3710  -2541  -1082  206  1031  1439  1545  1245  301  -1154  -2557  -3472  -3874  -3884  -3474  -2557  -1335  -272  340  542  534  483  454  447  451  453  415  262  -24  -334  -529  -597  -618  -628  -617  -580  -519  -445  -390  -353  -297  -221  -130  -18  84  113  30  -144  -385  -695  -1063  -1422  -1731  -2024  -2328  -2577  -2632  -2382  -1867  -1321  -990  -906  -948  -1009  -1055  -1094  -1138  -1207  -1352  -1625  -2006  -2409  -2749  -2959  -3028  -3018  -2990  -2980  -3023  -3166  -3426  -3753  -4056  -4282  -4454  -4632  -4830  -5003  -5098  -5095  -4996  -4829  -4650  -4521  -4467  -4473  -4509  -4527  -4442  -4180  -3816  -3552  -3534  -3757  -4086  -4344  -4461  -4500  -4516  -4496  -4433  -4365  -4329  -4327  -4334  -4345  -4406  -4563  -4775  -4927  -4932  -4787  -4574  -4398  -4286  -4179  -4028  -3811  -3385  -2385  -570  1641  3380  4190  4321  4208  4052  3847  3559  3220  2901  2615  2368  2205  2133  2089  2012  1880  1695  1449  1136  819  609  539  563  656  821  1034  1230  1353  1428  1585  2012  2750  3528  4029  4279  4543  4941  5379  5715  5872  5791  5428  4873  4343  3939  3606  3309  3064  2878  2719  2483  2022  1285  459  -147  -379  -230  315  1224  2273  3180  3826  4267  4609  4953  5305  5558  5650  5602  5415  5082  4565  3820  2982  2364  2118  2063  1824  1022  -435  -2070  -3167  -3519  -3402  -3033  -2461  -1791  -1211  -859  -729  -729  -804  -960  -1161  -1305  -1281  -1019  -576  -155  60  12  -273  -678  -1065  -1418  -1770  -2070  -2286  -2462  -2637  -2829  -3044  -3240  -3347  -3359  -3351  -3427  -3675  -4092  -4533  -4806  -4843  -4696  -4470  -4274  -4155  -4081  -4012  -3901  -3651  -3213  -2835  -3019  -3931  -4926  -4916  -3072  703  5302  8864  10264  9596  7533  4935  2617  1082  558  960  1762  2350  2441  2090  1551  1066  682  368  186  272  713  1365  1905  2144  2157  2126  2232  2579  3056  3413  3564  3630  3699  3671  3250  2243  968  53  -261  -193  24  311  627  905  1064  1095  1079  1137  1360  1717  2055  2245  2262  2127  1869  1587  1403  1352  1406  1541  1693  1739  1603  1362  1164  1078  1090  1222  1504  1851  2082  2079  1849  1531  1308  1259  1334  1405  1247  624  -369  -1274  -1748  -1804  -1588  -1262  -934  -537  -29  442  800  1162  1511  1533  881  -623  -2951  -5694  -8056  -9310  -9277  -8295  -6934  -5744  -4971  -4503  -4150  -3850  -3605  -3378  -3108  -2812  -2566  -2385  -2186  -1892  -1535  -1226  -1011  -801  -504  -178  53  182  290  470  809  1308  1801  2085  2090  1875  1574  1318  1114  873  596  387  311  365  535  762  960  1122  1318  1574  1840  2046  2151  2187  2250  2426  2679  2870  2898  2763  2519  2237  1950  1645  1331  1067  943  1104  1706  2775  4357  6569  8978  10601  10998  10551  9806  9097  8493  7760  6433  4221  1582  -514  -1521  -1369  197  3264  6927  9901  11644  12329  12395  12314  12203  11795  11106  10738  11190  12129  12553  11340  7847  2776  -1957  -4859  -5779  -5465  -4934  -4890  -5375  -5999  -6404  -6529  -6487  -6333  -6064  -5748  -5513  -5411  -5391  -5393  -5393  -5378  -5337  -5266  -5175  -5065  -4940  -4815  -4715  -4662  -4652  -4652  -4631  -4579  -4503  -4382  -4181  -3914  -3645  -3431  -3288  -3204  -3165  -3158  -3155  -3136  -3109  -3127  -3231  -3377  -3468  -3471  -3427  -3390  -3377  -3381  -3390  -3399  -3405  -3413  -3429  -3450  -3457  -3444  -3428  -3438  -3476  -3504  -3484  -3423  -3365  -3317  -3239  -3120  -3018  -2962  -2798  -2309  -1497  -552  339  981  1132  658  -440  -1989  -3666  -5225  -6475  -7224  -7400  -7007  -6141  -5067  -4029  -3191  -2683  -2513  -2551  -2650  -2685  -2582  -2370  -2159  -2033  -1966  -1893  -1810  -1747  -1672  -1505  -1253  -1018  -872  -806  -785  -785  -764  -664  -469  -235  -15  188  366  493  560  581  589  636  755  930  1106  1228  1278  1283  1313  1443  1696  2003  2259  2400  2437  2413  2352  2243  2058  1790  1475  1179  953  812  726  606  362  21  -288  -498  -638  -731  -779  -791  -784  -784  -844  -998  -1197  -1338  -1376  -1355  -1333  -1333  -1348  -1368  -1395  -1428  -1456  -1471  -1466  -1441  -1403  -1376  -1396  -1490  -1636  -1772  -1848  -1859  -1848  -1855  -1876  -1893  -1910  -1943  -1988  -2024  -2042  -2060  -2090  -2119  -2128  -2113  -2087  -2081  -2151  -2323  -2531  -2671  -2706  -2683  -2656  -2644  -2635  -2626  -2649  -2717  -2778  -2780  -2730  -2670  -2634  -2626  -2630  -2630  -2623  -2613  -2609  -2610  -2611  -2606  -2593  -2580  -2577  -2577  -2551  -2482  -2395  -2336  -2316  -2308  -2308  -2335  -2394  -2478  -2569  -2617  -2512  -2106  -1393  -651  -212  -169  -418  -791  -1070  -980  -247  1081  2473  3363  3692  3852  4306  5257  6468  7511  8304  9063  9862  10737  11832  13170  14495  15266  14994  13563  11008  7502  3795  809  -1088  -1891  -1694  -846  240  1298  2102  2579  2907  3212  3395  3375  3305  3558  4478  5992  7684  9224  10454  11324  11866  12095  12041  11771  11266  10475  9591  9033  9163  10090  11437  12368  12033  10115  7379  5165  3951  3292  2802  2377  2027  1756  1414  798  -47  -799  -1179  -1166  -900  -558  -187  327  812  760  116  -639  -1299  -2062  -3088  -4302  -5429  -6181  -6479  -6435  -6189  -5873  -5641  -5640  -5989  -6672  -7241  -6614  -3862  188  3322  4654  5257  5937  6547  6936  6833  5813  4027  1909  -479  -3012  -5172  -6718  -7952  -9057  -9844  -10112  -9867  -9331  -8718  -7888  -6571  -5039  -4002  -3728  -3865  -4052  -4248  -4568  -5007  -5410  -5660  -5765  -5813  -5888  -6006  -6105  -6077  -5800  -5268  -4671  -4168  -3605  -2669  -1369  -170  520  740  744  709  706  744  765  628  209  -384  -908  -1308  -1745  -2418  -3464  -4785  -6045  -6953  -7445  -7579  -7263  -6292  -4852  -3559  -2774  -2321  -1827  -1075  -195  472  765  818  841  986  1351  1969  2768  3601  4342  4929  5309  5458  5406  5190  4882  4625  4523  4578  4741  4958  5167  5315  5367  5272  4990  4593  4271  4148  4211  4380  4600  4880  5240  5618  5910  6054  6042  5944  5866  5845  5856  5876  5902  5907  5811  5502  4935  4280  3832  3696  3742  3834  3923  3983  3988  3991  4195  4798  5702  6601  7357  8030  8689  9448  10491  11755  12885  13677  14180  14442  14507  14470  14377  14190  13917  13744  14039  15064  16480  17543  17950  17939  17654  16872  15051  11491  6139  293  -4309  -6943  -7996  -8272  -8407  -8658  -9009  -9353  -9603  -9743  -9810  -9835  -9826  -9795  -9769  -9762  -9764  -9767  -9771  -9773  -9763  -9730  -9686  -9653  -9638  -9623  -9596  -9554  -9501  -9441  -9388  -9359  -9341  -9279  -9129  -8919  -8733  -8625  -8586  -8587  -8591  -8532  -8342  -8050  -7787  -7657  -7639  -7651  -7638  -7583  -7489  -7380  -7294  -7254  -7244  -7239  -7217  -7147  -7010  -6841  -6701  -6600  -6499  -6376  -6247  -6141  -6071  -6031  -5996  -5939  -5847  -5720  -5579  -5468  -5426  -5443  -5468  -5440  -5326  -5146  -4935  -4685  -4414  -4193  -4054  -3966  -3914  -3920  -3980  -4056  -4126  -4192  -4261  -4327  -4373  -4373  -4305  -4170  -4018  -3910  -3847  -3800  -3750  -3704  -3671  -3643  -3598  -3538  -3480  -3413  -3325  -3237  -3175  -3118  -2961  -2563  -1876  -966  41  926  1458  1487  825  -665  -2732  -4743  -6128  -6727  -6736  -6354  -5663  -4801  -3990  -3364  -2932  -2668  -2536  -2466  -2392  -2298  -2227  -2205  -2216  -2225  -2218  -2206  -2223  -2291  -2388  -2468  -2529  -2504  -1915  250  4780  10899  16288  19258  20186  20351  20454  20596  20752  20916  21083  21250  21368  21193  20347  18739  16735  15072  15009  17572  21933  25686  27083  26401  25327  25349  26467  27274  25990  21523  14603  7631  2643  56  -811  -1007  -1332  -1879  -2357  -2735  -3220  -3870  -4521  -4992  -5263  -5445  -5637  -5881  -6199  -6553  -6834  -6990  -7068  -7126  -7197  -7282  -7360  -7429  -7513  -7630  -7755  -7839  -7871  -7886  -7928  -8051  -8296  -8604  -8836  -8934  -8950  -8938  -8913  -8889  -8884  -8910  -8962  -9014  -9043  -9052  -9054  -9049  -9036  -9024  -9050  -9158  -9331  -9483  -9551  -9552  -9536  -9533  -9550  -9579  -9607  -9625  -9632  -9634  -9628  -9605  -9562  -9509  -9477  -9512  -9633  -9780  -9839  -9758  -9603  -9492  -9453  -9396  -9231  -8990  -8753  -8284  -6828  -3843  -196  2479  3814  4873  6539  8510  9857  10179  9812  9269  8923  8958  9371  9953  10407  10600  10554  10272  9741  9055  8443  8095  7995  8004  8065  8190  8355  8558  9019  10049  11357  11881  10986  9327  8032  7840  8964  10886  12481  12781  11588  9345  6630  3973  1793  94  -1244  -1889  -1596  -844  -231  142  427  699  969  1229  1441  1627  1883  2193  2422  2509  2519  2512  2524  2639  2947  3370  3677  3720  3532  3245  2973  2735  2554  2521  2628  2719  2659  2446  2161  1892  1695  1648  1951  2817  4102  5271  5979  6470  7234  8395  9570  10302  10529  10520  10536  10664  10862  11049  11169  11227  11210  11006  10522  9906  9449  9258  9183  8894  7984  6361  4526  3136  2450  2334  2535  2819  3025  3140  3226  3293  3287  3115  2638  1825  875  64  -444  -644  -634  -491  -225  110  396  570  655  664  587  474  519  993  1973  3165  4157  4629  4084  1923  -1589  -5142  -7650  -8987  -9540  -9713  -9741  -9726  -9727  -9771  -9851  -9948  -10040  -10093  -10070  -9957  -9799  -9678  -9630  -9631  -9651  -9672  -9684  -9676  -9629  -9543  -9436  -9323  -9208  -9102  -9020  -8951  -8848  -8677  -8458  -8249  -8101  -8001  -7914  -7840  -7791  -7730  -7608  -7410  -7193  -7044  -6994  -6984  -6918  -6730  -6461  -6247  -6224  -6426  -6731  -6954  -7025  -6992  -6909  -6817  -6756  -6738  -6744  -6757  -6763  -6743  -6664  -6514  -6323  -6163  -6079  -6061  -6070  -6084  -6095  -6081  -5985  -5746  -5290  -4515  -3422  -2295  -1508  -1176  -1212  -1612  -2432  -3535  -4572  -5286  -5705  -5759  -4779  -1885  2851  7999  11869  13880  14670  15016  15101  14754  13853  12341  10281  8128  6471  5435  4728  4104  3549  3149  3040  3546  4985  7104  8983  9824  9739  9471  9653  10458  11464  11889  11209  9441  7113  5039  3854  3661  4095  4667  4977  4890  4523  3926  3025  1905  879  289  273  742  1441  2044  2391  2551  2629  2662  2590  2290  1728  1046  430  -64  -531  -1039  -1529  -1921  -2200  -2385  -2544  -2774  -3088  -3377  -3563  -3646  -3567  -3132  -2250  -1168  -295  175  360  453  481  335  -33  -515  -959  -1421  -2089  -2910  -3592  -3969  -4069  -3980  -3788  -3542  -3253  -2986  -2857  -2881  -2973  -3104  -3317  -3587  -3803  -3899  -3910  -3895  -3878  -3865  -3866  -3900  -3966  -4027  -4023  -3912  -3688  -3382  -3077  -2888  -2871  -3000  -3203  -3435  -3685  -3837  -3664  -3099  -2327  -1618  -1188  -1139  -1510  -2243  -3041  -3533  -3605  -3398  -3118  -2931  -2891  -2958  -3042  -2955  -2428  -1420  -335  333  442  86  -580  -1272  -1688  -1766  -1646  -1475  -1343  -1298  -1416  -1805  -2481  -3296  -4039  -4575  -4930  -5226  -5496  -5662  -5654  -5418  -4828  -3661  -1764  631  2986  4912  6296  7096  7394  7451  7428  7172  6364  4894  3085  1495  489  5  -182  -48  553  1447  2294  2991  3451  3475  3279  3339  3435  2940  1717  -195  -2558  -4327  -4448  -3005  -771  1517  3091  3596  3547  3515  3507  3230  2395  1065  -212  -975  -1242  -1252  -1119  -823  -335  280  846  1199  1356  1463  1612  1769  1845  1829  1762  1594  1205  567  -143  -663  -864  -751  -371  120  488  667  806  1107  1764  2921  4441  5904  6954  7484  7584  7371  6818  5830  4527  3302  2496  2136  2054  2081  2120  2139  2119  2019  1801  1507  1241  1059  953  901  878  808  609  316  83  5  51  176  375  603  759  777  648  417  179  23  -34  -39  -35  -41  -43  -29  -15  -28  -81  -165  -253  -304  -311  -312  -361  -496  -727  -1009  -1222  -1190  -716  224  1305  2085  2417  2455  2347  2074  1614  1113  771  638  648  755  937  1141  1294  1394  1503  1633  1769  1915  2064  2205  2323  2382  2320  2062  1576  979  497  246  181  276  582  1071  1551  1857  1972  1913  1676  1284  806  341  -15  -149  209  1346  2991  4376  5043  5063  4616  3949  3472  3458  3938  4910  6155  7105  7226  6242  4227  1838  -18  -1019  -1535  -2079  -2946  -3932  -4466  -4266  -3451  -2160  -599  833  1800  2260  2334  2002  1143  -13  -905  -1255  -1245  -1111  -935  -734  -531  -348  -183  19  385  1109  2304  3671  4655  4987  4657  3652  2196  743  -447  -1310  -1778  -1855  -1562  -867  142  1160  1877  2224  2353  2437  2538  2669  2862  3121  3346  3342  2852  1719  130  -1413  -2533  -3307  -4017  -4733  -5307  -5607  -5659  -5574  -5437  -5309  -5235  -5168  -4943  -4437  -3806  -3359  -3202  -3213  -3290  -3427  -3622  -3827  -4002  -4132  -4203  -4228  -4246  -4282  -4294  -4166  -3745  -2999  -2171  -1608  -1383  -1292  -1163  -952  -666  -380  -198  -148  -205  -452  -1034  -1894  -2733  -3292  -3540  -3640  -3802  -4104  -4444  -4681  -4773  -4776  -4726  -4620  -4481  -4380  -4378  -4497  -4700  -4898  -5021  -5088  -5169  -5285  -5396  -5458  -5455  -5400  -5324  -5263  -5200  -4997  -4507  -3841  -3302  -3023  -2907  -2861  -2879  -2992  -3205  -3470  -3747  -4033  -4334  -4665  -5023  -5338  -5533  -5589  -5523  -5352  -5110  -4816  -4416  -3835  -3050  -2133  -1310  -824  -633  -481  -243  92  661  1720  3381  5264  6633  7135  7042  6766  6542  6360  5958  5112  4059  3343  3284  3827  4649  5324  5628  5636  5514  5363  5222  5118  5067  5053  5049  5049  5082  5209  5471  5805  6050  6030  5603  4763  3715  2782  2235  2134  2307  2534  2716  2875  3054  3233  3337  3282  3012  2585  2181  2000  2138  2333  1975  672  -1239  -2975  -3916  -3766  -2579  -942  217  155  -1197  -3117  -4563  -4639  -2973  -255  2081  3066  2893  2432  2187  2023  1564  539  -800  -1846  -2393  -2673  -2814  -2753  -2471  -2113  -1859  -1724  -1599  -1416  -1176  -880  -516  -145  104  179  108  -79  -358  -643  -780  -653  -261  376  1203  2067  2812  3372  3776  4072  4234  4209  4004  3720  3473  3235  2891  2495  2231  2173  2295  2597  3030  3462  3786  3945  3882  3562  3087  2687  2506  2521  2670  2897  3121  3255  3270  3209  3105  2839  2193  1195  241  -363  -732  -1109  -1528  -1879  -2093  -2183  -2172  -2082  -1969  -1873  -1681  -1217  -549  1  241  297  408  671  909  788  118  -1032  -2391  -3532  -4122  -4000  -3030  -1355  309  1240  1383  1110  711  358  197  319  787  1541  2028  1413  -495  -3028  -5195  -6004  -4978  -2753  -534  957  1675  1935  2175  2641  3206  3606  3740  3624  3272  2790  2381  2154  2037  1913  1745  1595  1507  1468  1445  1444  1535  1784  2112  2307  2224  1896  1474  1125  947  923  973  1007  919  642  262  -38  -207  -299  -225  295  1386  2663  3547  3859  3847  3769  3695  3588  3424  3208  2877  2212  1030  -481  -1803  -2585  -2910  -3029  -3077  -3080  -3053  -3005  -2939  -2865  -2802  -2812  -2962  -3200  -3372  -3411  -3415  -3552  -3919  -4420  -4843  -5044  -4901  -4234  -3097  -1953  -1257  -1032  -1038  -1160  -1465  -2018  -2818  -3804  -4733  -5272  -5294  -4923  -4419  -4066  -3986  -4136  -4416  -4635  -4383  -3193  -1178  750  1774  1886  1534  1108  826  717  722  832  1092  1451  1706  1619  1072  211  -595  -1088  -1285  -1345  -1405  -1502  -1579  -1590  -1563  -1499  -1363  -1191  -1105  -1180  -1350  -1503  -1588  -1603  -1559  -1484  -1421  -1392  -1389  -1403  -1432  -1464  -1464  -1406  -1310  -1223  -1170  -1154  -1214  -1416  -1749  -2090  -2341  -2519  -2671  -2783  -2813  -2760  -2696  -2713  -2819  -2938  -2998  -2966  -2814  -2479  -1977  -1499  -1230  -1176  -1231  -1296  -1308  -1246  -1136  -1010  -851  -641  -425  -268  -187  -172  -259  -521  -948  -1384  -1657  -1754  -1786  -1837  -1913  -1983  -2028  -2050  -2064  -2088  -2107  -2056  -1853  -1514  -1149  -813  -480  -166  72  282  626  1252  2108  2906  3363  3302  2520  1026  -647  -1875  -2549  -2905  -3080  -3051  -2709  -2021  -1219  -653  -436  -414  -447  -569  -875  -1299  -1637  -1791  -1857  -1970  -2165  -2337  -2265  -1705  -656  490  1272  1577  1608  1582  1541  1398  1090  691  357  168  81  20  -31  -30  37  140  265  426  625  861  1218  1906  3035  4279  5060  5062  4370  3404  2677  2369  2362  2668  3454  4667  5968  7034  7716  7974  7803  7181  6181  5246  4795  4747  4964  5341  5465  4913  3606  1761  -316  -2232  -3478  -3740  -2990  -1416  448  2119  3632  5027  5963  6254  6077  5670  5241  4976  4942  5098  5364  5654  5890  6024  6061  6046  6008  5946  5860  5777  5722  5704  5742  5872  6100  6349  6485  6422  6162  5726  5180  4672  4324  4167  4119  3987  3612  3053  2541  2203  1966  1667  1187  634  232  -61  -519  -1152  -1662  -1868  -1840  -1673  -1385  -919  -223  553  1106  1300  1279  1259  1260  938  -176  -2009  -3863  -5172  -5890  -6197  -6253  -6183  -6050  -5846  -5565  -5251  -4908  -4445  -3842  -3276  -2940  -2847  -2932  -3194  -3603  -4042  -4422  -4740  -4992  -5148  -5195  -5113  -4862  -4496  -4191  -4065  -4084  -4139  -4125  -4014  -3883  -3808  -3774  -3723  -3644  -3570  -3519  -3487  -3470  -3466  -3469  -3477  -3486  -3475  -3414  -3293  -3114  -2835  -2432  -2004  -1717  -1613  -1569  -1420  -1072  -502  244  1023  1634  1947  1952  1715  1329  902  535  324  332  555  883  1169  1401  1676  1991  2202  2175  1879  1424  988  646  376  172  20  -130  -317  -516  -660  -704  -657  -501  -191  205  514  668  742  820  966  1224  1525  1734  1782  1685  1476  1226  1013  881  855  976  1260  1614  1901  2022  1817  1063  -217  -1702  -3094  -4218  -4946  -5235  -5063  -4375  -3318  -2276  -1488  -939  -581  -362  -157  136  517  953  1406  1773  1965  1976  1761  1233  527  -21  -280  -397  -507  -615  -711  -820  -964  -1143  -1317  -1427  -1463  -1462  -1436  -1359  -1213  -1024  -850  -732  -645  -532  -369  -170  74  411  796  1061  1052  740  257  -150  -345  -390  -407  -442  -472  -483  -509  -589  -727  -952  -1351  -1901  -2386  -2630  -2670  -2625  -2559  -2496  -2461  -2469  -2510  -2548  -2545  -2469  -2263  -1886  -1402  -986  -816  -1010  -1577  -2336  -2951  -3170  -2974  -2550  -2165  -1977  -1955  -1974  -1945  -1870  -1839  -1897  -1948  -1889  -1764  -1702  -1730  -1765  -1730  -1624  -1497  -1378  -1270  -1183  -1101  -985  -858  -762  -665  -520  -385  -354  -379  -343  -253  -175  -128  -79  18  178  336  419  443  532  797  1161  1378  1273  889  395  -61  -399  -586  -587  -295  345  1074  1411  1138  530  31  -180  -219  -223  -201  -13  523  1419  2438  3342  4076  4632  4914  4804  4279  3569  3023  2723  2459  2087  1653  1175  540  -223  -733  -560  246  1277  2408  3847  5558  7130  8093  8118  7181  5773  4827  5007  5908  6520  6430  5996  5681  5576  5464  5214  4887  4475  3920  3312  2780  2187  1217  -62  -1142  -1706  -1881  -1865  -1744  -1608  -1551  -1583  -1626  -1589  -1444  -1206  -893  -575  -373  -349  -474  -667  -856  -1022  -1159  -1223  -1185  -1093  -1024  -1006  -1018  -1038  -1065  -1084  -1040  -854  -472  28  454  691  812  956  1184  1459  1714  1911  2056  2188  2346  2528  2743  3033  3371  3627  3690  3464  2850  1968  1207  845  816  919  1027  1099  1138  1131  996  636  62  -589  -1129  -1425  -1495  -1468  -1447  -1466  -1525  -1586  -1606  -1588  -1575  -1619  -1742  -1900  -2007  -2046  -2086  -2195  -2359  -2495  -2532  -2442  -2234  -1969  -1758  -1665  -1657  -1675  -1692  -1703  -1690  -1614  -1450  -1250  -1110  -1042  -973  -865  -745  -577  -227  369  1024  1438  1480  1219  819  463  241  127  53  -27  -132  -249  -351  -412  -423  -386  -310  -216  -156  -192  -354  -582  -766  -863  -889  -846  -739  -604  -462  -259  79  490  807  1002  1191  1412  1588  1696  1756  1660  1272  705  220  -94  -319  -494  -617  -714  -822  -926  -976  -966  -932  -894  -864  -831  -755  -618  -459  -334  -249  -156  -22  116  203  216  164  57  -103  -313  -554  -796  -989  -1096  -1135  -1166  -1233  -1347  -1480  -1586  -1659  -1732  -1803  -1840  -1852  -1898  -1997  -2059  -1984  -1772  -1451  -1001  -384  402  1228  1845  2011  1563  463  -1125  -2890  -4471  -5492  -5685  -5127  -4211  -3387  -2888  -2632  -2415  -2120  -1778  -1490  -1274  -1075  -885  -752  -707  -764  -926  -1148  -1338  -1433  -1451  -1439  -1429  -1434  -1458  -1494  -1539  -1612  -1728  -1881  -2065  -2278  -2479  -2618  -2693  -2704  -2570  -2187  -1598  -982  -448  0  345  574  696  743  755  773  809  857  930  1052  1196  1289  1280  1164  988  820  690  574  437  279  126  -1  -90  -137  -153  -153  -159  -189  -246  -305  -331  -312  -270  -237  -225  -217  -195  -152  -100  -66  -65  -87  -108  -65  135  509  925  1205  1253  1067  693  270  -7  -30  160  426  615  674  650  591  533  520  586  713  852  976  1085  1160  1171  1106  995  900  852  819  793  789  803  816  819  823  842  852  803  667  498  389  352  297  134  -113  -346  -526  -718  -982  -1258  -1415  -1330  -962  -462  -101  15  -16  -89  -157  -182  -99  137  449  667  679  502  255  79  22  32  58  83  108  130  150  168  189  210  208  133  -66  -380  -704  -902  -874  -564  -40  461  740  811  785  715  587  393  194  82  91  245  588  1097  1574  1747  1518  1050  665  744  1566  3044  4642  5779  6107  5370  3613  1371  -757  -2404  -3392  -3774  -3696  -3192  -2297  -1228  -317  266  594  762  775  673  564  510  501  532  641  870  1198  1467  1479  1225  887  606  422  356  483  883  1442  1884  2075  2072  1905  1552  1117  811  741  874  1150  1528  1955  2327  2563  2696  2792  2848  2829  2750  2681  2657  2647  2629  2621  2623  2620  2615  2642  2731  2842  2876  2791  2652  2503  2236  1680  900  201  -205  -350  -362  -342  -331  -342  -373  -415  -443  -429  -355  -229  -124  -140  -255  -329  -284  -197  -184  -257  -342  -398  -441  -458  -344  -1  476  836  933  793  468  -13  -611  -1223  -1712  -1998  -2100  -2101  -2073  -2055  -2071  -2143  -2257  -2353  -2374  -2336  -2282  -2206  -2071  -1892  -1728  -1612  -1531  -1470  -1433  -1429  -1462  -1538  -1674  -1885  -2149  -2400  -2551  -2546  -2413  -2248  -2121  -2059  -2047  -2037  -2003  -1970  -1956  -1948  -1928  -1894  -1856  -1816  -1774  -1745  -1733  -1727  -1719  -1706  -1683  -1602  -1379  -1000  -587  -260  -26  132  186  115  -43  -216  -364  -487  -590  -673  -741  -783  -768  -645  -379  -44  188  206  24  -234  -420  -458  -360  -170  61  305  565  809  963  991  930  837  754  699  686  704  695  611  455  254  43  -128  -158  91  678  1550  2618  3766  4813  5550  5835  5624  4871  3553  1834  49  -1520  -2668  -3186  -3036  -2437  -1669  -962  -453  -139  75  284  511  713  866  1009  1184  1378  1524  1557  1483  1329  1081  766  486  297  161  43  -33  -61  -67  -67  -41  69  301  589  817  956  1049  1115  1145  1121  987  701  349  120  100  209  316  351  332  307  325  472  813  1220  1410  1231  827  458  212  6  -185  -276  -245  -213  -338  -713  -1251  -1708  -1929  -1971  -1949  -1900  -1802  -1672  -1588  -1597  -1660  -1729  -1813  -1940  -2112  -2305  -2489  -2627  -2701  -2727  -2728  -2672  -2499  -2223  -1947  -1734  -1584  -1555  -1681  -1848  -1934  -1944  -1938  -1938  -1931  -1903  -1864  -1843  -1845  -1856  -1859  -1848  -1826  -1803  -1781  -1747  -1667  -1509  -1285  -1040  -797  -569  -393  -279  -199  -147  -146  -185  -193  -130  -51  -12  4  54  144  195  160  107  98  109  94  39  -47  -146  -254  -392  -576  -749  -796  -656  -401  -157  30  176  277  319  318  292  239  159  68  -19  -112  -188  -195  -133  -67  -29  39  230  535  821  974  1007  980  922  841  759  687  587  398  144  -45  -68  79  323  611  1076  2069  3770  5682  6903  6889  5716  4039  2762  2247  2147  1999  1669  1284  982  779  612  449  329  276  260  231  156  20  -154  -317  -453  -626  -917  -1316  -1691  -1909  -1963  -1946  -1921  -1890  -1847  -1836  -1905  -1952  -1596  -444  1282  2828  3846  4559  5115  5572  6138  6806  7107  6613  5257  3163  781  -1107  -1947  -1700  -653  805  2242  3241  3643  3660  3561  3466  3324  2830  1646  -19  -1430  -2142  -2322  -2306  -2267  -2247  -2237  -2210  -2101  -1860  -1549  -1298  -1148  -1056  -988  -929  -869  -838  -876  -964  -1065  -1150  -1203  -1221  -1200  -1120  -967  -767  -593  -491  -347  99  921  1805  2388  2665  2901  3299  3806  4204  4389  4387  4156  3604  2811  2006  1395  1074  979  925  776  518  166  -322  -982  -1674  -2147  -2325  -2345  -2329  -2279  -2166  -2028  -1948  -1959  -2015  -2068  -2135  -2260  -2412  -2484  -2420  -2281  -2175  -2138  -2134  -2128  -2135  -2206  -2397  -2707  -3041  -3277  -3355  -3262  -2990  -2631  -2372  -2306  -2400  -2574  -2743  -2835  -2816  -2684  -2485  -2308  -2202  -2140  -2095  -2054  -1978  -1815  -1548  -1187  -789  -488  -427  -637  -978  -1275  -1493  -1676  -1791  -1749  -1509  -1168  -932  -941  -1131  -1273  -1218  -1066  -971  -951  -954  -961  -1003  -1109  -1247  -1330  -1317  -1248  -1182  -1139  -1111  -1106  -1147  -1243  -1357  -1440  -1474  -1460  -1376  -1211  -1028  -909  -843  -730  -494  -144  240  550  729  812  857  892  910  877  760  637  675  923  1229  1418  1455  1397  1256  1008  687  402  238  195  216  250  249  138  -147  -578  -999  -1236  -1207  -939  -575  -321  -287  -438  -663  -872  -1061  -1235  -1343  -1336  -1219  -1022  -789  -566  -306  129  794  1634  2550  3294  3538  3177  2280  733  -1498  -3879  -5638  -6318  -5878  -4724  -3621  -3152  -3198  -3181  -2708  -1839  -910  -163  362  637  593  325  87  0  -32  -144  -337  -489  -535  -518  -380  135  1202  2564  3674  4220  4304  4066  3515  2801  2260  2051  2040  2064  2085  2122  2149  2086  1897  1692  1621  1658  1688  1700  1715  1712  1697  1754  1980  2355  2708  2901  2952  2948  2913  2788  2530  2214  1959  1798  1734  1832  2100  2407  2604  2654  2568  2351  2065  1825  1675  1586  1571  1668  1847  2017  2224  2852  4324  6367  8067  8868  8964  8684  8128  7443  6924  6649  6370  5859  5129  4320  3590  3040  2611  2181  1773  1545  1672  2218  2959  3500  3696  3711  3742  3877  4098  4329  4504  4592  4601  4564  4525  4507  4472  4329  4044  3733  3620  3897  4563  5427  6454  7950  10044  12307  14182  15363  15667  15125  14303  14011  14494  15141  14986  13097  8981  3455  -1611  -4911  -6322  -6418  -6070  -5974  -6235  -6575  -6799  -6916  -6987  -7030  -7046  -7058  -7090  -7122  -7091  -6983  -6856  -6766  -6712  -6676  -6669  -6718  -6825  -6946  -7024  -7049  -7030  -6960  -6834  -6684  -6560  -6473  -6403  -6315  -6183  -6023  -5887  -5812  -5790  -5789  -5772  -5719  -5613  -5457  -5292  -5166  -5091  -5058  -5052  -5067  -5102  -5145  -5184  -5224  -5279  -5335  -5357  -5331  -5280  -5241  -5228  -5230  -5235  -5238  -5235  -5221  -5202  -5186  -5179  -5170  -5136  -5053  -4944  -4893  -4913  -4851  -4549  -4000  -3261  -2343  -1338  -491  -92  -375  -1452  -3167  -5108  -6855  -8094  -8592  -8340  -7618  -6742  -5923  -5297  -4886  -4605  -4367  -4140  -3955  -3849  -3811  -3791  -3752  -3693  -3639  -3607  -3594  -3593  -3602  -3622  -3647  -3671  -3677  -3631  -3484  -3209  -2873  -2611  -2476  -2371  -2153  -1758  -1287  -937  -819  -911  -1127  -1353  -1498  -1538  -1484  -1350  -1184  -1058  -997  -997  -1097  -1337  -1644  -1859  -1909  -1848  -1762  -1709  -1696  -1698  -1700  -1698  -1690  -1679  -1712  -1874  -2205  -2603  -2933  -3210  -3531  -3867  -4109  -4262  -4432  -4673  -4936  -5130  -5166  -4921  -4285  -3354  -2474  -1945  -1740  -1551  -985  168  1720  3231  4402  5195  5664  5885  6043  6339  6798  7283  7695  8045  8356  8621  8829  9007  9201  9378  9407  9205  8761  8118  7468  7041  6869  6825  6785  6637  6320  6083  6411  7342  8305  8809  8670  7960  7206  6943  7020  6931  6320  4905  2878  1188  589  1056  2247  3890  5669  7057  7699  7770  7643  7516  7422  7366  7399  7608  8000  8422  8697  8800  8783  8664  8460  8234  8046  7872  7609  7229  6780  6244  5501  4407  2926  1235  -280  -1280  -1837  -2288  -2748  -3105  -3298  -3360  -3299  -3102  -2827  -2622  -2636  -2948  -3486  -4002  -4286  -4351  -4327  -4302  -4296  -4322  -4391  -4479  -4519  -4462  -4317  -4108  -3842  -3566  -3367  -3272  -3180  -2859  -2113  -1116  -348  -125  -546  -1593  -2887  -3806  -4002  -3428  -2207  -808  161  497  334  -213  -978  -1613  -1856  -1744  -1501  -1306  -1206  -1193  -1266  -1379  -1439  -1374  -1187  -953  -773  -709  -766  -906  -1068  -1197  -1255  -1217  -1069  -868  -716  -667  -720  -874  -1113  -1370  -1593  -1782  -1924  -1961  -1888  -1782  -1708  -1658  -1591  -1514  -1437  -1259  -785  71  1160  2190  2950  3436  3909  4761  6166  7826  9205  10027  10257  9471  7025  3343  -10  -2014  -2889  -3239  -3377  -3316  -2978  -2378  -1594  -657  331  1140  1664  1965  2056  1894  1504  1012  582  383  658  1581  2852  3799  4042  3629  2740  1618  573  -188  -640  -831  -830  -717  -576  -476  -439  -441  -457  -484  -543  -682  -936  -1243  -1477  -1589  -1529  -970  820  4446  9285  13575  16013  16512  15740  14810  14653  15130  15228  14028  11147  6858  2233  -1399  -3400  -3958  -3634  -3050  -2678  -2632  -2728  -2759  -2656  -2470  -2290  -2189  -2313  -2904  -4012  -5296  -6279  -6730  -6746  -6542  -6300  -6139  -6091  -6115  -6161  -6200  -6223  -6242  -6273  -6324  -6390  -6455  -6485  -6446  -6310  -6080  -5831  -5695  -5744  -5912  -6063  -6128  -6146  -6165  -6189  -6207  -6212  -6216  -6232  -6218  -6107  -5830  -5371  -4865  -4517  -4394  -4406  -4461  -4519  -4546  -4465  -4211  -3862  -3595  -3491  -3504  -3567  -3613  -3519  -3131  -2406  -1534  -814  -413  -309  -501  -1113  -2176  -3516  -4903  -6062  -6740  -6907  -6644  -5929  -4821  -3670  -2886  -2572  -2521  -2488  -2362  -2178  -2024  -1899  -1609  -862  411  1795  2664  2736  2146  1286  621  344  280  201  95  87  187  262  233  141  60  24  1  -66  -205  -405  -627  -825  -905  -612  373  2072  4077  5778  6707  6850  6550  6157  5859  5663  5537  5512  5584  5649  5616  5478  5272  5049  4867  4709  4509  4274  4048  3833  3590  3283  2947  2666  2449  2221  1952  1693  1477  1268  1030  792  578  388  244  168  138  133  196  401  733  1065  1277  1362  1375  1360  1320  1240  1111  972  885  924  1204  1644  1788  1343  676  569  1759  4475  7977  10630  10890  8443  4395  559  -1621  -1939  -1368  -1121  -1745  -2958  -4079  -4670  -4827  -4856  -4876  -4844  -4770  -4735  -4777  -4832  -4720  -4257  -3474  -2648  -2024  -1653  -1494  -1470  -1490  -1508  -1525  -1551  -1573  -1585  -1657  -1898  -2321  -2809  -3280  -3773  -4324  -4819  -5111  -5191  -5158  -5089  -5022  -4983  -4987  -5021  -5029  -4900  -4555  -4106  -3782  -3675  -3702  -3768  -3821  -3775  -3477  -2848  -2037  -1331  -912  -776  -857  -1081  -1317  -1410  -1275  -891  -152  1049  2407  3312  3486  3123  2555  2049  1739  1660  1796  2052  2290  2398  2242  1698  883  162  -229  -345  -332  -266  -155  -22  78  115  87  59  184  443  522  277  11  228  1388  3565  6121  8086  8733  7812  5699  3182  1048  -88  -7  988  2282  3258  3671  3724  3727  3806  3929  4033  4102  4163  4268  4453  4699  4914  5016  4994  4896  4781  4686  4627  4611  4646  4722  4804  4848  4811  4671  4481  4343  4302  4321  4355  4380  4388  4361  4283  4178  4099  4078  4104  4147  4160  4109  4015  3934  3908  3944  4034  4190  4442  4747  4988  5099  5113  5093  5075  5079  5140  5287  5496  5697  5842  5931  5982  6001  5996  6001  6077  6266  6531  6751  6750  6381  5699  5008  4635  4781  5496  6528  7419  7993  8443  8931  9404  9566  8662  5778  1139  -3547  -6653  -7905  -8072  -7990  -8048  -8309  -8692  -9039  -9236  -9297  -9310  -9347  -9413  -9458  -9438  -9358  -9270  -9239  -9261  -9271  -9246  -9225  -9241  -9284  -9297  -9250  -9183  -9151  -9161  -9180  -9174  -9131  -9061  -8989  -8923  -8840  -8753  -8705  -8726  -8815  -8918  -8968  -8943  -8858  -8737  -8619  -8539  -8505  -8489  -8458  -8400  -8306  -8156  -7974  -7826  -7723  -7623  -7517  -7419  -7317  -7193  -7063  -6963  -6896  -6839  -6781  -6714  -6639  -6595  -6621  -6702  -6777  -6802  -6795  -6791  -6794  -6790  -6779  -6782  -6824  -6911  -7013  -7085  -7109  -7109  -7116  -7142  -7143  -6979  -6434  -5415  -4147  -2923  -1742  -515  742  2183  3843  5351  7015  10057  14639  19136  21581  20874  17360  12727  8936  6991  6462  6388  6384  6543  6901  7389  8003  8703  9288  9584  9638  9609  9606  9650  9706  9687  9417  8696  7475  5925  4424  3421  3045  3017  3005  2859  2542  2062  1512  990  466  -72  -508  -780  -990  -1237  -1519  -1812  -2112  -2384  -2560  -2620  -2629  -2689  -2843  -2990  -2991  -2852  -2654  -2329  -1744  -956  -192  361  656  757  785  801  820  934  1321  2039  2912  3789  4778  5918  6915  7432  7272  6319  4734  3026  1687  941  743  867  1073  1241  1413  1636  1751  1598  1414  1711  2895  5079  7774  10133  11689  12256  11618  9758  6996  4051  2020  1812  3419  5968  8460  10195  10844  10446  9214  7575  6192  5463  5313  5599  6307  7315  8294  9002  9441  9707  9896  10086  10272  10367  10310  10115  9782  9301  8781  8312  7571  5843  2755  -916  -3740  -5081  -5489  -5743  -6162  -6687  -7184  -7595  -7956  -8281  -8507  -8603  -8637  -8710  -8913  -9266  -9662  -9937  -10038  -10045  -10040  -10035  -10009  -9938  -9826  -9718  -9649  -9589  -9469  -9276  -9096  -9027  -9062  -9057  -8769  -7931  -6312  -3955  -1568  -92  262  -10  -432  -824  -1214  -1697  -2331  -3132  -3998  -4699  -5133  -5437  -5722  -5913  -5878  -5568  -5087  -4601  -4133  -3643  -3224  -2997  -2932  -2844  -2546  -2074  -1687  -1428  -787  717  2667  4059  4276  3411  2331  2529  4741  7566  8607  6579  1780  -4054  -8520  -10417  -10345  -9545  -8867  -8536  -8368  -8133  -7825  -7600  -7519  -7526  -7557  -7586  -7613  -7649  -7687  -7694  -7663  -7622  -7488  -6896  -5507  -3696  -2380  -2008  -2369  -3098  -3850  -4326  -4321  -3648  -2301  -734  429  979  1140  1206  1297  1390  1462  1541  1642  1772  1968  2214  2400  2420  2212  1790  1292  916  783  874  1089  1389  1938  2940  4186  5137  5467  5041  3716  1745  -162  -1534  -2359  -2767  -2892  -2762  -2205  -1111  292  1620  2665  3404  3856  4100  4276  4415  4433  4390  4540  5124  6157  7301  8103  8441  8526  8563  8579  8496  8246  7883  7532  7259  7084  7063  7246  7640  8191  8752  9180  9490  9773  9994  10024  9896  9710  9249  8172  6722  5597  5047  4793  4600  4369  3993  3510  3164  3227  3819  4783  5837  6894  7857  8387  8225  7359  5872  3776  997  -2145  -4820  -6435  -7078  -7169  -7067  -6928  -6781  -6650  -6575  -6519  -6251  -5475  -4287  -3169  -2407  -1918  -1609  -1451  -1286  -805  164  1427  2687  3922  5211  6349  6849  6264  4501  1930  -838  -3164  -4584  -5180  -5430  -5619  -5773  -5939  -6196  -6508  -6742  -6826  -6796  -6734  -6708  -6745  -6819  -6883  -6910  -6874  -6748  -6551  -6352  -6199  -6087  -5976  -5829  -5658  -5517  -5464  -5554  -5777  -5877  -5386  -3916  -1267  2611  7171  10976  12626  11638  8196  3176  -1681  -4900  -6109  -5671  -4288  -2748  -1718  -1444  -1515  -1375  -915  -372  1  103  -72  -521  -1103  -1541  -1543  -862  529  2219  3603  4395  4779  5125  5700  6564  7520  8134  7874  6380  4003  1785  468  -55  -267  -440  -612  -827  -1146  -1481  -1626  -1440  -982  -492  -175  -4  160  310  304  107  -160  -370  -510  -747  -1319  -2190  -2981  -3410  -3534  -3526  -3461  -3330  -3114  -2856  -2633  -2468  -2347  -2281  -2285  -2345  -2423  -2459  -2327  -1796  -775  408  1268  1652  1743  1757  1760  1685  1441  1030  541  37  -491  -1050  -1590  -2132  -2837  -3828  -4955  -5848  -6295  -6333  -5931  -4900  -3237  -1380  33  629  315  -851  -2395  -3559  -4058  -4173  -4203  -4248  -4304  -4347  -4332  -4165  -3791  -3274  -2676  -1946  -1085  -312  123  223  184  162  182  160  -65  -631  -1467  -2299  -2896  -3233  -3400  -3480  -3541  -3615  -3640  -3514  -3227  -2866  -2479  -2090  -1746  -1460  -1234  -1109  -1052  -860  -274  740  1819  2503  2717  2742  2815  2918  2893  2686  2425  2276  2267  2335  2515  2916  3446  3837  3972  3954  3900  3858  3878  4054  4456  5042  5644  6060  6203  6103  5808  5367  4882  4512  4375  4424  4533  4692  4963  5223  5217  4906  4481  3987  3295  2475  1795  1344  1054  827  353  -729  -2170  -3216  -3526  -3361  -2972  -2399  -1774  -1358  -1256  -1357  -1511  -1606  -1550  -1294  -923  -657  -706  -1157  -1870  -2596  -3237  -3795  -4211  -4459  -4594  -4669  -4692  -4672  -4637  -4620  -4626  -4635  -4629  -4618  -4614  -4595  -4515  -4348  -4110  -3846  -3588  -3350  -3139  -2959  -2813  -2710  -2659  -2653  -2673  -2691  -2660  -2497  -2110  -1463  -709  -105  299  715  1392  2349  3288  3892  4093  3865  3040  1592  -207  -1999  -3424  -4235  -4462  -4243  -3599  -2601  -1606  -1012  -838  -826  -842  -987  -1321  -1702  -1954  -2043  -2091  -2286  -2714  -3285  -3882  -4450  -4927  -5204  -5057  -4147  -2401  -184  2238  4817  7312  9519  11420  12898  13835  14239  13972  12575  9788  6306  3481  2361  3147  5008  6646  7319  7006  6108  5231  4750  4639  4814  5323  6081  6750  7051  7020  6864  6738  6673  6601  6451  6248  6097  6050  6075  6128  6179  6183  6046  5654  4873  3605  2110  994  577  660  972  1522  2497  3836  5086  5795  5795  5045  3655  2065  809  115  -95  40  443  962  1366  1561  1632  1654  1609  1417  1021  450  -217  -900  -1503  -1933  -2192  -2411  -2702  -3026  -3271  -3377  -3228  -2604  -1492  -287  555  917  933  674  63  -958  -2332  -3837  -5083  -5735  -5749  -5264  -4504  -3760  -3263  -3058  -3059  -3159  -3288  -3370  -3295  -2969  -2448  -1942  -1615  -1487  -1476  -1478  -1432  -1346  -1210  -917  -389  232  679  850  857  839  846  865  831  617  139  -453  -860  -914  -658  -243  206  682  1164  1523  1643  1412  712  -346  -1363  -2011  -2278  -2364  -2502  -2792  -3132  -3368  -3502  -3752  -4414  -5525  -6687  -7482  -7874  -8077  -8259  -8395  -8344  -8071  -7666  -7195  -6704  -6275  -5989  -5866  -5886  -6029  -6258  -6462  -6472  -6182  -5632  -4926  -4117  -3268  -2468  -1830  -1486  -1452  -1573  -1658  -1559  -1221  -722  -127  641  1511  2160  2402  2257  1724  896  75  -504  -832  -974  -994  -971  -960  -986  -1054  -1143  -1171  -941  -253  820  1854  2438  2469  2029  1271  421  -338  -944  -1384  -1645  -1743  -1731  -1602  -1304  -915  -634  -554  -599  -645  -551  -221  248  606  675  420  -79  -598  -907  -980  -936  -875  -840  -871  -1014  -1267  -1553  -1775  -1879  -1897  -1934  -2080  -2323  -2544  -2607  -2410  -1917  -1226  -578  -199  -155  -414  -906  -1447  -1726  -1340  12  2071  3975  4951  4680  3147  901  -984  -1794  -1455  -163  1499  2677  3006  2742  2213  1567  880  304  9  32  280  642  1034  1378  1566  1420  801  -136  -961  -1305  -870  540  2528  4291  5493  6277  6830  7323  7802  8202  8438  8286  7405  5417  2277  -1167  -3526  -3917  -2566  -710  375  390  -129  -564  -547  134  1451  2868  3775  4155  4388  4659  4908  5123  5415  5789  6062  6027  5606  4953  4400  4153  4163  4297  4450  4548  4570  4538  4490  4508  4737  5236  5811  6172  6272  6332  6556  6924  7250  7428  7452  7246  6623  5487  4113  3025  2473  2208  1832  1248  690  368  249  220  222  183  9  -332  -907  -1879  -3204  -4444  -5160  -5176  -4385  -2849  -1173  -119  145  -48  -426  -895  -1441  -2071  -2792  -3573  -4296  -4777  -4928  -4804  -4513  -4197  -4017  -4112  -4533  -5104  -5515  -5631  -5562  -5454  -5388  -5369  -5359  -5227  -4679  -3501  -2026  -905  -353  -111  -7  -134  -556  -1098  -1498  -1657  -1616  -1394  -960  -427  -43  96  106  99  93  69  26  -53  -258  -649  -1096  -1386  -1450  -1365  -1228  -1106  -1041  -1072  -1250  -1562  -1875  -2055  -2097  -2077  -2047  -2014  -1998  -2067  -2302  -2679  -3037  -3204  -3098  -2705  -2094  -1454  -959  -594  -248  59  214  169  -47  -402  -827  -1191  -1397  -1452  -1426  -1361  -1274  -1196  -1159  -1161  -1182  -1212  -1243  -1242  -1158  -948  -612  -204  199  612  1134  1711  2115  2248  2219  2146  2084  2062  2115  2256  2450  2642  2798  2900  2944  2963  3006  3094  3210  3315  3376  3406  3454  3522  3504  3201  2442  1362  403  -102  -208  -126  26  215  391  437  117  -824  -2323  -3857  -4839  -4956  -4268  -3427  -3205  -3629  -4196  -4260  -2991  -64  3594  6294  6660  4386  548  -3052  -5260  -6047  -6068  -6032  -6046  -5626  -4390  -2479  -415  1206  2047  2250  2221  2250  2419  2685  2969  3227  3427  3499  3339  2885  2184  1354  577  133  335  1293  2607  3586  3955  3888  3477  2730  1912  1400  1226  1004  341  -666  -1500  -1818  -1724  -1503  -1385  -1495  -1830  -2250  -2548  -2475  -1771  -355  1490  3183  4180  4375  4008  3395  2947  2900  2929  2603  2045  1718  1968  2841  3822  3967  2698  342  -2153  -3971  -4743  -4481  -3619  -2758  -2318  -2600  -3626  -4860  -5686  -6029  -6119  -5895  -4948  -3098  -823  1044  2014  2234  2052  1479  325  -1189  -2400  -2925  -2964  -2926  -3199  -4018  -5160  -6084  -6525  -6633  -6595  -6427  -6095  -5679  -5337  -5168  -5176  -5288  -5410  -5498  -5558  -5593  -5548  -5292  -4687  -3782  -2899  -2355  -2148  -2066  -1958  -1759  -1481  -1229  -1164  -1404  -1948  -2702  -3541  -4267  -4652  -4544  -3917  -3011  -2263  -1852  -1564  -1175  -653  -78  420  813  1363  2480  4243  6132  7478  8090  8208  8141  8081  8083  8081  7879  7190  5851  4140  2712  1927  1475  953  501  499  875  1142  1021  662  351  216  205  229  254  289  329  352  342  328  379  568  874  1200  1491  1762  2033  2259  2358  2290  2090  1801  1416  961  536  239  192  584  1419  2293  2771  2825  2622  2311  2196  2663  3691  4776  5430  5299  4073  1779  -1094  -3847  -5712  -6104  -5191  -3837  -2703  -1967  -1620  -1486  -1313  -1062  -870  -811  -826  -825  -728  -494  -173  105  297  508  881  1490  2277  3012  3438  3490  3271  2924  2578  2322  2246  2511  3230  4192  4950  5269  5273  5180  5133  5246  5663  6477  7520  8384  8818  8917  8866  8729  8492  8183  7869  7565  7261  6851  6012  4485  2490  668  -446  -797  -631  -154  423  851  1056  1168  1272  1323  1269  1140  998  865  743  646  560  435  261  121  89  95  46  -47  -199  -585  -1351  -2326  -3138  -3582  -3671  -3373  -2613  -1631  -943  -857  -1288  -1906  -2331  -2363  -2048  -1602  -1275  -1154  -1158  -1190  -1219  -1262  -1341  -1441  -1488  -1391  -1127  -770  -419  -103  156  292  219  -89  -510  -850  -1076  -1272  -1418  -1405  -1214  -940  -614  -154  454  1061  1444  1445  1149  832  680  693  789  865  846  694  358  -198  -900  -1549  -1980  -2170  -2207  -2165  -2056  -1878  -1658  -1461  -1357  -1362  -1385  -1173  -411  845  2040  2701  2882  2876  2854  2833  2790  2766  2819  2921  3027  3158  3320  3460  3507  3409  3198  3013  2948  2883  2444  1300  -337  -1730  -2076  -906  1415  3418  3641  2158  223  -830  -56  2133  3906  3902  2189  -282  -2233  -2828  -2209  -1262  -1068  -1829  -2567  -2530  -1889  -1097  -484  -198  -157  -199  -247  -311  -418  -571  -829  -1311  -1980  -2515  -2454  -1364  752  3139  4853  5618  5824  5912  6037  6137  5985  5281  3985  2467  1189  366  -101  -488  -981  -1564  -2123  -2572  -2872  -3018  -2999  -2751  -2184  -1372  -576  45  572  1122  1632  1896  1791  1367  733  38  -550  -955  -1210  -1357  -1417  -1425  -1418  -1412  -1402  -1387  -1375  -1387  -1443  -1541  -1642  -1702  -1723  -1755  -1846  -2015  -2256  -2542  -2806  -2999  -3147  -3305  -3511  -3790  -4103  -4346  -4476  -4545  -4642  -4812  -5004  -5131  -5167  -5151  -5125  -5123  -5191  -5360  -5603  -5854  -6078  -6279  -6435  -6476  -6233  -5515  -4456  -3537  -3074  -2951]
