reading_id,reading_time,wire_id,result_classification,heart_rate,heart_rate_alert,firmware_version,device_app_version,hardware_version,waveform_samples
06ee7cb0-5e54-11ed-8080-808080808080,Mon Nov 07 04:24:10 UTC 2022,e100638c1a39,NSR,69,NONE,20001.171.50,2.10.0,Charge 5,[-903  -1084  -1295  -1499  -1632  -1679  -1674  -1639  -1586  -1554  -1613  -1793  -2022  -2183  -2234  -2200  -2107  -1995  -1942  -2007  -2188  -2432  -2659  -2778  -2761  -2666  -2564  -2469  -2376  -2334  -2395  -2513  -2609  -2663  -2706  -2766  -2829  -2846  -2782  -2603  -2294  -1929  -1631  -1413  -1196  -993  -910  -989  -1147  -1240  -1195  -1058  -893  -733  -619  -571  -559  -547  -525  -506  -516  -566  -639  -703  -739  -722  -599  -327  54  432  705  855  955  1097  1296  1472  1564  1592  1596  1593  1580  1541  1450  1284  1078  895  743  595  457  346  254  185  152  156  186  234  288  325  330  308  277  251  228  200  173  172  213  273  318  341  350  345  297  184  39  -64  -99  -81  -29  36  81  64  -32  -149  -177  -93  28  126  186  227  274  334  399  467  675  1212  2023  2904  3675  4080  3904  3205  2204  1049  -102  -1069  -1785  -2157  -2094  -1768  -1387  -987  -614  -338  -134  56  249  448  629  741  766  723  615  447  274  164  141  209  384  641  891  1031  1024  895  720  599  586  671  794  878  866  745  570  448  477  682  969  1184  1267  1263  1251  1300  1452  1672  1886  2064  2202  2280  2290  2264  2242  2236  2215  2139  1996  1818  1655  1533  1443  1376  1328  1252  1089  867  683  564  453  316  176  81  44  28  -22  -115  -199  -244  -267  -292  -325  -359  -386  -400  -401  -376  -309  -226  -196  -261  -380  -475  -515  -516  -474  -371  -233  -129  -91  -96  -112  -108  -66  -6  30  24  -2  -18  -10  6  19  29  38  40  40  51  77  90  27  -118  -266  -348  -370  -382  -420  -481  -525  -535  -526  -522  -539  -575  -598  -593  -586  -606  -657  -717  -757  -769  -774  -796  -837  -877  -897  -892  -877  -874  -876  -853  -791  -716  -680  -714  -800  -899  -979  -1007  -934  -740  -498  -326  -264  -268  -290  -316  -344  -343  -271  -119  55  158  121  -70  -330  -519  -594  -631  -712  -847  -981  -1050  -1012  -858  -651  -498  -442  -458  -526  -646  -792  -915  -991  -1035  -1054  -994  -779  -435  -133  0  63  268  699  1343  2091  2632  2669  2149  1195  87  -837  -1452  -1873  -2244  -2548  -2624  -2389  -1983  -1585  -1278  -1071  -926  -810  -732  -693  -670  -646  -609  -563  -540  -548  -552  -534  -487  -381  -222  -77  0  19  13  17  57  143  255  371  468  523  546  575  635  731  863  1010  1137  1245  1379  1556  1723  1814  1809  1727  1614  1525  1496  1551  1706  1910  2059  2118  2125  2091  1964  1712  1416  1200  1092  1025  928  768  574  417  306  194  68  -73  -266  -492  -662  -721  -680  -559  -394  -251  -169  -142  -154  -199  -275  -370  -458  -520  -549  -546  -511  -452  -384  -319  -262  -210  -146  -78  -21  15  19  19  36  27  -20  -47  -5  80  128  106  83  113  173  214  209  149  24  -140  -289  -390  -449  -465  -432  -330  -160  1  89  108  80  17  -72  -182  -280  -333  -344  -340  -340  -342  -331  -285  -197  -103  -70  -135  -239  -259  -117  127  346  463  488  468  446  440  448  442  382  241  41  -148  -278  -346  -386  -437  -489  -505  -485  -464  -469  -512  -598  -718  -832  -913  -976  -1049  -1104  -1067  -900  -642  -401  -308  -384  -515  -593  -516  -92  789  1923  2892  3405  3344  2685  1644  557  -477  -1467  -2302  -2842  -3001  -2800  -2380  -1860  -1301  -790  -436  -275  -247  -282  -350  -428  -485  -505  -484  -417  -320  -227  -164  -155  -191  -209  -168  -83  36  164  248  275  277  288  313  348  402  482  575  658  714  752  804  900  1022  1113  1175  1262  1391  1533  1652  1696  1682  1734  1897  2049  2069  1951  1780  1660  1607  1552  1449  1323  1216  1117  961  732  512  361  234  62  -152  -348  -474  -533  -555  -560  -564  -590  -654  -746  -840  -908  -940  -959  -1014  -1120  -1237  -1303  -1297  -1229  -1113  -986  -893  -847  -824  -806  -791  -783  -780  -791  -837  -932  -1042  -1090  -1025  -863  -657  -443  -259  -148  -112  -102  -83  -56  -41  -47  -67  -89  -109  -121  -125  -125  -126  -129  -133  -139  -141  -125  -80  -17  27  43  47  50  43  17  -8  -4  6  -28  -110  -183  -210  -204  -188  -166  -129  -82  -37  1  36  57  58  54  73  136  221  272  262  219  194  217  280  348  392  411  415  394  323  201  76  3  -12  -6  -25  -106  -260  -448  -614  -714  -741  -711  -628  -508  -399  -354  -410  -562  -733  -839  -878  -905  -951  -1005  -1037  -981  -728  -217  483  1238  1924  2480  2886  3109  3055  2593  1714  544  -808  -2163  -3197  -3643  -3421  -2660  -1672  -895  -659  -842  -1069  -1169  -1177  -1135  -1040  -903  -761  -634  -533  -494  -538  -624  -685  -695  -668  -636  -628  -662  -726  -761  -704  -551  -366  -259  -281  -352  -372  -313  -170  30  220  344  396  412  456  573  738  888  1003  1116  1219  1263  1264  1284  1329  1371  1392  1394  1374  1294  1112  881  720  662  637  556  384  151  -76  -243  -332  -372  -422  -516  -634  -743  -836  -917  -964  -950  -895  -834  -790  -775  -780  -781  -772  -772  -796  -830  -848  -828  -769  -695  -633  -597  -588  -600  -628  -665  -695  -714  -723  -700  -623  -508  -415  -370  -350  -328  -306  -291  -281  -265  -244  -236  -256  -303  -342  -336  -276  -184  -87  -16  8  -3  -35  -77  -129  -164  -140  -73  -43  -108  -237  -353  -407  -379  -264  -110  0  27  3  -41  -87  -117  -92  23  214  408  559  655  671  588  462  396  449  585  716  771  747  697  655  613  559  507  467  429  387  346  289  186  41  -96  -188  -238  -259  -255  -235  -230  -284  -398  -528  -639  -712  -733  -689  -564  -373  -136  120  367  713  1299  2077  2852  3369  3467  3170  2501  1483  260  -1006  -2143  -2937  -3192  -2823  -2035  -1249  -750  -541  -479  -430  -357  -292  -253  -234  -228  -230  -219  -171  -80  34  143  217  255  284  336  405  463  512  592  712  830  938  1077  1234  1336  1363  1363  1377  1422  1503  1620  1771  1945  2100  2181  2175  2130  2098  2090  2088  2082  2087  2125  2192  2256  2306  2350  2361  2294  2149  1975  1796  1583  1292  968  719  573  465  319  114  -113  -302  -410  -445  -447  -443  -422  -366  -285  -215  -177  -162  -158  -168  -213  -319  -484  -665  -792  -840  -839  -826  -803  -765  -722  -707  -741  -803  -848  -842  -748  -563  -361  -239  -237  -331  -463  -568  -620  -625  -595  -557  -537  -533  -527  -507  -497  -558  -717  -909  -1029  -1020  -888  -689  -510  -398  -351  -352  -391  -478  -614  -722  -665  -447  -255  -227  -310  -383  -369  -210  90  413  616  678  657  593  499  397  307  226  120  -26  -191  -349  -490  -600  -658  -668  -658  -650  -645  -639  -634  -633  -632  -627  -623  -638  -680  -731  -750  -713  -643  -588  -570  -565  -508  -344  -61  410  1197  2187  2988  3304  3117  2558  1763  792  -351  -1619  -2816  -3589  -3640  -3026  -2071  -1097  -422  -271  -496  -727  -746  -550  -266  -46  73  146  204  240  249  247  250  253  220  119  -17  -105  -94  -15  66  110  135  189  284  389  482  564  635  687  733  783  818  823  823  859  923  969  984  1037  1219  1518  1789  1898  1839  1709  1598  1520  1438  1343  1257  1193  1138  1079  1011  908  715  404  30  -290  -473  -525  -516  -497  -477  -441  -399  -410  -549  -817  -1103  -1296  -1392  -1436  -1454  -1460  -1443  -1384  -1282  -1141  -969  -810  -716  -713  -794  -931  -1095  -1239  -1318  -1317  -1243  -1120  -987  -894  -880  -945  -1015  -1015  -942  -838  -744  -682  -645  -614  -579  -563  -605  -705  -796  -817  -771  -700  -650  -636  -645  -653  -635  -574  -489  -433  -438  -486  -521  -499  -428  -332  -243  -184  -137  -57  74  235  376  463  497  493  459  409  362  313  209  7  -238  -401  -435  -403  -378  -382  -406  -429  -438  -436  -431  -424  -384  -307  -268  -333  -464  -566  -603  -618  -656  -679  -588  -358  -30  456  1195  2096  2935  3501  3615  3231  2491  1562  543  -501  -1506  -2305  -2670  -2531  -2061  -1460  -862  -418  -220  -190  -194  -159  -85  -18  3  -24  -68  -85  -38  77  207  293  342  365  347  303  266  252  254  267  289  323  389  517  683  811  871  898  955  1080  1228  1332  1397  1475  1572  1653  1710  1784  1901  2036  2139  2191  2213  2226  2230  2223  2206  2189  2171  2122  2006  1825  1617  1406  1178  920  665  465  332  243  180  122  41  -65  -167  -258  -364  -502  -644  -735  -756  -729  -689  -663  -659  -653  -627  -583  -533  -486  -452  -457  -535  -701  -911  -1083  -1160  -1123  -975  -782  -644  -599  -607  -623  -635  -634  -608  -556  -502  -478  -502  -569  -653  -727  -778  -793  -757  -679  -599  -573  -615  -678  -709  -704  -690  -671  -635  -570  -494  -449  -453  -476  -475  -445  -426  -447  -461  -413  -333  -293  -322  -410  -511  -573  -555  -431  -272  -201  -228  -265  -248  -170  -83  -45  -52  -65  -62  -33  32  143  278  397  477  520  526  493  439  397  380  378  382  402  434  438  383  294  215  161  117  63  -8  -94  -183  -258  -299  -306  -297  -286  -262  -208  -137  -87  -91  -158  -271  -409  -551  -615  -479  -141  311  889  1624  2435  3210  3847  4132  3857  3039  1871  553  -723  -1747  -2355  -2496  -2240  -1743  -1198  -765  -523  -451  -460  -475  -470  -445  -409  -374  -330  -244  -106  38  144  216  264  283  261  201  123  44  -25  -74  -94  -75  3  153  340  502  599  645  684  749  833  906  959  1012  1101  1235  1383  1519  1649  1764  1832  1845  1828  1805  1791  1788  1792  1801  1817  1836  1828  1715  1425  1007  638  440  365  315  255  186  103  -16  -186  -369  -503  -587  -655  -716  -766  -811  -860  -925  -1013  -1101  -1132  -1069  -946  -847  -821  -846  -878  -901  -926  -968  -1005  -1005  -958  -897  -847  -801  -746  -705  -708  -748  -795  -825  -836  -833  -825  -813  -800  -796  -824  -900  -992  -1082  -1183  -1276  -1312  -1278  -1192  -1094  -1033  -1021  -1031  -1021  -958  -845  -731  -669  -672  -727  -799  -852  -870  -864  -854  -867  -925  -1003  -1043  -1015  -949  -893  -866  -856  -853  -854  -859  -864  -859  -837  -806  -774  -744  -715  -696  -691  -698  -709  -708  -658  -529  -334  -131  17  92  131  181  258  338  387  387  345  274  187  89  -15  -121  -211  -268  -294  -299  -297  -294  -294  -304  -324  -353  -397  -456  -514  -547  -555  -557  -565  -570  -561  -550  -586  -671  -688  -530  -211  209  730  1377  2101  2776  3301  3574  3403  2640  1417  49  -1238  -2288  -2880  -2930  -2590  -1988  -1233  -554  -125  49  66  32  10  29  99  196  276  318  331  332  329  330  339  366  406  436  432  396  347  322  344  414  538  706  857  941  972  981  984  1003  1091  1291  1564  1789  1891  1900  1880  1860  1852  1882  1973  2103  2209  2260  2271  2267  2254  2228  2197  2173  2157  2143  2112  2010  1769  1373  926  569  360  261  192  100  -8  -113  -209  -291  -370  -479  -616  -743  -847  -936  -995  -1005  -959  -857  -713  -566  -475  -463  -501  -549  -602  -672  -740  -773  -767  -731  -664  -553  -416  -319  -294  -289  -266  -249  -283  -395  -549  -668  -711  -690  -629  -544  -458  -398  -369  -355  -350  -362  -395  -443  -486  -510  -532  -582  -665  -760  -850  -934  -994  -987  -882  -725  -600  -530  -478  -436  -427  -448  -466  -454  -410  -351  -294  -250  -213  -178  -184  -271  -404  -489  -479  -409  -326  -238  -144  -67  -26  -19  -25  1  105  264  403  472  472  406  273  118  0  -73  -129  -183  -242  -307  -364  -418  -478  -532  -564  -576  -593  -633  -681  -713  -742  -771  -753  -678  -600  -553  -517  -484  -479  -483  -392  -123  374  1108  1955  2726  3268  3410  3025  2151  925  -463  -1686  -2418  -2616  -2473  -2194  -1927  -1723  -1479  -1076  -600  -265  -153  -182  -258  -323  -351  -343  -323  -308  -290  -250  -181  -83  47  193  311  392  450  487  506  520  534  547  562  589  631  680  715  731  760  862  1082  1380  1652  1822  1890  1898  1885  1899  1952  1999  2044  2138  2247  2310  2333  2340  2310  2199  2016  1830  1697  1616  1558  1513  1485  1457  1359  1102  703  311  55  -68  -144  -223  -296  -357  -415  -476  -550  -639  -717  -764  -777  -744  -638  -475  -328  -270  -338  -503  -650  -684  -623  -534  -457  -411  -389  -367  -336  -312  -304  -303  -296  -280  -262  -251  -255  -279  -327  -385  -427  -441  -424  -374  -314  -286  -313  -374  -423  -445  -449  -450  -451  -451  -454  -458  -461  -465  -466  -457  -433  -412  -403  -382  -312  -208  -148  -180  -258  -306  -291  -228  -184  -225  -329  -421  -465  -467  -413  -276  -92  43  74  8  -113  -232  -302  -323  -320  -310  -296  -280  -268  -275  -324  -439  -591  -701  -707  -607  -456  -336  -292  -310  -348  -380  -404  -427  -449  -459  -462  -483  -546  -624  -632  -498  -254  -26  95  121  111  118  163  220  247  245  243  244  229  209  202  194  121  -73  -339  -532  -571  -487  -362  -270  -230  -219  -222  -272  -404  -590  -748  -823  -811  -747  -680  -641  -632  -612  -506  -327  -122  178  610  1156  1920  2854  3611  3892  3566  2587  1106  -482  -1770  -2549  -2745  -2456  -2026  -1745  -1562  -1296  -959  -709  -613  -600  -587  -514  -352  -151  -4  55  62  56  48  36  19  12  49  128  197  224  221  208  196  202  256  370  514  654  790  923  1024  1075  1108  1172  1268  1371  1485  1604  1680  1698  1709  1762  1848  1923  1938  1884  1816  1782  1784  1799  1816  1838  1869  1879  1791  1549  1207  903  714  589  449  276  97  -48  -150  -222  -279  -315  -326  -325  -348  -434  -592  -773  -925  -1018  -1044  -1017  -968  -924  -908  -929  -954  -947  -916  -888  -862  -811  -731  -645  -576  -540  -542  -559  -576  -592  -606  -612  -609  -606  -606  -599  -584  -576  -585  -599  -602  -598  -602  -612  -607  -567  -480  -367  -274  -222  -204  -215  -263  -360  -484  -582  -638  -670  -687  -688  -684  -681  -672  -641  -584  -524  -483  -462  -456  -465  -489  -520  -535  -517  -484  -458  -437  -415  -398  -391  -402  -436  -488  -537  -568  -576  -568  -561  -581  -651  -747  -823  -857  -858  -816  -705  -549  -416  -341  -300  -265  -237  -238  -258  -249  -168  -27  101  165  175  165  153  130  84  23  -22  -34  -23  -24  -94  -258  -457  -593  -634  -618  -582  -543  -528  -570  -683  -828  -945  -1000  -1000  -972  -944  -928  -920  -913  -901  -876  -862  -897  -926  -771  -266  617  1723  2724  3303  3330  2797  1745  366  -1045  -2235  -2994  -3240  -3079  -2681  -2158  -1582  -1084  -787  -682  -668  -654  -578  -413  -209  -66  -19  -37  -83  -133  -152  -98  34  201  342  444  507  507  468  447  444  449  478  520  553  580  616  687  839  1079  1324  1472  1500  1467  1442  1510  1729  2030  2249  2292  2193  2041  1924  1873  1873  1916  2006  2122  2203  2192  2081  1926  1797  1712  1634  1525  1391  1246  1079  899  745  628  525  417  283  132  1  -102  -186  -248  -290  -324  -356  -396  -447  -490  -479  -376  -201  -44  5  -51  -140  -199  -216  -209  -190  -137  -14  166  337  431  422  350  299  315  372  424  450  452  412  306  173  98  119  197  279  326  333  318  300  287  278  278  292  315  341  354  335  285  218  160  136  150  177  196  211  223  219  189  146  112  95  79  59  45  42  45  37  4  -51  -102  -117  -92  -27  86  226  327  365  370  369  374  393  436  498  562  609  644  677  704  714  673  557  401  286  244  245  259  271  237  86  -189  -475  -644  -679  -650  -618  -604  -609  -616  -592  -511  -396  -301  -257  -281  -411  -659  -947  -1137  -1150  -1012  -766  -398  134  871  1812  2806  3487  3568  3036  2064  925  -161  -1137  -2048  -2842  -3256  -3096  -2523  -1868  -1329  -961  -776  -744  -788  -846  -894  -921  -896  -773  -543  -260  -5  150  174  53  -196  -480  -668  -715  -644  -485  -302  -178  -141  -152  -172  -171  -123  -14  141  319  482  587  626  633  653  714  821  953  1076  1160  1208  1250  1296  1330  1344  1347  1350  1362  1380  1388  1358  1277  1163  1060  984  907  778  596  416  264  114  -39  -166  -273  -418  -631  -845  -976  -1008  -976  -898  -782  -681  -677  -786  -953  -1114  -1229  -1265  -1196  -1018  -800  -652  -606  -617  -633  -624  -576  -507  -462  -473  -534  -597  -622  -623  -629  -636  -626  -589  -535  -480  -441  -423  -414  -397  -371  -352  -346  -350  -353  -343  -314  -286  -314  -438  -602  -682  -638  -582  -619  -708  -762  -769  -761  -756  -764  -783  -801  -787  -720  -630  -571  -562  -577  -590  -603  -633  -679  -700  -677  -650  -661  -680  -655  -575  -467  -375  -326  -315  -321  -336  -370  -437  -532  -618  -658  -651  -624  -605  -602  -610  -615  -596  -518  -372  -216  -130  -115  -111  -78  0  136  307  443  510  531  534  502  390  190  -11  -113  -126  -141  -201  -290  -376  -453  -527  -596  -648  -682  -706  -730  -752  -774  -796  -812  -816  -809  -796  -775  -740  -707  -702  -705  -634  -364  215  1087  2100  3047  3694  3870  3526  2670  1421  32  -1241  -2199  -2694  -2726  -2461  -2048  -1563  -1138  -906  -843  -838  -819  -765  -674  -557  -439  -358  -324  -326  -357  -408  -461  -507  -550  -591  -620  -631  -612  -544  -434  -317  -225  -155  -94  -54  -40  4  130  311  485  613  680  692  675  658  675  772  945  1116  1192  1165  1095  1029  973  947  989  1107  1272  1415  1433  1262  982  750  638  616  628  633  598  503  367  222  58  -136  -324  -479  -608  -690  -696  -628  -521  -418  -331  -258  -215  -213  -233  -257  -275  -284  -282  -282  -304  -359  -413  -413  -358  -301  -274  -260  -219  -137  -46  9  23  16  7  10  42  117  222  320  377  388  363  308  243  197  178  172  177  218  309  400  424  399  417  553  778  981  1089  1119  1111  1102  1124  1195  1282  1326  1309  1252  1160  1038  915  822  752  665  542  421  349  327  332  335  291  167  1  -101  -95  -36  1  9  19  52  95  113  93  65  50  27  -27  -104  -185  -268  -346  -373  -321  -229  -179  -212  -300  -385  -441  -476  -502  -503  -455  -366  -261  -175  -133  -105  -35  69  167  268  417  610  777  864  886  884  864  779  577  276  -31  -263  -398  -470  -512  -526  -502  -450  -399  -371  -363  -354  -333  -301  -270  -248  -241  -271  -352  -456  -526  -528  -480  -407  -256  55  551  1220  2011  2790  3404  3687  3414  2462  1006  -588  -1985  -2924  -3241  -2981  -2376  -1700  -1145  -790  -605  -512  -461  -436  -442  -476  -501  -448  -263  2  220  319  337  330  310  259  163  58  11  72  228  401  509  541  544  565  616  672  688  644  577  543  576  707  946  1215  1392  1449  1448  1428  1381  1312  1291  1371  1519  1638  1683  1697  1746  1852  1977  2064  2043  1847  1497  1141  918  814  719  575  417  289  201  143  82  -46  -280  -558  -778  -902  -946  -928  -865  -779  -704  -654  -630  -647  -701  -774  -862  -918  -872  -773  -733  -784  -877  -948  -979  -981  -949  -858  -727  -623  -591  -613  -639  -620  -558  -491  -447  -445  -496  -564  -599  -594  -563  -532  -508  -471  -392  -291  -220  -202  -231  -312  -426  -534  -606  -641  -644  -610  -534  -440  -373  -351  -372  -432  -516  -598  -669  -706  -669  -565  -450  -370  -342  -373  -463  -618  -806  -941  -946  -800  -558  -335  -214  -190  -210  -236  -260  -279  -282  -282  -302  -334  -355  -357  -339  -301  -258  -228  -212  -218  -244  -249  -130  182  582  851  893  796  672  580  532  490  364  80  -285  -558  -659  -645  -597  -552  -524  -512  -505  -505  -524  -571  -622  -631  -602  -584  -595  -609  -599  -565  -544  -589  -698  -770  -676  -353  179  865  1671  2455  2954  3013  2628  1826  671  -627  -1731  -2435  -2759  -2733  -2424  -2030  -1656  -1254  -866  -610  -497  -451  -401  -331  -262  -201  -142  -87  -37  10  59  107  140  159  171  184  192  195  193  192  195  207  230  270  325  377  414  449  495  553  624  711  811  907  979  1024  1057  1103  1203  1388  1616  1799  1905  1964  1981  1923  1795  1640  1505  1402  1329  1287  1276  1286  1306  1332  1332  1242  1001  629  229  -91  -287  -379  -414  -422  -396  -318  -211  -120  -55  -6  23  31  23  14  9  7  2  -12  -28  -14  55  154  206  147  12  -100  -144  -144  -135  -121  -89  -44  -9  -6  -51  -141  -243  -321  -362  -362  -316  -235  -161  -123  -120  -130  -131  -101  -43  -19  -102  -264  -404  -463  -442  -377  -321  -297  -296  -304  -313  -321  -329  -334  -336  -333  -327  -325  -319  -285  -239  -228  -253  -275  -282  -279  -273  -267  -267  -277  -288  -287  -279  -272  -272  -274  -278  -291  -308  -315  -306  -291  -287  -299  -315  -322  -323  -322  -323  -329  -333  -321  -284  -235  -197  -161  -95  -7  54  74  83  131  243  383  487  525  529  515  438  247  -15  -241  -368  -410  -411  -415  -444  -478  -491  -491  -520  -593  -675  -709  -677  -614  -545  -464  -379  -310  -266  -258  -289  -369  -503  -645  -689  -468  166  1143  2239  3221  3810  3816  3255  2290  1110  -176  -1467  -2552  -3188  -3245  -2776  -1998  -1202  -643  -413  -404  -459  -508  -539  -527  -453  -349  -267  -233  -241  -265  -286  -295  -303  -322  -346  -344  -298  -226  -166  -132  -97  -32  74  215  351  438  475  498  527  575  663  772  865  944  1042  1157  1265  1356  1458  1587  1719  1824  1900  1958  1987  1992  1994  1964  1843  1669  1533  1455  1392  1322  1253  1181  1083  954  771  503  205  1  -82  -129  -199  -301  -438  -580  -665  -679  -666  -655  -652  -654  -658  -669  -700  -764  -834  -830  -689  -465  -285  -201  -181  -229  -380  -582  -704  -680  -572  -476  -424  -407  -432  -523  -670  -819  -921  -957  -915  -786  -618  -499  -461  -459  -446  -415  -387  -372  -366  -365  -373  -402  -456  -524  -588  -633  -652  -641  -592  -516  -432  -352  -289  -260  -266  -288  -314  -334  -336  -318  -293  -264  -216  -150  -124  -178  -236  -198  -70  54  116  129  117  76  -11  -133  -241  -282  -226  -72  116  242  260  190  86  1  -40  -50  -48  -51  -70  -105  -148  -207  -290  -383  -450  -479  -478  -453  -402  -335  -277  -248  -243  -245  -237  -216  -197  -194  -201  -179  -83  87  276  425  527  593  630  644  618  512  318  106  -33  -83  -90  -95  -112  -150  -209  -263  -281  -291  -346  -450  -570  -678  -752  -769  -723  -659  -654  -713  -772  -798  -823  -878  -910  -774  -400  131  743  1443  2173  2732  3039  3182  3062  2467  1432  140  -1236  -2437  -3097  -3080  -2627  -2010  -1341  -766  -440  -342  -298  -156  76  261  331  353  373  380  377  383  404  432  452  463  475  491  501  498  472  410  298  178  140  250  485  743  907  954  952  956  977  1008  1039  1086  1168  1266  1348  1419  1506  1601  1685  1753  1804  1831  1840  1841  1840  1829  1799  1747  1679  1606  1536  1468  1378  1230  986  669  364  146  29  -15  -41  -115  -267  -480  -708  -892  -992  -1009  -970  -921  -891  -872  -861  -870  -908  -963  -1001  -995  -940  -862  -792  -735  -685  -651  -640  -642  -647  -651  -651  -634  -592  -543  -528  -572  -643  -676  -647  -599  -586  -588  -538  -407  -250  -140  -99  -91  -95  -146  -285  -473  -613  -660  -649  -612  -558  -497  -452  -426  -406  -380  -353  -342  -361  -397  -434  -463  -488  -534  -619  -726  -806  -827  -802  -740  -635  -506  -406  -354  -330  -326  -343  -363  -365  -348  -330  -323  -324  -321  -311  -301  -299  -325  -409  -555  -687  -697  -587  -466  -371  -243  -57  122  235  282  281  251  242  299  389  424  371  295  253  213  141  76  61  81  38  -154  -435  -653  -732  -704  -621  -508  -392  -325  -339  -415  -511  -587  -640  -680  -713  -735  -729  -645  -475  -316  -283  -359  -387  -168  383  1257  2305  3155  3465  3165  2337  1155  -131  -1358  -2452  -3239  -3480  -3129  -2377  -1517  -851  -531  -472  -498  -505  -478  -440  -414  -401  -380  -321  -221  -116  -54  -49  -59  -16  115  282  390  420  412  406  412  429  455  491  540  597  652  695  715  731  784  896  1091  1368  1631  1789  1852  1884  1914  1941  1967  1999  2037  2076  2117  2159  2182  2158  2073  1952  1813  1659  1519  1420  1307  1107  858  676  597  557  480  346  198  95  34  -27  -101  -167  -244  -370  -534  -668  -718  -692  -644  -613  -601  -595  -586  -578  -588  -621  -657  -677  -682  -676  -669  -663  -648  -615  -567  -523  -495  -462  -394  -285  -170  -87  -41  -19  -9  14  65  117  126  62  -72  -221  -314  -330  -290  -225  -166  -126  -93  -68  -71  -112  -172  -218  -236  -234  -222  -216  -244  -333  -452  -521  -486  -369  -245  -170  -140  -120  -93  -72  -87  -151  -240  -300  -296  -246  -207  -220  -273  -339  -402  -445  -459  -443  -397  -331  -267  -217  -199  -221  -268  -313  -343  -343  -324  -308  -307  -311  -312  -305  -290  -270  -254  -257  -279  -299  -298  -264  -202  -130  -64  0  85  187  268  323  390  477  548  576  565  532  482  414  328  227  107  -47  -210  -317  -342  -325  -303  -277  -229  -180  -179  -243  -345  -447  -520  -551  -544  -514  -483  -459  -430  -412  -448  -548  -649  -643  -414  138  976  1893  2701  3315  3672  3663  3122  2013  572  -853  -1968  -2561  -2629  -2357  -1928  -1473  -1105  -865  -710  -581  -451  -332  -254  -243  -306  -401  -469  -488  -477  -450  -403  -331  -236  -124  -24  31  42  35  34  52  91  160  280  425  535  587  612  644  702  800  941  1091  1201  1267  1317  1371  1442  1542  1659  1756  1817  1856  1889  1925  1953  1957  1935  1909  1904  1908  1856  1700  1476  1257  1083  949  828  698  559  407  235  54  -112  -270  -453  -652  -807  -888  -919  -932  -941  -935  -912  -885  -881  -910  -958  -1007  -1047  -1067  -1050  -983  -890  -813  -774  -772  -805  -859  -909  -922  -861  -734  -616  -591  -665  -750  -769  -742  -730  -745  -759  -748  -714  -673  -638  -608  -589  -612  -714  -887  -1058  -1165  -1200  -1169  -1075  -942  -809  -702  -652  -689  -788  -877  -918  -932  -958  -996  -1032  -1068  -1111  -1134  -1110  -1064  -1029  -1008  -997  -999  -1034  -1115  -1216  -1287  -1309  -1293  -1254  -1205  -1149  -1078  -999  -951  -955  -988  -1017  -1028  -1026  -1020  -1014  -1020  -1038  -1034  -976  -898  -849  -844  -885  -955  -1007  -995  -907  -785  -696  -663  -657  -657  -682  -745  -824  -882  -907  -907  -898  -871  -773  -595  -419  -316  -288  -332  -469  -690  -915  -1066  -1127  -1117  -1046  -911  -738  -582  -468  -389  -329  -278  -236  -210  -195  -195  -238  -351  -501  -617  -662  -645  -582  -502  -463  -517  -680  -907  -1110  -1211  -1193  -1080  -927  -800  -742  -767  -876  -1032  -1160  -1218  -1224  -1218  -1218  -1205  -1135  -960  -681  -365  -72  238  708  1414  2267  3046  3410  3092  2160  915  -380  -1534  -2364  -2756  -2725  -2370  -1878  -1492  -1273  -1077  -823  -560  -351  -239  -229  -286  -361  -419  -449  -444  -365  -175  72  258  331  331  314  300  296  314  372  463  566  678  816  996  1195  1348  1413  1419  1425  1493  1663  1921  2185  2379  2494  2575  2682  2839  3032  3230  3413  3571  3692  3774  3837  3891  3920  3908  3853  3758  3637  3513  3402  3323  3279  3252  3212  3142  3054  2959  2847  2717  2596  2516  2492  2519  2566  2601  2630  2681  2766  2884  3018  3133  3216  3281  3333  3377  3437  3515  3594  3666  3734  3807  3899  4033  4227  4452  4642  4775  4872  4938  4966  4955  4924  4904  4890  4849  4821  4902  5126  5426  5717  5988  6283  6597  6867  7059  7185  7242  7195  7075  6952  6858  6800  6808  6917  7131  7382  7566  7644  7659  7669  7687  7706  7734  7784  7869  7952  7930  7795  7670  7584  7409  7029  6473  5911  5519  5339  5275  5215  5130  5070  5075  5140  5207  5135  4836  4424  4056  3862  3890  3819  3282  2308  862  -1237  -3890  -6905  -9972  -12408  -13660  -13844  -13534  -13193  -13044  -13139  -13204  -12939  -12464  -12053  -11792  -11586  -11315  -10979  -10685  -10501  -10402  -10337  -10272  -10184  -10070  -9898  -9612  -9237  -8882  -8592  -8348  -8115  -7855  -7595  -7400  -7228  -6951  -6547  -6110  -5671  -5175  -4650  -4214  -3917  -3710  -3520  -3340  -3224  -3185  -3190  -3216  -3270  -3353  -3450  -3541  -3573  -3489  -3308  -3098  -2906  -2754  -2664  -2636  -2641  -2652  -2652  -2632  -2600  -2566  -2483  -2291  -2048  -1866  -1736  -1562  -1359  -1341  -1570  -1674  -1327  -648  80  622  873  940  875  412  -816  -2820  -5164  -7356  -9101  -10310  -11150  -11801  -12098  -11800  -11073  -10327  -9772  -9379  -9070  -8805  -8617  -8530  -8497  -8462  -8457  -8581  -8889  -9313  -9689  -9865  -9853  -9795  -9758  -9653  -9356  -8914  -8540  -8353  -8231  -7941  -7410  -6850  -6510  -6425  -6496  -6651  -6841  -6999  -7069  -6978  -6633  -6040  -5354  -4780  -4433  -4193  -3787  -3135  -2431  -1885  -1494  -1098  -595  -49  423  744  908  1021  1241  1658  2238  2860  3388  3760  4010  4233  4518  4887  5298  5672  5926  6038  6036  5985  6015  6247  6710  7337  7936  8279  8290  8049  7648  7164  6730  6501  6410  6111  5433  4856  5034  5777  6209  5936  5339  4879  4847  5319  5722  5325  4233  3126  2482  2403  2721  3101  3208  3069  3131  3727  4755  5953  7094  7993  8643  9144  9502  9702  9813  9876  9846  9706  9524  9371  9274  9240  9233  9132  8788  8211  7633  7265  7110  7043  6970  6867  6709  6373  5789  5113  4566  4215  4038  4039  4204  4395  4416  4225  3952  3722  3572  3468  3353  3194  3021  2897  2848  2842  2832  2766  2578  2208  1683  1174  877  814  856  889  848  714  542  442  480  628  795  899  912  825  634  350  -7  -406  -756  -956  -1004  -985  -972  -992  -1035  -1087  -1138  -1187  -1279  -1482  -1757  -1967  -2017  -1928  -1790  -1675  -1589  -1543  -1608  -1880  -2371  -2867  -2999  -2599  -1861  -1127  -611  -214  337  1006  1453  1430  776  -561  -2251  -3785  -4880  -5447  -5523  -5266  -4747  -3907  -2865  -1986  -1532  -1433  -1466  -1488  -1428  -1246  -1002  -876  -1058  -1608  -2403  -3141  -3524  -3492  -3208  -2837  -2451  -2084  -1753  -1463  -1239  -1116  -1069  -1012  -880  -672  -479  -422  -518  -673  -790  -815  -703  -415  57  740  1648  2584  3248  3674  4169  4860  5691  6680  7734  8565  9085  9514  10032  10596  11108  11577  11992  12194  11994  11330  10334  9357  8763  8586  8584  8550  8393  8075  7630  7096  6333  5087  3414  1831  797  217  -340  -1076  -1833  -2443  -2911  -3319  -3706  -4006  -4117  -4034  -3857  -3693  -3606  -3705  -4173  -5059  -6134  -7045  -7577  -7777  -7878  -8113  -8542  -9003  -9304  -9431  -9531  -9771  -10193  -10689  -11129  -11455  -11665  -11778  -11799  -11753  -11686  -11612  -11529  -11449  -11375  -11274  -11048  -10579  -9921  -9317  -8855  -8357  -7717  -7077  -6614  -6388  -6319  -6199  -5816  -5147  -4422  -3890  -3546  -3231  -2919  -2718  -2661  -2669  -2667  -2626  -2494  -2196  -1777  -1421  -1225  -1129  -1055  -955  -802  -649  -550  -504  -498  -459  -260  117  545  860  974  924  829  778  772  781  791  814  863  928  973  982  975  991  1058  1161  1246  1283  1300  1344  1430  1534  1624  1684  1725  1766  1806  1838  1877  1982  2171  2306  2239  2094  2078  2268  2768  3596  4493  5234  5803  6213  6338  5964  4975  3439  1663  184  -538  -448  140  823  1323  1590  1741  1856  1942  2024  2123  2222  2286  2307  2315  2330  2350  2372  2419  2524  2700  2911  3089  3186  3186  3102  2959  2788  2636  2557  2584  2711  2878  2997  3045  3070  3112  3166  3215  3247  3262  3251  3187  3054  2867  2650  2446  2328  2345  2474  2603  2629  2574  2497  2388  2237  2049  1832  1638  1528  1504  1489  1362  1058  649  291  78  -12  -30  -9  0  -69  -273  -613  -971  -1194  -1245  -1183  -1068  -945  -857  -835  -908  -1097  -1358  -1589  -1724  -1774  -1778  -1770  -1777  -1828  -1933  -2072  -2200  -2287  -2329  -2353  -2414  -2549  -2714  -2828  -2873  -2893  -2905  -2865  -2739  -2563  -2400  -2266  -2179  -2189  -2295  -2424  -2515  -2554  -2559  -2556  -2564  -2585  -2595  -2557  -2451  -2282  -2139  -2177  -2399  -2624  -2743  -2817  -2909  -2968  -2920  -2764  -2511  -2162  -1807  -1560  -1442  -1410  -1442  -1518  -1572  -1526  -1391  -1253  -1128  -959  -735  -515  -334  -203  -141  -148  -177  -194  -214  -265  -331  -388  -433  -445  -387  -242  -19  252  529  754  878  907  895  883  876  867  853  834  807  766  702  597  473  407  460  624  843  1044  1175  1239  1253  1204  1061  840  610  424  281  190  142  60  28  316  980  1851  2826  3776  4430  4536  3988  2894  1545  245  -874  -1766  -2368  -2690  -2728  -2469  -2068  -1731  -1522  -1402  -1342  -1335  -1345  -1325  -1280  -1241  -1213  -1191  -1183  -1219  -1329  -1481  -1600  -1655  -1692  -1766  -1880  -1984  -2043  -2040  -1953  -1777  -1575  -1425  -1288  -1055  -741  -489  -383  -387  -409  -319  -9  454  859  1077  1165  1244  1387  1584  1774  1917  2036  2187  2373  2525  2592  2601  2600  2613  2647  2713  2797  2857  2853  2777  2660  2543  2387  2088  1656  1255  999  867  806  802  873  1041  1278  1507  1674  1789  1891  1987  2058  2115  2187  2259  2299  2313  2330  2360  2397  2441  2490  2538  2597  2701  2878  3115  3353  3543  3729  3984  4268  4467  4540  4519  4411  4212  4031  4033  4214  4401  4492  4530  4614  4806  5051  5215  5229  5151  5104  5165  5302  5445  5551  5598  5607  5615  5623  5609  5559  5474  5364  5245  5138  5058  5000  4917  4751  4517  4287  4112  3989  3915  3887  3848  3681  3330  2908  2596  2439  2310  2091  1814  1588  1445  1330  1226  1169  1135  1004  621  -12  -670  -1130  -1363  -1451  -1445  -1383  -1324  -1316  -1380  -1527  -1761  -2060  -2339  -2514  -2594  -2645  -2681  -2702  -2738  -2812  -2934  -3124  -3371  -3618  -3837  -4000  -3929  -3433  -2601  -1696  -936  -600  -890  -1640  -2614  -3730  -4917  -6168  -7461  -8542  -9121  -9128  -8606  -7748  -7004  -6664  -6578  -6483  -6298  -6109  -6026  -6072  -6190  -6311  -6411  -6502  -6588  -6647  -6649  -6556  -6353  -6069  -5755  -5436  -5097  -4733  -4413  -4215  -4127  -4066  -3969  -3831  -3673  -3478  -3222  -2968  -2817  -2791  -2810  -2726  -2389  -1823  -1273  -953  -851  -830  -796  -731  -655  -577  -483  -370  -256  -151  -49  38  68  -8  -193  -425  -617  -715  -737  -750  -793  -829  -804  -764  -777  -810  -832  -874  -926  -955  -980  -1036  -1104  -1098  -953  -720  -539  -481  -508  -564  -636  -716  -771  -769  -700  -583  -445  -309  -196  -117  -55  3  80  183  275  321  342  377  444  529  595  636  673  707  718  712  721  774  873  970  958  768  493  351  477  796  1127  1354  1466  1499  1465  1330  1073  756  513  427  479  595  695  736  738  742  758  754  682  531  357  242  225  295  433  602  739  797  749  584  360  203  209  379  620  811  914  965  994  1006  996  978  970  954  899  820  768  765  797  825  818  753  618  434  245  66  -108  -255  -348  -371  -326  -241  -165  -136  -162  -222  -256  -213  -104  25  164  341  531  596  443  219  234  651  1345  2172  3067  3762  3924  3535  2746  1657  431  -692  -1520  -1920  -1845  -1423  -950  -662  -532  -413  -260  -129  -40  30  92  138  178  238  320  397  451  488  507  511  516  532  555  578  607  649  668  602  458  329  319  454  643  791  895  991  1087  1183  1282  1397  1543  1712  1876  2011  2107  2136  2073  1945  1836  1841  1964  2085  2127  2151  2196  2179  2003  1689  1394  1261  1289  1386  1472  1509  1504  1424  1148  622  38  -331  -432  -404  -367  -344  -320  -291  -275  -287  -330  -392  -432  -428  -414  -413  -409  -393  -373  -355  -336  -321  -342  -437  -588  -721  -785  -765  -649  -457  -269  -160  -134  -154  -203  -272  -339  -375  -371  -332  -275  -221  -185  -176  -214  -319  -467  -587  -647  -679  -700  -700  -665  -606  -566  -569  -585  -595  -601  -584  -538  -491  -466  -465  -496  -570  -668  -742  -767  -741  -665  -567  -496  -466  -457  -462  -489  -508  -440  -274  -125  -123  -296  -547  -726  -776  -755  -735  -736  -740  -714  -625  -482  -349  -293  -305  -302  -248  -200  -199  -221  -235  -238  -239  -241  -239  -217  -165  -96  -43  -19  -16  -34  -87  -164  -242  -309  -360  -392  -413  -443  -486  -505  -481  -445  -427  -422  -413  -394  -370  -344  -321  -290  -231  -156  -99  -70  -53  -32  -28  -77  -182  -299  -374  -383  -321  -198  -54  63  152  233  297  326  308  263  231  198  60  -263  -674  -973  -1096  -1132  -1153  -1140  -1035  -823  -572  -396  -335  -335  -342  -352  -401  -518  -677  -800  -829  -798  -785  -712  -401  161  883  1701  2475  3023  3322  3425  3212  2473  1233  -236  -1611  -2569  -2893  -2639  -2148  -1776  -1543  -1253  -880  -589  -487  -539  -652  -756  -815  -811  -740  -617  -478  -376  -335  -342  -366  -398  -464  -579  -702  -759  -713  -587  -430  -257  -76  86  215  318  394  434  449  474  526  584  633  686  769  894  1045  1167  1225  1230  1213  1206  1251  1369  1489  1487  1357  1222  1166  1167  1173  1160  1133  1104  1073  1034  972  857  642  297  -102  -409  -559  -606  -623  -640  -659  -675  -669  -635  -590  -556  -552  -596  -698  -823  -915  -943  -912  -832  -736  -668  -646  -658  -694  -741  -775  -766  -700  -606  -522  -432  -298  -176  -184  -326  -469  -512  -459  -371  -307  -281  -280  -307  -378  -479  -555  -543  -402  -176  4  67  68  81  124  183  237  289  344  369  335  278  246  250  275  307  339  374  410  427  405  335  228  127  86  127  208  269  295  307  300  217  29  -163  -203  -77  71  149  157  133  115  125  153  175  183  186  193  204  210  210  205  199  197  203  223  259  307  364  424  456  422  318  191  96  45  22  22  41  71  106  139  135  39  -129  -268  -323  -331  -334  -327  -289  -221  -153  -116  -108  -112  -112  -103  -84  -48  6  44  26  -19  -31  12  89  168  249  329  379  386  378  397  476  617  773  877  895  852  791  739  680  597  512  434  325  150  -105  -385  -564  -597  -552  -492  -442  -406  -363  -292  -209  -158  -162  -217  -300  -385  -462  -533  -590  -589  -460  -147  374  1066  1817  2543  3172  3572  3580  3064  2034  664  -854  -2263  -3206  -3458  -3069  -2261  -1358  -728  -517  -511  -484  -432  -430  -495  -569  -576  -513  -442  -375  -273  -133  -11  49  48  8  -42  -89  -115  -116  -107  -98  -69  5  120  225  279  294  310  360  437  500  549  632  792  996  1161  1240  1253  1252  1291  1392  1495  1530  1542  1618  1762  1928  2079  2177  2223  2232  2163  1943  1603  1301  1145  1090  1039  963  882  797  678  501  286  92  -29  -91  -160  -284  -433  -539  -584  -606  -627  -619  -548  -424  -309  -244  -232  -254  -295  -357  -434  -496  -519  -511  -502  -524  -600  -707  -786  -815  -816  -814  -809  -778  -707  -619  -528  -434  -363  -334  -308  -239  -149  -128  -231  -405  -539  -600  -630  -659  -692  -725  -738  -718  -675  -632  -615  -645  -715  -790  -838  -858  -864  -839  -727  -513  -278  -136  -143  -286  -488  -641  -693  -677  -643  -617  -596  -572  -558  -580  -645  -744  -864  -997  -1104  -1085  -867  -541  -306  -258  -352  -517  -691  -818  -878  -894  -890  -881  -860  -802  -683  -551  -511  -592  -720  -795  -778  -681  -509  -282  -85  13  29  12  -12  -40  -67  -75  -61  -40  -27  -22  -20  -16  -1  27  68  106  122  109  75  32  -23  -96  -168  -216  -257  -337  -464  -581  -641  -650  -639  -630  -635  -663  -713  -767  -804  -813  -809  -825  -852  -805  -619  -347  -81  166  498  1050  1839  2666  3206  3199  2575  1471  163  -1073  -2110  -2856  -3143  -2920  -2337  -1671  -1201  -984  -855  -699  -536  -425  -362  -300  -235  -197  -183  -182  -184  -175  -154  -148  -173  -206  -207  -172  -127  -94  -79  -66  -16  98  255  400  493  525  524  547  653  847  1060  1208  1263  1260  1244  1257  1339  1496  1691  1886  2055  2148  2133  2043  1944  1882  1862  1865  1887  1934  1986  1992  1902  1683  1353  1017  794  707  702  718  696  598  437  255  71  -91  -193  -246  -303  -373  -412  -400  -371  -356  -357  -364  -370  -376  -382  -386  -377  -350  -310  -270  -239  -226  -249  -317  -416  -502  -511  -390  -126  227  563  757  747  553  277  59  -47  -76  -48  34  144  224  233  190  149  129  100  39  -17  -17  27  61  59  38  10  -30  -82  -121  -138  -150  -164  -171  -154  -112  -67  -48  -62  -86  -98  -99  -107  -131  -161  -189  -212  -225  -212  -165  -101  -49  -23  -18  -53  -161  -321  -446  -477  -439  -395  -375  -371  -372  -388  -435  -507  -581  -645  -700  -743  -761  -750  -732  -717  -694  -641  -556  -477  -426  -405  -430  -504  -573  -603  -610  -607  -557  -399  -139  143  372  507  556  560  552  519  415  225  23  -105  -197  -352  -561  -723  -776  -758  -728  -703  -657  -571  -467  -387  -349  -343  -363  -419  -504  -588  -652  -695  -704  -676  -640  -627  -654  -654  -431  153  1028  1994  2851  3448  3649  3388  2719  1707  438  -881  -2015  -2741  -2880  -2493  -1857  -1263  -891  -745  -720  -731  -728  -669  -532  -342  -166  -56  5  86  208  325  388  400  382  323  193  23  -79  -32  154  388  562  633  637  623  613  605  599  611  682  857  1112  1346  1480  1524  1529  1531  1553  1612  1701  1781  1821  1837  1871  1949  2052  2142  2199  2230  2238  2204  2106  1961  1803  1632  1461  1345  1281  1186  990  704  377  59  -186  -308  -330  -327  -351  -402  -454  -490  -511  -514  -489  -436  -376  -336  -322  -321  -324  -336  -363  -390  -390  -359  -335  -341  -354  -351  -355  -403  -510  -638  -727  -754  -721  -627  -483  -326  -208  -189  -275  -377  -416  -401  -383  -400  -468  -560  -614  -603  -556  -519  -509  -512  -504  -468  -417  -373  -346  -326  -308  -292  -286  -330  -457  -630  -757  -802  -801  -788  -764  -718  -658  -573  -452  -354  -350  -434  -549  -603  -549  -453  -417  -459  -533  -589  -610  -614  -610  -578  -496  -379  -277  -232  -251  -320  -427  -544  -621  -633  -595  -542  -506  -503  -531  -572  -607  -630  -636  -620  -586  -560  -579  -623  -613  -524  -416  -342  -308  -302  -307  -313  -317  -312  -291  -246  -179  -101  -27  28  59  68  67  64  66  77  95  96  18  -176  -420  -585  -627  -608  -614  -702  -866  -1034  -1149  -1210  -1251  -1305  -1375  -1424  -1410  -1317  -1186  -1091  -1074  -1124  -1176  -1115  -855  -377  280  1005  1682  2268  2683  2754  2324  1374  26  -1472  -2745  -3438  -3493  -3123  -2592  -2151  -1882  -1642  -1379  -1190  -1087  -1008  -931  -879  -880  -936  -1027  -1112  -1171  -1208  -1214  -1149  -973  -707  -453  -310  -278  -291  -301  -294  -280  -268  -254  -207  -103  16  60  -7  -102  -72  155  490  766  899  932  943  966  994  1017  1023  1007  975  944  931  955  1038  1167  1286  1348  1353  1326  1278  1202  1057  817  541  326  191  87  -19  -139  -252  -333  -388  -452  -549  -694  -883  -1060  -1165  -1197  -1199  -1184  -1117  -967  -761  -564  -417  -311  -216  -121  -57  -74  -194  -364  -497  -563  -569  -492  -299  -52  119  167  138  92  58  29  -5  -9  99  318  509  550  418  166  -96  -253  -277  -217  -137  -59  52  228  432  610  748  850  920  956  950  886  748  570  435  397  436  504  567  621  683  764  837  877  892  900  913  938  980  1035  1082  1105  1112  1116  1111  1061  943  794  691  669  703  756  810  877  960  1033  1057  1002  900  834  840  926  1100  1308  1473  1585  1650  1641  1546  1410  1315  1303  1344  1391  1421  1431  1421  1370  1246  1020  713  426  258  208  216  236  240  222  180  103  -2  -106  -175  -197  -181  -147  -122  -119  -130  -138  -141  -156  -209  -271  -203  210  999  1878  2582  3043  3189  2996  2564  1899  885  -457  -1874  -2977  -3429  -3148  -2385  -1546  -901  -540  -428  -442  -475  -474  -403  -282  -188  -155  -148  -122  -71  -10  54  115  156  177  202  242  289  330  351  323  222  81  -22  -33  55  211  374  511  626  704  722  716  742  798  880  1022  1201  1343  1440  1553  1696  1818  1868  1833  1712  1555  1444  1409  1415  1417  1389  1338  1279  1206  1101  969  826  674  507  326  138  -56  -246  -410  -542  -676  -821  -927  -964  -972  -1006  -1090  -1206  -1299  -1269  -1060  -777  -663  -842  -1163  -1384  -1432  -1385  -1305  -1222  -1169  -1156  -1166  -1175  -1155  -1084  -983  -905  -878  -885  -899  -910  -920  -931  -939  -934  -921  -902  -868  -791  -654  -497  -387  -344  -345  -402  -540  -711  -795  -727  -572  -483  -539  -661  -752  -819  -887  -922  -863  -726  -582  -458  -348  -273  -257  -290  -355  -427  -474  -479  -450  -397  -320  -212  -118  -119  -208  -291  -292  -187  0]
