reading_id,reading_time,wire_id,result_classification,heart_rate,heart_rate_alert,firmware_version,device_app_version,hardware_version,waveform_samples
d67ba330-6c6f-11ed-8080-808080808080,Fri Nov 25 03:18:31 UTC 2022,e100638c1a39,NSR,78,NONE,20001.171.50,2.10.0,Charge 5,[10939  10994  11010  10867  10401  9578  8630  7887  7422  7041  6617  6214  5886  5572  5182  4646  3938  3160  2504  2048  1767  1681  1758  1862  1949  2127  2377  2470  2361  2136  1500  124  -1786  -3841  -5649  -6695  -6771  -6186  -5294  -4341  -3616  -3271  -3173  -3116  -3040  -3112  -3469  -3931  -4220  -4301  -4318  -4407  -4616  -4912  -5202  -5398  -5514  -5661  -5896  -6158  -6371  -6544  -6765  -7106  -7531  -7877  -8000  -7947  -7873  -7827  -7721  -7451  -7047  -6687  -6512  -6490  -6504  -6475  -6417  -6433  -6588  -6807  -6968  -7043  -7106  -7271  -7577  -7919  -8160  -8288  -8376  -8476  -8606  -8749  -8857  -8906  -8930  -8992  -9133  -9301  -9415  -9470  -9506  -9517  -9472  -9322  -9042  -8755  -8638  -8714  -8877  -9015  -9024  -8852  -8534  -8190  -7939  -7783  -7637  -7462  -7295  -7172  -7099  -7052  -6973  -6796  -6560  -6383  -6291  -6208  -6102  -6018  -5988  -5991  -6006  -6029  -6056  -6037  -5883  -5559  -5167  -4842  -4608  -4427  -4300  -4229  -4206  -4226  -4245  -4183  -4031  -3873  -3791  -3790  -3833  -3859  -3754  -3392  -2824  -2354  -2196  -2219  -2185  -2019  -1793  -1628  -1559  -1530  -1507  -1500  -1508  -1514  -1505  -1464  -1407  -1384  -1401  -1422  -1432  -1443  -1458  -1442  -1332  -1098  -808  -546  -352  -257  -213  0  536  1287  2053  2786  3500  4050  4187  3663  2356  526  -1259  -2521  -3092  -3147  -3059  -3031  -2962  -2630  -1921  -1059  -461  -288  -395  -609  -819  -957  -1034  -1070  -986  -689  -264  83  273  371  451  534  608  660  690  691  628  480  296  164  108  109  198  443  802  1115  1286  1356  1398  1461  1580  1729  1838  1894  1960  2066  2171  2236  2278  2335  2407  2436  2328  2040  1653  1321  1128  1011  859  634  389  183  65  75  176  275  358  530  869  1268  1496  1455  1261  1073  913  703  444  244  159  142  138  171  343  706  1141  1469  1624  1647  1556  1352  1080  844  720  697  726  782  845  886  888  858  801  710  553  310  46  -128  -180  -154  -87  5  119  240  321  308  213  127  148  303  542  803  1021  1137  1122  973  739  521  395  353  360  408  506  635  755  835  809  593  224  -134  -408  -647  -884  -1086  -1207  -1236  -1201  -1155  -1155  -1215  -1211  -852  56  1292  2436  3295  3758  3620  2824  1564  39  -1560  -2870  -3529  -3493  -2998  -2338  -1720  -1253  -999  -943  -976  -961  -810  -561  -316  -118  30  118  149  146  131  113  115  187  359  569  707  748  768  837  942  1019  1045  1063  1122  1207  1260  1286  1425  1834  2445  2971  3221  3254  3223  3208  3188  3134  3043  2927  2814  2747  2731  2713  2629  2473  2281  2048  1759  1462  1232  1063  881  673  503  419  407  431  461  476  459  399  304  207  129  70  9  -78  -190  -297  -384  -458  -538  -643  -784  -934  -1033  -1056  -1024  -964  -901  -854  -829  -826  -839  -856  -871  -886  -901  -906  -881  -808  -695  -582  -534  -564  -606  -605  -579  -559  -552  -547  -545  -567  -625  -670  -618  -446  -228  -49  67  144  215  312  423  473  407  250  87  -31  -112  -166  -227  -381  -651  -939  -1123  -1182  -1170  -1110  -991  -838  -712  -648  -636  -657  -691  -715  -708  -655  -593  -635  -834  -1016  -825  -12  1276  2576  3514  3963  3892  3295  2216  739  -933  -2416  -3319  -3546  -3275  -2757  -2229  -1778  -1333  -898  -583  -427  -362  -307  -218  -105  5  89  120  94  46  13  4  10  36  104  230  400  562  663  714  778  877  976  1055  1129  1206  1280  1358  1435  1485  1529  1648  1901  2273  2643  2853  2857  2711  2454  2159  1935  1775  1580  1350  1181  1099  1028  872  598  285  73  8  16  12  -39  -127  -228  -366  -576  -823  -1021  -1121  -1132  -1084  -1024  -988  -977  -980  -997  -1034  -1085  -1131  -1144  -1083  -909  -651  -418  -293  -248  -190  -68  95  248  383  550  742  868  872  781  637  443  194  -60  -223  -218  -36  249  516  677  717  679  646  673  737  790  814  818  817  823  839  858  864  857  854  845  767  558  253  -25  -189  -265  -323  -388  -444  -471  -466  -458  -482  -516  -510  -459  -414  -409  -436  -469  -509  -570  -657  -738  -712  -423  216  1132  2144  3068  3773  4160  4029  3195  1755  -5  -1745  -3017  -3507  -3285  -2634  -1859  -1216  -821  -569  -288  12  210  272  263  235  185  91  -27  -111  -108  -16  114  215  262  265  223  150  69  -4  -40  12  158  360  567  722  818  899  992  1099  1238  1411  1572  1694  1804  1882  1844  1677  1489  1386  1367  1366  1313  1132  785  341  -51  -302  -410  -437  -462  -521  -605  -695  -795  -905  -995  -1066  -1188  -1382  -1555  -1645  -1684  -1710  -1720  -1708  -1686  -1665  -1637  -1585  -1522  -1466  -1384  -1211  -947  -683  -512  -437  -408  -394  -393  -396  -392  -382  -364  -331  -286  -256  -258  -293  -332  -334  -277  -163  -10  134  220  252  299  412  568  697  764  772  702  518  272  84  4  8  86  231  328  224  -35  -240  -294  -274  -271  -303  -348  -399  -433  -381  -239  -101  -34  -23  -30  -30  -28  -33  3  172  459  804  1223  1729  2280  2823  3237  3273  2722  1638  260  -1137  -2252  -2845  -2883  -2469  -1754  -989  -451  -231  -199  -199  -179  -158  -154  -152  -117  -31  73  149  180  169  135  100  72  69  143  337  601  810  903  907  876  840  815  805  810  848  957  1140  1333  1473  1554  1603  1637  1664  1682  1694  1701  1689  1626  1501  1350  1198  1023  829  664  570  538  511  399  144  -204  -514  -693  -752  -749  -739  -738  -712  -637  -555  -515  -520  -543  -561  -589  -651  -740  -811  -832  -790  -694  -585  -493  -412  -355  -361  -436  -522  -544  -500  -441  -399  -378  -382  -413  -466  -521  -558  -569  -563  -556  -551  -535  -506  -497  -527  -545  -476  -303  -115  -20  -45  -146  -269  -381  -474  -519  -497  -450  -437  -474  -531  -575  -599  -623  -657  -701  -749  -791  -830  -872  -912  -935  -936  -916  -883  -854  -851  -872  -884  -873  -857  -851  -859  -815  -555  -57  444  793  1064  1359  1697  1956  1861  1127  -293  -2024  -3438  -4072  -3858  -3076  -2189  -1609  -1451  -1503  -1511  -1397  -1223  -1079  -990  -915  -805  -642  -467  -355  -327  -325  -302  -261  -222  -199  -190  -177  -144  -96  -61  -51  -58  -63  -42  16  81  97  59  34  105  313  634  989  1287  1473  1546  1551  1537  1529  1533  1544  1544  1497  1375  1215  1096  1041  1002  918  755  512  256  96  63  87  68  -60  -269  -449  -532  -542  -528  -508  -477  -439  -410  -400  -402  -409  -418  -427  -431  -410  -346  -251  -167  -133  -167  -263  -391  -518  -627  -717  -777  -780  -697  -551  -412  -323  -279  -255  -221  -163  -88  0  101  198  244  193  47  -124  -234  -258  -234  -195  -152  -97  -22  56  124  253  537  911  1181  1251  1183  1082  1012  987  991  1002  992  918  737  451  147  -53  -126  -132  -128  -133  -153  -182  -206  -221  -226  -210  -162  -91  -30  -9  -31  -101  -249  -506  -800  -897  -596  139  1242  2398  3156  3459  3536  3458  3166  2450  1052  -828  -2554  -3552  -3602  -2908  -1965  -1174  -658  -362  -212  -158  -158  -171  -179  -172  -143  -94  -22  86  221  334  404  444  467  473  465  449  436  430  425  411  401  432  532  676  812  930  1073  1269  1479  1645  1771  1892  2010  2103  2162  2195  2215  2215  2147  1958  1662  1366  1172  1090  1042  921  694  449  297  254  254  208  67  -127  -276  -340  -366  -403  -454  -497  -521  -530  -537  -552  -582  -627  -676  -714  -735  -742  -742  -734  -708  -661  -613  -601  -645  -719  -778  -800  -788  -739  -659  -573  -507  -478  -482  -494  -502  -511  -518  -516  -498  -465  -427  -397  -380  -376  -407  -502  -639  -750  -789  -777  -763  -772  -785  -777  -756  -743  -749  -768  -791  -807  -816  -822  -826  -824  -809  -784  -768  -789  -854  -937  -1000  -1033  -1051  -1064  -1074  -1075  -1034  -897  -679  -502  -439  -430  -400  -329  -239  -171  -144  -132  -110  -68  -20  9  15  10  -1  -35  -109  -213  -310  -391  -478  -560  -608  -620  -603  -574  -559  -560  -564  -561  -554  -552  -562  -579  -593  -615  -670  -753  -770  -620  -299  189  898  1797  2743  3555  4040  4009  3374  2201  681  -875  -2132  -2884  -3081  -2833  -2372  -1862  -1353  -916  -638  -510  -448  -394  -328  -213  -8  258  487  610  641  630  617  629  674  739  801  871  973  1111  1256  1368  1435  1479  1505  1501  1475  1457  1478  1570  1759  2049  2381  2639  2755  2780  2801  2849  2884  2810  2559  2210  1930  1778  1694  1629  1570  1512  1444  1349  1218  1068  944  870  793  632  411  249  196  198  178  106  8  -67  -100  -120  -170  -253  -339  -387  -370  -308  -254  -240  -251  -264  -269  -275  -290  -303  -305  -304  -333  -425  -553  -646  -648  -558  -432  -334  -288  -275  -281  -302  -349  -436  -540  -619  -659  -665  -641  -593  -539  -522  -560  -616  -646  -653  -658  -692  -778  -888  -961  -975  -953  -911  -856  -803  -777  -790  -822  -852  -880  -912  -929  -914  -885  -869  -867  -871  -878  -887  -883  -841  -760  -676  -611  -555  -501  -450  -400  -347  -309  -295  -295  -297  -287  -257  -206  -145  -95  -71  -99  -222  -437  -674  -870  -1009  -1101  -1170  -1239  -1292  -1307  -1275  -1214  -1183  -1219  -1287  -1326  -1303  -1209  -1071  -955  -913  -987  -1186  -1373  -1290  -754  190  1293  2281  2980  3223  2884  1978  613  -989  -2479  -3556  -4135  -4227  -3840  -3109  -2285  -1616  -1228  -1046  -913  -781  -686  -638  -616  -603  -597  -587  -576  -575  -588  -580  -480  -248  38  252  344  353  318  255  174  104  104  217  411  606  759  875  964  1037  1128  1277  1475  1655  1771  1839  1873  1879  1881  1910  1971  2005  1958  1850  1742  1650  1552  1434  1311  1206  1131  1063  939  707  420  197  83  13  -63  -116  -113  -84  -68  -71  -83  -96  -109  -117  -111  -93  -82  -79  -73  -64  -56  -46  -21  45  164  302  401  433  395  301  192  119  98  105  113  114  111  115  138  186  251  315  357  370  371  371  372  355  307  240  191  172  174  176  160  114  52  6  -27  -75  -136  -158  -100  24  160  267  331  342  279  131  -57  -186  -185  -55  124  260  324  360  409  483  564  639  705  745  754  759  775  789  784  755  702  630  545  472  423  378  324  244  128  13  -50  -10  126  250  301  307  237  65  -134  -282  -367  -413  -448  -466  -421  -281  -60  245  696  1331  2140  3050  3768  3934  3479  2462  968  -684  -2158  -3254  -3761  -3621  -3083  -2454  -1913  -1555  -1344  -1155  -944  -751  -594  -489  -475  -494  -453  -384  -335  -278  -212  -168  -149  -132  -108  -90  -97  -123  -125  -51  123  364  578  693  718  713  720  737  752  787  895  1102  1353  1544  1635  1660  1673  1694  1709  1701  1671  1622  1550  1423  1202  913  650  479  377  234  -31  -351  -584  -700  -778  -883  -1008  -1086  -1041  -907  -808  -798  -822  -817  -757  -663  -590  -576  -605  -632  -636  -630  -590  -445  -211  -18  58  53  11  -69  -200  -350  -465  -539  -596  -620  -537  -290  35  251  240  54  -164  -312  -394  -468  -568  -683  -765  -790  -773  -749  -731  -717  -702  -677  -623  -540  -467  -437  -451  -486  -504  -478  -424  -373  -333  -308  -300  -322  -386  -473  -542  -574  -571  -527  -424  -264  -92  14  32  4  -18  -21  -11  0  3  0  -2  6  39  94  177  307  465  581  622  619  604  579  535  479  420  299  34  -313  -567  -649  -628  -597  -615  -716  -862  -965  -974  -910  -824  -757  -721  -711  -710  -696  -662  -655  -714  -711  -428  170  1014  2042  3049  3703  3814  3341  2340  989  -519  -2009  -3235  -3916  -3913  -3373  -2571  -1750  -1145  -869  -796  -744  -674  -637  -632  -599  -495  -340  -178  -57  -18  -74  -184  -280  -328  -332  -282  -147  85  359  574  670  670  631  607  641  745  880  988  1049  1112  1239  1430  1617  1755  1851  1913  1949  1975  2004  2037  2051  2011  1885  1671  1393  1100  869  724  619  510  407  339  293  209  34  -247  -586  -864  -1006  -1057  -1113  -1222  -1322  -1292  -1114  -881  -642  -420  -266  -210  -250  -384  -592  -795  -907  -872  -676  -386  -146  -35  -5  12  28  31  43  82  130  152  136  106  103  134  152  110  6  -125  -229  -255  -243  -275  -348  -392  -374  -318  -266  -239  -229  -222  -219  -231  -261  -303  -349  -381  -387  -369  -351  -391  -500  -609  -657  -660  -653  -654  -662  -654  -594  -468  -314  -190  -122  -98  -108  -150  -210  -261  -285  -262  -158  17  186  256  211  112  28  -24  -65  -111  -171  -247  -324  -377  -422  -511  -651  -794  -881  -896  -869  -842  -829  -820  -798  -760  -712  -655  -582  -485  -414  -477  -632  -619  -183  718  1867  2935  3631  3734  3163  2015  552  -935  -2284  -3296  -3723  -3522  -2871  -2055  -1405  -1088  -993  -896  -677  -389  -157  -46  -37  -87  -148  -191  -218  -224  -153  50  327  516  523  410  330  363  450  524  596  679  758  813  843  871  921  1016  1173  1377  1565  1674  1707  1710  1711  1716  1735  1781  1846  1892  1863  1723  1509  1284  1058  828  632  477  316  135  -54  -248  -428  -569  -665  -715  -726  -713  -692  -675  -671  -679  -687  -673  -629  -581  -558  -568  -595  -616  -624  -625  -628  -635  -639  -610  -526  -407  -298  -209  -129  -72  -41  -12  21  43  37  5  -35  -68  -72  -13  99  209  276  302  284  203  58  -100  -213  -251  -232  -192  -158  -127  -75  10  112  210  299  371  411  408  359  284  214  175  197  321  545  783  944  1010  983  854  664  497  389  296  150  -41  -198  -271  -274  -226  -129  -11  78  109  78  0  -93  -156  -175  -169  -171  -206  -248  -215  -123  -58  95  576  1366  2159  2752  3211  3542  3548  3042  1918  277  -1394  -2529  -2933  -2803  -2446  -2050  -1661  -1263  -848  -473  -216  -84  -28  -9  7  48  102  129  100  35  -21  -46  -45  -24  12  64  127  200  290  394  497  587  659  707  725  715  731  867  1145  1473  1719  1827  1848  1852  1847  1821  1793  1806  1875  1956  1971  1873  1688  1490  1347  1247  1118  902  612  337  154  57  -32  -198  -447  -690  -851  -930  -944  -906  -844  -783  -729  -669  -612  -597  -647  -741  -825  -871  -904  -969  -1069  -1151  -1174  -1144  -1096  -1062  -1030  -964  -860  -750  -661  -605  -578  -570  -584  -616  -647  -647  -592  -476  -329  -206  -151  -178  -288  -466  -648  -734  -677  -542  -433  -394  -412  -475  -564  -640  -660  -597  -447  -263  -123  -43  16  74  123  163  201  234  254  249  225  207  224  272  297  255  178  96  -20  -194  -393  -561  -649  -653  -610  -564  -545  -555  -580  -601  -616  -624  -628  -632  -632  -614  -560  -478  -409  -376  -270  131  877  1739  2543  3273  3851  4062  3708  2663  904  -1286  -3274  -4418  -4459  -3588  -2304  -1180  -584  -476  -538  -539  -477  -419  -366  -285  -187  -124  -117  -138  -156  -155  -105  20  208  393  515  556  542  521  520  525  530  575  676  789  886  1003  1181  1381  1533  1612  1635  1633  1643  1699  1813  1971  2129  2235  2279  2275  2227  2154  2076  1921  1594  1146  766  568  480  380  226  53  -93  -200  -280  -354  -452  -588  -765  -972  -1154  -1224  -1158  -1029  -925  -868  -841  -833  -833  -832  -830  -836  -863  -920  -1005  -1105  -1191  -1236  -1240  -1224  -1201  -1168  -1105  -1006  -905  -850  -846  -839  -799  -746  -701  -670  -656  -644  -624  -608  -604  -606  -608  -608  -607  -607  -607  -607  -609  -616  -620  -613  -598  -602  -627  -634  -607  -574  -563  -581  -620  -672  -729  -771  -768  -688  -520  -301  -108  3  43  43  32  28  45  85  132  175  199  170  76  -47  -187  -355  -531  -661  -719  -725  -713  -702  -692  -671  -633  -589  -559  -548  -544  -545  -572  -645  -743  -819  -857  -858  -785  -543  -75  578  1333  2124  2858  3393  3608  3324  2334  692  -1239  -3005  -4115  -4251  -3568  -2533  -1550  -864  -518  -370  -280  -213  -164  -116  -78  -67  -79  -97  -115  -116  -52  119  348  517  574  564  540  519  509  538  637  784  909  971  987  981  974  996  1095  1320  1660  2005  2255  2405  2492  2536  2542  2509  2436  2346  2274  2235  2225  2220  2171  2030  1785  1463  1125  855  688  571  440  311  233  183  103  -24  -179  -331  -441  -492  -503  -493  -456  -388  -324  -324  -393  -478  -535  -553  -513  -396  -239  -126  -89  -96  -113  -135  -168  -200  -206  -192  -187  -210  -251  -273  -257  -221  -186  -148  -114  -96  -91  -93  -93  -90  -90  -113  -177  -262  -324  -349  -357  -364  -361  -339  -305  -280  -271  -275  -282  -288  -296  -304  -293  -239  -149  -53  7  12  -28  -85  -127  -141  -131  -98  -49  -2  30  46  46  36  23  37  122  288  473  601  642  591  435  195  -54  -245  -344  -365  -354  -353  -384  -440  -506  -576  -659  -765  -894  -1015  -1072  -1003  -779  -477  -223  -1  282  534  575  484  540  916  1555  2260  2806  2995  2716  1991  926  -318  -1524  -2472  -3032  -3121  -2740  -2090  -1396  -777  -359  -185  -153  -151  -141  -127  -106  -61  -3  35  47  59  97  161  231  287  314  319  327  357  405  439  447  442  436  417  363  291  249  275  366  501  670  885  1160  1458  1711  1878  1960  1943  1806  1605  1453  1405  1415  1394  1280  1087  873  666  484  370  325  275  146  -52  -260  -436  -562  -634  -670  -683  -652  -560  -447  -398  -461  -608  -770  -898  -972  -986  -922  -769  -582  -460  -435  -461  -495  -527  -545  -516  -424  -314  -262  -275  -319  -373  -420  -444  -448  -451  -456  -458  -445  -416  -387  -379  -416  -508  -628  -721  -762  -761  -726  -663  -588  -533  -513  -527  -574  -650  -730  -794  -831  -858  -907  -980  -1051  -1095  -1101  -1080  -1030  -912  -711  -496  -362  -320  -329  -350  -360  -343  -302  -258  -232  -224  -213  -170  -76  46  147  183  115  -73  -314  -486  -552  -561  -554  -531  -481  -428  -431  -507  -593  -634  -643  -659  -703  -759  -791  -792  -780  -778  -801  -828  -768  -567  -227  337  1183  2100  2798  3141  3072  2557  1617  337  -1117  -2512  -3491  -3754  -3396  -2757  -2072  -1503  -1172  -1044  -971  -825  -563  -265  -54  25  21  -15  -57  -78  -39  91  270  401  445  437  413  393  404  492  663  844  953  978  958  925  904  957  1158  1486  1794  1980  2075  2154  2237  2298  2324  2325  2299  2224  2101  1967  1868  1805  1734  1611  1427  1200  975  779  601  410  165  -154  -479  -689  -753  -739  -709  -675  -645  -647  -704  -788  -851  -880  -897  -902  -859  -745  -600  -496  -457  -451  -449  -449  -458  -488  -537  -564  -534  -467  -404  -359  -328  -306  -302  -322  -342  -312  -193  -25  102  149  145  131  117  84  2  -107  -174  -156  -76  19  107  212  339  433  440  369  271  197  157  128  103  96  106  124  142  156  172  186  195  206  219  232  243  251  253  228  155  44  -66  -143  -170  -157  -143  -201  -393  -664  -876  -945  -860  -632  -342  -128  -48  -72  -172  -321  -465  -548  -554  -476  -304  -40  282  577  750  796  776  727  631  472  276  100  -17  -92  -166  -249  -293  -240  -88  109  279  364  364  324  285  249  195  151  153  184  210  238  315  462  640  789  860  799  559  207  -88  -237  -301  -356  -391  -373  -330  -310  -338  -406  -496  -587  -660  -698  -704  -701  -711  -747  -799  -842  -844  -776  -654  -606  -703  -705  -249  741  2039  3239  3936  3941  3316  2246  902  -594  -2107  -3378  -4071  -3998  -3256  -2179  -1233  -770  -735  -810  -810  -748  -680  -637  -621  -616  -611  -620  -660  -739  -827  -890  -929  -977  -1037  -1065  -1003  -841  -647  -506  -422  -351  -284  -241  -224  -221  -222  -222  -190  -88  95  332  563  753  931  1116  1254  1306  1308  1303  1302  1293  1231  1066  833  646  556  505  403  218  3  -157  -205  -142  -52  -36  -98  -165  -196  -216  -254  -302  -346  -384  -403  -392  -355  -299  -245  -207  -177  -158  -176  -239  -300  -293  -214  -128  -81  -59  -31  21  93  164  211  233  242  236  208  151  67  -8  -24  25  118  221  282  285  290  291  225  119  48  42  98  188  257  285  301  337  381  402  393  361  313  271  256  271  294  289  227  128  46  6  -6  -4  47  200  446  672  730  565  274  34  -66  -57  7  99  200  297  375  423  433  401  344  299  302  362  453  532  577  593  595  592  583  564  537  513  496  492  529  638  793  931  1027  1082  1094  1083  1088  1115  1131  1109  1074  1072  1125  1202  1249  1225  1122  974  850  789  757  690  555  382  252  184  73  -181  -483  -622  -559  -418  -281  -189  -190  -292  -442  -557  -614  -672  -785  -911  -841  -303  680  1753  2634  3221  3384  3000  2080  754  -716  -2044  -3065  -3676  -3814  -3559  -3041  -2396  -1812  -1377  -1052  -839  -748  -739  -755  -754  -715  -658  -616  -583  -528  -454  -396  -369  -353  -305  -198  -64  25  49  42  35  28  10  -19  -22  46  189  346  448  517  662  937  1255  1505  1653  1707  1690  1653  1633  1620  1589  1535  1477  1413  1316  1188  1062  942  789  566  293  28  -181  -351  -529  -719  -853  -865  -749  -607  -594  -736  -919  -1047  -1087  -1051  -990  -953  -942  -939  -932  -915  -906  -919  -938  -915  -841  -751  -696  -696  -703  -647  -532  -428  -363  -306  -240  -176  -127  -100  -120  -197  -297  -369  -382  -355  -319  -286  -248  -205  -164  -146  -162  -197  -234  -280  -336  -386  -418  -436  -451  -452  -429  -393  -366  -357  -360  -363  -351  -306  -227  -140  -77  -41  -22  -18  -50  -153  -329  -513  -631  -667  -655  -625  -572  -476  -343  -223  -158  -146  -151  -146  -125  -98  -67  -22  23  40  17  -6  33  164  348  501  574  585  568  532  474  395  315  245  162  26  -174  -397  -578  -679  -697  -652  -588  -534  -483  -454  -481  -562  -665  -759  -825  -852  -829  -763  -718  -740  -661  -223  548  1390  2109  2641  2985  3162  3162  2853  1968  387  -1553  -3199  -4054  -3991  -3172  -2033  -1110  -630  -471  -429  -383  -307  -209  -99  2  56  52  23  0  -6  14  89  242  446  632  753  800  777  701  627  615  655  696  745  888  1171  1504  1722  1763  1678  1557  1478  1490  1598  1755  1888  1978  2058  2148  2215  2221  2184  2130  2020  1796  1467  1139  927  819  695  477  208  -11  -168  -339  -552  -736  -829  -860  -888  -925  -963  -992  -993  -974  -967  -967  -949  -940  -986  -1079  -1169  -1221  -1247  -1272  -1293  -1298  -1276  -1232  -1178  -1107  -1008  -900  -817  -774  -763  -771  -796  -836  -846  -774  -640  -533  -503  -527  -565  -594  -623  -670  -733  -791  -823  -840  -862  -860  -782  -644  -506  -408  -354  -328  -310  -290  -259  -220  -191  -178  -177  -194  -238  -298  -347  -364  -343  -281  -198  -130  -91  -72  -69  -81  -95  -95  -81  -66  -58  -58  -77  -128  -200  -254  -254  -182  -56  64  132  149  145  128  88  30  -23  -57  -69  -35  80  269  474  634  718  737  720  694  670  655  650  654  648  610  543  458  350  212  35  -176  -364  -467  -490  -479  -469  -465  -465  -469  -478  -491  -499  -499  -494  -492  -515  -573  -624  -584  -409  -83  475  1291  2213  3038  3618  3795  3407  2442  1045  -611  -2242  -3414  -3833  -3513  -2716  -1813  -1092  -657  -467  -397  -308  -132  83  241  302  311  326  367  422  476  520  547  557  537  461  339  237  221  282  370  495  709  973  1165  1243  1279  1336  1418  1514  1623  1728  1800  1835  1860  1912  2015  2141  2238  2287  2307  2303  2247  2112  1924  1747  1609  1510  1436  1336  1151  886  603  355  170  47  -39  -116  -191  -264  -328  -373  -400  -425  -455  -480  -487  -479  -474  -489  -507  -466  -364  -301  -343  -448  -532  -564  -563  -560  -580  -623  -649  -601  -458  -242  -19  133  157  53  -104  -221  -282  -339  -408  -450  -445  -417  -393  -382  -384  -397  -422  -455  -483  -495  -478  -422  -341  -272  -245  -268  -325  -387  -425  -435  -429  -425  -438  -476  -532  -592  -649  -697  -727  -746  -756  -727  -612  -420  -233  -128  -102  -116  -164  -242  -285  -200  -1  208  372  493  561  556  472  339  208  88  -56  -227  -360  -416  -422  -446  -533  -659  -755  -786  -771  -737  -697  -660  -633  -633  -689  -818  -979  -1102  -1134  -1026  -720  -209  461  1217  1905  2390  2740  3043  3094  2608  1577  167  -1387  -2719  -3487  -3610  -3241  -2591  -1855  -1223  -808  -575  -428  -323  -263  -240  -229  -223  -234  -255  -268  -258  -211  -134  -50  16  60  84  101  119  134  140  153  218  365  566  751  858  888  890  907  952  1038  1192  1394  1575  1702  1782  1803  1755  1677  1639  1670  1726  1743  1705  1640  1569  1469  1311  1105  895  710  547  384  209  32  -119  -243  -374  -512  -606  -625  -595  -553  -521  -508  -529  -610  -742  -869  -939  -941  -884  -789  -679  -579  -504  -462  -450  -457  -475  -503  -534  -557  -572  -586  -592  -549  -417  -229  -82  -28  -37  -47  -34  -13  -22  -89  -161  -147  -61  16  41  -8  -122  -246  -370  -500  -604  -647  -630  -567  -475  -386  -348  -388  -486  -591  -665  -687  -632  -492  -322  -209  -183  -213  -253  -279  -296  -321  -353  -369  -355  -324  -302  -290  -267  -216  -144  -77  -24  28  87  140  174  197  230  298  406  522  597  608  563  457  284  86  -68  -168  -264  -399  -553  -665  -714  -719  -696  -655  -600  -542  -515  -540  -585  -616  -627  -622  -607  -591  -586  -567  -430  7  848  1931  2914  3568  3817  3630  3047  2125  831  -825  -2557  -3828  -4225  -3695  -2569  -1452  -831  -689  -702  -635  -478  -337  -276  -277  -305  -344  -387  -427  -457  -465  -421  -257  49  391  608  650  576  467  386  358  375  413  455  500  571  685  835  978  1075  1143  1263  1483  1742  1921  1983  1981  1968  1960  1952  1936  1905  1868  1835  1784  1669  1484  1291  1135  1000  841  625  366  112  -113  -348  -587  -751  -795  -754  -673  -579  -492  -444  -472  -596  -764  -885  -924  -915  -902  -905  -918  -926  -913  -871  -814  -766  -729  -691  -654  -630  -628  -639  -647  -615  -514  -371  -269  -266  -359  -492  -592  -632  -628  -588  -518  -440  -398  -422  -497  -574  -620  -625  -604  -574  -532  -468  -387  -318  -297  -318  -355  -402  -452  -497  -540  -576  -583  -547  -489  -445  -423  -406  -382  -360  -343  -329  -322  -323  -328  -321  -290  -251  -236  -249  -275  -305  -333  -355  -371  -379  -356  -285  -179  -88  -46  -43  -49  -36  5  83  202  344  462  520  525  488  401  259  83  -70  -154  -176  -179  -206  -300  -498  -751  -922  -939  -860  -803  -817  -847  -849  -845  -859  -891  -914  -887  -784  -642  -558  -593  -633  -402  246  1157  2063  2757  3111  3107  2805  2215  1275  -52  -1619  -2979  -3692  -3654  -2974  -1972  -1173  -834  -760  -699  -559  -358  -169  -56  -23  -30  -46  -62  -83  -93  -67  -4  101  257  415  507  535  539  542  542  540  536  538  557  601  669  761  901  1101  1341  1581  1784  1966  2178  2420  2625  2711  2655  2503  2343  2231  2154  2073  1975  1862  1740  1610  1469  1303  1088  851  669  569  484  352  188  30  -113  -246  -347  -427  -523  -631  -696  -703  -685  -672  -668  -672  -684  -698  -698  -685  -695  -742  -800  -837  -841  -818  -764  -664  -532  -420  -359  -341  -342  -348  -351  -348  -342  -339  -348  -373  -405  -432  -445  -446  -438  -417  -390  -374  -376  -389  -402  -412  -415  -401  -361  -308  -266  -243  -224  -201  -197  -245  -363  -524  -657  -721  -729  -716  -700  -678  -620  -491  -324  -204  -163  -176  -201  -188  -132  -68  -2  93  214  323  407  471  516  541  548  538  514  477  421  332  212  94  -5  -89  -156  -200  -222  -230  -232  -243  -286  -368  -463  -518  -506  -462  -437  -460  -534  -625  -706  -789  -853  -779  -454  94  724  1322  1909  2568  3281  3850  3917  3159  1578  -406  -2146  -3118  -3264  -2931  -2457  -1954  -1439  -966  -611  -420  -377  -419  -483  -534  -566  -577  -531  -379  -143  77  221  311  378  421  435  433  427  419  413  422  453  497  551  660  850  1064  1210  1276  1320  1408  1561  1731  1842  1874  1872  1895  1978  2121  2268  2351  2365  2342  2295  2202  2067  1917  1749  1545  1301  1032  776  590  489  429  350  225  76  -61  -188  -323  -475  -635  -767  -829  -804  -697  -557  -455  -416  -424  -463  -526  -594  -644  -663  -659  -639  -608  -569  -538  -530  -539  -546  -532  -496  -452  -407  -362  -349  -408  -521  -626  -680  -659  -546  -374  -239  -204  -239  -279  -299  -316  -341  -352  -330  -289  -251  -223  -204  -189  -167  -147  -151  -181  -195  -141  -36  34  22  -50  -163  -329  -526  -675  -743  -748  -707  -606  -441  -263  -176  -208  -276  -307  -309  -342  -440  -558  -604  -560  -480  -403  -339  -290  -245  -201  -166  -157  -171  -161  -80  84  317  549  667  629  506  401  341  278  156  -19  -196  -323  -385  -396  -382  -371  -399  -491  -622  -734  -808  -867  -924  -968  -985  -951  -848  -703  -589  -563  -654  -844  -998  -933  -590  -33  670  1492  2367  3145  3617  3573  2927  1843  549  -848  -2184  -3199  -3720  -3640  -3015  -2214  -1635  -1339  -1152  -955  -757  -609  -521  -455  -386  -325  -285  -249  -184  -87  11  76  84  35  -47  -118  -126  -51  94  273  426  524  603  704  824  937  1035  1128  1219  1290  1348  1410  1487  1596  1760  1956  2116  2192  2197  2176  2157  2131  2074  1990  1894  1742  1464  1103  791  572  393  226  74  -83  -265  -450  -611  -734  -809  -840  -853  -875  -916  -964  -1007  -1027  -1009  -949  -885  -857  -851  -832  -819  -852  -918  -970  -986  -981  -974  -969  -958  -922  -854  -772  -714  -695  -701  -715  -726  -724  -709  -682  -645  -588  -516  -454  -438  -481  -575  -701  -828  -915  -944  -920  -847  -752  -680  -650  -645  -656  -706  -817  -954  -1029  -1000  -912  -837  -806  -804  -812  -816  -809  -795  -782  -777  -777  -779  -784  -792  -796  -783  -750  -710  -682  -661  -626  -579  -539  -517  -508  -502  -488  -444  -365  -279  -217  -185  -163  -126  -58  38  173  358  530  571  476  367  323  322  296  196  49  -74  -151  -197  -221  -228  -226  -222  -219  -224  -249  -291  -310  -275  -207  -140  -79  -17  40  93  149  189  167  145  346  954  1905  2886  3568  3863  3811  3341  2423  1157  -338  -1814  -2801  -2967  -2420  -1564  -763  -153  261  479  528  505  507  571  667  739  764  764  760  756  742  707  658  619  601  595  588  581  593  647  756  912  1070  1172  1200  1186  1165  1153  1171  1249  1384  1528  1642  1750  1907  2139  2413  2640  2732  2670  2508  2327  2179  2057  1924  1773  1633  1505  1359  1186  995  788  588  436  339  258  152  29  -71  -161  -273  -372  -391  -354  -348  -400  -473  -530  -558  -567  -583  -636  -731  -827  -840  -751  -644  -593  -572  -505  -337  -91  122  210  175  84  -14  -126  -253  -352  -388  -372  -343  -323  -312  -311  -342  -431  -550  -638  -670  -662  -629  -567  -486  -423  -410  -440  -482  -513  -529  -532  -523  -503  -479  -467  -495  -572  -670  -742  -772  -775  -761  -722  -660  -599  -558  -527  -487  -435  -386  -354  -343  -338  -313  -242  -115  35  132  135  80  8  -61  -121  -179  -235  -274  -294  -317  -365  -434  -506  -572  -631  -681  -723  -764  -804  -843  -888  -936  -969  -981  -986  -994  -991  -938  -844  -807  -873  -891  -638  20  1046  2189  3147  3731  3825  3343  2316  899  -695  -2222  -3407  -3971  -3841  -3231  -2405  -1588  -1017  -782  -763  -786  -733  -574  -353  -163  -93  -135  -183  -160  -99  -53  -20  11  35  41  37  41  70  128  203  275  328  365  401  456  569  748  946  1130  1300  1453  1584  1727  1884  2000  2051  2070  2097  2157  2238  2304  2325  2274  2120  1868  1588  1361  1207  1090  977  865  768  679  597  542  521  489  376  179  -28  -179  -275  -348  -418  -476  -510  -517  -498  -444  -358  -267  -207  -189  -191  -194  -190  -170  -122  -58  -11  -2  -41  -133  -271  -410  -493  -504  -466  -400  -322  -254  -197  -147  -116  -113  -120  -119  -105  -103  -149  -266  -414  -517  -536  -492  -428  -381  -371  -402  -471  -552  -615  -649  -643  -578  -464  -369  -359  -424  -501  -554  -587  -602  -581  -508  -409  -336  -315  -326  -347  -364  -373  -358  -292  -159  20  196  336  454  559  607  562  458  337  186  0  -183  -326  -436  -525  -589  -624  -637  -637  -633  -630  -628  -616  -591  -571  -592  -651  -697  -702  -685  -676  -679  -682  -678  -669  -625  -468  -147  347  1033  1875  2699  3348  3710  3571  2745  1309  -468  -2196  -3412  -3879  -3682  -3014  -2154  -1454  -1079  -939  -886  -856  -827  -784  -728  -684  -665  -656  -617  -524  -402  -298  -204  -71  86  173  145  64  12  2  8  38  130  293  485  661  797  884  928  951  968  991  1052  1196  1407  1595  1695  1719  1712  1697  1672  1642  1627  1644  1676  1697  1679  1565  1300  914  534  274  141  64  -27  -179  -398  -646  -843  -930  -918  -857  -788  -729  -685  -652  -618  -581  -554  -543  -540  -546  -571  -611  -636  -633  -644  -695  -755  -805  -862  -929  -985  -1017  -1029  -1013  -951  -835  -709  -643  -651  -680  -679  -637  -613  -663  -750  -799  -797  -769  -752  -768  -809  -854  -887  -900  -893  -879  -860  -826  -780  -735  -687  -616  -512  -386  -270  -202  -197  -234  -271  -252  -135  54  237  341  365  352  338  345  385  456  533  588  607  587  524  429  311  174  45  -62  -189  -381  -607  -778  -845  -817  -720  -599  -513  -486  -498  -528  -558  -571  -561  -554  -610  -771  -975  -1069  -959  -639  -62  806  1816  2767  3517  3829  3498  2595  1299  -234  -1723  -2793  -3264  -3176  -2671  -1948  -1184  -484  31  295  376  397  424  448  454  451  455  467  473  474  501  576  680  779  842  862  840  765  650  541  476  458  500  634  847  1069  1249  1397  1539  1664  1740  1763  1758  1758  1835  2055  2364  2604  2675  2600  2433  2229  2054  1948  1902  1870  1809  1719  1626  1551  1496  1463  1433  1347  1134  804  484  299  253  268  282  280  265  250  242  240  227  186  129  77  7  -129  -309  -441  -489  -490  -485  -492  -511  -533  -535  -488  -389  -271  -181  -135  -120  -141  -196  -258  -303  -340  -386  -443  -492  -520  -514  -468  -394  -324  -281  -277  -320  -398  -486  -569  -637  -680  -701  -716  -724  -715  -687  -638  -562  -463  -338  -185  -32  66  94  73  36  13  25  77  166  270  340  311  147  -95  -301  -414  -481  -542  -587  -599  -588  -569  -556  -568  -627  -721  -813  -879  -921  -954  -995  -1030  -1027  -968  -873  -791  -771  -830  -885  -811  -514  131  1135  2223  3118  3696  3771  3129  1817  150  -1534  -2888  -3553  -3495  -3082  -2613  -2124  -1651  -1297  -1088  -960  -838  -693  -552  -435  -317  -192  -101  -67  -69  -72  -47  3  47  58  44  22  16  54  152  281  386  455  501  525  527  530  577  700  875  1051  1235  1505  1892  2297  2574  2676  2651  2552  2413  2270  2135  2018  1938  1880  1797  1685  1575  1457  1291  1093  925  797  639  387  83  -161  -305  -392  -432  -409  -394  -475  -610  -709  -765  -800  -817  -807  -784  -765  -758  -757  -757  -766  -788  -817  -835  -835  -835  -857  -890  -887  -823  -717  -610  -543  -544  -612  -691  -704  -650  -592  -568  -570  -578  -601  -659  -748  -845  -927  -962  -933  -871  -815  -773  -750  -752  -776  -810  -849  -901  -962  -1003  -980  -874  -727  -619  -576  -565  -559  -552  -552  -554  -546  -504  -411  -278  -132  16  153  238  233  119  -74  -258  -364  -408  -454  -543  -681  -816  -903  -969  -1078  -1211  -1278  -1253  -1193  -1152  -1136  -1129  -1121  -1114  -1112  -1113  -1113  -1110  -1105  -1112  -1157  -1213  -1141  -759  18  1090  2214  3122  3625  3621  3048  1939  430  -1235  -2672  -3517  -3696  -3354  -2703  -2004  -1459  -1114  -943  -893  -896  -907  -906  -871  -772  -588  -317  5  294  462  501  453  343  205  114  151  344  611  811  891  896  876  861  876  914  955  1002  1102  1285  1506  1690  1815  1928  2083  2274  2438  2542  2605  2635  2624  2569  2488  2410  2342  2255  2119  1942  1739  1493  1224  1007  880  814  760  660  467  207  -35  -202  -286  -320  -334  -327  -289  -243  -220  -228  -266  -331  -424  -525  -589  -588  -531  -452  -382  -324  -286  -291  -335  -381  -402  -404  -399  -391  -376  -361  -350  -340  -306  -235  -160  -157  -242  -324  -323  -269  -228  -217  -220  -224  -233  -262  -321  -398  -479  -553  -611  -649  -673  -676  -627  -515  -410  -424  -565  -707  -749  -719  -691  -695  -715  -712  -658  -572  -494  -436  -375  -299  -230  -199  -209  -216  -170  -57  98  267  418  523  567  542  437  240  -17  -258  -417  -498  -551  -625  -725  -810  -837  -818  -787  -757  -717  -666  -623  -600  -593  -594  -603  -612  -600  -579  -632  -824  -1010  -918  -411  443  1458  2417  3151  3594  3703  3327  2315  702  -1212  -2900  -3903  -4091  -3624  -2848  -2099  -1496  -1000  -582  -267  -80  -1  15  18  33  74  123  152  151  140  150  179  192  197  242  321  392  445  501  568  638  697  738  767  795  844  940  1105  1326  1534  1673  1761  1876  2069  2310  2508  2602  2611  2570  2474  2302  2081  1867  1696  1579  1521  1504  1482  1401  1249  1056  840  595  351  164  53  0  -38  -90  -153  -217  -278  -346  -418  -478  -515  -508  -441  -339  -255  -209  -191  -197  -238  -313  -398  -479  -566  -646  -668  -624  -566  -530  -509  -490  -454  -382  -281  -191  -151  -182  -296  -460  -592  -642  -624  -578  -528  -481  -447  -431  -433  -441  -435  -388  -298  -217  -225  -376  -626  -853  -974  -982  -896  -746  -592  -486  -447  -487  -608  -753  -817  -732  -530  -309  -154  -82  -61  -44  -6  53  120  180  227  251  252  240  226  202  159  93  4  -114  -254  -385  -487  -571  -649  -705  -725  -724  -718  -717  -720  -718  -702  -687  -716  -818  -952  -1021  -982  -874  -718  -447  6  641  1396  2137  2691  2983  3059  2902  2356  1339  -26  -1493  -2698  -3301  -3282  -2919  -2466  -1997  -1525  -1087  -724  -446  -231  -69  20  47  45  23  -35  -118  -180  -192  -166  -126  -93  -70  -41  23  143  276  367  420  483  583  700  804  885  945  975  978  989  1052  1197  1426  1701  1957  2142  2257  2317  2323  2270  2186  2114  2059  2002  1931  1831  1642  1311  911  594  429  351  261  101  -123  -344  -486  -532  -523  -495  -466  -446  -451  -498  -601  -779  -1046  -1334  -1519  -1521  -1357  -1127  -947  -847  -777  -713  -688  -729  -803  -842  -813  -747  -700  -686  -680  -666  -646  -631  -624  -620  -613  -593  -547  -485  -429  -392  -374  -376  -410  -481  -575  -667  -732  -763  -770  -761  -726  -656  -571  -510  -490  -493  -499  -503  -508  -516  -526  -540  -556  -568  -567  -550  -524  -496  -477  -485  -537  -608  -640  -582  -435  -248  -77  68  197  296  346  358  376  432  518  591  626  618  567  466  321  154  12  -84  -166  -245  -278  -231  -136  -56  -23  -37  -103  -215  -338  -439  -519  -596  -673  -720  -680  -505  -247  -48  5  -34  18  411  1243  2354  3468  4273  4455  3879  2674  1108  -488  -1836  -2753  -3131  -2975  -2433  -1761  -1175  -746  -482  -360  -300  -238  -152  -43  69  151  193  220  234  195  93  -1  -12  85  250  407  508  563  593  611  627  643  655  671  702  743  782  829  948  1218  1604  1945  2121  2151  2120  2096  2099  2110  2109  2097  2082  2069  2062  2054  2035  1967  1789  1486  1148  900  776  706  594  395  144  -79  -234  -334  -404  -458  -507  -558  -602  -618  -607  -585  -556  -530  -522  -532  -549  -577  -646  -755  -813  -747  -621  -532  -509  -538  -581  -601  -599  -594  -591  -584  -560  -500  -426  -390  -422  -493  -551  -568  -560  -552  -548  -538  -510  -461  -402  -358  -342  -359  -412  -481  -531  -547  -546  -543  -540  -526  -495  -464  -440  -413  -388  -385  -409  -447  -470  -474  -488  -526  -562  -582  -597  -605  -562  -410  -172  39  142  156  130  87  40  10  4  13  23  26  4  -54  -137  -202  -221  -196  -154  -150  -231  -375  -510  -591  -624  -630  -632  -662  -738  -832  -899  -923  -915  -876  -801  -702  -612  -560  -565  -605  -580  -330  241  1060  1930  2655  3133  3318  3121  2415  1160  -489  -2149  -3319  -3676  -3320  -2646  -2012  -1537  -1135  -726  -373  -171  -95  -49  -9  -14  -71  -131  -163  -170  -143  -62  63  185  292  419  560  658  691  706  748  814  872  926  1010  1121  1209  1242  1230  1199  1187  1277  1536  1895  2193  2352  2414  2439  2453  2461  2460  2444  2397  2289  2105  1865  1634  1489  1430  1376  1245  993  636  279  46  -47  -81  -117  -180  -280  -391  -467  -492  -489  -481  -483  -507  -552  -595  -613  -616  -633  -677  -725  -750  -734  -666  -560  -456  -389  -361  -358  -361  -359  -343  -320  -300  -294  -305  -325  -354  -413  -522  -643  -704  -676  -585  -476  -392  -353  -345  -337  -310  -255  -196  -189  -261  -392  -533  -638  -686  -671  -592  -477  -380  -327  -310  -312  -326  -350  -373  -381  -372  -365  -387  -440  -492  -517  -514  -484  -421  -338  -266  -217  -162  -76  32  131  194  230  283  368  456  494  448  326  176  48  -58  -164  -274  -395  -518  -601  -616  -568  -487  -418  -379  -367  -396  -488  -629  -773  -878  -930  -942  -937  -922  -890  -807  -582  -167  360  947  1629  2354  2968  3333  3297  2761  1764  397  -1197  -2697  -3662  -3854  -3374  -2489  -1558  -930  -671  -574  -462  -337  -259  -228  -204  -175  -176  -212  -224  -162  -64  -5  -11  -33  -5  89  215  317  363  365  352  358  407  504  613  697  757  831  938  1054  1157  1261  1388  1535  1669  1773  1850  1909  1961  2010  2043  2056  2052  2032  1981  1867  1653  1350  1048  829  665  481  295  179  149  149  103  -44  -272  -479  -594  -643  -676  -716  -770  -832  -875  -889  -887  -879  -873  -876  -898  -926  -929  -901  -861  -820  -783  -762  -761  -781  -812  -831  -818  -776  -719  -662  -623  -609  -610  -615  -625  -638  -644  -633  -603  -569  -549  -544  -548  -552  -552  -557  -577  -612  -625  -575  -483  -437  -487  -580  -617  -563  -473  -414  -398  -403  -406  -403  -400  -426  -504  -611  -682  -678  -613  -537  -488  -458  -408  -333  -266  -233  -215  -149  18  254  450  546  567  560  550  531  480  383  249  114  6  -54  -61  -39  -31  -90  -248  -439  -536  -511  -426  -324  -241  -212  -234  -298  -394  -502  -604  -691  -758  -811  -845  -793  -545  -80  515  1175  1873  2549  3145  3638  3895  3654  2775  1372  -301  -1872  -2906  -3246  -3053  -2524  -1833  -1198  -760  -503  -361  -280  -229  -202  -192  -175  -119  1  165  293  330  298  252  221  203  194  206  249  315  399  511  657  805  902  943  972  1029  1122  1225  1309  1372  1431  1508  1657  1925  2252  2487  2574  2578  2561  2505  2364  2163  1998  1933  1939  1941  1860  1660  1380  1125  966  867  753  610  466  324  180  26  -159  -359  -495  -529  -500  -460  -432  -415  -404  -419  -486  -594  -685  -712  -690  -659  -643  -643  -652  -663  -671  -666  -640  -597  -551  -518  -489  -438  -364  -296  -268  -298  -378  -465  -509  -501  -471  -458  -468  -483  -501  -529  -551  -555  -548  -539  -518  -473  -431  -446  -542  -675  -762  -754  -669  -565  -500  -486  -496  -504  -513  -536  -579  -627  -653  -641  -601  -555  -519  -491  -477  -475  -443  -328  -138  57  181  217  201  161  111  56  -8  -87  -164  -226  -286  -365  -459  -551  -618  -666  -725  -809  -892  -930  -909  -862  -824  -804  -801  -833  -924  -1053  -1148  -1148  -1032  -837  -632  -475  -348  -116  377  1122  1964  2748  3271  3254  2580  1401  -70  -1611  -2830  -3406  -3379  -2950  -2270  -1550  -1055  -858  -784  -660  -443  -183  33  168  252  330  410  481  542  597  640  650  610  536  457  391  343  320  324  352  423  554  710  840  953  1074  1177  1227  1238  1257  1339  1526  1777  1986  2115  2219  2325  2402  2431  2427  2389  2300  2176  2039  1865  1621  1354  1127  927  715  499  321  188  64  -84  -277  -524  -783  -956  -989  -917  -813  -744  -752  -837  -957  -1044  -1065  -1032  -964  -887  -827  -797  -792  -798  -809  -818  -819  -807  -786  -770  -768  -778  -784  -749  -646  -510  -417  -387]
