reading_id,reading_time,wire_id,result_classification,heart_rate,heart_rate_alert,firmware_version,device_app_version,hardware_version,waveform_samples
e925c940-598a-11ed-8080-808080808080,Tue Nov 01 02:14:27 UTC 2022,e100638c1a39,NSR,78,NONE,20001.171.50,2.10.0,Charge 5,[-6434  -6627  -6825  -6874  -6530  -5717  -4704  -3871  -3383  -3212  -3318  -3647  -3986  -3947  -3186  -1704  13  1293  1799  1741  1582  1447  1075  367  -569  -1625  -2483  -2781  -2531  -1868  -830  291  1057  1401  1503  1526  1666  2083  2655  3067  3179  3129  3147  3410  3912  4423  4703  4698  4512  4325  4269  4265  4133  3873  3716  3856  4147  4294  4329  4479  4746  5035  5329  5569  5647  5543  5361  5231  5176  5114  4979  4802  4661  4595  4585  4609  4667  4755  4842  4899  4932  4960  4971  4881  4599  4189  3853  3719  3751  3846  3936  4005  4052  4073  4050  3938  3719  3422  3114  2883  2787  2799  2839  2852  2844  2839  2838  2815  2747  2657  2599  2591  2603  2603  2584  2553  2524  2495  2420  2246  2014  1838  1767  1766  1797  1843  1887  1908  1898  1891  1936  2044  2173  2305  2443  2490  2321  1956  1549  1236  1069  1031  1053  1045  983  923  926  1012  1137  1232  1275  1290  1265  1138  878  582  386  324  333  351  344  299  236  207  266  397  491  502  506  479  320  88  -73  -142  -176  -179  -113  -3  52  16  -70  -207  -456  -795  -966  -759  -344  16  295  454  421  485  864  1112  852  232  -648  -1655  -2354  -2629  -2869  -3158  -3141  -2817  -2525  -2337  -2125  -1894  -1820  -1992  -2205  -2182  -1880  -1505  -1295  -1269  -1286  -1286  -1303  -1337  -1351  -1303  -1195  -1099  -1111  -1295  -1637  -1939  -1932  -1622  -1283  -1089  -1019  -999  -992  -1002  -1078  -1234  -1340  -1216  -900  -603  -347  30  543  1015  1313  1459  1616  1951  2405  2718  2737  2543  2310  2148  2056  1985  1872  1647  1293  840  337  -111  -376  -444  -419  -409  -457  -544  -614  -615  -521  -362  -218  -125  -43  60  127  -6  -468  -1112  -1589  -1709  -1546  -1278  -1078  -1006  -1023  -1082  -1189  -1366  -1577  -1727  -1780  -1784  -1806  -1879  -1982  -2060  -2090  -2084  -2053  -1992  -1910  -1864  -1920  -2060  -2186  -2223  -2155  -1997  -1779  -1545  -1336  -1137  -867  -465  2  381  580  642  691  858  1240  1838  2506  3043  3359  3485  3481  3385  3224  3057  2946  2906  2938  3044  3185  3282  3279  3171  3013  2881  2824  2887  3113  3438  3680  3686  3402  2894  2321  1867  1786  2452  3857  5090  5253  4604  3901  3526  3557  3574  2711  829  -1159  -2302  -2107  -785  619  1279  1398  1415  1403  1343  1257  1214  1249  1246  1133  968  821  760  784  818  824  814  806  818  875  968  1005  893  607  198  -107  -42  278  511  589  643  694  713  726  791  925  1077  1180  1220  1238  1270  1272  1125  818  525  392  385  404  377  239  -57  -426  -690  -773  -751  -721  -766  -954  -1265  -1556  -1636  -1441  -1190  -1141  -1242  -1328  -1445  -1757  -2273  -2846  -3341  -3642  -3582  -3064  -2299  -1704  -1452  -1400  -1408  -1442  -1518  -1692  -1985  -2297  -2431  -2289  -2022  -1805  -1668  -1581  -1532  -1544  -1693  -2016  -2396  -2649  -2725  -2710  -2683  -2670  -2668  -2661  -2621  -2530  -2407  -2298  -2205  -2090  -1984  -1992  -2194  -2522  -2735  -2686  -2515  -2404  -2353  -2266  -2098  -1879  -1683  -1576  -1571  -1656  -1820  -1985  -2051  -2015  -1946  -1906  -1921  -1988  -2099  -2231  -2341  -2418  -2462  -2468  -2467  -2512  -2608  -2692  -2695  -2612  -2481  -2299  -2028  -1701  -1461  -1295  -847  56  975  1452  1497  1350  1280  1398  1424  848  -547  -2259  -3443  -3743  -3328  -2503  -1582  -818  -275  142  443  571  579  554  536  532  549  599  662  691  648  544  416  306  249  264  364  564  835  1104  1320  1442  1426  1305  1188  1136  1125  1133  1179  1288  1421  1515  1572  1633  1719  1788  1747  1628  1607  1727  1852  1884  1826  1732  1609  1410  1153  952  865  855  869  845  685  320  -183  -638  -904  -991  -1002  -1042  -1139  -1181  -1075  -914  -827  -773  -591  -215  214  522  726  970  1296  1622  1929  2325  2904  3610  4180  4318  4059  3719  3476  3294  3120  2946  2787  2675  2614  2516  2292  1996  1727  1508  1362  1310  1318  1334  1325  1276  1207  1183  1289  1515  1690  1734  1862  2195  2391  2039  1384  1112  1400  1867  2034  1368  -74  -1312  -1560  -908  149  1012  1108  452  -283  -611  -615  -542  -498  -496  -533  -613  -732  -856  -938  -974  -1001  -1040  -1078  -1104  -1137  -1198  -1224  -983  -218  934  1924  2336  2145  1479  469  -701  -1838  -2816  -3548  -3962  -4091  -4026  -3759  -3254  -2660  -2224  -1995  -1824  -1626  -1454  -1370  -1329  -1237  -1076  -916  -827  -816  -845  -887  -940  -1014  -1109  -1215  -1300  -1329  -1306  -1286  -1313  -1359  -1347  -1223  -1008  -783  -616  -528  -493  -478  -474  -483  -486  -428  -252  36  378  715  983  1145  1232  1297  1392  1522  1597  1546  1439  1366  1315  1230  1046  709  251  -163  -392  -456  -481  -551  -657  -734  -721  -603  -434  -302  -241  -228  -268  -398  -624  -903  -1151  -1263  -1193  -1016  -857  -784  -785  -810  -802  -706  -511  -283  -80  117  320  466  525  534  521  478  406  332  294  322  420  567  769  1008  1173  1172  1063  962  917  923  986  1117  1276  1392  1446  1453  1379  1169  861  602  493  544  732  978  1157  1208  1148  1007  830  673  576  561  604  648  654  634  583  424  96  -255  -301  43  470  703  753  798  1107  1814  2630  3101  2994  2285  1154  -3  -934  -1730  -2385  -2664  -2614  -2456  -2200  -1874  -1574  -1260  -870  -494  -273  -224  -247  -263  -261  -253  -218  -126  -5  78  96  65  8  -66  -172  -338  -557  -756  -845  -797  -642  -420  -178  33  208  352  455  518  537  501  423  326  215  102  5  -70  -110  -55  164  540  920  1129  1121  963  736  506  303  96  -115  -261  -319  -373  -492  -661  -838  -1039  -1245  -1356  -1318  -1208  -1128  -1072  -930  -641  -312  -103  -66  -146  -273  -390  -469  -499  -499  -518  -600  -734  -824  -714  -304  262  674  775  652  452  237  -25  -316  -522  -599  -621  -654  -689  -661  -501  -212  114  368  497  522  502  478  463  454  450  460  492  523  507  434  364  333  293  207  116  78  107  159  185  188  194  198  142  -22  -250  -418  -470  -444  -399  -393  -479  -670  -904  -1052  -1037  -860  -462  126  662  1080  1547  2072  2522  2729  2416  1448  111  -1070  -1779  -2135  -2430  -2790  -3072  -3034  -2586  -1802  -913  -235  114  261  333  354  307  195  55  -69  -151  -193  -183  -43  285  697  979  1029  903  718  596  622  815  1088  1289  1320  1175  902  576  288  172  301  568  824  1035  1249  1480  1674  1785  1827  1841  1852  1854  1803  1637  1312  866  434  156  67  94  184  348  555  702  725  644  521  395  240  18  -237  -474  -723  -1057  -1432  -1696  -1748  -1557  -1149  -670  -313  -152  -137  -183  -223  -241  -255  -293  -408  -656  -985  -1239  -1335  -1320  -1264  -1211  -1177  -1127  -940  -526  -47  192  164  95  99  106  36  -126  -363  -646  -950  -1228  -1392  -1313  -915  -317  215  525  634  601  464  268  75  -76  -197  -316  -440  -557  -680  -806  -895  -930  -939  -944  -915  -802  -604  -405  -291  -266  -291  -324  -302  -141  143  387  524  690  909  1044  1086  1127  1157  1172  1110  675  -260  -1532  -2973  -4178  -4550  -3970  -2862  -1690  -783  -391  -496  -737  -750  -445  3  329  435  413  364  335  351  428  540  629  659  624  517  377  269  224  219  239  282  345  424  525  636  731  806  845  830  790  797  914  1111  1278  1372  1443  1515  1558  1546  1495  1431  1348  1219  1071  979  977  1023  1066  1095  1125  1150  1146  1078  862  436  -66  -411  -537  -556  -548  -521  -489  -470  -473  -509  -572  -652  -738  -809  -852  -867  -869  -885  -906  -900  -861  -797  -711  -613  -530  -483  -482  -524  -581  -619  -625  -617  -615  -614  -576  -452  -259  -70  60  129  146  94  -55  -270  -461  -567  -594  -584  -600  -704  -895  -1084  -1187  -1194  -1149  -1103  -1082  -1074  -1065  -1078  -1150  -1278  -1436  -1605  -1751  -1829  -1841  -1827  -1832  -1889  -2012  -2224  -2563  -2974  -3188  -2916  -2133  -1047  47  888  1300  1217  829  355  -305  -1249  -2284  -3235  -4108  -4883  -5372  -5476  -5217  -4421  -3059  -1703  -927  -659  -489  -166  315  857  1442  2145  2916  3569  4005  4293  4557  4829  5019  5068  5034  4973  4871  4713  4550  4441  4392  4370  4344  4296  4249  4239  4255  4277  4304  4317  4251  4024  3631  3198  2865  2668  2588  2625  2789  3010  3127  3093  3005  2907  2775  2628  2475  2286  2071  1890  1790  1760  1728  1590  1306  983  774  719  755  801  773  612  344  81  -79  -131  -153  -210  -296  -355  -330  -261  -294  -462  -627  -693  -693  -694  -718  -747  -767  -803  -869  -927  -940  -906  -833  -735  -637  -571  -547  -533  -486  -410  -352  -339  -345  -323  -264  -209  -237  -419  -742  -1085  -1326  -1414  -1382  -1348  -1410  -1535  -1621  -1620  -1578  -1570  -1635  -1751  -1849  -1870  -1837  -1832  -1882  -1939  -1953  -1913  -1831  -1695  -1469  -1235  -1176  -1341  -1542  -1428  -723  475  1669  2287  2004  879  -616  -1962  -3071  -4171  -5305  -6084  -6101  -5436  -4376  -3193  -2284  -1857  -1724  -1652  -1593  -1570  -1568  -1542  -1457  -1330  -1250  -1279  -1380  -1503  -1619  -1693  -1682  -1576  -1408  -1230  -1051  -879  -755  -690  -673  -725  -835  -935  -983  -1002  -1004  -953  -770  -434  -60  211  361  450  523  577  602  596  553  467  361  283  241  210  176  150  129  95  34  -68  -208  -334  -395  -394  -364  -342  -373  -491  -680  -869  -989  -1024  -985  -890  -766  -628  -482  -387  -459  -738  -1078  -1276  -1281  -1198  -1100  -889  -416  211  657  693  366  -58  -284  -245  -102  -4  12  -8  -9  50  199  423  659  854  1021  1194  1349  1423  1391  1313  1286  1348  1402  1322  1142  988  919  924  940  901  822  757  743  820  992  1173  1253  1181  985  761  608  552  566  644  788  955  1079  1133  1140  1189  1418  1814  2213  2626  3198  3857  4385  4688  4687  4156  2914  1056  -979  -2533  -3098  -2644  -1670  -868  -489  -209  238  688  901  892  776  602  407  292  323  458  604  709  775  849  995  1204  1381  1452  1406  1254  1058  916  861  860  885  942  1031  1121  1169  1170  1161  1189  1289  1431  1524  1516  1459  1413  1368  1292  1195  1128  1137  1213  1307  1364  1371  1352  1325  1285  1216  1108  960  761  478  119  -223  -425  -428  -295  -159  -126  -235  -476  -788  -1053  -1182  -1205  -1200  -1164  -1065  -920  -782  -700  -678  -685  -693  -698  -702  -707  -712  -714  -722  -752  -812  -882  -927  -919  -830  -624  -327  -82  -22  -104  -191  -240  -294  -376  -456  -547  -712  -938  -1124  -1191  -1095  -812  -438  -168  -79  -93  -120  -123  -98  -63  -28  19  87  123  60  -99  -286  -433  -517  -548  -552  -555  -574  -609  -644  -663  -675  -726  -851  -1015  -1134  -1179  -1192  -1205  -1200  -1157  -1100  -1086  -1134  -1173  -1147  -1194  -1380  -1368  -911  -190  633  1504  2290  2882  3021  2323  804  -1167  -3181  -4656  -5160  -4908  -4308  -3488  -2576  -1772  -1175  -800  -612  -524  -470  -435  -412  -370  -268  -81  146  318  389  395  381  369  371  398  452  526  628  743  821  845  849  874  932  1028  1170  1331  1451  1489  1450  1372  1305  1289  1344  1465  1602  1665  1584  1361  1090  897  834  902  1097  1360  1573  1665  1632  1473  1210  904  623  431  362  374  365  282  120  -139  -451  -669  -685  -515  -274  -98  -35  -51  -139  -319  -540  -683  -684  -582  -476  -432  -437  -438  -413  -357  -275  -198  -144  -105  -78  -53  -16  26  65  93  102  67  -24  -140  -223  -251  -244  -220  -180  -127  -86  -84  -127  -169  -124  21  171  232  180  20  -192  -372  -472  -505  -506  -507  -516  -521  -508  -482  -445  -388  -294  -158  -19  62  72  43  37  136  371  605  676  608  532  508  520  533  520  482  435  389  334  274  233  225  244  279  296  234  57  -170  -323  -346  -285  -204  -139  -108  -114  -144  -169  -160  -102  12  147  212  208  303  628  1087  1524  1932  2353  2708  2836  2512  1580  211  -1212  -2402  -3224  -3685  -3819  -3562  -2891  -2000  -1190  -611  -226  21  138  159  183  305  517  722  843  884  886  873  845  797  753  748  782  825  863  896  914  907  880  844  812  799  841  977  1178  1361  1476  1541  1583  1572  1476  1352  1281  1276  1299  1323  1341  1368  1403  1424  1406  1338  1226  1110  1039  1012  972  874  750  663  631  618  575  474  295  29  -267  -492  -623  -712  -780  -810  -787  -719  -642  -567  -483  -405  -359  -345  -352  -359  -351  -342  -381  -501  -681  -852  -928  -877  -750  -608  -494  -451  -481  -544  -627  -738  -854  -926  -933  -912  -925  -1009  -1162  -1333  -1460  -1538  -1603  -1661  -1686  -1673  -1658  -1672  -1711  -1766  -1833  -1894  -1941  -1982  -2016  -2037  -2044  -2056  -2106  -2209  -2319  -2347  -2251  -2096  -1997  -2012  -2135  -2299  -2420  -2460  -2423  -2319  -2186  -2086  -2043  -2042  -2096  -2233  -2421  -2591  -2753  -2957  -3207  -3445  -3596  -3640  -3614  -3558  -3501  -3467  -3464  -3494  -3551  -3630  -3731  -3852  -3968  -4055  -4100  -4116  -4147  -4216  -4286  -4307  -4277  -4250  -4273  -4242  -3933  -3208  -2150  -1106  -446  -228  -372  -855  -1511  -2222  -3178  -4303  -5042  -5008  -4104  -2418  -488  999  1817  2161  2287  2344  2402  2476  2543  2567  2548  2518  2498  2456  2347  2191  2072  2075  2250  2565  2893  3123  3270  3449  3792  4311  4849  5247  5535  5863  6283  6662  6834  6779  6630  6526  6498  6493  6466  6405  6331  6280  6260  6253  6237  6221  6248  6327  6374  6241  5854  5336  4876  4469  3988  3484  3144  3012  2957  2876  2726  2447  2017  1552  1217  1037  934  861  792  703  618  578  575  579  564  524  478  450  442  435  410  373  333  275  186  85  13  -8  30  136  267  357  371  332  269  201  111  -37  -241  -430  -553  -609  -629  -648  -675  -704  -720  -715  -697  -672  -643  -617  -620  -665  -738  -804  -850  -900  -985  -1121  -1252  -1280  -1196  -1065  -928  -828  -797  -815  -846  -871  -887  -899  -901  -888  -870  -857  -850  -841  -820  -762  -621  -374  -93  108  204  229  204  153  119  109  64  -73  -273  -434  -507  -521  -512  -484  -424  -335  -258  -253  -355  -520  -661  -735  -756  -753  -745  -737  -730  -742  -798  -894  -968  -903  -645  -355  -205  -58  256  735  1440  2286  2824  2636  1654  149  -1488  -2956  -4027  -4561  -4548  -4077  -3349  -2635  -2109  -1744  -1468  -1278  -1163  -1071  -957  -796  -574  -321  -123  -30  1  40  95  123  102  52  20  38  93  167  255  364  514  702  864  949  970  963  951  944  950  963  968  971  1015  1102  1177  1208  1208  1203  1206  1217  1224  1196  1103  969  849  772  738  745  767  747  658  532  408  277  133  6  -115  -292  -503  -639  -630  -536  -497  -582  -709  -788  -833  -898  -979  -973  -793  -536  -404  -508  -781  -1057  -1205  -1203  -1094  -937  -792  -678  -597  -547  -515  -490  -474  -473  -479  -476  -440  -362  -260  -162  -88  -47  -26  2  44  83  109  113  74  -35  -206  -353  -370  -274  -187  -191  -274  -389  -528  -696  -823  -824  -685  -484  -361  -391  -491  -541  -516  -456  -396  -345  -310  -317  -371  -436  -464  -441  -403  -383  -374  -328  -198  0  187  333  465  588  682  762  845  916  958  978  994  1003  971  847  643  448  330  276  244  208  147  53  -37  -89  -98  -90  -81  -79  -85  -100  -114  -101  -54  5  55  67  -63  -440  -901  -1027  -603  195  1126  2008  2684  3094  3235  2976  2094  592  -1179  -2820  -4047  -4627  -4481  -3827  -3075  -2472  -1942  -1400  -929  -576  -308  -122  -20  25  42  39  34  53  114  198  254  258  230  201  190  210  273  364  443  490  509  498  438  338  281  370  617  907  1101  1163  1155  1125  1072  994  923  896  915  949  965  969  1003  1067  1090  1018  881  759  691  647  581  481  342  149  -66  -232  -305  -298  -267  -284  -372  -490  -613  -733  -822  -857  -861  -867  -890  -903  -844  -710  -591  -550  -558  -571  -576  -581  -597  -619  -636  -645  -648  -643  -613  -552  -486  -433  -382  -339  -317  -317  -331  -346  -352  -349  -337  -313  -270  -224  -235  -356  -554  -735  -841  -882  -887  -879  -870  -857  -829  -791  -756  -727  -692  -633  -540  -455  -455  -553  -677  -765  -796  -771  -659  -417  -106  119  199  208  224  256  279  282  283  310  386  512  653  772  863  906  874  760  563  332  163  97  93  108  132  167  187  167  108  26  -62  -136  -202  -274  -337  -367  -364  -345  -333  -340  -365  -402  -452  -498  -458  -227  222  835  1508  2177  2822  3263  3240  2656  1489  -97  -1685  -2971  -3790  -3991  -3662  -2976  -1986  -954  -319  -156  -202  -248  -231  -155  -44  66  139  157  139  112  112  174  298  410  439  426  466  561  650  678  658  671  745  825  864  859  828  804  832  960  1175  1380  1510  1612  1770  1953  2055  2024  1902  1789  1757  1731  1604  1421  1305  1289  1309  1301  1262  1234  1230  1216  1143  953  636  297  77  4  9  23  19  6  2  7  7  -9  -58  -139  -223  -270  -269  -227  -168  -124  -107  -109  -115  -119  -122  -125  -129  -131  -126  -108  -82  -50  -4  50  96  120  117  93  61  41  37  27  -11  -82  -171  -273  -388  -502  -557  -488  -309  -76  99  58  -179  -398  -499  -534  -559  -602  -657  -708  -754  -778  -738  -602  -415  -279  -251  -306  -388  -449  -472  -457  -395  -281  -154  -73  -62  -97  -133  -143  -131  -122  -159  -278  -443  -568  -621  -637  -647  -651  -647  -618  -546  -447  -373  -357  -396  -478  -594  -723  -799  -692  -317  128  288  133  -50  -15  489  1523  2678  3426  3471  2744  1418  -178  -1763  -3132  -4117  -4580  -4396  -3563  -2449  -1603  -1189  -929  -584  -201  61  156  148  88  2  -61  -56  8  86  160  235  295  329  360  409  469  518  563  627  697  752  804  850  874  892  942  1039  1159  1257  1316  1341  1355  1401  1509  1648  1761  1835  1879  1882  1823  1690  1481  1218  962  774  651  567  510  470  429  384  323  187  -63  -352  -562  -680  -772  -903  -1105  -1314  -1387  -1277  -1099  -1008  -1039  -1090  -1084  -1066  -1070  -1046  -971  -890  -845  -827  -806  -762  -717  -696  -676  -629  -576  -553  -552  -544  -500  -414  -278  -90  106  228  222  86  -139  -379  -569  -690  -742  -712  -589  -416  -269  -198  -235  -401  -624  -768  -764  -647  -508  -423  -401  -410  -423  -430  -434  -438  -444  -449  -446  -425  -378  -310  -238  -169  -76  52  151  136  28  -43  6  129  218  225  193  177  172  95  -126  -435  -671  -752  -729  -686  -667  -676  -701  -729  -752  -761  -743  -678  -576  -482  -441  -479  -600  -767  -866  -758  -390  224  1063  2016  2908  3575  3830  3514  2548  988  -861  -2520  -3579  -3905  -3653  -3168  -2784  -2584  -2368  -1916  -1202  -456  17  152  118  63  26  2  5  69  189  311  382  398  386  369  361  358  347  336  371  494  667  789  814  783  752  740  734  722  715  768  928  1149  1313  1370  1365  1357  1367  1400  1457  1532  1600  1632  1623  1585  1521  1435  1338  1227  1081  896  661  340  -22  -297  -433  -473  -445  -372  -309  -306  -387  -526  -649  -721  -752  -747  -729  -723  -699  -621  -491  -355  -271  -214  -122  -20  34  47  51  68  95  117  105  34  -72  -154  -187  -191  -185  -180  -172  -126  -6  154  277  330  349  359  346  279  148  -1  -101  -130  -123  -110  -100  -93  -91  -107  -153  -205  -203  -100  65  202  276  311  321  298  255  211  168  136  139  209  374  628  902  1098  1185  1205  1190  1135  1031  891  703  468  262  159  150  179  194  159  65  -62  -176  -246  -267  -250  -227  -206  -173  -150  -162  -188  -195  -178  -152  -158  -264  -439  -455  -89  633  1518  2335  2851  3050  3077  2763  1755  140  -1696  -3455  -4749  -5174  -4736  -3810  -2732  -1740  -1075  -785  -684  -598  -480  -312  -65  222  431  470  356  189  80  67  113  164  199  238  303  420  597  782  882  858  770  699  675  676  680  680  685  700  734  813  980  1209  1407  1512  1523  1454  1327  1202  1157  1191  1229  1214  1162  1097  1007  859  652  439  288  203  114  -21  -166  -262  -318  -401  -558  -757  -919  -999  -1006  -980  -955  -945  -951  -974  -1017  -1048  -999  -829  -606  -447  -386  -376  -390  -449  -578  -762  -929  -990  -951  -898  -881  -889  -891  -863  -782  -629  -413  -190  -30  52  85  71  18  -43  -86  -110  -142  -223  -364  -515  -592  -571  -517  -492  -491  -479  -437  -384  -334  -278  -219  -182  -169  -154  -111  -62  -52  -87  -127  -147  -166  -209  -264  -304  -316  -308  -289  -277  -322  -484  -747  -995  -1129  -1160  -1167  -1196  -1215  -1173  -1094  -1062  -1105  -1170  -1204  -1209  -1226  -1238  -1108  -731  -324  -213  -409  -715  -839  -397  686  1967  2908  3246  2921  1925  449  -1083  -2399  -3501  -4310  -4672  -4620  -4248  -3562  -2641  -1734  -1107  -845  -810  -826  -807  -732  -604  -464  -371  -346  -359  -371  -346  -248  -60  157  307  359  358  347  348  376  425  477  541  668  909  1245  1555  1719  1751  1744  1770  1831  1898  1956  2007  2051  2092  2134  2176  2221  2275  2328  2357  2354  2328  2292  2241  2156  2022  1828  1567  1258  939  676  534  509  541  564  511  337  95  -90  -161  -143  -85  -49  -82  -209  -424  -632  -739  -755  -724  -643  -464  -180  107  283  330  300  232  152  100  98  140  199  241  255  244  214  175  145  133  144  182  242  305  340  309  193  32  -96  -145  -128  -77  10  160  356  529  611  587  496  389  307  270  280  329  394  440  443  399  327  248  150  -6  -215  -403  -504  -525  -515  -504  -499  -508  -541  -599  -659  -705  -741  -766  -764  -741  -724  -701  -625  -538  -558  -602  -431  -13  517  1048  1585  2178  2587  2474  1813  682  -850  -2480  -3797  -4561  -4671  -4197  -3418  -2600  -1844  -1200  -734  -477  -366  -289  -185  -67  18  38  29  46  75  79  74  134  325  591  785  829  758  652  582  586  659  757  821  837  844  898  1018  1171  1301  1382  1457  1601  1841  2111  2317  2414  2410  2328  2197  2055  1940  1848  1750  1635  1509  1370  1242  1166  1142  1151  1165  1121  947  657  355  110  -96  -294  -464  -579  -639  -636  -551  -417  -321  -339  -489  -714  -919  -1048  -1099  -1082  -1004  -882  -772  -738  -803  -914  -1001  -1033  -1025  -986  -919  -848  -806  -785  -743  -669  -629  -644  -636  -583  -560  -589  -625  -639  -636  -619  -588  -552  -527  -521  -527  -533  -547  -585  -638  -633  -492  -259  -75  -8  -13  -34  -43  -30  8  76  166  253  292  237  78  -133  -319  -430  -480  -503  -514  -507  -471  -416  -373  -366  -398  -475  -590  -695  -751  -756  -734  -702  -670  -641  -628  -641  -670  -708  -719  -638  -404  76  831  1659  2297  2640  2673  2311  1393  -34  -1605  -2938  -3819  -4149  -3955  -3444  -2862  -2262  -1629  -1113  -804  -601  -404  -222  -123  -113  -114  -85  -70  -109  -163  -134  0  161  276  331  337  330  388  569  818  1005  1080  1082  1051  994  906  793  713  777  1032  1365  1600  1677  1657  1617  1591  1579  1584  1633  1742  1842  1833  1717  1569  1417  1267  1158  1113  1106  1087  1011  864  666  449  249  83  -55  -152  -188  -174  -142  -140  -215  -379  -600  -795  -875  -829  -719  -588  -456  -361  -340  -397  -488  -555  -577  -568  -546  -522  -513  -523  -532  -492  -352  -144  28  107  117  85  3  -119  -230  -282  -282  -267  -257  -254  -259  -278  -307  -325  -288  -161  11  138  185  193  191  157  42  -150  -362  -536  -640  -678  -662  -590  -461  -317  -211  -159  -149  -153  -127  -37  89  194  255  288  299  295  292  299  309  298  240  145  50  -28  -120  -264  -450  -602  -647  -589  -499  -418  -331  -250  -214  -253  -372  -529  -643  -643  -547  -493  -597  -802  -975  -1073  -1095  -962  -596  -110  267  513  860  1446  2157  2771  2949  2344  1020  -560  -2030  -3250  -4072  -4378  -4179  -3513  -2507  -1520  -909  -693  -654  -619  -542  -419  -263  -128  -51  -4  59  140  177  102  -55  -190  -243  -251  -263  -277  -230  -59  202  459  638  727  786  903  1089  1241  1275  1220  1163  1146  1134  1081  1015  1011  1067  1102  1088  1067  1099  1215  1367  1478  1519  1492  1360  1073  711  456  369  330  192  -66  -334  -500  -559  -562  -533  -467  -359  -253  -213  -244  -301  -353  -364  -327  -279  -248  -242  -272  -353  -460  -543  -579  -566  -489  -339  -169  -59  -22  -18  -18  -23  -53  -123  -214  -269  -253  -182  -108  -75  -94  -130  -149  -152  -156  -166  -171  -155  -120  -80  -51  -37  -34  -34  -40  -57  -86  -107  -98  -42  50  137  175  153  90  11  -59  -111  -141  -153  -148  -135  -105  -43  37  96  119  124  119  73  -46  -200  -272  -197  -36  93  152  181  228  292  353  389  396  389  389  410  448  494  553  618  668  692  696  663  564  403  236  116  51  27  20  13  0  -10  -12  -11  -21  -48  -76  -78  -62  -77  -165  -310  -449  -528  -557  -564  -529  -452  -373  -281  -182  -94  134  623  1264  1942  2595  3060  3095  2546  1490  157  -1198  -2368  -3285  -3900  -4007  -3537  -2756  -1915  -1150  -604  -322  -201  -140  -107  -90  -67  -12  89  218  326  383  380  335  276  221  177  162  208  331  488  601  652  683  710  722  741  836  1043  1296  1473  1533  1529  1501  1446  1380  1378  1463  1549  1574  1563  1561  1575  1595  1615  1640  1666  1678  1649  1552  1366  1095  808  614  555  562  533  403  177  -123  -498  -850  -1008  -931  -770  -688  -699  -708  -640  -501  -374  -343  -419  -538  -627  -669  -689  -714  -744  -751  -691  -553  -400  -308  -296  -329  -388  -465  -549  -627  -679  -678  -605  -450  -258  -119  -71  -84  -135  -213  -289  -329  -321  -279  -238  -230  -256  -284  -297  -306  -343  -426  -511  -534  -512  -503  -518  -537  -528  -471  -387  -321  -282  -270  -327  -498  -720  -843  -793  -653  -552  -527  -540  -557  -574  -597  -625  -640  -627  -602  -588  -586  -575  -522  -418  -290  -168  -67  -1  18  4  -25  -55  -66  -24  102  265  319  135  -249  -638  -863  -920  -891  -811  -682  -528  -398  -349  -423  -580  -715  -769  -768  -768  -795  -833  -852  -852  -862  -883  -830  -607  -295  -149  -270  -383  -63  802  1910  2841  3249  2973  2146  1056  -113  -1316  -2482  -3463  -4108  -4300  -3965  -3177  -2172  -1250  -649  -401  -350  -333  -275  -157  5  178  321  397  397  339  263  208  183  174  188  265  430  656  887  1079  1201  1253  1263  1262  1260  1251  1235  1219  1220  1260  1352  1490  1632  1723  1750  1744  1735  1720  1687  1644  1620  1632  1664  1694  1710  1706  1660  1553  1380  1136  823  493  232  86  22  -17  -71  -153  -266  -412  -561  -666  -722  -739  -683  -546  -401  -330  -360  -465  -580  -644  -649  -637  -661  -761  -911  -1033  -1081  -1071  -1026  -955  -865  -788  -751  -752  -769  -768  -716  -614  -505  -437  -425  -459  -528  -616  -702  -785  -892  -1024  -1148  -1243  -1305  -1332  -1304  -1200  -1033  -852  -708  -629  -611  -624  -641  -651  -651  -655  -695  -791  -897  -938  -911  -854  -784  -711  -643  -570  -498  -441  -383  -281  -131  19  132  216  308  442  629  829  988  1110  1261  1449  1599  1657  1655  1647  1649  1663  1690  1726  1759  1785  1790  1724  1534  1273  1076  1011  1030  1051  1022  917  751  588  486  419  307  130  -45  -142  -138  -49  89  237  374  492  577  634  762  1099  1652  2272  2759  2988  2950  2585  1770  587  -759  -2099  -3107  -3430  -3137  -2615  -2108  -1664  -1281  -931  -613  -395  -293  -221  -101  57  212  382  591  783  885  902  888  884  895  902  897  917  972  1022  1032  1015  1007  1043  1125  1220  1288  1331  1377  1440  1502  1531  1517  1472  1407  1348  1331  1385  1522  1688  1801  1833  1813  1773  1727  1678  1626  1563  1440  1223  961  756  648  583  477  307  142  58  49  47  -11  -145  -330  -531  -701  -796  -816  -799  -755  -685  -616  -577  -565  -565  -564  -563  -573  -624  -752  -958  -1174  -1294  -1223  -927  -525  -235  -158  -228  -341  -438  -505  -544  -557  -558  -558  -565  -589  -669  -825  -941  -827  -506  -227  -154  -253  -403  -512  -561  -563  -527  -471  -438  -477  -622  -858  -1091  -1193  -1112  -930  -769  -680  -653  -683  -755  -821  -816  -712  -574  -499  -503  -536  -568  -595  -623  -655  -686  -703  -685  -618  -503  -360  -215  -88  8  50  25  -32  -73  -78  -56  -32  -21  -31  -80  -185  -338  -479  -551  -547  -500  -457  -446  -477  -554  -658  -731  -754  -766  -816  -911  -1035  -1160  -1209  -1102  -872  -662  -589  -660  -840  -1061  -1136  -823  -29  1038  2004  2644  2952  2928  2392  1163  -616  -2502  -4021  -4817  -4784  -4200  -3465  -2710  -1969  -1387  -1042  -870  -788  -743  -708  -648  -523  -342  -191  -140  -178  -226  -199  -80  67  174  228  259  294  341  391  418  414  408  416  436  476  552  680  844  991  1094  1170  1228  1259  1276  1298  1325  1351  1415  1582  1864  2179  2410  2471  2332  2042  1712  1452  1302  1209  1105  952  725  446  213  91  45  0  -62  -115  -144  -163  -182  -204  -230  -271  -330  -390  -443  -500  -549  -572  -594  -645  -713  -745  -690  -510  -228  37  166  102  -132  -407  -571  -607  -577  -512  -388  -162  122  336  423  433  421  407  394  392  401  400  377  351  328  294  248  215  222  277  349  392  403  409  423  434  427  367  215  -16  -235  -351  -335  -200  -1  178  297  361  368  294  138  -35  -148  -184  -179  -149  -85  -2  63  92  95  88  79  74  78  96  139  216  307  368  357  265  133  41  49  164  328  446  469  405  279  116  -55  -176  -202  -172  -164  -197  -239  -259  -251  -244  -295  -446  -641  -774  -818  -819  -821  -838  -863  -881  -877  -858  -830  -755  -621  -523  -528  -524  -267  410  1399  2387  3037  3079  2397  1123  -397  -1854  -3149  -4176  -4717  -4705  -4223  -3353  -2310  -1442  -904  -597  -396  -243  -145  -132  -179  -227  -254  -275  -277  -181  77  423  691  813  823  755  660  605  618  689  798  964  1218  1500  1682  1702  1589  1419  1269  1184  1183  1291  1526  1829  2069  2156  2104  1998  1915  1884  1902  1965  2061  2159  2229  2253  2201  2045  1805  1568  1409  1313  1201  1034  847  682  544  432  355  320  318  328  324  282  195  78  -48  -162  -245  -307  -367  -420  -456  -472  -472  -465  -459  -473  -527  -612  -689  -725  -727  -714  -705  -697  -682  -666  -662  -673  -693  -715  -737  -754  -752  -740  -744  -771  -794  -781  -735  -688  -658  -639  -636  -642  -616  -539  -444  -376  -339  -333  -411  -633  -940  -1178  -1267  -1216  -1020  -698  -364  -155  -102  -136  -180  -189  -167  -137  -111  -82  -41  9  56  66  11  -117  -264  -332  -298  -201  -60  79  154  164  145  134  166  266  416  548  606  584  512  409  299  224  229  323  465  577  576  391  22  -400  -711  -853  -879  -850  -773  -635  -476  -405  -495  -699  -893  -991  -991  -925  -826  -724  -633  -547  -467  -409  -374  -350  -319  -238  6  553  1369  2176  2704  2822  2503  1771  610  -881  -2369  -3558  -4278  -4388  -3895  -3040  -2153  -1430  -884  -513  -303  -187  -115  -84  -92  -112  -96  -10  117  233  328  412  468  486  481  468  454  451  497  618  772  874  894  878  879  915  985  1100  1239  1339  1375  1374  1365  1362  1375  1414  1479  1556  1615  1631  1627  1631  1634  1624  1614  1613  1623  1626  1568  1389  1103  810  606  496  429  338  179  -17  -170  -253  -299  -338  -374  -387  -364  -329  -311  -317  -331  -343  -350  -368  -407  -444  -437  -352  -206  -73  15  84  132  133  94  40  -9  -56  -112  -165  -190  -193  -191  -188  -180  -156  -113  -49  26  74  79  85  121  148  127  72  19  -16  -52  -101  -151  -193  -224  -235  -243  -280  -340  -388  -399  -363  -283  -172  -54  34  66  4  -180  -430  -613  -651  -561  -403  -233  -79  19  9  -98  -222  -312  -377  -446  -547  -666  -740  -742  -706  -661  -558  -321  5  275  412  422  300  64  -190  -359  -414  -390  -323  -242  -190  -209  -312  -454  -565  -625  -669  -722  -790  -865  -940  -1002  -1043  -1047  -978  -833  -669  -557  -520  -523  -530  -526  -506  -455  -375  -344  -417  -498  -444  -165  392  1169  1956  2523  2732  2520  1804  566  -993  -2567  -3878  -4654  -4702  -4141  -3348  -2595  -1967  -1538  -1294  -1098  -877  -668  -514  -420  -376  -367  -370  -369  -353  -314  -247  -140  12  202  400  551  616  618  603  576  525  456  397  370  368  377  407  474  555  628  706  796  877  935  994  1095  1233  1352  1406  1408  1388  1373  1373  1380  1363  1297  1192  1099  1044  982  839  617  409  277  177  30  -187  -401  -503  -507  -520  -617  -821  -1081  -1279  -1355  -1330  -1242  -1133  -1060  -1062  -1146  -1274  -1387  -1438  -1368  -1107  -693  -315  -124  -93  -107  -95  -43  21  79  151  279  442  565  608  585  530  480  450  427  408  394  378  357  332  313  309  297  253  197  168  167  177  187  197  207  199  154  69  -32  -131  -207  -250  -262  -255  -248  -267  -333  -432  -529  -612  -683  -729  -746  -746  -746  -746  -734  -712  -701  -717  -737  -742  -738  -727  -696  -661  -641  -634  -629  -616  -569  -450  -250  -15  184  322  430  532  610  643  616  493  283  73  -47  -77  -68  -45  3  81  159  205  222  234  264  319  383  451  541  646  724  751  738  701  628  484  281  158  299  811  1653  2562  3184  3402  3362  3161  2631  1560  -10  -1865  -3612  -4640  -4615  -3766  -2499  -1212  -333  -33  -70  -144  -164  -159  -160  -170  -143  -25  176  375  486  511  504  509  539  585  625  650  664  679  702  727  738  736  739  775  863  997  1148  1276  1352  1398  1455  1538  1627  1697  1729  1726  1721  1729  1747  1779  1845  1958  2098  2186  2167  2078  1971  1831  1612  1320  1023  785  633  558  514  423  230  -49  -330  -530  -621  -620  -564  -495  -447  -435  -459  -514  -584  -645  -674  -666  -640  -600  -538  -516  -596  -710  -744  -669  -538  -429  -368  -322  -276  -245  -236  -226  -200  -167  -152  -193  -289  -351  -299  -195  -137  -131  -133  -107  -45  32  81  36  -127  -339  -485  -540  -555  -572  -589  -584  -565  -556  -573  -609  -635  -605  -503  -382  -319  -331  -376  -408  -419  -420  -420  -417  -413  -408  -400  -394  -415  -472  -539  -583  -600  -598  -575  -509  -400  -309  -290  -338  -411  -452  -426  -356  -301  -288  -306  -325  -281  -114  160  447  659  761  760  683  565  432  275  103  -17  -59  -77  -115  -164  -211  -262  -325  -395  -453  -484  -494  -497  -497  -470  -392  -296  -271  -375  -554  -698  -772  -840  -929  -917  -663  -219  174  338  393  653  1285  2117  2776  2978  2614  1739  612  -531  -1675  -2789  -3685  -4161  -4095  -3496  -2563  -1608  -906  -552  -453  -440  -389  -266  -99  57  152  170  135  80  35  12  7  19  55  109  152  161  155  198  351  584  783  883  907  897  882  880  889  897  888  858  830  846  942  1110  1281  1394  1450  1477  1487  1482  1477  1502  1582  1690  1747  1693  1530  1286  994  720  498  277  20  -208  -334  -360  -332  -275  -208  -162  -161  -212  -303  -420  -547  -640  -642  -567  -491  -459  -460  -473  -497  -529  -568  -613  -659  -690  -688  -643  -564  -472  -382  -312  -277  -271  -271  -263  -252  -265  -338  -468  -590  -620  -495  -237  32  186  183  55  -116  -241  -291  -297  -289  -281  -292  -332  -386  -430  -446  -435  -413  -401  -407  -433  -472  -510  -537  -554  -571  -593  -600  -566  -491  -422  -410  -443  -464  -440  -374  -292  -231  -215  -245  -321  -419  -493  -516  -460  -300  -83  70  73  -71  -275  -425  -478  -458  -377  -237  -79  36  91  106  93  56  1  -72  -173  -297  -408  -472  -475  -406  -261  -68  146  368  559  669  696  692  711  761  810  814  745  625  520  468  440  377  247  72  -87  -201  -276  -324  -353  -362  -343  -287  -210  -153  -145  -189  -266  -337  -363  -338  -296  -284  -325  -414  -548  -679  -667  -419  65  759  1540  2286  3003  3571  3665  3092  1849  68  -1824  -3335  -4227  -4386  -3831  -2971  -2339  -2049  -1825  -1432  -898  -403  -59  144  246  277  273  255  233  220  227  257  290  307  306  303  323  380  466  579  736  927  1082  1149  1136  1079  1025  1016  1055  1124  1214  1317  1417  1503  1555  1567  1580  1640  1730  1797  1822  1824  1825  1831  1837  1825  1769  1652  1510  1400  1329  1258  1145  947  668  391  198  99  48  13  -5  -10  -15  -31  -54  -93  -162  -248  -311  -341  -368  -427  -513  -604  -706  -829  -939  -982  -902  -671  -371  -164  -150  -314  -545  -706  -722  -616  -469  -366  -334  -338  -341  -335  -328  -328  -329  -320  -293  -259  -240  -244  -250  -242  -229  -237  -286  -381  -490  -553  -526  -421  -299  -224  -204  -211  -218  -219  -217  -215  -221  -241  -269  -295  -307  -299  -274  -250  -232  -210  -182  -168  -192  -257  -330  -369  -370  -353  -333  -319  -313  -312  -309  -305  -302  -316  -356  -411  -451  -461  -440  -382  -279  -139  8  126  174  126  -4  -178  -347  -457  -466  -332  -58  250  454  525  526  487  385  223  72  -4  -32  -96  -241  -416  -536  -573  -554  -505  -448  -405  -379  -375  -417  -532  -683  -794  -834  -831  -815  -804  -825  -884  -897  -707  -328  -25  78  231  682  1404  2247  2908  2909  2018  499  -1135  -2509  -3513  -4144  -4394  -4271  -3782  -2974  -2103  -1513  -1283  -1232  -1184  -1053  -817  -526  -272  -105  -11  59  169  313  420  459  456  438  409  376  350  340  349  376  424  508  656  835  963  1019  1052  1093  1132  1162  1189  1217  1241  1250  1250  1292  1447  1706  1950  2081  2128  2162  2189  2198  2202  2210  2218  2219  2211  2199  2172  2084  1894  1625  1354  1135  943  728  523  408  386  387  382  391  419  429  370  212  -2  -178  -266  -299  -328  -365  -387  -371  -328  -294  -299  -324  -339  -341  -346  -367  -398  -416  -396  -326  -216  -92  -6  -23  -147  -301  -407  -446  -449  -443  -434  -408  -369  -359  -411  -495  -559  -592  -600  -574  -504  -414  -363  -386  -436  -442  -380  -285  -214  -191  -194  -200  -203  -203  -203  -204  -206  -208  -209  -210  -212  -211  -201  -173  -124  -66  -20  -2  -14  -51  -94  -115  -101  -64  -11  69  174  270  344  403  456  508  558  607  662  718  734  665  522  346  186  83  16  -81  -239  -428  -566  -580  -499  -433  -441  -516  -630  -757  -883  -972  -966  -878  -794  -772  -807  -867  -940  -1030  -1091  -999  -665  -106  636  1500  2303  2800  2887  2521  1593  159  -1514  -3211  -4664  -5461  -5372  -4551  -3405  -2379  -1685  -1252  -963  -707  -392  -74  118  172  178  205  261  327  392  451  489  499  486  466  476  578  800  1068  1268  1351  1328  1213  1043  898  845  890  999  1112  1185  1241  1338  1505  1704  1869  1963  1993  1982  1943  1888  1846  1846  1878  1899  1866  1767  1598  1403  1265  1208  1161  1059  923  815  752  696  620  527  427  304  134  -61  -219  -309  -341  -329  -292  -260  -252  -262  -272  -280  -299  -350  -443  -549  -619  -639  -634  -625  -621  -620  -616  -609  -609  -637  -712  -813  -881  -848  -682  -446  -277  -282  -472  -750  -955  -966  -737  -332  56  244  202  38  -110  -189  -224  -229  -204  -176  -171  -193  -229  -265  -303  -348  -375  -350  -259  -121  0  10  -118  -334  -549  -678  -686  -595  -472  -385  -358  -370  -401  -434  -439  -389  -286  -164  -46  70  190  305  390  434  444  412  345  288  267  265  260  254  281  380  526  635  642  545  393  228  37  -185  -377  -483  -514  -501  -460  -412  -384  -394  -439  -500  -552  -586  -602  -607  -606  -589  -534  -447  -381  -411  -546  -688  -734  -548  22  900  1823  2579  2977  2913  2456  1661  526  -846  -2277  -3544  -4379  -4585  -4152  -3347  -2548  -1857  -1200  -687  -459  -436  -432  -339  -168  -1  95  131  151  171  191  238  352  518  662  744  779  785  772  749  728  718  715  713  707  707  730  806  974  1221  1465  1628  1701  1720  1716  1686  1613  1516  1445  1428  1451  1487  1516  1526  1505  1439  1344  1262  1216  1201  1206  1222  1233  1200  1079  878  657  454  275  126  14  -75  -155  -206  -218  -208  -203  -234  -314  -396  -421  -417  -441  -475  -480  -465  -465  -494  -536  -570  -590  -606  -614  -597  -552  -490  -423  -364  -336  -368  -465  -563  -569  -486  -397  -348  -318  -284  -247  -221  -212  -220  -248  -290  -333  -364  -375  -364  -339  -309  -287  -291  -331  -386  -427  -454  -496  -554  -583  -538  -444  -372  -354  -360  -339  -256  -143  -82  -106  -142  -101  0  69  67  48  78  148  209  242  264  274  217  46  -185  -355  -414  -394  -322  -183  -1  151  241  288  310  306  274  222  163  96  25  -39  -104  -176  -232  -257  -266  -288  -368  -532  -721  -828  -807  -718  -647  -634  -659  -695  -729  -754  -765  -755  -712  -637  -529  -397  -307  -312  -287  -11  607  1499  2445  3069  3114  2587  1555  136  -1414  -2871  -4063  -4721  -4636  -3942  -2976  -2058  -1425  -1107  -948  -824  -705  -544  -290  3  203  253  202  129  81  70  88  127  189  269  357  433  474  485  513  575  646  729  843  983  1114  1209  1279  1349  1421  1486  1536  1565  1573  1558  1522  1477  1444  1431  1432  1438  1441  1433  1405  1365  1332  1313  1301  1284  1241  1139  967  753  539  332  120  -63  -180  -244  -290  -321  -333  -333  -329  -327  -333  -351  -369  -349  -285  -225  -210  -231  -258  -277  -288  -286  -251  -163  -52  26  53  55  54  50  40  52  113  197  241  219  162  121  110  105  66  -32  -170  -286  -342  -340  -288  -180  -37  100  201  251  252  218  168  108  29  -59  -132  -202  -308  -432  -506  -491  -415  -336  -286  -256  -220  -168  -114  -67  -18  43  101  120  70  -30  -120  -129  -22  171  356  457  478  467  455  440  418  412  453  526  564  526  437  346  251  100  -109  -328  -502  -613  -691  -770  -824  -807  -731  -636  -548  -464  -380  -312  -292  -310  -301  -278  -348  -489  -487  -135  635  1647  2551  3016  2790  1866  581  -704  -1853  -2809  -3527  -3972  -4069  -3782  -3168  -2339  -1512  -908  -545  -324  -218  -219  -272  -311  -306  -249  -132  29  178  265  312  373  455  520  543  526  477  415  371  365  399  479  604  737  835  887  902  897  890  914  1019  1232  1490  1682  1758  1746  1685  1605  1535  1497  1503  1542  1591  1627  1644  1639  1603  1534  1445  1342  1191  942  606  259  -21  -199  -295  -351  -387  -421  -470  -545  -639  -732  -807  -846  -834  -762  -642  -525  -483  -546  -665  -763  -807  -812  -797  -763  -709  -646  -593  -566  -564  -574  -584  -586  -569  -526  -465  -401  -349  -320  -314  -317  -321  -323  -318  -298  -270  -272  -335  -438  -529  -579  -585  -558  -502  -408  -301  -249  -290  -384  -458  -485  -486  -479  -461  -430  -405  -398  -409  -430  -443  -437  -415  -382  -345  -310  -286  -281  -294  -296  -251  -135  39  208  307  337  345  363  377  355  291  201  83  -71  -244  -417  -581  -702  -735  -688  -620  -595  -622  -639  -585  -496  -461  -501  -537  -512  -460  -454  -509  -579  -627  -705  -833  -901  -813  -572  -143  559  1516  2507  3196  3310  2723  1549  204  -918  -1805  -2609  -3305  -3771  -3901  -3625  -3015  -2256  -1531  -999  -711  -558  -394  -185  11  169  303  415  496  536  514  414  264  138  77  62  70  100  165  291  458  598  670  689  681  670  680  736  841  986  1163  1352  1496  1544  1526  1482  1410  1384  1496  1662  1730  1662  1534  1442  1414  1416  1405  1368  1329  1309  1272  1132  852  501  184  -36  -158  -211  -241  -291  -361  -401  -375  -324  -311  -356  -429  -488  -516  -526  -532  -544  -557  -564  -562  -548  -521  -484  -448  -427  -423  -428  -427  -405  -351  -260  -137  -2  96  127  109  77  41  1  -26  -36  -44  -80  -165  -263  -311  -289  -226  -130  -15  78  113  95  77  83  84  49  -5  -64  -132  -208  -264  -283  -261  -193  -101  -22  24  32  -11  -97  -159  -121  20  177  266  286  281  275  261  220  154  100  123  289  583  883  1061  1084  983  827  669  502  333  220  190  207  230  239  219  158  73  7  -22  -31  -30  -9  49  131  190  193  144  71  0]
