reading_id,reading_time,wire_id,result_classification,heart_rate,heart_rate_alert,firmware_version,device_app_version,hardware_version,waveform_samples
20e2cea0-562f-11ed-8080-808080808080,Thu Oct 27 19:39:53 UTC 2022,e100638c1a39,UNREADABLE,0,NONE,20001.171.50,2.10.0,Charge 5,[9307  9588  9895  10332  10998  11776  12359  12587  12580  12536  12600  12820  13113  13336  13447  13500  13533  13546  13545  13549  13574  13624  13692  13763  13810  13781  13604  13197  12517  11689  10993  10597  10439  10370  10289  10172  10024  9815  9500  9086  8626  8181  7814  7582  7478  7433  7360  7183  6884  6538  6242  6040  5942  5952  6068  6272  6531  6798  7032  7266  7586  8013  8483  8880  9058  8882  8196  6954  5400  3812  2313  1008  -168  -1487  -3031  -4661  -6223  -7510  -8347  -8778  -8979  -9067  -9086  -9066  -9045  -9068  -9153  -9257  -9314  -9290  -9170  -8959  -8711  -8500  -8365  -8299  -8276  -8282  -8303  -8322  -8335  -8349  -8363  -8364  -8322  -8226  -8097  -7959  -7838  -7776  -7773  -7747  -7660  -7569  -7533  -7553  -7599  -7644  -7686  -7728  -7760  -7775  -7766  -7706  -7533  -7187  -6685  -6112  -5578  -5199  -5020  -5028  -5279  -5845  -6591  -7206  -7504  -7549  -7460  -7260  -6957  -6630  -6380  -6237  -6161  -6097  -5992  -5793  -5509  -5228  -5020  -4890  -4803  -4714  -4596  -4465  -4355  -4275  -4198  -4091  -3943  -3794  -3699  -3662  -3638  -3586  -3493  -3360  -3216  -3104  -3028  -2954  -2864  -2774  -2695  -2624  -2548  -2449  -2313  -2136  -1924  -1711  -1540  -1440  -1414  -1427  -1422  -1385  -1366  -1406  -1483  -1543  -1569  -1587  -1609  -1589  -1472  -1292  -1155  -1107  -1105  -1101  -1086  -1045  -917  -643  -262  79  272  352  433  542  629  677  738  846  977  1099  1199  1293  1389  1462  1489  1490  1537  1687  1895  2047  2109  2148  2242  2399  2554  2647  2675  2674  2698  2797  2950  3083  3173  3240  3288  3278  3161  2923  2577  2110  1520  890  368  68  -22  -20  -33  -119  -295  -540  -800  -1023  -1190  -1309  -1390  -1452  -1505  -1541  -1555  -1558  -1558  -1527  -1393  -1086  -640  -201  99  247  309  329  278  69  -346  -886  -1384  -1749  -1985  -2099  -2106  -2046  -1971  -1919  -1889  -1854  -1802  -1753  -1738  -1755  -1765  -1769  -1824  -1971  -2163  -2306  -2342  -2268  -2095  -1821  -1463  -1109  -886  -847  -985  -1265  -1570  -1769  -1861  -1939  -2026  -2058  -2012  -1946  -1901  -1805  -1527  -1078  -658  -426  -346  -306  -261  -207  -125  -8  105  172  185  170  132  28  -210  -581  -954  -1185  -1261  -1260  -1250  -1252  -1266  -1278  -1290  -1317  -1374  -1449  -1514  -1555  -1572  -1581  -1636  -1791  -2008  -2174  -2237  -2245  -2258  -2288  -2314  -2323  -2326  -2340  -2361  -2360  -2322  -2277  -2266  -2305  -2397  -2521  -2626  -2672  -2667  -2652  -2656  -2671  -2677  -2673  -2683  -2722  -2792  -2881  -2968  -3040  -3117  -3230  -3376  -3522  -3653  -3770  -3876  -3984  -4106  -4239  -4361  -4437  -4449  -4394  -4284  -4153  -4048  -3998  -3992  -3989  -3944  -3845  -3730  -3646  -3599  -3550  -3436  -3222  -2953  -2712  -2495  -2179  -1639  -911  -228  155  108  -377  -1145  -1893  -2407  -2670  -2768  -2773  -2720  -2623  -2509  -2414  -2361  -2353  -2359  -2350  -2324  -2306  -2329  -2389  -2454  -2529  -2657  -2834  -2988  -3052  -3012  -2881  -2689  -2463  -2212  -1951  -1673  -1311  -866  -481  -248  -98  78  313  565  786  977  1189  1451  1743  2073  2519  3105  3693  4101  4286  4331  4302  4248  4311  4786  6052  8298  11206  14064  16400  18270  19982  21771  23523  24681  24683  23481  21556  19528  17748  16219  14844  13741  13233  13447  14084  14716  15121  15302  15310  15126  14728  14227  13808  13539  13335  13092  12745  12216  11418  10388  9334  8430  7642  6929  6388  6048  5788  5486  5105  4669  4189  3672  3213  2939  2834  2757  2635  2500  2378  2229  2051  1921  1905  2005  2167  2297  2255  1902  1240  505  -23  -281  -416  -588  -819  -1043  -1201  -1280  -1300  -1293  -1255  -1164  -1041  -948  -927  -979  -1095  -1274  -1500  -1717  -1847  -1847  -1713  -1493  -1294  -1225  -1346  -1687  -2295  -3156  -4043  -4651  -4882  -4879  -4812  -4775  -4824  -5004  -5271  -5508  -5654  -5729  -5752  -5724  -5651  -5541  -5396  -5238  -5099  -4992  -4923  -4887  -4859  -4807  -4717  -4601  -4494  -4433  -4436  -4488  -4556  -4602  -4604  -4554  -4455  -4331  -4225  -4171  -4160  -4157  -4130  -4081  -4023  -3957  -3875  -3786  -3715  -3674  -3652  -3644  -3668  -3733  -3809  -3860  -3877  -3873  -3856  -3768  -3501  -3072  -2671  -2461  -2426  -2467  -2518  -2559  -2573  -2551  -2498  -2436  -2386  -2349  -2304  -2249  -2206  -2193  -2209  -2253  -2323  -2401  -2458  -2477  -2468  -2452  -2440  -2426  -2407  -2375  -2315  -2251  -2224  -2237  -2253  -2257  -2254  -2256  -2271  -2288  -2281  -2241  -2213  -2240  -2286  -2290  -2251  -2219  -2203  -2142  -2022  -1921  -1885  -1881  -1850  -1760  -1608  -1426  -1273  -1189  -1159  -1142  -1107  -1061  -1029  -1016  -1009  -982  -914  -814  -716  -625  -517  -402  -329  -318  -334  -334  -308  -267  -227  -200  -187  -195  -234  -259  -183  27  392  960  1654  2271  2725  2980  2911  2494  1879  1190  484  -112  -456  -499  -261  175  642  945  1013  958  928  977  1090  1232  1372  1493  1589  1658  1701  1726  1748  1770  1789  1811  1833  1858  1895  1931  1930  1882  1814  1766  1753  1760  1773  1777  1744  1658  1555  1498  1499  1530  1566  1601  1640  1686  1734  1777  1807  1816  1788  1707  1582  1448  1339  1241  1103  919  752  647  583  523  456  387  326  280  245  207  174  171  216  288  340  359  365  379  406  435  457  453  373  162  -120  -330  -408  -403  -368  -312  -243  -184  -137  -83  -20  24  38  31  17  2  -10  -17  -21  -42  -117  -244  -378  -472  -518  -530  -542  -579  -623  -637  -612  -570  -536  -518  -515  -536  -604  -714  -832  -943  -1047  -1119  -1139  -1119  -1099  -1120  -1167  -1179  -1139  -1092  -1070  -1066  -1067  -1076  -1115  -1199  -1301  -1375  -1409  -1389  -1291  -1125  -912  -653  -355  -27  318  649  890  899  540  -190  -1119  -1979  -2555  -2759  -2605  -2213  -1787  -1441  -1166  -964  -859  -809  -739  -603  -416  -234  -112  -62  -46  -17  32  77  105  120  127  124  122  165  301  511  709  847  940  1016  1098  1206  1338  1454  1516  1515  1466  1388  1310  1259  1264  1346  1499  1684  1851  1973  2037  2033  1963  1850  1719  1594  1489  1380  1199  909  578  330  224  228  287  366  434  475  492  483  429  316  168  39  -34  -46  -9  61  162  284  402  481  522  562  652  814  1003  1134  1169  1112  982  827  715  664  649  646  644  634  619  601  574  542  521  518  512  492  468  447  428  416  422  456  507  547  547  502  440  402  401  421  454  493  521  499  389  206  28  -87  -148  -190  -231  -270  -311  -368  -444  -511  -545  -544  -505  -399  -217  0  202  352  442  523  665  846  971  1014  1091  1358  1854  2451  2957  3249  3272  2927  2122  1032  96  -377  -458  -393  -332  -279  -186  -38  132  302  462  612  748  868  971  1056  1125  1190  1256  1307  1332  1335  1328  1326  1343  1386  1458  1537  1595  1629  1655  1672  1658  1585  1445  1257  1040  803  561  369  276  268  287  280  213  96  -19  -89  -116  -128  -138  -139  -137  -167  -266  -418  -563  -651  -682  -688  -696  -705  -706  -679  -614  -541  -491  -460  -432  -397  -356  -314  -267  -195  -105  -39  -40  -122  -267  -440  -628  -827  -1010  -1134  -1185  -1195  -1197  -1201  -1203  -1197  -1184  -1184  -1248  -1419  -1656  -1856  -1979  -2053  -2082  -2027  -1890  -1747  -1671  -1660  -1681  -1710  -1742  -1772  -1797  -1809  -1774  -1652  -1451  -1225  -1004  -809  -677  -627  -643  -704  -790  -890  -1013  -1145  -1237  -1269  -1268  -1268  -1280  -1303  -1325  -1343  -1359  -1374  -1390  -1414  -1455  -1518  -1610  -1734  -1872  -1981  -2042  -2090  -2187  -2311  -2295  -2024  -1621  -1210  -758  -230  400  1101  1590  1482  700  -461  -1639  -2560  -3009  -2957  -2638  -2278  -1949  -1691  -1517  -1343  -1122  -928  -833  -820  -833  -839  -836  -833  -826  -784  -684  -556  -465  -431  -429  -434  -432  -403  -319  -170  9  153  230  245  225  228  292  422  609  804  935  980  958  862  671  442  288  270  357  473  552  578  577  565  540  499  470  506  664  933  1190  1294  1212  1005  751  619  887  1610  2425  2875  2700  1881  718  -259  -740  -820  -775  -810  -923  -940  -694  -124  668  1438  1971  2213  2247  2185  2086  1983  1920  1904  1858  1640  1127  337  -513  -1136  -1422  -1475  -1434  -1367  -1287  -1186  -1080  -1011  -990  -995  -1006  -1021  -1033  -1001  -870  -599  -142  583  1525  2419  3044  3396  3562  3582  3489  3364  3287  3272  3281  3270  3215  3138  3082  3068  3080  3089  3060  2967  2842  2738  2556  2022  1011  -150  -979  -1323  -1369  -1320  -1247  -1133  -956  -725  -461  -163  160  448  626  693  708  729  766  824  967  1254  1618  1923  2127  2273  2382  2430  2403  2296  2029  1464  642  -146  -664  -920  -1029  -1072  -1083  -1061  -964  -749  -448  -153  33  55  -33  -125  -211  -400  -768  -1209  -1511  -1605  -1600  -1617  -1699  -1813  -1915  -2002  -2095  -2195  -2278  -2334  -2378  -2428  -2437  -2243  -1690  -910  -276  13  91  142  211  245  220  161  71  -90  -327  -578  -817  -1069  -1333  -1567  -1747  -1902  -2089  -2310  -2492  -2550  -2419  -2057  -1530  -1042  -752  -633  -559  -471  -400  -363  -322  -261  -203  -172  -161  -136  -84  -18  39  83  123  171  224  274  320  366  414  455  483  499  507  507  505  502  498  496  489  414  150  -327  -831  -1136  -1200  -1103  -924  -738  -617  -575  -573  -583  -609  -674  -790  -947  -1123  -1297  -1487  -1732  -2019  -2277  -2457  -2491  -2210  -1505  -558  303  942  1425  1798  2055  2163  2006  1473  626  -305  -1095  -1601  -1710  -1406  -868  -309  146  414  502  524  566  633  705  764  798  813  822  826  829  846  908  1045  1232  1398  1499  1551  1583  1604  1623  1648  1687  1747  1815  1867  1895  1914  1911  1804  1494  1026  606  401  426  628  912  1162  1324  1424  1494  1491  1249  626  -186  -771  -972  -969  -944  -948  -989  -1080  -1202  -1298  -1326  -1285  -1201  -1088  -926  -715  -518  -400  -364  -360  -335  -261  -155  -59  0  52  148  303  478  623  706  730  733  751  794  857  922  968  991  1005  1002  950  859  814  880  1021  1142  1194  1196  1175  1123  1015  861  699  529  323  97  -82  -198  -288  -374  -441  -483  -488  -406  -190  96  304  379  396  451  557  630  575  432  336  319  325  320  309  305  319  343  379  450  567  723  938  1239  1583  1863  1987  1862  1391  640  -166  -883  -1438  -1742  -1776  -1617  -1369  -1147  -1005  -907  -815  -749  -729  -741  -761  -773  -770  -760  -750  -740  -740  -784  -943  -1264  -1659  -1946  -2036  -1942  -1693  -1386  -1168  -1087  -1082  -1089  -1077  -1008  -850  -637  -456  -346  -268  -175  -45  95  211  295  357  392  408  420  422  400  371  356  343  291  177  8  -177  -334  -442  -517  -577  -626  -659  -689  -736  -795  -849  -893  -950  -1048  -1181  -1306  -1389  -1431  -1474  -1578  -1735  -1885  -2008  -2141  -2300  -2447  -2553  -2642  -2713  -2664  -2299  -1549  -661  24  394  531  556  550  552  581  653  763  883  991  1091  1209  1352  1495  1602  1654  1664  1660  1655  1647  1625  1597  1576  1566  1551  1517  1472  1430  1390  1331  1244  1141  1076  1107  1231  1400  1592  1789  1944  2035  2081  2105  2126  2162  2215  2266  2308  2357  2433  2562  2772  3061  3364  3588  3702  3730  3633  3295  2703  2079  1703  1671  1909  2265  2562  2719  2786  2824  2814  2689  2393  1927  1383  909  581  349  131  -126  -435  -755  -1026  -1221  -1345  -1417  -1483  -1615  -1821  -2013  -2114  -2137  -2136  -2150  -2200  -2294  -2402  -2472  -2464  -2378  -2256  -2161  -2128  -2167  -2293  -2505  -2756  -2981  -3125  -3168  -3136  -3095  -3087  -3123  -3240  -3497  -3853  -4176  -4380  -4473  -4488  -4459  -4429  -4434  -4479  -4572  -4735  -4958  -5168  -5312  -5404  -5468  -5512  -5570  -5699  -5911  -6147  -6355  -6553  -6779  -7015  -7216  -7372  -7497  -7580  -7617  -7610  -7555  -7463  -7373  -7320  -7306  -7311  -7317  -7307  -7261  -7174  -7071  -6966  -6832  -6658  -6488  -6364  -6280  -6200  -6069  -5837  -5509  -5157  -4829  -4500  -4145  -3803  -3537  -3367  -3221  -2863  -1993  -643  683  1512  1848  1988  2105  2192  2247  2339  2508  2720  2955  3268  3705  4185  4549  4725  4761  4736  4739  4859  5141  5590  6242  7087  7919  8501  8809  8953  9027  9102  9228  9404  9588  9737  9826  9860  9849  9752  9470  8947  8262  7605  7125  6820  6617  6491  6426  6396  6388  6393  6378  6295  6123  5918  5776  5762  5902  6174  6463  6634  6641  6526  6372  6250  6152  6018  5832  5628  5442  5280  5132  5013  4942  4909  4880  4824  4695  4468  4212  4028  3924  3840  3752  3655  3506  3293  3089  2975  2944  2939  2929  2906  2839  2682  2426  2134  1873  1659  1491  1373  1293  1218  1135  1069  1039  1012  913  687  396  186  143  262  491  739  918  1009  1038  1018  939  810  674  580  540  535  550  595  675  761  807  800  761  712  643  556  461  353  235  160  175  252  337  399  441  460  388  122  -326  -811  -1188  -1401  -1474  -1476  -1467  -1461  -1416  -1286  -1099  -954  -917  -957  -1003  -1024  -1028  -1026  -1011  -958  -848  -693  -540  -357  -20  478  993  1397  1601  1522  1151  522  -373  -1487  -2543  -3179  -3213  -2681  -1813  -1002  -519  -321  -217  -93  37  121  142  93  -41  -247  -465  -635  -725  -717  -585  -330  -16  270  472  581  626  651  685  725  762  818  927  1067  1168  1192  1167  1134  1083  892  422  -223  -738  -971  -1047  -1140  -1283  -1403  -1454  -1456  -1451  -1476  -1564  -1731  -1943  -2138  -2300  -2485  -2748  -3036  -3264  -3429  -3587  -3777  -3990  -4192  -4380  -4574  -4749  -4859  -4898  -4896  -4883  -4869  -4857  -4847  -4827  -4775  -4642  -4352  -3893  -3413  -3093  -2934  -2844  -2789  -2782  -2814  -2857  -2887  -2903  -2928  -2978  -3059  -3176  -3313  -3420  -3459  -3451  -3436  -3432  -3441  -3461  -3492  -3542  -3623  -3730  -3871  -4092  -4433  -4833  -5159  -5352  -5455  -5546  -5669  -5813  -5939  -6031  -6084  -6106  -6114  -6116  -6099  -6040  -5946  -5843  -5707  -5474  -5173  -4921  -4762  -4640  -4529  -4449  -4395  -4312  -4195  -4094  -4016  -3873  -3583  -3174  -2773  -2459  -2233  -2138  -2305  -2857  -3753  -4772  -5622  -6088  -6188  -6104  -5977  -5844  -5710  -5598  -5539  -5540  -5570  -5593  -5587  -5539  -5452  -5356  -5284  -5251  -5254  -5239  -5054  -4455  -3243  -1488  343  1683  2377  2704  2974  3340  3887  4662  5606  6556  7435  8361  9420  10442  11160  11535  11790  12117  12472  12765  13111  13787  14982  16614  18347  19779  20722  21290  21638  21765  21585  21072  20257  19194  18068  17186  16730  16711  16961  17207  17315  17270  17122  17073  17321  17729  17801  17064  15269  12503  9417  6797  4871  3384  2042  701  -660  -2009  -3304  -4540  -5733  -6882  -7928  -8815  -9561  -10255  -11014  -11900  -12821  -13578  -14089  -14463  -14816  -15172  -15526  -15759  -15332  -13291  -9145  -3926  290  2273  2397  1588  440  -786  -2075  -3572  -5335  -7214  -8987  -10549  -11951  -13307  -14635  -15796  -16676  -17360  -18049  -18876  -19866  -20931  -21936  -22852  -23699  -24419  -24986  -25490  -26044  -26672  -27334  -28013  -28743  -29527  -30320  -31036  -31588  -31968  -32217  -32371  -32491  -32664  -32768  -32768  -32768  -32768  -32768  -32768  -32768  -32768  -32768  -32768  -32768  -32768  -32768  -32768  -32768  -32768  -32768  -32768  -32768  -32768  -32768  -32768  -32768  -32768  -26613  -19033  -11558  -4941  561  5193  9175  12588  15631  18504  21158  23424  25282  26834  28201  29551  31037  32651  32767  32767  32767  32767  32767  32767  32767  32767  28499  21354  13772  7187  2962  1952  4082  7931  11209  12500  12193  11562  11790  13845  18018  23401  28587  32708  32767  32767  32767  32767  32767  32767  32767  32767  32767  32767  32767  32767  32767  32767  32767  32767  32767  32767  32767  32767  30102  25395  23250  22547  22395  22551  22878  23058  22911  22625  22433  22096  21007  18905  16219  13640  11431  9243  6902  4856  3405  2366  1697  1589  1959  2393  2386  1709  726  49  183  1631  4427  7558  9517  8956  4943  -1776  -8354  -12338  -13655  -13449  -12240  -9901  -6764  -3749  -1434  291  1747  3084  4355  5781  7706  10167  12775  15133  17004  18243  18977  19606  20469  21647  23018  24370  25553  26495  27121  27425  27500  27429  27221  26909  26609  26422  26360  26389  26428  26277  25724  24813  23859  23092  22483  21943  21490  21138  20792  20362  19790  18939  17693  16159  14563  13058  11764  10747  9824  8655  7085  5182  3076  903  -1199  -3101  -4692  -5974  -7130  -8332  -9506  -10451  -11138  -11701  -12213  -12609  -12779  -12658  -12389  -12432  -13227  -14500  -15191  -14390  -11966  -8534  -5714  -5301  -7392  -10588  -13583  -15659  -16693  -17154  -17619  -18239  -18883  -19532  -20230  -20908  -21446  -21800  -22011  -22143  -22229  -22274  -22288  -22284  -22266  -22238  -22212  -22197  -22192  -22190  -22182  -22164  -22126  -22051  -21941  -21827  -21736  -21675  -21620  -21508  -21302  -21048  -20829  -20657  -20490  -20286  -20041  -19789  -19562  -19371  -19216  -19093  -18996  -18940  -18939  -18994  -19083  -19166  -19182  -19037  -18638  -17996  -17230  -16448  -15712  -15084  -14618  -14339  -14212  -14148  -14054  -13903  -13730  -13574  -13441  -13334  -13262  -13222  -13169  -13034  -12785  -12464  -12154  -11917  -11773  -11683  -11593  -11466  -11276  -11050  -10859  -10736  -10644  -10529  -10328  -9952  -9321  -8502  -7717  -7113  -6643  -6139  -5439  -4573  -3806  -3418  -3522  -4068  -4877  -5707  -6344  -6663  -6629  -6281  -5731  -5131  -4647  -4394  -4339  -4340  -4300  -4231  -4185  -4170  -4155  -4120  -4058  -3986  -3922  -3851  -3754  -3653  -3584  -3548  -3514  -3459  -3387  -3297  -3154  -2923  -2652  -2449  -2373  -2443  -2689  -3076  -3458  -3715  -3850  -3925  -4001  -4101  -4224  -4365  -4516  -4668  -4854  -5141  -5499  -5803  -6003  -6170  -6370  -6580  -6713  -6695  -6500  -6182  -5851  -5593  -5398  -5034  -3998  -2022  248  1754  2147  1765  991  157  -443  -760  -938  -1089  -1169  -1045  -759  -586  -631  -410  987  4006  7968  11450  13071  12319  9966  7248  4941  3362  2504  2066  1689  1266  911  661  441  215  4  -201  -427  -473  329  2748  6747  11229  14850  16965  17874  18326  18829  19385  19760  19879  19867  19895  20104  20571  21262  22057  22811  23436  23949  24440  24958  25492  26112  26975  28047  29002  29599  29977  30414  30947  31370  31409  30744  29141  26696  23829  20971  18270  15698  13349  11380  9845  8651  7622  6618  5572  4516  3543  2724  2130  1830  1791  1901  2071  2241  2289  1942  975  -343  -1364  -1779  -1799  -1721  -1677  -1705  -1818  -1978  -2103  -2154  -2155  -2142  -2129  -2118  -2130  -2207  -2374  -2584  -2753  -2844  -2891  -2936  -2993  -3051  -3096  -3117  -3113  -3073  -2982  -2847  -2700  -2564  -2425  -2246  -1956  -1453  -710  90  688  1013  1196  1340  1442  1475  1445  1384  1331  1305  1298  1299  1306  1320  1329  1293  1159  937  715  564  475  406  326  225  118  31  -49  -165  -326  -500  -639  -731  -822  -957  -1116  -1240  -1307  -1343  -1397  -1505  -1655  -1801  -1934  -2088  -2282  -2491  -2685  -2866  -3082  -3367  -3676  -3912  -4030  -4070  -4101  -4166  -4284  -4455  -4665  -4856  -4956  -4947  -4877  -4804  -4751  -4713  -4685  -4670  -4681  -4731  -4800  -4849  -4858  -4850  -4861  -4910  -4979  -5030  -5051  -5055  -5042  -4995  -4905  -4800  -4721  -4687  -4697  -4725  -4710  -4615  -4485  -4384  -4341  -4358  -4421  -4507  -4605  -4697  -4779  -4869  -4977  -5069  -5113  -5132  -5180  -5277  -5385  -5454  -5471  -5459  -5450  -5486  -5590  -5723  -5827  -5893  -5931  -5945  -5925  -5852  -5713  -5511  -5255  -4975  -4670  -4214  -3426  -2335  -1254  -513  -216  -274  -562  -928  -1197  -1258  -1065  -612  -5  568  969  1166  1228  1253  1311  1443  1661  1923  2161  2350  2533  2758  3004  3217  3386  3536  3678  3798  3890  3954  3977  3939  3788  3460  3022  2673  2534  2643  3050  3688  4289  4622  4701  4668  4624  4596  4584  4585  4603  4635  4634  4492  4129  3638  3205  2912  2731  2650  2684  2839  3056  3221  3238  3057  2666  2114  1538  1131  997  1099  1327  1559  1710  1752  1652  1378  1018  765  744  941  1231  1427  1376  1043  585  254  136  127  137  157  176  139  -6  -228  -430  -546  -582  -582  -596  -647  -711  -767  -839  -955  -1109  -1274  -1406  -1474  -1483  -1467  -1457  -1477  -1559  -1735  -1987  -2243  -2457  -2655  -2869  -3075  -3226  -3312  -3362  -3396  -3420  -3435  -3440  -3438  -3433  -3435  -3463  -3537  -3642  -3747  -3862  -4003  -4070  -3832  -3134  -2163  -1326  -823  -569  -418  -289  -173  -93  -50  -24  12  97  235  388  515  614  706  821  976  1156  1341  1550  1833  2210  2669  3152  3555  3729  3560  3043  2271  1398  592  54  -68  162  581  1074  1538  1868  2025  2034  1916  1666  1305  904  523  165  -196  -564  -917  -1258  -1579  -1858  -2079  -2177  -1937  -1142  27  1074  1715  2021  2151  2217  2278  2359  2474  2628  2797  2946  3056  3150  3252  3352  3428  3476  3519  3566  3604  3629  3646  3610  3398  2885  2123  1373  877  668  618  554  347  -3  -379  -658  -797  -840  -848  -810  -608  -137  487  980  1207  1261  1267  1277  1310  1387  1512  1675  1865  2055  2198  2269  2290  2303  2336  2358  2252  1899  1337  763  315  -43  -390  -720  -983  -1183  -1355  -1510  -1645  -1757  -1842  -1904  -1964  -2040  -2128  -2214  -2302  -2402  -2501  -2579  -2625  -2655  -2698  -2769  -2853  -2932  -3028  -3164  -3297  -3351  -3302  -3199  -3101  -3019  -2956  -2951  -3043  -3195  -3323  -3394  -3449  -3531  -3631  -3712  -3760  -3789  -3820  -3879  -3984  -4122  -4252  -4327  -4336  -4323  -4352  -4469  -4647  -4792  -4855  -4853  -4814  -4739  -4614  -4405  -4069  -3588  -3041  -2583  -2303  -2171  -2115  -2060  -1923  -1641  -1257  -907  -643  -350  89  617  1079  1410  1633  1779  1875  1954  2048  2166  2280  2365  2429  2512  2635  2777  2926  3109  3310  3468  3569  3659  3777  3932  4108  4257  4343  4386  4420  4436  4419  4424  4536  4759  4991  5143  5210  5232  5240  5263  5325  5435  5557  5642  5670  5644  5564  5423  5198  4849  4356  3754  3143  2615  2177  1817  1557  1391  1255  1058  691  87  -675  -1372  -1827  -2057  -2171  -2257  -2347  -2464  -2631  -2828  -2991  -3084  -3129  -3132  -3019  -2649  -1951  -1098  -412  -7  228  377  461  540  668  822  929  960  948  934  942  982  1041  1089  1114  1135  1170  1208  1223  1219  1239  1312  1416  1493  1517  1511  1506  1522  1564  1625  1698  1778  1862  1954  2064  2183  2288  2364  2437  2547  2682  2775  2782  2713  2561  2222  1558  638  -246  -866  -1226  -1501  -1860  -2275  -2549  -2511  -2139  -1618  -1239  -1145  -1293  -1582  -1900  -2157  -2321  -2397  -2415  -2407  -2391  -2349  -2247  -2067  -1798  -1450  -1087  -799  -628  -551  -578  -823  -1397  -2228  -3046  -3585  -3780  -3720  -3496  -3202  -2965  -2851  -2826  -2837  -2856  -2877  -2889  -2889  -2880  -2870  -2859  -2840  -2797  -2719  -2630  -2566  -2525  -2468  -2379  -2286  -2215  -2173  -2158  -2159  -2147  -2098  -2020  -1949  -1903  -1868  -1796  -1651  -1469  -1343  -1332  -1421  -1546  -1633  -1660  -1656  -1651  -1653  -1656  -1664  -1686  -1667  -1461  -970  -332  166  411  517  594  645  659  663  688  730  770  803  835  871  905  934  955  968  984  1016  1077  1162  1252  1330  1399  1456  1495  1515  1530  1569  1652  1767  1882  1980  2060  2125  2190  2271  2368  2466  2552  2613  2639  2630  2604  2578  2565  2583  2658  2784  2902  2953  2928  2865  2808  2778  2767  2772  2806  2895  3042  3203  3316  3364  3378  3385  3389  3380  3350  3307  3245  3142  2994  2839  2711  2607  2524  2460  2350  2096  1711  1353  1149  1062  983  851  658  406  145  -36  -107  -126  -172  -303  -546  -859  -1143  -1308  -1298  -1060  -575  56  646  1040  1213  1202  961  394  -466  -1408  -2147  -2510  -2535  -2361  -2112  -1888  -1746  -1686  -1682  -1701  -1729  -1771  -1824  -1870  -1892  -1895  -1891  -1889  -1889  -1889  -1887  -1881  -1873  -1869  -1872  -1871  -1852  -1807  -1736  -1631  -1490  -1332  -1196  -1106  -1048  -990  -916  -827  -722  -617  -548  -527  -532  -538  -539  -535  -531  -529  -531  -542  -565  -614  -702  -825  -970  -1146  -1353  -1549  -1694  -1771  -1793  -1788  -1784  -1798  -1812  -1738  -1449  -948  -443  -166  -206  -529  -976  -1330  -1523  -1652  -1786  -1901  -1958  -1964  -1956  -1947  -1912  -1829  -1713  -1617  -1574  -1568  -1554  -1501  -1414  -1329  -1283  -1284  -1305  -1312  -1304  -1295  -1293  -1306  -1338  -1375  -1393  -1390  -1383  -1379  -1378  -1379  -1382  -1378  -1348  -1275  -1176  -1097  -1060  -1052  -1048  -1026  -969  -889  -815  -764  -735  -749  -854  -1067  -1315  -1500  -1596  -1638  -1665  -1691  -1723  -1766  -1820  -1883  -1939  -1962  -1942  -1907  -1885  -1876  -1872  -1875  -1902  -1968  -2059  -2121  -2109  -2014  -1771  -1251  -354  880  2222  3343  4020  4212  3951  3302  2427  1531  799  400  406  678  971  1211  1476  1736  1892  1967  2032  2099  2128  2092  2011  1935  1898  1902  1941  1999  2066  2146  2239  2320  2391  2526  2778  3077  3307  3438  3499  3509  3508  3567  3677  3715  3603  3442  3401  3551  3810  3995  3915  3475  2808  2187  1721  1335  961  551  101  -315  -634  -855  -1018  -1195  -1469  -1845  -2232  -2553  -2823  -3097  -3376  -3581  -3556  -3070  -2041  -812  77  419  386  207  15  -116  -157  -93  86  325  526  660  767  873  985  1104  1216  1304  1361  1399  1439  1486  1540  1605  1678  1751  1819  1870  1897  1907  1908  1893  1841  1754  1667  1614  1601  1615  1639  1658  1667  1666  1664  1666  1675  1697  1761  1915  2150  2380  2539  2623  2662  2686  2699  2683  2628  2560  2519  2511  2515  2497  2443  2382  2341  2263  2032  1629  1175  793  509  291  117  -9  -86  -142  -250  -465  -736  -939  -1002  -932  -733  -423  -65  275  544  681  612  268  -384  -1313  -2334  -3148  -3561  -3564  -3245  -2765  -2327  -2062  -1949  -1877  -1781  -1707  -1720  -1807  -1893  -1939  -1961  -1989  -2038  -2101  -2153  -2179  -2186  -2186  -2196  -2220  -2240  -2228  -2193  -2178  -2194  -2212  -2205  -2183  -2167  -2164  -2167  -2168  -2163  -2143  -2089  -1986  -1855  -1751  -1712  -1740  -1810  -1888  -1953  -1997  -2039  -2105  -2190  -2255  -2279  -2277  -2270  -2277  -2312  -2378  -2456  -2529  -2595  -2646  -2655  -2557  -2301  -1942  -1611  -1357  -1135  -928  -776  -699  -673  -668  -645  -566  -428  -274  -145  -50  11  46  80  151  269  402  508  584  660  763  892  1028  1164  1301  1425  1515  1580  1648  1725  1803  1877  1942  1994  2039  2084  2120  2137  2137  2140  2183  2284  2416  2537  2636  2721  2791  2838  2848  2765  2498  2039  1498  973  521  225  114  126  190  269  336  369  358  292  160  -7  -143  -226  -297  -393  -511  -639  -780  -925  -1040  -1117  -1157  -1120  -954  -607  -50  625  1205  1485  1358  800  -109  -1189  -2247  -3066  -3377  -3032  -2102  -885  194  855  1113  1167  1187  1228  1291  1378  1478  1572  1643  1716  1822  1946  2039  2077  2075  2058  2056  2105  2228  2393  2537  2631  2696  2755  2813  2879  2955  3026  3085  3154  3245  3343  3425  3487  3553  3656  3783  3877  3919  3952  3996  3962  3656  2971  2098  1361  896  618  387  108  -248  -665  -1103  -1543  -1953  -2251  -2399  -2474  -2588  -2807  -3118  -3422  -3616  -3684  -3690  -3683  -3661  -3611  -3545  -3486  -3436  -3389  -3348  -3324  -3317  -3318  -3315  -3300  -3279  -3263  -3253  -3248  -3242  -3235  -3239  -3264  -3295  -3314  -3320  -3332  -3361  -3397  -3422  -3432  -3435  -3437  -3436  -3428  -3422  -3427  -3416  -3292  -2888  -2143  -1287  -639  -267  -47  86  154  199  255  334  426  501  542  562  591  658  761  859  911  919  917  957  1066  1217  1351  1449  1520  1558  1556  1544  1605  1790  2004  2101  2128  2304  2738  3318  3771  3792  3266  2326  1172  -46  -1236  -2274  -2980  -3234  -3093  -2756  -2435  -2249  -2193  -2183  -2166  -2150  -2144  -2087  -1812  -1191  -408  157  386  465  556  689  884  1145  1396  1571  1675  1751  1835  1947  2095  2275  2459  2595  2656  2660  2644  2633  2658  2738  2850  2934  2960  2941  2891  2819  2740  2682  2652  2649  2699  2819  2941  2939  2781  2549  2311  2088  1917  1833  1818  1820  1779  1604  1213  672  199  -44  -101  -131  -262  -487  -690  -800  -841  -854  -858  -857  -856  -856  -855  -857  -872  -912  -979  -1074  -1193  -1307  -1356  -1305  -1170  -1009  -864  -758  -690  -650  -634  -651  -680  -684  -658  -632  -618  -601  -573  -545  -530  -528  -538  -556  -561  -494  -296  12  309  478  519  506  493  493  499  490  425  265  14  -286  -598  -858  -1005  -1042  -1012  -933  -819  -707  -641  -624  -630  -641  -650  -659  -669  -679  -687  -691  -676  -623  -539  -459  -370  -158  299  957  1579  1938  1935  1540  783  -196  -1178  -1918  -2281  -2341  -2216  -1934  -1519  -1057  -600  -117  407  912  1312  1549  1648  1740  1907  2062  2015  1566  674  -387  -1191  -1511  -1432  -1191  -975  -859  -837  -862  -868  -816  -708  -574  -454  -378  -338  -313  -287  -255  -216  -163  -67  112  434  959  1619  2178  2469  2546  2551  2554  2557  2554  2556  2568  2578  2572  2542  2482  2330  1927  1146  141  -735  -1274  -1510  -1571  -1561  -1544  -1539  -1543  -1549  -1542  -1511  -1456  -1375  -1244  -1061  -907  -884  -994  -1155  -1296  -1384  -1420  -1429  -1432  -1437  -1452  -1486  -1530  -1550  -1519  -1447  -1362  -1294  -1263  -1258  -1239  -1151  -965  -707  -446  -244  -152  -265  -657  -1204  -1624  -1780  -1752  -1649  -1532  -1441  -1392  -1376  -1376  -1378  -1380  -1385  -1398  -1420  -1461  -1548  -1686  -1835  -1946  -2013  -2057  -2090  -2119  -2145  -2146  -2089  -1920  -1524  -808  76  790  1150  1243  1244  1265  1327  1403  1473  1545  1646  1799  1976  2096  2093  1960  1756  1566  1399  1149  697  27  -757  -1477  -1952  -2127  -2074  -1862  -1563  -1300  -1142  -1045  -942  -834  -768  -764  -809  -848  -754  -364  321  1037  1506  1703  1781  1885  2069  2280  2421  2454  2403  2289  2126  1951  1835  1866  2115  2545  2970  3236  3365  3453  3544  3645  3758  3862  3925  3941  3934  3927  3930  3947  3970  3985  3987  3979  3960  3891  3692  3326  2811  2204  1598  1077  665  354  115  -100  -320  -525  -690  -809  -896  -979  -1083  -1200  -1297  -1365  -1415  -1445  -1453  -1462  -1483  -1487  -1470  -1456  -1453  -1451  -1442  -1421  -1396  -1375  -1362  -1359  -1361  -1361  -1359  -1356  -1353  -1353  -1353  -1352  -1350  -1346  -1343  -1344  -1347  -1352  -1355  -1357  -1361  -1369  -1377  -1374  -1356  -1321  -1273  -1230  -1200  -1171  -1141  -1127  -1140  -1183  -1243  -1303  -1359  -1418  -1475  -1528  -1600  -1737  -1947  -2184  -2405  -2584  -2699  -2747  -2755  -2757  -2769  -2795  -2822  -2849  -2883  -2934  -3008  -3113  -3213  -3240  -3189  -3124  -3090  -3089  -3112  -3135  -3120  -2978  -2611  -2059  -1444  -862  -412  -172  -184  -534  -1335  -2516  -3685  -4334  -4153  -3144  -1680  -337  545  987  1179  1312  1485  1683  1837  1922  2009  2193  2449  2653  2756  2846  3024  3262  3451  3566  3679  3823  3956  4039  4086  4151  4276  4465  4653  4756  4750  4688  4632  4608  4620  4683  4807  4977  5161  5329  5459  5536  5568  5572  5559  5537  5490  5351  5032  4526  3940  3375  2868  2446  2095  1745  1377  1056  832  696  614  549  484  396  252  45  -178  -369  -526  -676  -820  -918  -949  -932  -902  -881  -873  -870  -872  -886  -921  -968  -1005  -1017  -1000  -962  -925  -914  -933  -962  -965  -929  -865  -781  -695  -632  -589  -548  -502  -459  -423  -395  -379  -373  -372  -375  -384  -405  -440  -490  -549  -610  -676  -737  -775  -791  -801  -809  -821  -859  -950  -1095  -1263  -1413  -1525  -1612  -1706  -1839  -2046  -2325  -2601  -2792  -2893  -2956  -3024  -3114  -3214  -3292  -3323  -3301  -3237  -3146  -3037  -2925  -2828  -2749  -2680  -2624  -2578  -2539  -2508  -2480  -2428  -2283  -1949  -1413  -809  -296  53  236  239  -20  -613  -1416  -2115  -2479  -2548  -2483  -2370  -2226  -2079  -1958  -1868  -1785  -1689  -1580  -1490  -1440  -1403  -1346  -1263  -1169  -1100  -1086  -1113  -1103  -1009  -915  -954  -1125  -1254  -1126  -646  63  639  666  76  -779  -1480  -1789  -1712  -1460  -1273  -1245  -1301  -1323  -1248  -970  -324  677  1682  2303  2511  2550  2588  2614  2581  2514  2470  2458  2459  2461  2464  2475  2482  2449  2338  2168  2024  1959  1963  1998  1993  1806  1298  524  -291  -971  -1431  -1662  -1717  -1571  -1106  -356  396  903  1167  1319  1432  1513  1580  1649  1718  1802  1923  2082  2265  2436  2561  2637  2676  2678  2615  2466  2288  2180  2178  2194  2064  1657  1039  455  84  -110  -280  -509  -763  -981  -1137  -1219  -1137  -712  93  1000  1665  2005  2147  2238  2352  2468  2540  2571  2615  2710  2826  2908  2942  2954  2955  2938  2896  2837  2776  2731  2722  2756  2813  2858  2874  2857  2807  2742  2689  2647  2578  2423  2145  1760  1317  862  434  66  -221  -407  -488  -484  -396  -213  36  272  427  501  478  224  -420  -1379  -2299  -2870  -3063  -3012  -2845  -2657  -2528  -2474  -2452  -2429  -2409  -2403  -2409  -2434  -2496  -2593  -2699  -2793  -2856  -2854  -2762  -2594  -2414  -2295  -2258  -2287  -2368  -2469  -2539  -2537  -2463  -2357  -2271  -2220  -2190  -2174  -2169  -2170  -2170  -2167  -2161  -2151  -2142  -2131  -2100  -2032  -1922  -1801  -1714  -1684  -1709  -1797  -1936  -2091  -2237  -2361  -2452  -2528  -2630  -2768  -2911  -3038  -3163  -3273  -3301  -3202  -3035  -2907  -2863  -2865  -2876  -2894  -2937  -2995  -3022  -2989  -2925  -2850  -2749  -2640  -2556  -2452  -2160  -1545  -724  4  471  729  892  1014  1099  1165  1256  1376  1480  1537  1555  1550  1524  1477  1420  1378  1374  1422  1528  1681  1850  2009  2142  2230  2236  2082  1721  1265  913  741  670  599  480  308  125  -13  -79  -53  125  522  1091  1646  1994  2110  2099  2061  2039  2067  2170  2314  2425  2459  2435  2392  2353  2315  2280  2256  2256  2305  2422  2571  2696  2782  2835  2858  2890  2981  3137  3374  3726  4187  4750  5387  5929  6105  5748  4892  3703  2483  1633  1356  1566  2088  2716  3231  3533  3651  3679  3711  3782  3884  3987  4055  4075  4068  4060  4057  4046  4013  3984  4005  4074  4132  4131  4067  3965  3848  3714  3549  3348  3117  2880  2665  2465  2231  1975  1782  1696  1679  1663  1596  1483  1372  1296  1253  1232  1222  1222  1221  1191  1088  896  657  442  287  157  -15  -231  -420  -563  -709  -874  -1007  -1074  -1089  -1083  -1080  -1100  -1159  -1242  -1301  -1277  -1142  -940  -763  -663  -640  -687  -784  -871  -879  -806  -710  -641  -606  -595  -588  -572  -534  -458  -345  -223  -137  -99  -86  -75  -60  -53  -56  -53  -32  8  73  148  197  214  228  285  415  609  798  902  874  713  484  292  179  118  89  84  84  73  44  0  -44  -74  -80  -64  -36  -24  -61  -154  -295  -478  -681  -835  -879  -838  -825  -952  -1171  -1215  -828  -6  898  1278  722  -566  -1942  -2868  -3217  -3087  -2654  -2196  -1924  -1727  -1332  -690  -27  420  591  560  403  178  -19  -132  -255  -596  -1237  -1965  -2475  -2631  -2356  -1570  -522  250  443  109  -563  -1321  -1939  -2366  -2674  -2907  -3042  -3084  -3086  -3096  -3130  -3173  -3204  -3217  -3228  -3245  -3259  -3241  -3165  -3042  -2911  -2796  -2743  -2869  -3285  -3879  -4352  -4486  -4169  -3354  -2268  -1370  -927  -832  -858  -884  -886  -882  -899  -964  -1082  -1231  -1392  -1553  -1707  -1863  -2028  -2189  -2326  -2487  -2780  -3216  -3667  -4017  -4249  -4412  -4594  -4856  -5176  -5523  -5875  -6181  -6390  -6549  -6814  -7287  -7831  -8221  -8420  -8578  -8832  -9218  -9695  -10167  -10562  -10906  -11275  -11736  -12309  -12920  -13465  -13921  -14356  -14821  -15291  -15689  -15999  -16294  -16611  -16909  -17177  -17488  -17896  -18346  -18750  -19077  -19304  -19405  -19410  -19385  -19390  -19466  -19623  -19839  -20089  -20340  -20545  -20668  -20740  -20788  -20605  -19705  -17892  -15834  -14523  -14321  -14963  -16022  -17120  -18054  -18834  -19604  -20474  -21368  -22115  -22629  -22934  -23146  -23416  -23559  -22456  -18296  -10150  916  12214  20640  24614  24887  23226  21876  23448  28767  32767  32767  32767  32767  32767  32767  32767  32767  32767  32767  32767  28903  25768  23484  21012  18004  14830  11971  9671  7924  6588  5526  4690  4029  3402  2541  1166  -588  -2159  -3113  -3044  -977  3887  10702  17422  22577  25734  27092  27267  26757  25618  24036  22605  21718  21161  20456  19369  18064  16936  16295  16032  15632  14640  13191  11922  11231  10924  10488  9294  6773  2804  -1963  -6323  -9368  -11228  -12713  -14340  -16036  -17555  -18777  -19762  -20736  -21887  -23135  -24244  -25134  -25932  -26743  -27514  -28212  -28956  -29805  -30595  -31146  -31461  -31634  -31451  -29780  -24803  -15878  -5205  3373  7725  8885  9052  9761  12023  15919  20093  23492  26955  31702  32767  32767  32767  32767  32767  32767  28432  23006  18788  15497  13095  11841  11710  12464  13981  16127  18386  19910  19959  18076  14382  9881  5856  2969  1132  -50  -1017  -2239  -3898  -5673  -7129  -8007  -7819  -5530  -392  7075  15373  22643  27349  29162  28421  25033  19384  13370  8991  6682  5508  4411  3202  2381  2283  2789  3511  4035  4225  4226  4175  4063  3857  3658  3531  3056  1469  -1459  -4814  -6429  -3581  4820  16592  27946  32767  32767  32767  32767  32767  32767  32767  32767  32767  26344  21783  18518  15562  12402  9252  6644  4632  2788  840  -1031  -2522  -3628  -4643  -5801  -7076  -8276  -9233  -9876  -10261  -10538  -10816  -11120  -11492  -11965  -12440  -12792  -13037  -13293  -13605  -13891  -14054  -14085  -14012  -13842  -13599  -13356  -13184  -13108  -13156  -13415  -13959  -14748  -15604  -16279  -16607  -16588  -16309  -15911  -15563  -15337  -15177  -15031  -14901  -14789  -14678  -14562  -14459  -14391  -14357  -14332  -14305  -14282  -14268  -14247  -14194  -14095  -13950  -13734  -13407  -13046  -12835  -12856  -13002  -13130  -13197  -13226  -13188  -13018  -12746  -12502  -12340  -12176  -11936  -11662  -11464  -11340  -11038  -10218  -8882  -7480  -6532  -6133  -5516  -2934  3012  11097  18299  22444  22361  18421  13363  9947  8891  9271  9535  8660  6768  4642  2966  1892  1134  424  -236  -785  -1261  -1713  -2131  -2516  -2869  -3148  -3305  -3356  -3361  -3354  -3312  -3190  -3001  -2826  -2705  -2575  -2357  -2039  -1656  -1287  -1032  -968  -1196  -1842  -2832  -3784  -4334  -4488  -4482  -4474  -4483  -4462  -4382  -4261  -4139  -4015  -3867  -3714  -3613  -3602  -3672  -3771  -3838  -3851  -3826  -3788  -3747  -3688  -3588  -3426  -3188  -2892  -2587  -2334  -2184  -2123  -2085  -2040  -2005  -1995  -2006  -2031  -2086  -2185  -2301  -2359  -2295  -2103  -1832  -1517  -1173  -858  -654  -571  -550  -553  -574  -594  -598  -588  -572  -557  -571  -663  -880  -1255  -1801  -2463  -3097  -3528  -3710  -3757  -3812  -3961  -4201  -4454  -4649  -4796  -4949  -5125  -5302  -5467  -5610  -5720  -5836  -6016  -6263  -6519  -6727  -6908  -7148  -7484  -7847  -8128  -8259  -8225  -8043  -7789  -7578  -7477  -7539  -7867  -8510  -9361  -10200  -10794  -11057  -11101  -11084  -11087  -11186  -11497  -12038  -12625  -13052  -13283  -13412  -13526  -13629  -13688  -13696  -13674  -13657  -13706  -13872  -14122  -14354  -14545  -14756  -14999  -15230  -15452  -15671  -15841  -15931  -15984  -16060  -16187  -16364  -16591  -16843  -17074  -17353  -17869  -18629  -19324  -19694  -19792  -19796  -19797  -19862  -20120  -20636  -21233  -21616  -21672  -21493  -21245  -21075  -21019  -20943  -20549  -19566  -17934  -15758  -13309  -10756  -7668  -3743  118  2607  3472  3424  3121  2837  2940  4186  7084  11042  14722  17293  18906  20035  20879  21517  22096  22693  23256  23676  23881  23919  23929  24040  24323  24724  25142  25561  25981  26317  26507  26595  26682  26830  27017  27196  27390  27653  27953  28190  28303  28317  28298  28292  28323  28398  28496  28581  28618  28590  28500  28369  28217  28082  28065  28392  29283  30645  32017  32767  32767  32767  32767  32767  32767  32767  32767  32767  32767  32767  32767  32767  32767  32767  32767  32767  32767  32767  32767  32767  32767  32767  32767  32767  32767  30907  26114  21827  18535  16184  14412  12817  11196  9498  7613  5374  2855  449  -1504  -2924  -3901  -4647  -5413  -6302  -7233  -8087  -8872  -9663  -10412  -11013  -11457  -11822  -12210  -12664  -13086  -13340  -13406  -13313  -13057  -12692  -12351  -12113  -12004  -12136  -12697  -13666  -14711  -15467  -15814  -15869  -15782  -15602  -15361  -15150  -15036  -15000  -14984  -14936  -14822  -14660  -14504  -14394  -14322  -14259  -14196  -14149  -14097  -13954  -13639  -13185  -12734  -12406  -12200  -11989  -11561  -10756  -9683  -8684  -7998  -7625  -7457  -7322  -7038  -6595  -6189  -5986  -5972  -6049  -6138  -6201  -6240  -6277  -6336  -6445  -6588  -6710  -6783  -6817  -6830  -6828  -6821  -6822  -6843  -6894  -6986  -7109  -7231  -7298  -7236  -6993  -6640  -6352  -6213  -6144  -5981  -5545  -4803  -3999  -3474  -3389  -3764  -4523  -5357  -5883  -6013  -5922  -5774  -5616  -5422  -5185  -4973  -4852  -4810  -4780  -4704  -4545  -4306  -4060  -3899  -3838  -3829  -3826  -3799  -3710  -3540  -3329  -3129  -2863  -2296  -1295  -114  870  1579  2136  2562  2745  2466  1555  301  -674  -1096  -1172  -1154  -1102  -965  -741  -526  -396  -317  -219  -90  39  157  264  379  580  923  1313  1558  1529  1216  770  426  291  301  370  466  570  645  653  605  548  493  419  326  247  197  169  156  144  115  72  38  29  52  114  220  362  534  783  1173  1674  2168  2546  2756  2774  2540  1971  1113  253  -284  -443  -381  -215  13  253  468  666  844  960  1008  1032  1071  1140  1236  1339  1421  1474  1511  1545  1568  1572  1570  1569  1560  1523  1458  1383  1325  1294  1288  1300  1323  1355  1392  1442  1501  1539  1527  1465  1402  1405  1493  1624  1722  1716  1612  1483  1382  1314  1261  1218  1192  1180  1161  1093  932  686  405  104  -226  -559  -851  -1092  -1291  -1443  -1534  -1574  -1585  -1572  -1533  -1505  -1596  -1957  -2584  -3241  -3702  -3963  -4128  -4261  -4391  -4517  -4600  -4579  -4389  -4047  -3688  -3449  -3386  -3578  -4149  -5037  -5898  -6416  -6603  -6668  -6740  -6812  -6856  -6878  -6896  -6924  -6960  -7003  -7035  -6998  -6843  -6588  -6314  -6134  -6197  -6653  -7455  -8251  -8699  -8764  -8596  -8346  -8192  -8440  -9352  -10689  -11778  -12274  -12423  -12552  -12707  -12789  -12776  -12749  -12769  -12791  -12745  -12638  -12536  -12473  -12442  -12443  -12534  -12839  -13505  -14533  -15648  -16497  -16952  -17133  -17203  -17264  -17401  -17663  -18000  -18304  -18526  -18685  -18800  -18865  -18831  -18617  -18207  -17731  -17367  -17185  -17152  -17277  -17619  -18107  -18521  -18728  -18700  -18323  -17488  -16437  -15690  -15566  -16054  -16946  -17918  -18748  -19419  -19945  -20305  -20487  -20352  -19578  -18030  -16061  -14178  -12646  -11513  -10695  -9970  -9130  -8159  -7153  -6128  -4938  -3348  -1160  1713  5199  9074  13038  16829  20387  23841  27267  30620  32767  32767  32767  32767  32767  32767  32767  32767  32767  32767  32767  32767  32767  32767  32767  32767  32767  32767  32767  32767  32767  32767  32767  31683  28076  25019  22275  19847  18064  17190  17005  17044  17088  17202  17479  17900  18398  19148  20615  22974  25804  28582  31153  32767  32767  32767  32767  32767  32767  32767  32767  32767  32767  32767  32371  28743  24707  20672  16952  13740  11099  8961  7206  5742  4488  3314  2080  753  -600  -1903  -3081  -4068  -4859  -5520  -6119  -6662  -7128  -7494  -7740  -7917  -8078  -8010  -7095  -4695  -1006  2595  4696  5206  4981  4638  4258  3787  3306  2965  2740  2344  1467  129  -1373  -2780  -3967  -4903  -5633  -6196  -6569  -6613  -5978  -4422  -2445  -1050  -822  -1760  -3479  -5214  -6311  -6788  -7087  -7483  -7905  -8175  -8251  -8200  -8082  -7936  -7806  -7734  -7768  -7993  -8486  -9212  -9981  -10544  -10806  -10855  -10793  -10627  -10356  -10053  -9822  -9703  -9667  -9669  -9687  -9726  -9789  -9878  -9990  -10105  -10185  -10209  -10173  -10062  -9873  -9629  -9379  -9184  -9080  -9039  -9005  -8945  -8855  -8753  -8668  -8597  -8502  -8372  -8235  -8104  -7985  -7900  -7860  -7849  -7847  -7847  -7848  -7842  -7811  -7739  -7610  -7401  -7135  -6907  -6789  -6760  -6779  -6842  -6930  -6970  -6910  -6791  -6697  -6653  -6621  -6582  -6550  -6532  -6518  -6505  -6495  -6485  -6446  -6353  -6220  -6098  -6005  -5927  -5868  -5839  -5832  -5821  -5790  -5732  -5665  -5632  -5661  -5723  -5755  -5735  -5681  -5582  -5366  -4996  -4579  -4269  -4081  -3926  -3763  -3624  -3526  -3437  -3318  -3178  -3071  -3031  -3029  -3004  -2914  -2755  -2517  -2151  -1682  -1265  -1042  -1027  -1180  -1450  -1735  -1896  -1822  -1470  -973  -612  -616  -1045  -1733  -2338  -2632  -2665  -2581  -2459  -2341  -2255  -2208  -2208  -2267  -2373  -2491  -2592  -2678  -2813  -3048  -3317  -3488  -3502  -3392  -3242  -3138  -3118  -3157  -3214  -3255  -3275  -3295  -3337  -3395  -3445  -3488  -3540  -3608  -3661  -3671  -3647  -3606  -3496  -3214  -2732  -2174  -1730  -1499  -1430  -1419  -1476  -1766  -2461  -3490  -4474  -5064  -5236  -5163  -4938  -4596  -4241  -3989  -3870  -3852  -3903  -3978  -4033  -4060  -4077  -4070  -3974  -3739  -3411  -3085  -2769  -2415  -2051  -1758  -1563  -1419  -1305  -1268  -1346  -1480  -1551  -1487  -1330  -1162  -986  -723  -367  15  446  983  1535  1985  2389  2908  3679  4777  6096  7312  8114  8457  8514  8383  7956  7115  5970  4812  3865  3151  2577  2088  1712  1472  1287  1026  633  225  155  897  2717  5725  10026  15203  20100  23585  25014  24205  21772  18952  16634  15045  14129  13637  13266  12937  12661  12300  11672  10743  9678  8780  8291  8168  8181  8190  8176  8121  7947  7586  7072  6503  5911  5225  4424  3641  3028  2613  2344  2169  2065  1997  1913  1780  1582  1284  872  395  -43  -345  -478  -502  -513  -610  -851  -1210  -1594  -1898  -2066  -2119  -2124  -2141  -2183  -2203  -2088  -1738  -1213  -722  -402  -241  -160  -57  158  486  819  1073  1293  1574  1922  2238  2438  2530  2566  2554  2421  2098  1634  1135  634  164  -172  -338  -407  -452  -441  -204  492  1718  3116  4053  4130  3334  1992  703  -74  -342  -366  -311  -97  422  1171  1860  2300  2498  2435  1921  826  -573  -1730  -2345  -2555  -2634  -2703  -2718  -2555  -2128  -1556  -1113  -940  -977  -1136  -1361  -1599  -1809  -1954  -1998  -1946  -1863  -1846  -1989  -2312  -2689  -2943  -3039  -3051  -3022  -2947  -2851  -2800  -2827  -2912  -3044  -3259  -3548  -3809  -3952  -3934  -3702  -3245  -2719  -2328  -2117  -2001  -1924  -1893  -1933  -2050  -2215  -2322  -2137  -1422  -310  682  1178  1170  715  -110  -1005  -1618  -1899  -2042  -2257  -2699  -3379  -4076  -4507  -4571  -4316  -3844  -3347  -3136  -3448  -4131  -4676  -4581  -3512  -1496  858  2674  3309  2620  1087  -454  -1410  -1732  -1791  -1976  -2347  -2712  -2937  -3025  -3009  -2907  -2748  -2576  -2422  -2296  -2191  -2077  -1928  -1786  -1743  -1846  -2031  -2181  -2242  -2248  -2254  -2293  -2369  -2455  -2540  -2661  -2876  -3203  -3659  -4243  -4839  -5274  -5489  -5532  -5406  -5054  -4534  -4051  -3750  -3618  -3581  -3580  -3587  -3605  -3669  -3807  -3997  -4170  -4301  -4443  -4624  -4792  -4878  -4864  -4767  -4635  -4522  -4440  -4380  -4375  -4499  -4773  -5087  -5289  -5346  -5334  -5325  -5348  -5391  -5432  -5468  -5502  -5526  -5535  -5541  -5562  -5628  -5756  -5906  -6007  -6039  -6025  -5986  -5939  -5873  -5749  -5589  -5475  -5427  -5357  -5153  -4809  -4445  -4175  -4033  -4052  -4273  -4491  -4043  -2218  955  4745  8468  11851  14824  17359  19392  20667  20850  19926  18285  16449  14777  13292  11807  10209  8608  7246  6292  5742  5502  5439  5434  5486  5784  6519  7521  8315  8641  8767  9317  10789  12959  14928  15962  15937  15022  13502  11772  10137  8763  7760  7128  6748  6489  6257  5929  5323  4416  3486  2821  2453  2281  2219  2208  2212  2218  2225  2232  2223  2166  2050  1876  1639  1340  994  641  347  131  -153  -701  -1484  -2210  -2596  -2576  -2244  -1792  -1433  -1218  -1064  -933  -860  -853  -878  -918  -1005  -1193  -1529  -2009  -2563  -3107  -3552  -3799  -3813  -3650  -3412  -3201  -3047  -2925  -2819  -2718  -2585  -2366  -2056  -1726  -1477  -1395  -1534  -1866  -2241  -2485  -2526  -2366  -2040  -1678  -1450  -1425  -1558  -1754  -1913  -1994  -2020  -2010  -1957  -1854  -1729  -1615  -1528  -1470  -1444  -1455  -1511  -1594  -1650  -1606  -1413  -1135  -940  -979  -1293  -1733  -2048  -2100  -1932  -1682  -1486  -1369  -1259  -1137  -1061  -1038  -965  -732  -392  -126  0]
