reading_id,reading_time,wire_id,result_classification,heart_rate,heart_rate_alert,firmware_version,device_app_version,hardware_version,waveform_samples
13f73540-5a13-11ed-8080-808080808080,Tue Nov 01 18:29:10 UTC 2022,e100638c1a39,NSR,69,NONE,20001.171.50,2.10.0,Charge 5,[3034  3084  3152  3230  3272  3182  2875  2416  1982  1682  1536  1504  1510  1505  1498  1520  1569  1611  1628  1624  1593  1524  1431  1350  1294  1248  1170  1047  943  901  869  810  736  671  660  698  720  702  680  672  676  681  670  626  560  510  466  291  -157  -811  -1455  -1993  -2408  -2653  -2745  -2788  -2872  -2997  -3090  -3120  -3127  -3144  -3171  -3202  -3225  -3236  -3247  -3269  -3298  -3319  -3310  -3267  -3214  -3176  -3141  -3064  -2902  -2669  -2481  -2486  -2671  -2870  -2954  -2913  -2795  -2661  -2555  -2496  -2463  -2419  -2358  -2306  -2285  -2302  -2360  -2435  -2485  -2504  -2512  -2518  -2516  -2483  -2403  -2298  -2220  -2174  -2120  -2034  -1924  -1815  -1731  -1685  -1669  -1660  -1644  -1618  -1581  -1504  -1331  -1057  -771  -580  -508  -513  -540  -569  -655  -870  -1163  -1384  -1435  -1315  -1076  -825  -663  -584  -524  -459  -412  -395  -390  -367  -315  -233  -105  74  273  429  452  347  353  731  1447  2292  3118  3847  4469  4973  5097  4453  3008  1110  -781  -2169  -2672  -2344  -1581  -729  -2  434  564  531  465  409  363  316  261  241  330  535  772  958  1061  1091  1077  1058  1050  1053  1054  1024  936  813  724  712  759  812  852  898  946  960  905  773  616  502  457  482  612  861  1161  1394  1501  1505  1461  1410  1388  1403  1423  1438  1448  1420  1342  1224  1028  723  399  175  57  -20  -93  -173  -289  -450  -635  -836  -1038  -1207  -1323  -1421  -1553  -1714  -1835  -1878  -1861  -1813  -1758  -1721  -1706  -1704  -1708  -1705  -1640  -1455  -1201  -1012  -946  -962  -1008  -1045  -1045  -997  -923  -880  -900  -953  -983  -965  -915  -869  -843  -831  -822  -819  -847  -935  -1064  -1176  -1236  -1258  -1265  -1276  -1284  -1267  -1205  -1114  -1048  -1064  -1190  -1386  -1563  -1685  -1801  -1948  -2102  -2236  -2390  -2640  -2960  -3211  -3331  -3381  -3418  -3445  -3463  -3495  -3556  -3639  -3725  -3790  -3804  -3743  -3597  -3393  -3213  -3123  -3113  -3134  -3138  -3086  -2963  -2799  -2645  -2533  -2468  -2441  -2438  -2442  -2442  -2439  -2436  -2440  -2458  -2484  -2501  -2504  -2499  -2506  -2545  -2600  -2599  -2510  -2405  -2356  -2357  -2375  -2389  -2394  -2384  -2344  -2276  -2218  -2197  -2216  -2292  -2423  -2538  -2579  -2554  -2500  -2446  -2410  -2395  -2392  -2371  -2293  -2143  -1927  -1633  -1260  -856  -498  -243  -97  5  149  345  611  1062  1853  3112  4769  6398  7503  7832  7332  6167  4655  3056  1655  839  751  1241  2188  3351  4244  4632  4721  4748  4768  4764  4736  4705  4664  4573  4444  4374  4454  4671  4937  5159  5305  5434  5627  5872  6073  6199  6281  6329  6342  6338  6336  6352  6397  6473  6567  6675  6814  6990  7161  7283  7407  7638  7967  8247  8383  8410  8391  8337  8259  8195  8177  8198  8213  8150  7964  7710  7514  7430  7395  7305  7073  6695  6251  5807  5375  4934  4446  3825  3026  2177  1477  1013  743  576  426  225  -86  -503  -919  -1196  -1314  -1388  -1547  -1801  -2046  -2200  -2267  -2307  -2367  -2455  -2579  -2789  -3106  -3448  -3695  -3798  -3800  -3781  -3799  -3874  -3993  -4130  -4263  -4364  -4416  -4432  -4430  -4392  -4288  -4147  -4050  -4036  -4059  -4048  -3977  -3883  -3827  -3818  -3828  -3846  -3879  -3923  -3959  -3975  -3964  -3923  -3852  -3761  -3664  -3584  -3535  -3515  -3535  -3590  -3654  -3700  -3687  -3613  -3539  -3507  -3504  -3509  -3521  -3552  -3590  -3588  -3515  -3417  -3358  -3328  -3261  -3107  -2885  -2673  -2541  -2506  -2533  -2583  -2626  -2644  -2640  -2638  -2682  -2810  -2991  -3138  -3190  -3142  -3011  -2853  -2744  -2704  -2707  -2724  -2742  -2749  -2705  -2565  -2339  -2103  -1929  -1824  -1708  -1469  -1061  -482  253  1142  2109  2918  3380  3427  2949  1917  490  -1082  -2500  -3460  -3751  -3327  -2384  -1369  -743  -585  -580  -481  -334  -245  -216  -200  -185  -183  -200  -226  -246  -249  -235  -201  -146  -63  50  198  350  460  520  550  556  553  580  647  707  729  732  735  750  791  886  1059  1292  1502  1628  1696  1762  1837  1895  1887  1834  1830  1891  1936  1903  1803  1703  1662  1665  1659  1609  1511  1395  1284  1186  1091  985  858  718  594  501  414  275  87  -10  43  61  -75  -244  -317  -310  -291  -308  -366  -415  -380  -238  -63  54  97  97  87  81  84  107  141  154  149  177  245  283  250  174  112  107  170  274  375  437  456  451  425  368  279  171  59  -28  -60  -44  -10  30  63  56  -6  -107  -204  -258  -261  -236  -215  -201  -185  -170  -162  -161  -150  -118  -89  -98  -142  -191  -225  -242  -247  -243  -227  -196  -159  -135  -128  -124  -112  -88  -51  9  89  162  209  221  240  352  560  762  881  920  920  913  912  912  896  842  744  632  544  473  381  277  205  181  184  193  207  221  209  118  -66  -229  -193  53  320  457  475  417  240  -33  -118  352  1424  2726  3776  4328  4419  4158  3537  2472  972  -729  -2153  -2811  -2637  -1999  -1282  -682  -249  41  227  331  385  416  427  405  361  321  304  325  376  416  416  404  402  404  401  394  393  393  387  371  357  369  411  450  462  460  484  572  730  892  976  1003  1054  1128  1177  1197  1212  1229  1247  1297  1423  1598  1731  1770  1717  1591  1423  1265  1164  1126  1102  1023  853  615  349  83  -144  -320  -470  -604  -690  -720  -741  -837  -1054  -1325  -1530  -1625  -1643  -1620  -1567  -1503  -1457  -1445  -1458  -1484  -1510  -1527  -1525  -1486  -1398  -1289  -1212  -1188  -1194  -1207  -1218  -1222  -1212  -1177  -1125  -1076  -1038  -995  -932  -875  -881  -950  -1016  -1036  -1022  -1006  -1001  -997  -963  -871  -741  -649  -638  -666  -684  -686  -684  -675  -640  -563  -447  -322  -218  -140  -72  -6  39  43  -10  -129  -296  -447  -500  -439  -340  -291  -312  -355  -353  -288  -203  -160  -172  -206  -241  -261  -252  -216  -193  -228  -317  -403  -454  -466  -409  -237  12  228  346  390  398  396  387  367  351  351  351  288  79  -307  -745  -1037  -1126  -1094  -1013  -906  -788  -686  -620  -585  -558  -533  -514  -502  -493  -476  -441  -395  -385  -418  -362  -81  398  984  1654  2401  3173  3895  4397  4434  3839  2611  943  -813  -2240  -2979  -2951  -2382  -1586  -850  -382  -194  -136  -88  -47  -32  -13  31  92  159  214  233  207  158  146  213  319  394  419  422  425  424  402  361  342  391  495  604  706  816  915  976  988  969  962  1013  1149  1358  1563  1689  1746  1794  1854  1900  1883  1781  1627  1503  1458  1484  1552  1627  1671  1658  1573  1436  1290  1140  954  740  551  409  290  158  16  -93  -143  -145  -134  -141  -198  -318  -466  -575  -611  -577  -478  -350  -255  -218  -219  -235  -268  -307  -306  -240  -144  -68  -32  -28  -42  -62  -83  -96  -98  -97  -119  -177  -246  -283  -290  -300  -316  -329  -358  -432  -528  -590  -598  -577  -547  -518  -507  -535  -618  -730  -812  -843  -849  -855  -857  -842  -811  -804  -843  -875  -839  -764  -719  -743  -839  -964  -1051  -1078  -1071  -1056  -1036  -1001  -947  -872  -758  -594  -399  -228  -125  -88  -77  -67  -83  -197  -438  -718  -904  -963  -955  -936  -920  -915  -943  -1029  -1153  -1247  -1273  -1241  -1170  -1097  -1060  -1062  -1080  -1101  -1119  -1098  -966  -723  -515  -448  -414  -190  392  1352  2505  3495  4013  3953  3283  2003  277  -1525  -2976  -3770  -3782  -3128  -2150  -1255  -719  -535  -512  -519  -529  -543  -558  -554  -498  -366  -195  -57  13  50  96  153  168  100  -10  -67  -2  169  369  521  596  613  609  595  558  509  492  530  624  776  946  1064  1111  1130  1159  1224  1352  1533  1723  1903  2060  2162  2197  2160  2039  1845  1626  1443  1338  1302  1278  1220  1135  1062  1014  947  804  575  323  128  14  -46  -86  -118  -147  -168  -174  -173  -204  -319  -500  -638  -676  -658  -624  -574  -486  -361  -232  -122  -42  -10  -37  -98  -160  -209  -246  -262  -253  -221  -171  -113  -68  -43  -27  -15  -24  -80  -169  -250  -300  -319  -314  -299  -298  -344  -425  -489  -512  -513  -522  -546  -574  -597  -613  -605  -572  -537  -516  -513  -527  -560  -600  -627  -635  -632  -627  -627  -640  -667  -695  -703  -679  -637  -601  -588  -606  -665  -745  -804  -801  -725  -601  -480  -395  -342  -301  -258  -218  -189  -150  -79  40  197  339  431  471  470  426  328  175  -14  -215  -407  -588  -732  -812  -834  -806  -730  -631  -566  -558  -587  -631  -686  -742  -767  -755  -763  -816  -899  -1027  -1129  -1011  -591  88  970  1862  2556  3090  3563  3891  3833  3134  1730  -145  -1977  -3128  -3289  -2696  -1806  -1062  -710  -644  -634  -593  -543  -492  -418  -299  -167  -72  -27  -9  -4  -34  -119  -227  -294  -290  -216  -64  132  285  346  344  325  316  339  424  588  784  926  986  1003  1017  1055  1140  1261  1372  1441  1470  1496  1557  1646  1711  1728  1721  1734  1792  1882  1958  1983  1926  1756  1517  1320  1226  1194  1144  1031  883  755  655  537  355  103  -170  -385  -496  -527  -521  -507  -488  -469  -466  -503  -584  -685  -759  -773  -747  -721  -712  -713  -709  -684  -634  -579  -556  -586  -646  -696  -716  -714  -704  -693  -684  -682  -692  -715  -734  -700  -570  -396  -313  -403  -606  -787  -869  -856  -773  -651  -533  -455  -422  -415  -407  -387  -354  -309  -273  -279  -326  -371  -390  -390  -390  -391  -372  -311  -224  -159  -139  -143  -142  -122  -91  -73  -89  -138  -207  -276  -334  -374  -390  -400  -420  -437  -411  -311  -150  -3  60  38  -18  -50  -32  8  43  79  133  195  244  270  279  279  281  298  323  343  356  364  347  269  123  -43  -188  -306  -393  -440  -455  -455  -446  -440  -460  -527  -628  -725  -785  -802  -786  -753  -708  -639  -557  -503  -516  -562  -509  -240  233  892  1743  2685  3522  4095  4287  3990  3131  1732  -6  -1663  -2733  -2940  -2427  -1559  -707  -216  -180  -345  -450  -435  -333  -190  -69  -10  0  1  36  116  227  336  403  413  370  293  199  114  67  74  109  151  224  356  509  612  645  656  709  830  1011  1211  1361  1418  1407  1381  1377  1400  1437  1476  1520  1570  1600  1602  1608  1633  1651  1622  1545  1456  1402  1394  1391  1315  1100  792  523  358  248  148  61  1  -55  -149  -273  -387  -488  -581  -643  -664  -661  -650  -632  -611  -602  -611  -619  -610  -599  -605  -623  -637  -641  -643  -651  -665  -677  -665  -608  -509  -411  -350  -333  -345  -363  -372  -368  -364  -371  -383  -383  -368  -354  -357  -377  -408  -454  -533  -634  -711  -741  -731  -685  -619  -567  -551  -571  -618  -675  -729  -756  -740  -711  -718  -763  -807  -816  -788  -763  -779  -834  -892  -907  -888  -890  -912  -920  -901  -857  -799  -732  -636  -522  -437  -407  -409  -416  -415  -385  -296  -152  -38  -21  -30  37  180  307  360  366  398  494  601  622  530  387  232  57  -123  -264  -342  -359  -305  -181  -35  53  25  -126  -332  -486  -548  -536  -463  -334  -187  -93  -103  -210  -338  -360  -158  327  1047  1872  2668  3328  3721  3682  3131  2079  591  -1093  -2548  -3384  -3501  -3038  -2216  -1365  -788  -535  -465  -445  -435  -436  -435  -404  -322  -213  -140  -138  -170  -174  -118  -18  84  167  230  272  304  337  363  375  407  495  619  713  754  776  814  876  956  1042  1119  1177  1237  1313  1394  1470  1542  1595  1637  1690  1753  1789  1781  1747  1721  1715  1723  1727  1698  1614  1480  1316  1129  929  748  616  525  430  291  102  -93  -247  -355  -453  -553  -660  -766  -855  -925  -981  -1019  -1057  -1121  -1194  -1242  -1263  -1268  -1263  -1256  -1247  -1231  -1196  -1146  -1093  -1043  -991  -918  -831  -769  -747  -747  -743  -725  -698  -679  -674  -671  -648  -595  -541  -529  -553  -569  -552  -514  -492  -497  -508  -518  -520  -508  -496  -497  -507  -513  -509  -508  -529  -559  -572  -559  -533  -514  -509  -513  -517  -507  -465  -381  -274  -189  -149  -140  -141  -149  -178  -233  -290  -338  -384  -423  -435  -411  -348  -271  -220  -206  -203  -177  -112  -7  131  292  447  557  619  655  675  664  603  482  311  111  -108  -320  -482  -588  -679  -791  -904  -973  -987  -970  -945  -914  -883  -877  -914  -992  -1071  -1110  -1101  -1042  -897  -664  -455  -362  -215  282  1161  2187  3129  3817  4127  3989  3357  2193  556  -1204  -2503  -2981  -2699  -1917  -1039  -454  -237  -227  -274  -306  -296  -223  -107  -15  15  10  4  31  109  212  284  306  295  279  277  288  301  310  330  393  520  673  777  801  766  712  711  821  1012  1185  1286  1345  1426  1539  1637  1687  1712  1745  1798  1864  1945  2045  2147  2218  2242  2212  2115  1964  1798  1619  1392  1140  935  787  660  550  466  383  278  158  52  -10  -28  -42  -101  -198  -283  -342  -408  -501  -596  -655  -674  -671  -653  -621  -588  -567  -557  -544  -518  -488  -479  -510  -569  -630  -689  -746  -785  -793  -774  -736  -679  -591  -488  -410  -374  -356  -339  -330  -350  -417  -512  -588  -617  -607  -574  -534  -507  -504  -523  -554  -581  -599  -609  -614  -615  -602  -557  -488  -450  -481  -545  -602  -649  -680  -686  -691  -701  -689  -633  -553  -491  -462  -440  -395  -329  -271  -242  -252  -308  -383  -436  -442  -387  -291  -205  -154  -131  -119  -107  -96  -85  -75  -73  -103  -167  -219  -213  -167  -119  -90  -75  -52  -6  62  138  203  252  303  378  481  589  662  676  632  538  417  313  260  237  160  -42  -350  -643  -799  -784  -639  -473  -406  -451  -523  -559  -563  -553  -541  -531  -526  -523  -520  -509  -461  -329  -89  236  567  881  1325  2003  2795  3531  4054  4094  3429  2150  528  -1142  -2465  -3084  -2974  -2366  -1551  -842  -456  -373  -421  -470  -485  -465  -409  -334  -276  -247  -232  -207  -173  -138  -99  -53  -18  -21  -56  -84  -72  -18  48  102  141  167  177  179  176  163  163  251  491  821  1081  1195  1220  1227  1242  1267  1306  1348  1374  1380  1383  1398  1437  1512  1608  1691  1734  1737  1708  1641  1531  1378  1181  938  698  528  413  279  120  -10  -94  -156  -222  -288  -352  -423  -500  -563  -607  -652  -702  -735  -734  -705  -666  -625  -583  -556  -558  -585  -629  -676  -710  -724  -722  -695  -625  -512  -383  -281  -221  -201  -235  -335  -467  -559  -585  -576  -562  -550  -538  -533  -546  -575  -594  -569  -481  -365  -299  -327  -396  -441  -461  -483  -513  -534  -524  -481  -439  -444  -502  -569  -608  -624  -635  -644  -639  -608  -560  -524  -514  -521  -526  -504  -446  -377  -322  -279  -241  -206  -171  -147  -165  -244  -356  -438  -461  -445  -416  -378  -330  -268  -209  -188  -218  -260  -260  -222  -197  -207  -226  -223  -185  -132  -92  -76  -75  -78  -67  -31  21  65  85  81  68  82  154  262  343  372  371  367  369  370  364  340  291  215  115  5  -86  -166  -269  -399  -516  -587  -595  -530  -421  -335  -304  -322  -380  -482  -601  -687  -719  -727  -741  -748  -681  -519  -381  -293  -31  586  1535  2673  3748  4435  4471  3805  2554  868  -964  -2522  -3505  -3745  -3206  -2161  -1106  -469  -298  -266  -142  0  63  62  49  58  104  176  228  213  163  161  217  261  255  230  221  225  229  228  228  240  280  374  535  722  866  942  976  999  1031  1083  1147  1201  1241  1288  1357  1458  1599  1776  1948  2047  2037  1925  1767  1635  1555  1511  1477  1437  1406  1390  1346  1205  951  667  475  414  425  414  310  89  -185  -407  -522  -555  -552  -548  -554  -567  -582  -607  -642  -663  -657  -642  -629  -626  -658  -693  -676  -612  -543  -487  -450  -428  -410  -387  -356  -328  -319  -314  -298  -289  -331  -434  -551  -627  -653  -649  -614  -534  -433  -359  -324  -332  -390  -469  -535  -583  -610  -595  -527  -420  -303  -225  -244  -347  -442  -479  -473  -449  -409  -362  -330  -328  -357  -403  -451  -484  -472  -392  -271  -169  -117  -105  -111  -118  -129  -161  -235  -343  -441  -497  -522  -540  -559  -578  -583  -528  -368  -131  78  188  222  247  310  399  455  423  325  224  133  10  -161  -338  -452  -487  -483  -478  -474  -461  -448  -456  -493  -536  -564  -576  -575  -567  -563  -558  -541  -516  -514  -576  -649  -577  -225  442  1354  2359  3264  3864  4038  3707  2756  1195  -708  -2529  -3755  -4016  -3403  -2363  -1372  -726  -453  -388  -362  -318  -274  -235  -185  -122  -67  -45  -58  -85  -108  -115  -94  -41  33  103  139  144  167  254  394  518  580  600  629  700  812  940  1042  1090  1093  1089  1118  1213  1389  1599  1764  1862  1921  1953  1963  1964  1969  1979  1990  1989  1954  1876  1769  1664  1586  1511  1381  1197  1019  889  815  782  746  640  438  191  -15  -133  -174  -184  -209  -280  -387  -510  -639  -756  -822  -814  -757  -711  -717  -733  -709  -660  -620  -589  -562  -539  -516  -484  -450  -434  -437  -424  -381  -336  -310  -304  -311  -322  -340  -376  -424  -458  -455  -418  -375  -359  -379  -420  -475  -534  -575  -592  -599  -598  -584  -551  -513  -486  -476  -475  -475  -479  -488  -499  -502  -472  -414  -367  -356  -394  -515  -718  -913  -1001  -967  -879  -812  -787  -781  -768  -749  -733  -724  -714  -697  -681  -674  -677  -685  -688  -687  -687  -690  -697  -709  -731  -761  -780  -755  -659  -489  -269  -55  110  239  352  416  414  390  380  364  289  133  -61  -234  -352  -414  -455  -519  -607  -665  -660  -620  -591  -591  -606  -602  -560  -492  -450  -474  -558  -686  -869  -1102  -1265  -1158  -694  86  1061  2001  2731  3274  3703  3939  3721  2803  1225  -576  -2019  -2725  -2662  -2175  -1681  -1249  -844  -578  -470  -428  -405  -384  -353  -313  -244  -107  100  320  472  527  515  492  487  489  498  522  554  581  606  645  719  819  919  1017  1132  1261  1370  1432  1451  1459  1485  1534  1597  1674  1767  1862  1943  2019  2114  2223  2310  2357  2379  2377  2327  2205  2038  1882  1746  1583  1369  1154  1007  941  929  931  908  829  686  493  255  9  -172  -261  -301  -345  -401  -444  -462  -476  -492  -499  -493  -485  -488  -519  -593  -684  -745  -757  -724  -660  -593  -544  -515  -517  -539  -564  -611  -675  -718  -725  -718  -716  -716  -701  -646  -555  -471  -428  -430  -461  -504  -539  -556  -575  -630  -693  -678  -573  -469  -427  -435  -457  -475  -481  -477  -478  -515  -611  -757  -918  -1049  -1095  -1032  -907  -794  -719  -662  -610  -569  -540  -521  -512  -516  -530  -560  -611  -664  -697  -707  -707  -705  -692  -653  -590  -535  -525  -556  -602  -636  -652  -656  -659  -660  -657  -651  -647  -648  -651  -660  -668  -655  -587  -459  -305  -165  -55  31  112  198  275  314  320  318  314  306  301  293  244  95  -175  -482  -691  -760  -750  -722  -697  -669  -635  -613  -617  -628  -621  -598  -571  -539  -513  -504  -498  -481  -449  -371  -185  153  672  1347  2076  2813  3586  4252  4465  3944  2638  750  -1218  -2649  -3179  -2858  -2029  -1143  -522  -239  -165  -134  -87  -47  -23  -4  18  52  100  158  211  253  289  329  372  409  433  438  427  408  391  377  363  345  336  385  541  766  950  1041  1073  1085  1088  1092  1109  1155  1231  1321  1412  1511  1613  1712  1818  1944  2065  2142  2163  2124  2019  1858  1683  1527  1415  1348  1301  1212  1031  793  595  480  408  302  118  -113  -302  -397  -426  -455  -508  -567  -612  -650  -674  -675  -664  -653  -650  -652  -649  -643  -642  -663  -723  -813  -898  -952  -957  -914  -823  -691  -555  -470  -455  -486  -532  -581  -635  -678  -675  -627  -571  -534  -517  -510  -502  -491  -486  -491  -513  -548  -582  -601  -617  -658  -741  -834  -895  -915  -913  -905  -884  -853  -835  -832  -813  -768  -718  -687  -687  -695  -672  -636  -618  -615  -606  -583  -544  -493  -445  -416  -404  -384  -338  -280  -242  -253  -317  -407  -478  -515  -523  -496  -416  -307  -226  -193  -182  -167  -152  -146  -159  -200  -255  -299  -318  -322  -321  -323  -323  -284  -171  -11  118  179  189  178  159  151  197  336  528  670  708  665  583  507  464  439  359  142  -204  -545  -729  -739  -675  -617  -578  -551  -530  -506  -472  -436  -414  -409  -410  -441  -558  -753  -933  -968  -822  -598  -309  235  1124  2156  3100  3860  4276  4075  3133  1554  -362  -2125  -3226  -3476  -3095  -2419  -1693  -1119  -807  -678  -575  -420  -240  -111  -49  1  76  157  205  207  189  207  305  481  645  683  604  539  567  655  734  773  812  911  1066  1202  1251  1219  1183  1213  1310  1417  1475  1480  1473  1502  1595  1725  1823  1856  1850  1839  1830  1823  1815  1803  1782  1755  1721  1669  1583  1466  1335  1206  1084  977  860  692  470  255  93  -32  -147  -242  -335  -469  -637  -777  -845  -856  -849  -844  -840  -830  -825  -854  -891  -852  -714  -551  -436  -384  -378  -393  -415  -434  -450  -472  -492  -504  -510  -510  -501  -490  -482  -467  -436  -399  -387  -418  -464  -484  -475  -459  -451  -445  -426  -395  -374  -393  -469  -576  -656  -683  -663  -610  -544  -498  -490  -511  -542  -563  -569  -568  -567  -565  -560  -558  -575  -613  -657  -690  -697  -669  -628  -589  -545  -498  -457  -420  -390  -375  -375  -380  -378  -356  -319  -281  -235  -150  -12  145  256  277  235  184  154  145  147  144  93  -49  -258  -442  -543  -588  -616  -625  -602  -568  -557  -585  -631  -664  -674  -672  -672  -683  -702  -718  -742  -797  -851  -798  -524  -14  629  1321  2088  2942  3716  4100  3869  2977  1475  -407  -2190  -3393  -3769  -3327  -2340  -1304  -638  -393  -351  -335  -313  -303  -306  -317  -330  -326  -264  -118  82  261  363  394  390  379  370  367  389  449  532  596  627  643  665  703  767  861  969  1069  1159  1252  1339  1398  1432  1473  1545  1654  1780  1908  2046  2190  2304  2356  2357  2339  2329  2305  2211  2050  1893  1768  1650  1522  1403  1317  1262  1187  1027  783  530  334  205  122  61  4  -76  -216  -396  -538  -606  -639  -694  -784  -833  -780  -678  -602  -558  -524  -497  -498  -538  -609  -688  -747  -771  -759  -714  -640  -557  -503  -511  -594  -720  -831  -883  -863  -796  -710  -617  -539  -505  -511  -524  -527  -525  -527  -546  -587  -643  -698  -734  -750  -756  -756  -749  -737  -729  -740  -781  -844  -901  -934  -943  -923  -897  -915  -976  -1027  -1040  -1035  -1038  -1035  -982  -870  -732  -635  -640  -724  -793  -803  -783  -769  -765  -763  -760  -767  -799  -849  -891  -913  -918  -909  -883  -838  -785  -745  -717  -688  -656  -628  -593  -527  -416  -284  -176  -112  -81  -56  0  86  123  54  -58  -126  -148  -173  -254  -409  -597  -739  -787  -749  -665  -581  -532  -524  -555  -628  -721  -794  -825  -814  -758  -655  -537  -464  -465  -509  -501  -295  211  999  1962  2954  3820  4392  4492  4003  2908  1324  -386  -1709  -2352  -2366  -1935  -1324  -813  -508  -363  -299  -250  -193  -136  -72  17  132  241  314  351  366  367  360  351  351  375  443  552  670  771  875  1003  1126  1199  1214  1207  1219  1268  1336  1386  1401  1400  1407  1436  1488  1556  1643  1744  1852  1966  2077  2153  2177  2169  2145  2108  2062  2022  1977  1894  1763  1617  1506  1449  1408  1306  1097  810  517  286  149  97  89  61  -38  -213  -395  -515  -571  -601  -624  -634  -625  -610  -601  -604  -620  -646  -671  -693  -710  -712  -666  -552  -405  -296  -263  -311  -432  -581  -682  -702  -676  -655  -668  -705  -741  -745  -698  -607  -514  -455  -440  -469  -541  -634  -703  -733  -735  -720  -695  -666  -638  -607  -578  -566  -578  -611  -645  -668  -681  -685  -684  -695  -720  -729  -698  -635  -571  -520  -486  -474  -490  -521  -551  -576  -604  -637  -672  -711  -756  -784  -771  -707  -619  -542  -474  -402  -338  -302  -293  -297  -310  -335  -366  -389  -398  -402  -408  -405  -391  -378  -377  -385  -390  -388  -374  -341  -292  -257  -255  -280  -303  -304  -306  -339  -379  -382  -333  -237  -112  18  131  210  278  379  507  608  651  642  585  469  327  225  190  187  158  60  -98  -284  -499  -708  -820  -805  -737  -675  -630  -617  -662  -741  -796  -800  -778  -763  -750  -724  -684  -600  -420  -98  436  1205  2055  2839  3549  4096  4228  3707  2446  628  -1255  -2634  -3176  -2943  -2266  -1481  -830  -480  -406  -407  -363  -313  -292  -287  -274  -247  -218  -182  -131  -80  -35  35  146  258  322  331  305  262  221  202  206  226  270  352  456  539  609  716  850  939  965  997  1106  1290  1468  1577  1617  1621  1617  1621  1634  1659  1707  1782  1869  1935  1934  1843  1702  1591  1545  1520  1457  1353  1258  1204  1141  963  638  278  26  -93  -143  -181  -236  -317  -420  -516  -582  -614  -627  -634  -636  -631  -623  -613  -602  -592  -589  -604  -631  -619  -524  -387  -292  -270  -295  -331  -372  -425  -472  -489  -473  -444  -429  -419  -386  -341  -309  -284  -256  -234  -242  -301  -401  -498  -550  -553  -527  -486  -424  -346  -289  -294  -359  -433  -463  -460  -453  -430  -394  -383  -406  -438  -450  -438  -429  -451  -488  -496  -462  -417  -365  -280  -194  -174  -247  -381  -506  -571  -583  -576  -573  -569  -541  -464  -360  -277  -232  -206  -191  -196  -239  -318  -404  -461  -465  -421  -361  -332  -348  -388  -412  -409  -409  -432  -464  -474  -425  -329  -249  -221  -227  -232  -216  -168  -93  -10  70  172  308  452  576  660  677  635  569  493  415  354  315  272  170  -34  -294  -490  -567  -577  -593  -641  -702  -743  -750  -731  -708  -720  -783  -868  -923  -907  -832  -738  -634  -528  -451  -359  -111  400  1173  2104  2990  3626  3892  3698  2969  1709  25  -1825  -3377  -4115  -3843  -2830  -1597  -646  -226  -219  -308  -316  -275  -244  -198  -100  28  122  157  159  156  160  174  194  211  216  211  210  227  262  298  315  317  332  364  380  380  425  593  864  1110  1235  1275  1318  1406  1513  1594  1647  1693  1741  1783  1819  1845  1850  1833  1808  1787  1772  1763  1751  1731  1694  1628  1523  1390  1251  1113  950  734  481  262  105  -18  -130  -226  -312  -391  -447  -470  -470  -460  -439  -403  -366  -356  -378  -407  -422  -419  -389  -323  -239  -170  -125  -99  -106  -165  -246  -279  -217  -89  33  101  76  -60  -255  -416  -516  -580  -611  -603  -577  -563  -568  -577  -571  -549  -522  -496  -476  -470  -477  -491  -500  -501  -496  -484  -458  -417  -374  -327  -270  -231  -264  -406  -602  -750  -807  -809  -792  -768  -731  -681  -627  -577  -556  -577  -618  -646  -655  -656  -657  -663  -670  -666  -642  -607  -571  -552  -559  -576  -573  -546  -515  -494  -479  -451  -404  -349  -294  -237  -176  -116  -63  -5  67  153  240  300  307  246  130  0  -115  -211  -295  -390  -486  -538  -533  -508  -506  -538  -588  -624  -636  -631  -621  -617  -622  -618  -592  -546  -489  -437  -422  -477  -540  -453  -53  733  1780  2790  3565  4031  4062  3559  2582  1216  -408  -1936  -2918  -3127  -2684  -1890  -1060  -465  -194  -124  -109  -89  -61  -48  -64  -102  -141  -163  -154  -96  8  125  207  240  242  232  219  214  246  346  490  618  717  813  904  967  1001  1023  1052  1094  1139  1182  1230  1290  1358  1429  1500  1577  1652  1704  1725  1726  1724  1721  1710  1682  1638  1591  1551  1502  1427  1332  1232  1132  1017  870  700  521  327  112  -89  -225  -302  -379  -491  -611  -696  -720  -696  -667  -671  -719  -786  -836  -859  -871  -888  -915  -942  -948  -919  -864  -814  -803  -828  -834  -801  -757  -719  -682  -642  -588  -501  -383  -278  -236  -260  -306  -336  -353  -372  -389  -395  -392  -393  -397  -380  -330  -278  -266  -310  -383  -438  -464  -475  -477  -461  -425  -376  -334  -332  -374  -443  -510  -542  -518  -469  -441  -461  -543  -660  -756  -795  -777  -713  -629  -561  -517  -477  -431  -387  -359  -350  -351  -356  -359  -357  -344  -321  -289  -256  -231  -221  -234  -274  -326  -366  -380  -371  -345  -309  -272  -239  -224  -234  -238  -204  -149  -110  -92  -86  -88  -97  -113  -129  -137  -139  -141  -138  -119  -74  -9  56  104  134  188  307  459  547  521  433  353  285  185  44  -111  -259  -383  -460  -497  -535  -586  -622  -627  -615  -605  -602  -603  -614  -643  -680  -708  -718  -729  -758  -784  -730  -525  -149  417  1161  1963  2717  3414  3977  4161  3715  2603  1014  -719  -2178  -3019  -3147  -2691  -1908  -1104  -560  -369  -378  -401  -379  -316  -232  -142  -60  -9  3  -5  -19  -27  -16  22  75  107  102  82  94  159  252  351  442  496  516  553  645  766  852  890  922  988  1080  1166  1254  1381  1542  1674  1737  1761  1803  1893  2013  2128  2223  2268  2213  2069  1917  1802  1712  1624  1510  1364  1224  1131  1080  1027  930  781  610  442  281  135  27  -38  -99  -195  -334  -493  -635  -722  -739  -709  -662  -607  -551  -499  -458  -435  -433  -439  -444  -435  -407  -373  -361  -386  -429  -462  -481  -504  -525  -501  -418  -335  -298  -296  -304  -310  -316  -322  -328  -339  -363  -397  -429  -444  -440  -433  -441  -445  -416  -374  -354  -353  -357  -356  -347  -342  -373  -466  -594  -684  -697  -646  -557  -464  -407  -405  -442  -494  -550  -586  -552  -447  -351  -320  -345  -394  -444  -485  -514  -528  -520  -489  -449  -420  -406  -396  -382  -359  -319  -268  -228  -210  -197  -175  -167  -196  -247  -287  -300  -293  -280  -265  -240  -204  -173  -161  -170  -195  -223  -245  -266  -277  -262  -233  -210  -202  -199  -194  -193  -210  -243  -268  -257  -196  -109  -40  -6  19  83  206  352  459  504  501  446  324  165  40  -21  -62  -135  -252  -380  -477  -526  -537  -534  -543  -573  -615  -643  -649  -645  -644  -648  -654  -658  -658  -654  -653  -656  -608  -388  101  848  1760  2731  3628  4271  4469  4027  2818  991  -1020  -2711  -3645  -3626  -2901  -1977  -1213  -709  -439  -313  -251  -223  -214  -204  -180  -143  -105  -79  -71  -75  -73  -28  75  186  245  275  319  364  390  408  433  460  478  487  503  542  608  697  796  902  1008  1094  1152  1209  1294  1396  1470  1503  1514  1526  1546  1571  1601  1639  1671  1675  1642  1587  1535  1497  1454  1383  1284  1158  1013  871  743  613  472  330  205  107  49  18  -10  -59  -150  -288  -436  -545  -592  -569  -487  -392  -330  -308  -295  -264  -217  -183  -191  -248  -327  -386  -410  -407  -378  -317  -240  -185  -166  -167  -174  -183  -186  -171  -126  -64  -19  -3  -2  4  32  73  90  46  -51  -159  -227  -247  -250  -248  -226  -196  -188  -223  -301  -410  -518  -583  -589  -567  -550  -549  -563  -598  -664  -752  -822  -845  -817  -751  -680  -617  -551  -496  -476  -476  -474  -468  -469  -486  -502  -500  -500  -532  -578  -603  -604  -601  -607  -624  -639  -637  -623  -612  -607  -593  -560  -512  -473  -456  -460  -469  -456  -391  -280  -172  -100  -46  30  130  210  243  244  237  237  250  269  252  126  -129  -415  -599  -654  -641  -592  -504  -406  -358  -369  -398  -415  -426  -457  -521  -597  -652  -673  -663  -607  -496  -335  -121  183  602  1124  1737  2445  3223  3907  4187  3782  2615  824  -1190  -2844  -3717  -3727  -3072  -2158  -1380  -890  -620  -475  -408  -384  -373  -360  -328  -273  -211  -162  -126  -100  -88  -89  -87  -55  17  102  154  161  153  180  274  406  513  572  602  615  628  666  740  838  952  1093  1269  1448  1586  1672  1724  1765  1801  1824  1833  1836  1841  1853  1880  1925  1972  1985  1934  1825  1700  1589  1492  1385  1234  1027  806  643  567  532  471  364  234  89  -65  -203  -306  -384  -434  -452  -463  -498  -570  -669  -745  -761  -728  -690  -682  -702  -732  -769  -804  -823  -811  -754  -667  -584  -517  -459  -419  -403  -407  -429  -463  -492  -503  -497  -477  -448  -425  -420  -449  -512  -574  -616  -652  -656  -570  -410  -285  -280  -365  -448  -481  -481  -477  -487  -519  -574  -625  -637  -625  -636  -662  -671  -652  -612  -570  -533  -489  -443  -415  -412  -423  -446  -480  -515  -540  -549  -552  -549  -528  -480  -424  -394  -408  -447  -479  -491  -490  -490  -497  -501  -489  -464  -456  -495  -559  -590  -577  -549  -529  -514  -460  -313  -112  31  81  105  170  269  360  417  424  385  323  245  121  -54  -232  -375  -495  -603  -676  -700  -682  -636  -577  -525  -494  -489  -515  -573  -644  -701  -725  -723  -714  -701  -698  -733  -766  -638  -199  538  1427  2299  3020  3581  4049  4265  3843  2607  771  -1203  -2714  -3319  -3057  -2328  -1528  -904  -565  -490  -538  -571  -544  -487  -444  -410  -338  -207  -63  27  54  53  57  72  90  110  130  155  193  242  283  301  304  327  405  536  688  825  924  988  1040  1093  1174  1308  1476  1621  1725  1799  1854  1895  1926  1938  1922  1889  1875  1907  1956  1984  1970  1909  1817  1716  1607  1491  1367  1217  1031  841  677  521  342  143  -34  -144  -181  -176  -167  -187  -256  -346  -414  -462  -520  -570  -571  -533  -497  -486  -498  -515  -513  -482  -427  -371  -342  -352  -378  -393  -395  -396  -404  -413  -404  -371  -339  -338  -375  -429  -468  -479  -475  -470  -464  -447  -413  -380  -367  -361  -352  -369  -442  -535  -596  -616  -617  -614  -612  -602  -580  -553  -530  -513  -514  -535  -556  -566  -568  -569  -569  -557  -527  -488  -470  -489  -531  -569  -592  -609  -621  -612  -562  -478  -400  -374  -403  -448  -477  -483  -481  -486  -490  -479  -454  -420  -386  -355  -335  -324  -325  -352  -429  -539  -620  -622  -531  -385  -254  -183  -160  -143  -88  33  199  345  431  477  517  529  461  303  99  -95  -247  -364  -462  -539  -586  -591  -548  -476  -416  -441  -600  -826  -999  -1084  -1109  -1103  -1070  -990  -879  -783  -724  -698  -668  -533  -188  437  1336  2336  3205  3853  4218  4136  3500  2331  693  -1170  -2739  -3496  -3334  -2565  -1639  -923  -542  -366  -270  -234  -238  -249  -255  -258  -257  -244  -208  -145  -64  21  106  195  279  333  337  317  303  293  280  272  277  300  338  402  509  636  727  785  901  1127  1385  1550  1592  1567  1531  1513  1527  1582  1656  1722  1794  1914  2066  2175  2194  2123  1986  1813  1628  1454  1311  1216  1163  1126  1087  1032  920  706  406  99  -130  -255  -302  -318  -337  -366  -389  -393  -386  -382  -389  -412  -441  -451  -432  -404  -393  -397  -400  -395  -398  -438  -531  -645  -725  -756  -758  -750  -728  -674  -576  -459  -353  -251  -146  -75  -70  -111  -179  -288  -447  -616  -727  -761  -757  -754  -766  -784  -791  -778  -757  -754  -784  -834  -849  -789  -681  -586  -536  -522  -517  -502  -482  -468  -459  -442  -422  -415  -441  -495  -551  -587  -606  -612  -601  -575  -538  -510  -498  -487  -463  -435  -407  -367  -320  -283  -264  -259  -260  -262  -261  -259  -256  -255  -245  -204  -140  -91  -64  -29  37  127  229  351  497  646  740  732  608  410  207  26  -144  -309  -459  -584  -678  -729  -739  -724  -696  -660  -617  -561  -488  -426  -432  -508  -587  -625  -659  -773  -1000  -1182  -1062  -587  86  898  1834  2701  3372  3891  4113  3771  2767  1144  -839  -2659  -3745  -3850  -3198  -2212  -1295  -750  -581  -521  -373  -163  -23  -2  -38  -46  19  148  287  386  424  413  384  359  346  350  387  467  567  641  668  659  646  680  789  941  1061  1111  1118  1130  1187  1304  1460  1612  1723  1786  1832  1881  1913  1917  1907  1923  1992  2086  2137  2105  2021  1946  1911  1896  1873  1818  1699  1502  1265  1031  805  594  439  349  255  77  -158  -347  -437  -469  -501  -557  -626  -685  -723  -745  -760  -779  -794  -795  -786  -776  -764  -752  -749  -754  -750  -718  -666  -623  -622  -666  -716  -746  -762  -768  -739  -646  -507  -386  -329  -354  -456  -590  -686  -714  -709  -709  -717  -721  -731  -765  -802  -781  -670  -520  -411  -388  -453  -585  -733  -832  -863  -851  -823  -794  -776  -771  -774  -776  -771  -756  -737  -724  -711  -680  -627  -563  -498  -428  -347  -258  -160  -54  41  105  128  102  -1  -182  -396  -590  -735  -829  -899  -964  -1013  -1028  -1011  -969  -922  -884  -867  -894  -960  -1016  -1015  -945  -840  -750  -697  -678  -712  -793  -755  -335  533  1634  2656  3376  3705  3612  3033  1889  227  -1630  -3147  -3898  -3819  -3177  -2407  -1785  -1296  -892  -623  -477  -349  -185  -9  143  259  324  341  330  307  283  267  260  256  252  248  264  335  467  623  756  845  894  917  924  917  894  874  895  989  1149  1332  1494  1607  1685  1773  1895  2031  2147  2224  2275  2317  2357  2389  2403  2380  2294  2161  2049  2011  2012  1992  1944  1878  1789  1652  1431  1117  775  481  246  60  -46  -84  -135  -272  -462  -603  -654  -651  -641  -637  -638  -641  -644  -644  -630  -603  -593  -643  -754  -863  -908  -888  -840  -790  -725  -625  -502  -401  -348  -334  -334  -334  -349  -403  -481  -528  -510  -442  -367  -308  -265  -251  -280  -323  -352  -370  -386  -411  -458  -527  -581  -580  -505  -378  -255  -181  -163  -190  -260  -358  -446  -499  -520  -519  -488  -416  -320  -244  -208  -192  -174  -143  -93  -22  67  162  243  296  325  347  364  382  401  402  367  293  176  13  -175  -354  -485  -546  -556  -560  -593  -646  -691  -716  -735  -756  -775  -794  -817  -829  -822  -808  -797  -764  -691  -616  -574  -459  -105  535  1422  2416  3280  3848  3987  3531  2433  810  -1092  -2862  -3972  -4111  -3474  -2518  -1613  -1007  -768  -750  -775  -769  -730  -672  -601  -519  -447  -403  -382  -360  -327  -279  -206  -112  -38  -33  -105  -211  -285  -274  -165  -7  130  220  271  311  384  495  615  711  771  814  880  991  1139  1315  1485  1594  1630  1640  1677  1758  1851  1890  1851  1782  1741  1724  1690  1624  1538  1420  1254  1059  891  770  650  475  263  80  -69  -229  -403  -546  -625  -668  -733  -840  -946  -1009  -1029  -1029  -1027  -1033  -1042  -1030  -966  -864  -783  -760  -779  -806  -817  -807  -775  -720  -655  -598  -559  -532  -515  -524  -573  -632  -647  -616  -579  -564  -559  -548  -522  -491  -466  -454  -445  -428  -428  -489  -579  -608  -547  -451  -370  -316  -277  -244  -228  -248  -305  -385  -464  -515  -536  -545  -549  -543  -524  -498  -474  -463  -469  -486  -499  -495  -466  -411  -339  -279  -241  -198  -110  23  157  255  325  386  444  472  460  431  403  356  275  167  55  -53  -168  -281  -362  -401  -408  -402  -408  -453  -550  -676  -784  -842  -855  -823  -732  -610  -531  -560  -694  -827  -798  -498  83  866  1724  2530  3226  3796  4128  3954  3068  1556  -244  -1898  -2983  -3304  -3051  -2512  -1826  -1158  -704  -459  -304  -202  -165  -172  -187  -186  -160  -87  47  216  351  410  403  358  302  262  245  234  222  228  296  448  632  766  827  859  915  1015  1138  1243  1304  1323  1321  1324  1352  1414  1503  1612  1756  1916  2026  2059  2053  2051  2074  2111  2139  2149  2141  2097  1982  1797  1595  1426  1311  1221  1079  832  549  352  245  140  6  -121  -241  -370  -487  -563  -597  -604  -608  -636  -703  -771  -793  -790  -810  -847  -876  -891  -895  -893  -890  -888  -886  -882  -874  -866  -852  -822  -779  -744  -715  -668  -584  -487  -435  -458  -524  -581  -609  -612  -571  -460  -309  -187  -127  -123  -174  -258  -329  -363  -369  -366  -367  -374  -382  -383  -379  -380  -384  -389  -395  -399  -395  -377  -353  -342  -339  -313  -242  -166  -164  -254  -386  -505  -579  -603  -603  -602  -603  -588  -545  -489  -453  -453  -474  -498  -518  -532  -540  -528  -466  -350  -212  -90  12  99  161  198  233  291  389  510  607  654  638  521  271  -59  -341  -489  -525  -512  -474  -404  -324  -291  -345  -461  -573  -638  -673  -715  -769  -807  -813  -800  -788  -771  -720  -645  -589  -468  -93  594  1500  2467  3304  3882  4142  3977  3249  1874  -32  -2007  -3434  -3948  -3571  -2682  -1796  -1156  -720  -462  -368  -345  -313  -268  -238  -233  -237  -238  -233  -226  -220  -215  -204  -183  -158  -147  -141  -104  0  150  278  350  393  428  460  500  572  679  791  867  900  910  919  937  970  1013  1061  1129  1246  1410  1561  1641  1659  1654  1648  1631  1582  1508  1447  1422  1427  1437  1420  1339  1174  958  759  620  527  424  265  71  -105  -240  -337  -414  -501  -597  -667  -691  -688  -687  -706  -757  -837  -916  -963  -973  -950  -893  -815  -741  -680  -621  -564  -527  -516  -517  -520  -523  -532  -545  -556  -544  -493  -412  -340  -305  -300  -310  -325  -342  -353  -355  -354  -356  -365  -381  -409  -452  -485  -488  -466  -426  -375  -309  -223  -154  -136  -150  -165  -173  -172  -163  -148  -144  -163  -196  -226  -263  -323  -383  -414  -421  -415  -378  -267  -69  160  333  411  428  432  443  464  491  504  479  413  331  263  208  133  -3  -206  -424  -588  -675  -709  -715  -691  -628  -546  -484  -461  -460  -458  -443  -424  -429  -489  -605  -744  -855  -894  -811  -536  31  975  2193  3323  3969  3979  3436  2484  1261  -159  -1676  -2983  -3740  -3787  -3159  -2175  -1327  -868  -698  -615  -525  -422  -308  -180  -71  -21  -24  -46  -65  -75  -76  -60  -3  108  242  339  378  379  380  415  490  588  680  739  762  766  768  778  811  887  1001  1121  1214  1271  1305  1351  1450  1608  1781  1911  1986  2038  2096  2151  2180  2173  2120  2019  1869  1671  1463  1310  1242  1227  1198  1085  876  627  404  239  132  30  -129  -318  -450  -502  -511  -511  -512  -518  -542  -604  -700  -795  -863  -897  -903  -895  -888  -888  -892  -891  -873  -832  -782  -746  -735  -740  -747  -737  -691  -622  -577  -570  -553  -496  -426  -365  -314  -275  -253  -249  -267  -317  -408  -515  -591  -617  -613  -606  -605  -610  -601  -561  -493  -437  -430  -459  -480  -477  -485  -535  -619  -705  -764  -802  -846  -893  -919  -911  -854  -745  -599  -455  -367  -343  -348  -349  -346  -351  -369  -384  -391  -396  -412  -436  -459  -480  -509  -548  -593  -626  -612  -500  -283  -30  161  254  288  324  377  422  443  439  400  316  202  71  -80  -256  -423  -549  -633  -692  -726  -723  -698  -679  -676  -674  -663  -644  -625  -606  -586  -568  -571  -604  -643  -629  -587  -641  -745  -584  86  1183  2354  3284  3883  4129  3913  3182  1990  430  -1250  -2577  -3175  -3063  -2507  -1780  -1097  -610  -358  -267  -233  -204  -168  -125  -73  -20  24  52  68  74  66  41  10  -3  23  108  255  435  589  674  691  675  642  589  518  458  476  628  873  1093  1226  1298  1347  1386  1438  1538  1687  1844  1980  2089  2168  2214  2239  2254  2270  2274  2227  2093  1900  1731  1629  1558  1473  1382  1296  1185  994  706  406  216  150  114  47  -44  -142  -236  -306  -345  -379  -436  -504  -551  -568  -568  -569  -576  -585  -591  -593  -594  -595  -599  -608  -615  -591  -502  -369  -285  -307  -376  -418  -424  -420  -423  -436  -456  -474  -486  -492  -497  -495  -466  -396  -304  -232  -206  -218  -240  -255  -264  -272  -277  -281  -283  -280  -274  -285  -340  -439  -527  -556  -542  -525  -518  -515  -510  -511  -535  -571  -584  -565  -526  -476  -432  -407  -399  -401  -411  -432  -461  -497  -552  -629  -697  -726  -713  -680  -641  -590  -534  -499  -504  -535  -557  -556  -545  -523  -487  -455  -417  -339  -217  -98  -22  18  64  148  262  361  415  431  415  338  167  -49  -210  -286  -337  -422  -541  -663  -751  -800  -838  -886  -937  -960  -932  -861  -782  -727  -705  -704  -707  -708  -708  -723  -769  -789  -605  -63  821  1874  2852  3533  3824  3736  3230  2186  618  -1159  -2680  -3539  -3575  -3011  -2312  -1789  -1427  -1120  -854  -640  -477  -370  -303  -260  -250  -272  -304  -311  -261  -178  -129  -119  -91  -12  94  192  256  291  307  313  310  298  290  316  399  530  675  822  983  1143  1256  1309  1329  1344  1366  1395  1428  1474  1561  1694  1846  1981  2073  2115  2117  2084  2001  1858  1673  1507  1409  1366  1317  1228  1096  929  762  639  557  466  331  155  -50  -265  -449  -568  -621  -631  -629  -621  -594  -547  -513  -520  -564  -625  -690  -745  -777  -778  -756  -729  -700  -644  -527  -374  -246  -170  -150  -199  -314  -450  -527  -511  -453  -414  -400  -399  -411  -440  -480  -509  -505  -465  -405  -358  -340  -366  -444  -550  -625  -630  -565  -472  -406  -391  -406  -426  -428  -402  -366  -343  -336  -335  -341  -358  -390  -433  -478  -522  -563  -585  -567  -509  -417  -310  -230  -198  -196  -201  -211  -233  -264  -285  -277  -232  -168  -122  -109  -123  -151  -178  -193  -176  -120  -42  13  31  25  22  55  155  331  559  795  976  1055  1043  1000  958  916  875  847  822  786  729  644  526  383  243  138  71  27  0]
