reading_id,reading_time,wire_id,result_classification,heart_rate,heart_rate_alert,firmware_version,device_app_version,hardware_version,waveform_samples
08f77b00-5991-11ed-8080-808080808080,Tue Nov 01 02:58:17 UTC 2022,0101e39b1d39,NSR,96,NONE,20001.171.50,2.10.0,Charge 5,[-13  -452  -702  -762  -743  -722  -714  -718  -735  -773  -866  -1065  -1329  -1437  -1035  146  2068  4488  7119  9474  10885  10845  9194  6214  2694  -356  -2200  -2714  -2282  -1436  -684  -324  -302  -416  -548  -663  -740  -740  -638  -449  -240  -100  -55  -54  -60  -67  -75  -62  17  173  318  386  409  412  406  436  537  719  941  1117  1202  1245  1307  1420  1589  1800  2043  2315  2589  2795  2898  2927  2926  2917  2883  2790  2587  2222  1718  1161  612  114  -289  -611  -904  -1213  -1529  -1776  -1920  -2031  -2170  -2307  -2385  -2405  -2405  -2420  -2461  -2519  -2559  -2534  -2422  -2265  -2145  -2102  -2099  -2076  -1991  -1869  -1778  -1754  -1805  -1928  -2067  -2143  -2153  -2144  -2130  -2075  -1954  -1805  -1701  -1670  -1684  -1706  -1714  -1705  -1694  -1683  -1655  -1580  -1439  -1248  -1067  -960  -949  -1009  -1103  -1216  -1384  -1641  -1940  -2168  -2269  -2296  -2329  -2383  -2410  -2354  -2217  -2051  -1914  -1847  -1945  -2335  -2957  -3419  -3218  -2060  -2  2572  5209  7601  9437  10216  9478  7182  3819  296  -2341  -3460  -3296  -2596  -1936  -1543  -1433  -1522  -1670  -1748  -1716  -1628  -1556  -1523  -1488  -1412  -1303  -1187  -1108  -1108  -1117  -1032  -897  -797  -708  -587  -442  -303  -190  -73  67  198  279  339  453  663  924  1179  1444  1724  1956  2127  2291  2486  2724  2966  3149  3266  3333  3320  3195  2962  2625  2173  1622  1069  642  381  192  -53  -360  -613  -738  -790  -856  -953  -1029  -1055  -1053  -1050  -1050  -1036  -988  -909  -822  -754  -719  -709  -702  -670  -608  -551  -530  -533  -514  -445  -336  -223  -138  -107  -154  -270  -406  -497  -505  -402  -181  91  297  406  499  654  846  984  1027  1016  996  985  981  981  992  1020  1053  1067  1050  1004  940  880  847  845  866  892  909  919  925  921  889  832  797  804  806  896  1378  2437  4078  6284  8862  11357  13201  13779  12632  9788  5878  2004  -717  -1795  -1486  -433  616  1141  1132  932  795  744  716  671  609  555  526  521  526  512  462  412  392  393  382  326  216  98  8  -56  -74  -10  105  197  237  246  256  292  388  566  807  1047  1226  1334  1396  1443  1488  1502  1451  1368  1301  1253  1161  894  360  -320  -902  -1329  -1754  -2230  -2643  -2963  -3249  -3509  -3712  -3836  -3881  -3870  -3837  -3823  -3850  -3900  -3961  -4059  -4180  -4239  -4161  -3982  -3812  -3710  -3659  -3611  -3527  -3422  -3345  -3312  -3303  -3299  -3300  -3304  -3285  -3198  -3045  -2906  -2845  -2810  -2735  -2650  -2597  -2550  -2477  -2378  -2273  -2182  -2101  -2001  -1884  -1769  -1663  -1578  -1553  -1577  -1583  -1538  -1474  -1431  -1442  -1508  -1603  -1707  -1815  -1934  -2072  -2210  -2324  -2421  -2508  -2567  -2578  -2546  -2508  -2528  -2631  -2771  -2866  -2814  -2461  -1579  55  2410  5141  7781  9772  10491  9591  7201  3798  213  -2559  -3946  -4064  -3402  -2482  -1699  -1226  -1028  -972  -948  -928  -924  -936  -955  -966  -942  -851  -701  -541  -419  -347  -312  -283  -243  -195  -119  22  224  416  562  705  885  1083  1253  1365  1414  1448  1553  1798  2151  2491  2721  2849  2940  3039  3147  3246  3323  3374  3371  3239  2918  2450  1963  1551  1200  839  410  -64  -476  -743  -909  -1045  -1152  -1207  -1217  -1206  -1196  -1213  -1276  -1354  -1393  -1385  -1352  -1313  -1282  -1278  -1296  -1305  -1260  -1161  -1072  -1037  -1044  -1065  -1083  -1098  -1121  -1150  -1161  -1107  -955  -743  -571  -495  -489  -505  -522  -528  -496  -374  -147  102  267  329  347  372  410  430  387  264  105  -14  -55  -34  18  64  18  -194  -494  -723  -839  -903  -955  -981  -938  -861  -863  -959  -1051  -1082  -1088  -1132  -1226  -1255  -959  -69  1554  3915  6785  9601  11602  12148  10950  8161  4402  673  -2014  -3143  -2897  -1931  -968  -447  -371  -458  -505  -515  -526  -521  -473  -382  -287  -233  -232  -256  -276  -289  -299  -312  -333  -351  -327  -228  -78  55  140  211  317  487  720  985  1229  1419  1561  1691  1862  2068  2228  2301  2351  2466  2644  2817  2944  3027  3060  3032  2927  2696  2284  1730  1142  606  178  -117  -319  -509  -754  -1049  -1338  -1574  -1723  -1783  -1797  -1816  -1864  -1929  -1979  -1978  -1919  -1832  -1748  -1692  -1673  -1680  -1694  -1703  -1707  -1711  -1716  -1713  -1696  -1673  -1656  -1650  -1655  -1659  -1641  -1581  -1492  -1419  -1387  -1385  -1377  -1347  -1306  -1264  -1212  -1164  -1145  -1141  -1100  -972  -788  -640  -578  -576  -597  -626  -651  -656  -637  -618  -636  -712  -856  -1074  -1342  -1578  -1710  -1747  -1738  -1716  -1705  -1716  -1742  -1772  -1809  -1860  -1923  -2030  -2241  -2471  -2358  -1476  321  2801  5495  7966  9894  10922  10616  8723  5436  1531  -1772  -3511  -3650  -2847  -1862  -1188  -923  -908  -934  -902  -847  -818  -814  -816  -814  -802  -774  -738  -694  -592  -384  -112  104  205  217  156  4  -191  -285  -118  324  851  1214  1348  1367  1394  1481  1648  1918  2260  2559  2718  2758  2781  2892  3132  3425  3640  3720  3682  3532  3261  2871  2405  1946  1527  1091  616  202  -60  -253  -534  -895  -1165  -1265  -1279  -1284  -1290  -1291  -1292  -1300  -1316  -1321  -1290  -1232  -1178  -1143  -1118  -1093  -1071  -1056  -1040  -1012  -994  -1012  -1045  -1063  -1065  -1066  -1077  -1096  -1114  -1126  -1135  -1141  -1135  -1094  -1007  -893  -788  -709  -655  -625  -610  -583  -507  -370  -215  -102  -34  12  53  114  222  339  349  179  -87  -287  -370  -413  -484  -585  -684  -750  -801  -896  -1048  -1190  -1263  -1266  -1235  -1212  -1232  -1318  -1467  -1651  -1790  -1668  -949  588  2855  5486  8050  10120  11227  10921  9028  5848  2127  -1081  -2880  -3193  -2610  -1730  -990  -622  -558  -614  -699  -785  -848  -880  -892  -893  -883  -865  -835  -777  -671  -531  -401  -317  -268  -208  -112  -6  71  119  162  219  303  440  648  891  1115  1303  1472  1648  1844  2040  2199  2308  2384  2465  2600  2796  2980  3065  3010  2825  2541  2190  1804  1450  1179  907  489  -83  -654  -1078  -1350  -1535  -1663  -1753  -1821  -1887  -1959  -2017  -2045  -2052  -2053  -2047  -2031  -2003  -1970  -1935  -1875  -1764  -1632  -1574  -1647  -1790  -1876  -1845  -1760  -1700  -1666  -1610  -1504  -1371  -1249  -1168  -1135  -1137  -1168  -1244  -1380  -1543  -1667  -1723  -1736  -1730  -1691  -1587  -1422  -1235  -1042  -842  -658  -533  -473  -450  -436  -435  -470  -539  -601  -638  -665  -702  -763  -868  -1035  -1234  -1401  -1496  -1519  -1490  -1444  -1412  -1406  -1423  -1469  -1551  -1680  -1878  -2157  -2454  -2587  -2231  -1085  867  3378  6096  8588  10380  11044  10266  7997  4590  869  -2094  -3580  -3651  -2919  -2029  -1410  -1179  -1166  -1168  -1130  -1072  -1009  -953  -896  -816  -711  -604  -484  -350  -251  -227  -241  -240  -201  -123  -29  61  159  281  429  589  732  847  969  1136  1343  1564  1780  1967  2121  2271  2449  2652  2835  2972  3093  3218  3305  3317  3264  3168  3008  2704  2233  1684  1156  689  284  -75  -381  -606  -763  -873  -935  -958  -981  -1058  -1206  -1375  -1499  -1573  -1622  -1655  -1676  -1688  -1681  -1639  -1572  -1517  -1495  -1497  -1499  -1473  -1408  -1331  -1287  -1301  -1352  -1385  -1366  -1323  -1290  -1265  -1254  -1266  -1292  -1306  -1290  -1238  -1153  -1045  -913  -764  -634  -579  -617  -702  -722  -590  -359  -166  -67  -42  -78  -161  -260  -362  -452  -508  -523  -508  -468  -423  -419  -504  -666  -812  -866  -864  -894  -977  -1070  -1138  -1191  -1255  -1338  -1422  -1483  -1466  -1196  -381  1184  3437  6022  8425  10107  10569  9507  7054  3737  367  -2127  -3219  -3073  -2261  -1416  -900  -690  -631  -629  -641  -653  -673  -702  -724  -684  -526  -280  -58  72  115  101  61  24  21  67  149  269  445  648  813  903  929  932  980  1128  1374  1642  1856  2012  2155  2321  2517  2711  2848  2935  3044  3202  3350  3422  3404  3312  3152  2893  2476  1909  1315  788  286  -228  -671  -953  -1095  -1164  -1196  -1200  -1187  -1181  -1214  -1304  -1429  -1545  -1616  -1636  -1624  -1614  -1622  -1633  -1617  -1551  -1448  -1355  -1315  -1317  -1327  -1327  -1324  -1333  -1361  -1394  -1417  -1427  -1442  -1471  -1505  -1529  -1546  -1567  -1581  -1553  -1431  -1194  -912  -720  -700  -816  -947  -986  -933  -833  -712  -590  -494  -432  -395  -387  -409  -430  -420  -403  -457  -642  -896  -1100  -1233  -1364  -1505  -1606  -1659  -1717  -1807  -1895  -1942  -1947  -1948  -2009  -2157  -2279  -2157  -1597  -442  1370  3693  6177  8318  9581  9582  8151  5464  2127  -951  -2984  -3749  -3547  -2855  -2098  -1527  -1212  -1085  -1037  -1000  -952  -886  -819  -771  -735  -702  -674  -631  -545  -399  -221  -74  7  35  47  84  160  264  381  497  612  730  851  975  1106  1246  1401  1560  1686  1796  1974  2247  2524  2715  2826  2893  2948  3009  3045  3011  2889  2702  2468  2115  1535  783  85  -381  -618  -740  -873  -1076  -1320  -1518  -1590  -1505  -1307  -1100  -984  -1017  -1212  -1497  -1730  -1816  -1755  -1592  -1395  -1235  -1140  -1103  -1099  -1101  -1090  -1068  -1047  -1038  -1039  -1048  -1070  -1117  -1177  -1217  -1219  -1201  -1186  -1148  -1018  -817  -661  -606  -595  -558  -478  -360  -189  23  207  302  320  295  238  145  18  -130  -271  -376  -437  -469  -496  -524  -574  -673  -806  -920  -991  -1026  -1043  -1052  -1057  -1071  -1119  -1265  -1538  -1810  -1846  -1458  -506  1091  3238  5688  8079  9854  10403  9391  6944  3634  346  -2019  -3060  -3016  -2380  -1613  -1053  -795  -728  -743  -791  -838  -863  -870  -863  -842  -807  -761  -706  -625  -511  -389  -283  -205  -157  -110  -21  101  214  301  367  418  475  567  687  800  889  986  1177  1524  1949  2305  2538  2708  2882  3061  3199  3265  3272  3226  3086  2805  2407  1962  1528  1123  719  279  -204  -670  -1013  -1207  -1316  -1400  -1485  -1585  -1679  -1731  -1741  -1729  -1716  -1710  -1702  -1682  -1647  -1610  -1588  -1589  -1610  -1638  -1665  -1697  -1731  -1749  -1734  -1668  -1574  -1511  -1499  -1501  -1476  -1434  -1409  -1409  -1405  -1351  -1222  -1050  -906  -852  -867  -856  -776  -687  -643  -641  -650  -653  -643  -623  -594  -549  -488  -452  -502  -659  -890  -1120  -1273  -1329  -1341  -1383  -1495  -1645  -1771  -1842  -1865  -1858  -1829  -1779  -1721  -1682  -1717  -1843  -1899  -1561  -521  1384  4021  6885  9323  10729  10635  8946  6062  2651  -475  -2565  -3364  -3126  -2322  -1501  -992  -740  -599  -539  -570  -677  -804  -887  -916  -906  -857  -775  -678  -586  -515  -459  -408  -356  -287  -193  -88  19  133  231  291  327  378  482  669  940  1245  1490  1626  1689  1747  1847  2019  2271  2575  2869  3077  3153  3107  2969  2762  2525  2316  2132  1849  1358  719  91  -434  -836  -1094  -1229  -1317  -1415  -1516  -1574  -1568  -1532  -1543  -1630  -1746  -1829  -1865  -1872  -1872  -1867  -1834  -1753  -1653  -1581  -1533  -1449  -1285  -1085  -946  -901  -903  -903  -897  -901  -914  -920  -904  -850  -737  -590  -478  -432  -440  -467  -456  -352  -172  -7  63  42  -1  -20  -24  -37  -63  -83  -89  -88  -102  -152  -255  -426  -657  -892  -1068  -1173  -1252  -1344  -1409  -1363  -1216  -1083  -1033  -1033  -1078  -1272  -1678  -2056  -1901  -871  973  3379  6025  8457  10164  10751  9936  7620  4249  805  -1779  -3028  -2989  -2194  -1358  -903  -796  -790  -746  -690  -668  -673  -674  -659  -624  -558  -463  -366  -295  -252  -227  -183  -80  56  160  211  253  308  359  405  484  596  679  693  669  694  875  1250  1702  2044  2203  2272  2387  2589  2804  2945  3001  3016  3028  3016  2915  2664  2261  1745  1184  680  293  -28  -370  -704  -918  -985  -986  -998  -1059  -1189  -1376  -1561  -1679  -1726  -1729  -1707  -1653  -1581  -1515  -1466  -1440  -1448  -1470  -1455  -1390  -1310  -1248  -1219  -1242  -1322  -1426  -1493  -1507  -1496  -1478  -1441  -1374  -1278  -1178  -1123  -1131  -1169  -1191  -1179  -1132  -1068  -1006  -936  -833  -679  -481  -280  -133  -61  -44  -67  -162  -367  -623  -804  -867  -870  -868  -879  -930  -1064  -1274  -1462  -1539  -1498  -1397  -1299  -1236  -1221  -1262  -1348  -1463  -1593  -1738  -1881  -1863  -1334  -27  2037  4662  7448  9815  11221  11249  9740  6986  3631  489  -1684  -2601  -2525  -1936  -1260  -774  -579  -592  -657  -705  -739  -754  -709  -569  -376  -236  -202  -242  -302  -339  -299  -136  94  279  380  429  458  484  515  570  671  802  930  1089  1354  1688  1931  2011  2000  2004  2094  2284  2520  2743  2952  3153  3314  3405  3415  3304  3012  2545  1969  1366  816  366  14  -240  -406  -553  -769  -1036  -1263  -1431  -1600  -1779  -1906  -1948  -1928  -1876  -1817  -1782  -1780  -1796  -1811  -1818  -1821  -1822  -1814  -1786  -1732  -1644  -1510  -1359  -1265  -1267  -1351  -1462  -1544  -1583  -1597  -1602  -1601  -1599  -1579  -1512  -1413  -1343  -1348  -1411  -1468  -1485  -1499  -1538  -1562  -1502  -1315  -1061  -853  -738  -701  -706  -708  -678  -613  -529  -467  -445  -443  -440  -438  -467  -562  -728  -935  -1145  -1333  -1475  -1552  -1569  -1555  -1526  -1494  -1472  -1461  -1458  -1457  -1468  -1555  -1785  -2006  -1823  -885  911  3349  5977  8358  10153  11024  10646  8858  5847  2333  -587  -2159  -2433  -1914  -1189  -728  -612  -640  -666  -664  -653  -647  -626  -562  -464  -378  -333  -313  -283  -221  -138  -77  -42  10  115  247  351  404  454  576  787  1025  1208  1307  1362  1435  1564  1760  2034  2341  2591  2774  2966  3187  3378  3527  3693  3887  4043  4095  3982  3659  3210  2787  2402  1967  1434  820  225  -237  -595  -901  -1102  -1163  -1150  -1135  -1153  -1203  -1262  -1300  -1302  -1266  -1199  -1119  -1064  -1064  -1115  -1174  -1215  -1237  -1240  -1211  -1141  -1057  -1007  -996  -1000  -1000  -1002  -1024  -1089  -1205  -1342  -1461  -1545  -1585  -1571  -1505  -1415  -1351  -1338  -1365  -1408  -1437  -1422  -1348  -1233  -1121  -1042  -1000  -982  -975  -972  -957  -877  -700  -524  -508  -656  -798  -804  -694  -597  -601  -686  -834  -1050  -1276  -1430  -1497  -1519  -1541  -1564  -1588  -1649  -1770  -1897  -1936  -1867  -1827  -1996  -2295  -2382  -1916  -694  1284  3797  6489  8941  10666  11153  10064  7511  4110  752  -1719  -2908  -3010  -2554  -2056  -1695  -1346  -996  -796  -792  -883  -969  -1013  -1020  -981  -889  -775  -698  -680  -693  -692  -639  -509  -302  -62  146  281  339  341  322  319  375  517  709  886  1013  1109  1215  1382  1643  1963  2250  2453  2598  2719  2821  2902  2957  2982  2970  2901  2751  2479  2024  1392  724  184  -185  -427  -598  -764  -952  -1150  -1354  -1546  -1686  -1770  -1836  -1901  -1947  -1964  -1969  -1974  -1980  -1981  -1978  -1963  -1930  -1880  -1829  -1791  -1778  -1800  -1849  -1899  -1924  -1925  -1918  -1903  -1876  -1844  -1842  -1903  -2003  -2089  -2124  -2112  -2075  -2016  -1924  -1822  -1749  -1720  -1739  -1824  -1972  -2127  -2226  -2250  -2193  -2043  -1837  -1639  -1442  -1222  -1018  -875  -785  -732  -724  -779  -881  -979  -1037  -1047  -1004  -892  -731  -589  -528  -586  -769  -1029  -1253  -1367  -1386  -1359  -1312  -1263  -1238  -1249  -1292  -1365  -1485  -1615  -1567  -1041  182  2078  4415  6937  9367  11256  12004  11155  8705  5191  1611  -971  -2114  -2150  -1612  -885  -293  -19  0  -53  -46  34  121  177  232  311  391  459  524  578  598  604  660  795  963  1088  1136  1133  1112  1084  1060  1084  1219  1467  1730  1898  1956  1974  2039  2203  2449  2710  2927  3095  3241  3363  3431  3431  3372  3274  3162  3047  2903  2663  2276  1802  1328  838  295  -232  -661  -993  -1263  -1481  -1644  -1762  -1844  -1892  -1918  -1937  -1951  -1956  -1965  -2010  -2098  -2209  -2313  -2366  -2347  -2288  -2214  -2118  -2010  -1908  -1810  -1724  -1690  -1728  -1807  -1880  -1943  -2008  -2067  -2104  -2108  -2058  -1930  -1757  -1635  -1646  -1803  -2026  -2188  -2215  -2115  -1942  -1780  -1686  -1655  -1652  -1653  -1647  -1624  -1587  -1544  -1482  -1346  -1110  -842  -649  -569  -557  -559  -562  -577  -613  -685  -805  -944  -1070  -1176  -1259  -1304  -1313  -1320  -1361  -1464  -1625  -1793  -1914  -1988  -2042  -2067  -2023  -1916  -1837  -1813  -1602  -762  988  3505  6336  8959  10839  11430  10368  7746  4183  664  -1803  -2780  -2597  -1921  -1328  -1048  -949  -866  -767  -658  -563  -509  -492  -495  -502  -490  -434  -311  -131  61  223  332  386  407  431  492  622  832  1070  1243  1315  1324  1313  1318  1380  1505  1665  1872  2168  2513  2798  2973  3111  3309  3575  3830  3996  4046  4007  3929  3818  3584  3121  2496  1913  1470  1117  821  587  396  203  -9  -216  -387  -509  -597  -672  -745  -815  -884  -948  -993  -1012  -1018  -1027  -1049  -1077  -1098  -1109  -1117  -1131  -1135  -1078  -921  -729  -621  -630  -717  -856  -995  -1081  -1123  -1151  -1168  -1162  -1119  -1036  -922  -806  -722  -682  -671  -672  -677  -683  -682  -660  -618  -594  -635  -729  -807  -816  -743  -598  -400  -179  30  200  321  391  425  450  472  476  426  295  93  -130  -317  -446  -539  -616  -685  -770  -894  -1041  -1170  -1259  -1328  -1394  -1443  -1467  -1487  -1549  -1693  -1868  -1850  -1319  -57  1924  4441  7193  9731  11470  11792  10333  7340  3577  70  -2218  -2992  -2677  -1897  -1190  -856  -828  -872  -852  -769  -673  -589  -519  -462  -396  -298  -184  -94  -38  0  31  54  76  109  154  198  250  352  542  794  1046  1264  1431  1520  1537  1538  1596  1757  2025  2367  2723  3016  3222  3397  3582  3732  3814  3856  3873  3812  3595  3218  2768  2320  1883  1438  990  556  146  -210  -460  -610  -734  -886  -1061  -1235  -1377  -1453  -1470  -1463  -1460  -1465  -1470  -1459  -1426  -1387  -1366  -1372  -1393  -1410  -1417  -1418  -1418  -1410  -1385  -1342  -1304  -1301  -1340  -1394  -1451  -1528  -1618  -1685  -1708  -1685  -1621  -1538  -1479  -1464  -1478  -1501  -1519  -1526  -1509  -1457  -1380  -1310  -1266  -1255  -1290  -1379  -1491  -1573  -1605  -1608  -1594  -1535  -1383  -1148  -913  -758  -696  -692  -712  -742  -775  -793  -792  -801  -865  -989  -1126  -1227  -1307  -1432  -1645  -1894  -2072  -2143  -2149  -2136  -2119  -2098  -2100  -2193  -2405  -2646  -2817  -2773  -2163  -777  1159  3390  5798  8118  9867  10420  9244  6345  2450  -1242  -3628  -4350  -3845  -2889  -2136  -1807  -1741  -1756  -1807  -1891  -1985  -2051  -2081  -2090  -2087  -2069  -2045  -2032  -2037  -2046  -2016  -1908  -1730  -1532  -1335  -1137  -964  -849  -794  -766  -716  -622  -505  -380  -202  47  294  457  550  711  1076  1573  1971  2168  2264  2367  2481  2562  2586  2565  2494  2303  1925  1391  814  319  -23  -259  -470  -706  -1001  -1332  -1627  -1882  -2128  -2346  -2494  -2546  -2518  -2471  -2452  -2451  -2411  -2290  -2125  -2006  -1971  -1968  -1928  -1816  -1658  -1527  -1468  -1459  -1456  -1433  -1397  -1368  -1355  -1350  -1344  -1326  -1282  -1200  -1073  -917  -772  -666  -594  -553  -564  -650  -784  -894  -917  -845  -731  -646  -614  -602  -554  -435  -275  -156  -113  -81  34  245  458  582  605  562  480  385  313  282  278  266  212  110  -19  -146  -235  -275  -298  -352  -463  -599  -703  -754  -777  -809  -855  -909  -997  -1137  -1198  -869  166  2018  4500  7178  9557  11206  11703  10725  8313  4943  1415  -1347  -2757  -2884  -2241  -1429  -812  -442  -279  -266  -288  -264  -189  -106  -55  -36  -28  -19  -17  -21  -13  39  154  305  453  580  683  772  872  1004  1174  1367  1547  1691  1824  1972  2117  2235  2372  2580  2828  3046  3230  3432  3696  3991  4232  4383  4458  4463  4397  4259  4034  3728  3394  3052  2629  2069  1448  907  514  258  82  -83  -249  -362  -398  -393  -399  -461  -585  -731  -848  -912  -940  -983  -1060  -1134  -1174  -1183  -1181  -1180  -1190  -1214  -1251  -1283  -1294  -1287  -1272  -1263  -1267  -1279  -1298  -1333  -1386  -1444  -1494  -1530  -1535  -1528  -1572  -1679  -1787  -1856  -1893  -1903  -1873  -1794  -1684  -1575  -1483  -1420  -1384  -1346  -1270  -1158  -1041  -942  -875  -899  -1093  -1413  -1691  -1845  -1918  -1948  -1948  -1941  -1966  -2060  -2222  -2398  -2532  -2620  -2689  -2739  -2755  -2718  -2608  -2451  -2329  -2279  -2269  -2236  -2007  -1251  288  2516  5062  7491  9346  10147  9543  7560  4635  1486  -1051  -2439  -2778  -2511  -1939  -1233  -607  -241  -126  -101  -32  84  178  232  296  386  467  531  599  670  715  732  758  833  966  1108  1199  1245  1334  1549  1883  2209  2397  2443  2447  2496  2616  2760  2883  2996  3122  3251  3403  3639  3985  4352  4607  4708  4715  4650  4472  4153  3722  3218  2683  2189  1760  1341  864  337  -146  -511  -756  -900  -985  -1070  -1163  -1231  -1266  -1296  -1316  -1312  -1315  -1374  -1479  -1581  -1659  -1701  -1678  -1585  -1472  -1399  -1379  -1395  -1426  -1458  -1481  -1495  -1505  -1516  -1522  -1520  -1510  -1505  -1537  -1632  -1764  -1863  -1898  -1888  -1855  -1784  -1644  -1465  -1321  -1237  -1183  -1130  -1057  -957  -848  -753  -687  -655  -643  -639  -637  -646  -676  -729  -798  -884  -996  -1113  -1192  -1223  -1244  -1303  -1426  -1588  -1743  -1869  -1964  -2008  -1989  -1936  -1895  -1878  -1884  -1955  -2151  -2412  -2472  -1975  -693  1299  3704  6216  8505  10100  10499  9329  6611  2957  -588  -2942  -3661  -3224  -2390  -1654  -1252  -1166  -1210  -1247  -1255  -1252  -1246  -1211  -1114  -957  -783  -629  -514  -450  -429  -427  -429  -429  -398  -266  -12  258  421  464  459  465  498  549  609  679  783  953  1188  1434  1655  1868  2094  2319  2516  2679  2822  2955  3048  3084  3078  2988  2710  2208  1584  1001  552  217  -55  -293  -492  -650  -794  -974  -1186  -1372  -1511  -1625  -1722  -1812  -1907  -1988  -2006  -1933  -1808  -1710  -1672  -1669  -1668  -1662  -1666  -1685  -1689  -1657  -1609  -1570  -1542  -1517  -1496  -1480  -1458  -1411  -1356  -1321  -1314  -1361  -1464  -1569  -1618  -1614  -1584  -1545  -1488  -1399  -1283  -1203  -1241  -1384  -1522  -1558  -1468  -1269  -993  -687  -410  -184  -2  100  58  -152  -442  -651  -703  -642  -548  -483  -497  -615  -808  -994  -1131  -1251  -1381  -1491  -1553  -1568  -1547  -1511  -1475  -1445  -1455  -1560  -1719  -1701  -1162  157  2249  4789  7324  9462  10784  10783  9237  6395  2871  -360  -2374  -2969  -2598  -1830  -1115  -728  -680  -770  -813  -772  -700  -661  -673  -701  -716  -724  -721  -660  -508  -296  -110  -15  1  6  60  176  322  469  612  750  872  955  995  1032  1134  1331  1594  1880  2153  2394  2613  2803  2950  3119  3405  3758  4016  4080  3940  3629  3243  2889  2540  2083  1502  911  437  113  -121  -337  -580  -890  -1242  -1532  -1696  -1764  -1788  -1784  -1748  -1690  -1641  -1620  -1621  -1627  -1625  -1605  -1566  -1521  -1488  -1477  -1486  -1508  -1536  -1571  -1619  -1668  -1707  -1731  -1722  -1673  -1610  -1547  -1486  -1442  -1421  -1410  -1399  -1381  -1349  -1312  -1271  -1241  -1274  -1371  -1462  -1505  -1511  -1477  -1384  -1245  -1116  -1032  -942  -774  -540  -315  -154  -91  -139  -254  -359  -384  -341  -336  -403  -470  -550  -719  -980  -1249  -1436  -1529  -1581  -1632  -1678  -1702  -1702  -1696  -1708  -1761  -1847  -1936  -2026  -1973  -1354  105  2260  4846  7532  9826  11209  11169  9461  6415  2776  -465  -2411  -2942  -2629  -2047  -1582  -1345  -1155  -908  -705  -621  -620  -646  -662  -643  -569  -456  -362  -322  -318  -315  -290  -254  -217  -145  10  213  358  419  490  653  867  1035  1139  1235  1359  1519  1715  1907  2033  2124  2300  2616  2990  3297  3484  3590  3669  3741  3801  3816  3677  3277  2681  2096  1639  1260  865  413  -64  -497  -816  -1016  -1143  -1227  -1269  -1275  -1270  -1274  -1298  -1331  -1354  -1366  -1386  -1428  -1475  -1500  -1486  -1434  -1352  -1258  -1171  -1101  -1037  -968  -908  -890  -895  -882  -865  -867  -888  -919  -956  -997  -1041  -1091  -1147  -1197  -1218  -1203  -1163  -1124  -1105  -1102  -1102  -1103  -1105  -1103  -1085  -1042  -970  -887  -816  -764  -714  -667  -635  -602  -532  -429  -347  -326  -354  -393  -419  -435  -447  -456  -460  -462  -473  -521  -641  -834  -1059  -1269  -1433  -1533  -1564  -1544  -1499  -1442  -1389  -1379  -1461  -1643  -1761  -1417  -214  1896  4576  7384  9846  11336  11335  9738  6746  2893  -737  -3028  -3667  -3123  -2114  -1284  -930  -919  -1001  -1048  -1041  -1005  -961  -921  -895  -877  -846  -782  -678  -531  -369  -242  -174  -154  -156  -160  -145  -92  2  143  336  547  707  786  831  919  1086  1297  1493  1682  1926  2226  2512  2758  3006  3259  3450  3526  3506  3451  3408  3349  3149  2715  2150  1646  1230  814  371  -82  -485  -747  -864  -924  -990  -1060  -1110  -1141  -1167  -1202  -1259  -1336  -1414  -1469  -1494  -1499  -1499  -1501  -1499  -1469  -1410  -1366  -1366  -1377  -1384  -1418  -1474  -1512  -1507  -1476  -1443  -1402  -1343  -1278  -1235  -1223  -1240  -1284  -1340  -1379  -1388  -1383  -1392  -1432  -1487  -1527  -1545  -1553  -1547  -1499  -1386  -1240  -1138  -1107  -1111  -1107  -1048  -885  -630  -379  -225  -182  -217  -299  -412  -539  -656  -733  -761  -759  -754  -774  -839  -945  -1057  -1128  -1150  -1161  -1217  -1338  -1456  -1509  -1541  -1597  -1663  -1734  -1810  -1824  -1588  -840  574  2610  5099  7729  9993  11275  11039  9088  5792  2022  -1120  -2861  -3193  -2649  -1846  -1221  -894  -788  -798  -825  -814  -743  -606  -431  -260  -124  -27  46  102  110  76  56  72  114  175  232  264  283  313  372  487  675  903  1121  1330  1529  1667  1724  1790  1989  2339  2730  3046  3229  3295  3307  3314  3330  3352  3371  3360  3253  2959  2473  1940  1512  1173  807  385  -14  -331  -589  -838  -1089  -1297  -1417  -1459  -1471  -1485  -1503  -1521  -1537  -1544  -1534  -1514  -1491  -1478  -1471  -1461  -1446  -1418  -1402  -1473  -1619  -1717  -1718  -1680  -1651  -1628  -1584  -1499  -1400  -1339  -1338  -1379  -1429  -1463  -1477  -1471  -1430  -1344  -1234  -1141  -1093  -1097  -1138  -1189  -1226  -1242  -1242  -1242  -1258  -1290  -1319  -1335  -1346  -1342  -1299  -1191  -1020  -845  -729  -670  -632  -593  -545  -484  -424  -387  -379  -384  -389  -391  -401  -426  -466  -519  -610  -787  -1052  -1319  -1482  -1527  -1513  -1480  -1431  -1385  -1387  -1481  -1646  -1828  -2024  -2187  -2026  -1107  735  3236  5948  8460  10344  11188  10713  8853  5845  2309  -816  -2735  -3291  -2833  -1901  -1073  -696  -718  -863  -943  -943  -899  -827  -741  -646  -510  -322  -136  -9  42  42  32  58  142  247  319  345  360  396  472  588  726  856  961  1044  1141  1318  1616  1986  2336  2631  2875  3068  3209  3299  3356  3443  3626  3870  4058  4087  3877  3403  2790  2248  1843  1442  937  402  -42  -373  -643  -869  -1041  -1161  -1249  -1319  -1385  -1443  -1476  -1485  -1473  -1438  -1373  -1297  -1248  -1249  -1295  -1373  -1463  -1542  -1594  -1611  -1586  -1520  -1433  -1353  -1301  -1276  -1270  -1272  -1269  -1250  -1218  -1205  -1235  -1284  -1319  -1336  -1343  -1347  -1351  -1353  -1357  -1383  -1442  -1494  -1475  -1391  -1317  -1308  -1348  -1376  -1338  -1236  -1126  -1057  -1024  -975  -884  -764  -633  -502  -397  -346  -351  -400  -466  -512  -526  -526  -558  -651  -776  -879  -974  -1115  -1293  -1438  -1513  -1546  -1567  -1580  -1579  -1558  -1522  -1507  -1641  -2054  -2596  -2735  -1988  -264  2241  5119  7878  10099  11296  10958  8930  5576  1732  -1436  -3067  -3236  -2611  -1785  -1175  -971  -1023  -1094  -1099  -1060  -1008  -967  -937  -902  -840  -741  -622  -519  -437  -344  -238  -158  -97  -5  132  277  398  487  541  572  606  675  808  1011  1253  1497  1717  1906  2091  2282  2451  2568  2639  2692  2764  2910  3150  3370  3413  3283  3102  2949  2802  2550  2067  1363  609  -31  -491  -754  -879  -967  -1057  -1119  -1142  -1173  -1260  -1389  -1499  -1565  -1600  -1625  -1642  -1625  -1561  -1480  -1414  -1372  -1340  -1310  -1289  -1282  -1285  -1284  -1263  -1207  -1132  -1083  -1092  -1150  -1219  -1263  -1279  -1286  -1290  -1270  -1203  -1108  -1035  -1007  -1004  -1004  -1005  -1025  -1088  -1186  -1273  -1318  -1329  -1325  -1306  -1260  -1201  -1153  -1112  -1044  -922  -759  -594  -440  -279  -102  54  136  138  101  71  55  -3  -158  -368  -527  -606  -663  -742  -833  -899  -928  -937  -944  -965  -1027  -1147  -1311  -1478  -1615  -1751  -1920  -2074  -2078  -1745  -910  509  2532  5055  7728  10010  11347  11255  9555  6591  3058  -176  -2277  -2943  -2552  -1772  -1157  -896  -820  -743  -667  -640  -651  -664  -653  -609  -544  -481  -428  -390  -369  -336  -247  -74  140  296  358  377  412  481  572  656  715  740  744  783  916  1159  1487  1865  2216  2451  2566  2664  2846  3104  3350  3527  3634  3691  3726  3743  3715  3590  3273  2705  2005  1378  874  450  111  -133  -311  -449  -555  -652  -779  -943  -1122  -1278  -1371  -1413  -1453  -1480  -1455  -1399  -1339  -1295  -1304  -1352  -1391  -1409  -1415  -1407  -1377  -1326  -1309  -1390  -1529  -1620  -1638  -1622  -1599  -1570  -1520  -1435  -1349  -1309  -1306  -1306  -1316  -1346  -1375  -1371  -1320  -1278  -1316  -1402  -1467  -1493  -1491  -1481  -1477  -1468  -1444  -1399  -1325  -1255  -1221  -1192  -1114  -983  -826  -631  -376  -116  40  41  -91  -276  -421  -488  -497  -483  -491  -579  -777  -1041  -1293  -1482  -1604  -1696  -1801  -1912  -2009  -2087  -2113  -2075  -2029  -2091  -2347  -2632  -2563  -1834  -325  1909  4604  7306  9520  10761  10553  8725  5603  1916  -1289  -3107  -3477  -3031  -2375  -1846  -1560  -1443  -1384  -1340  -1306  -1288  -1300  -1327  -1345  -1325  -1217  -984  -695  -493  -431  -446  -469  -484  -484  -437  -314  -137  44  203  328  407  463  574  812  1137  1413  1564  1660  1812  2025  2230  2432  2707  3037  3304  3440  3483  3494  3503  3486  3381  3144  2782  2311  1717  1038  410  -49  -338  -552  -794  -1068  -1305  -1478  -1629  -1783  -1910  -1979  -1985  -1936  -1840  -1719  -1608  -1540  -1523  -1552  -1619  -1699  -1754  -1774  -1763  -1720  -1648  -1577  -1536  -1538  -1568  -1591  -1586  -1568  -1516  -1388  -1215  -1063  -946  -856  -808  -833  -944  -1099  -1210  -1215  -1112  -958  -832  -770  -748  -740  -733  -702  -618  -484  -347  -235  -121  31  206  363  484  565  589  548  459  361  294  266  251  226  189  154  133  109  52  -38  -136  -228  -319  -403  -467  -503  -519  -528  -537  -539  -543  -617  -861  -1177  -1086  -72  1937  4613  7417  9724  11067  11208  10037  7636  4389  1041  -1551  -2934  -3156  -2566  -1749  -1206  -1001  -940  -876  -760  -624  -524  -469  -429  -393  -365  -338  -300  -240  -165  -100  -67  -64  -80  -105  -119  -93  -14  102  224  336  457  623  827  1025  1186  1337  1527  1754  1973  2169  2367  2594  2839  3079  3301  3478  3552  3494  3329  3102  2848  2588  2308  1964  1495  891  295  -94  -249  -315  -461  -748  -1099  -1400  -1600  -1713  -1765  -1779  -1779  -1797  -1836  -1856  -1826  -1782  -1755  -1712  -1633  -1539  -1471  -1456  -1465  -1441  -1376  -1304  -1288  -1379  -1535  -1644  -1666  -1648  -1630  -1612  -1568  -1495  -1420  -1373  -1358  -1357  -1348  -1318  -1265  -1204  -1148  -1094  -1040  -1003  -992  -997  -1004  -998  -955  -854  -700  -524  -336  -154  -25  29  36  15  -47  -154  -265  -333  -381  -461  -571  -663  -739  -858  -1042  -1224  -1333  -1367  -1372  -1386  -1423  -1464  -1494  -1517  -1537  -1587  -1734  -1966  -2056  -1634  -386  1727  4370  7031  9306  10770  10943  9630  7010  3526  23  -2473  -3520  -3386  -2582  -1662  -1094  -974  -1071  -1158  -1179  -1167  -1153  -1154  -1171  -1182  -1125  -946  -692  -493  -406  -372  -328  -269  -206  -145  -80  -1  91  179  262  363  469  553  659  874  1173  1445  1674  1939  2240  2497  2674  2791  2879  2993  3184  3401  3526  3504  3389  3256  3108  2849  2356  1677  1047  595  239  -108  -451  -757  -987  -1140  -1254  -1352  -1432  -1485  -1518  -1554  -1598  -1633  -1634  -1593  -1532  -1490  -1476  -1474  -1473  -1471  -1479  -1504  -1539  -1564  -1571  -1570  -1555  -1503  -1406  -1287  -1190  -1146  -1161  -1210  -1239  -1218  -1173  -1142  -1127  -1122  -1143  -1211  -1319  -1426  -1499  -1528  -1497  -1399  -1275  -1194  -1156  -1071  -852  -540  -285  -176  -175  -209  -239  -265  -318  -415  -533  -634  -713  -793  -899  -1047  -1218  -1372  -1495  -1595  -1671  -1710  -1710  -1678  -1627  -1578  -1551  -1584  -1728  -1964  -2209  -2415  -2511  -2281  -1457  146  2476  5152  7683  9640  10533  9942  7855  4693  1177  -1775  -3387  -3555  -2885  -2076  -1476  -1157  -1060  -1060  -1056  -1023  -986  -1000  -1095  -1230  -1317  -1285  -1101  -825  -593  -479  -443  -413  -368  -329  -287  -200  -53  141  382  638  829  917  958  1021  1156  1391  1692  1965  2166  2365  2638  2959  3240  3422  3509  3536  3545  3553  3539  3442  3216  2878  2494  2126  1777  1393  965  515  14  -508  -901  -1084  -1139  -1167  -1204  -1258  -1327  -1397  -1451  -1479  -1485  -1490  -1493  -1451  -1352  -1272  -1265  -1298  -1321  -1322  -1307  -1291  -1280  -1258  -1211  -1143  -1076  -1008  -936  -871  -826  -819  -876  -983  -1085  -1146  -1157  -1131  -1083  -1023  -973  -952  -953  -953  -942  -923  -908  -896  -856  -752  -591  -417  -256  -119  -30  5  12  8  -9  -50  -102  -134  -128  -103  -88  -100  -153  -290  -535  -814  -1000  -1065  -1086  -1121  -1161  -1186  -1196  -1194  -1202  -1289  -1527  -1835  -1888  -1278  154  2171  4441  6810  9078  10830  11529  10686  8204  4624  989  -1630  -2787  -2788  -2182  -1455  -963  -785  -789  -832  -833  -770  -658  -526  -403  -315  -277  -276  -289  -298  -281  -214  -89  62  197  287  329  337  337  378  531  810  1115  1332  1463  1578  1708  1833  1941  2081  2317  2627  2921  3129  3266  3421  3631  3809  3852  3767  3626  3459  3276  3077  2803  2369  1771  1114  553  192  -12  -209  -468  -723  -881  -930  -939  -994  -1133  -1313  -1469  -1584  -1682  -1784  -1874  -1924  -1923  -1871  -1786  -1705  -1659  -1648  -1653  -1654  -1648  -1640  -1635  -1632  -1630  -1626  -1619  -1615  -1634  -1695  -1780  -1842  -1857  -1836  -1799  -1752  -1682  -1595  -1515  -1439  -1364  -1320  -1326  -1343  -1326  -1265  -1171  -1037  -862  -697  -597  -560  -543  -526  -519  -536  -588  -693  -835  -958  -1035  -1074  -1088  -1115  -1217  -1409  -1618  -1754  -1812  -1837  -1842  -1813  -1760  -1748  -1835  -1970  -2091  -2228  -2313  -2131  -1491  -136  2175  5154  8050  10227  11164  10407  8013  4641  1145  -1645  -3191  -3568  -3206  -2540  -1973  -1697  -1632  -1639  -1653  -1660  -1635  -1527  -1315  -1072  -906  -857  -883  -930  -958  -937  -845  -680  -465  -242  -45  123  262  363  423  462  504  562  697  994  1422  1863  2239  2504  2637  2682  2720  2820  3013  3287  3575  3810  3966  4036  4014  3908  3711  3406  2980  2454  1910  1415  945  449  -35  -397  -632  -864  -1131  -1343  -1441  -1449  -1404  -1323  -1233  -1180  -1165  -1138  -1114  -1160  -1265  -1355  -1386  -1372  -1343  -1329  -1343  -1377  -1415  -1450  -1480  -1510  -1527  -1488  -1383  -1265  -1172  -1086  -1003  -964  -995  -1061  -1126  -1188  -1237  -1260  -1265  -1273  -1286  -1291  -1275  -1227  -1118  -909  -631  -389  -253  -202  -182  -183  -226  -311  -404  -482  -554  -629  -692  -741  -803  -945  -1241  -1633  -1935  -2050  -2031  -1958  -1878  -1823  -1807  -1815  -1822  -1797  -1719  -1630  -1593  -1511  -1011  305  2464  5054  7494  9272  9980  9363  7472  4627  1368  -1496  -3227  -3647  -3123  -2213  -1432  -1088  -1116  -1228  -1261  -1204  -1072  -912  -799  -757  -754  -745  -714  -667  -603  -502  -340  -144  16  117  183  233  282  354  462  600  756  928  1110  1279  1414  1544  1708  1889  2056  2254  2538  2867  3144  3321  3406  3456  3522  3588  3604  3556  3438  3189  2739  2112  1462  967  651  365  -10  -431  -787  -1035  -1200  -1310  -1370  -1389  -1389  -1384  -1379  -1377  -1388  -1419  -1456  -1463  -1415  -1335  -1269  -1238  -1232  -1244  -1284  -1361  -1456  -1537  -1583  -1586  -1531  -1408  -1247  -1104  -1014  -974  -963  -960  -962  -977  -1011  -1043  -1024  -932  -826  -762  -734  -717  -704  -696  -678  -629  -545  -440  -339  -288  -308  -359  -397  -422  -451  -488  -527  -569  -632  -726  -847  -989  -1146  -1300  -1448  -1584  -1670  -1691  -1683  -1673  -1662  -1653  -1672  -1743  -1790  -1531  -611  1081  3315  5676  7748  9194  9734  9145  7334  4506  1296  -1394  -2918  -3220  -2693  -1913  -1333  -1078  -1013  -970  -893  -813  -742  -672  -606  -547  -493  -462  -452  -423  -375  -354  -357  -342  -294  -223  -145  -78  -14  76  215  415  672  946  1165  1295  1369  1453  1580  1743  1925  2133  2395  2689  2941  3136  3340  3569  3743  3760  3578  3282  3016  2796  2504  2049  1454  840  337  -45  -395  -757  -1073  -1260  -1318  -1323  -1342  -1397  -1469  -1519  -1534  -1530  -1534  -1553  -1581  -1604  -1628  -1672  -1725  -1752  -1736  -1701  -1667  -1637  -1607  -1577  -1550  -1532  -1518  -1479  -1402  -1334  -1354  -1462  -1562  -1572  -1470  -1302  -1151  -1070  -1047  -1046  -1032  -983  -903  -821  -742  -630  -451  -249  -117  -96  -156  -242  -303  -326  -351  -416  -505  -554  -533  -482  -462  -492  -569  -718  -947  -1212  -1445  -1595  -1666  -1691  -1682  -1643  -1597  -1580  -1637  -1801  -1984  -1969  -1556  -531  1303  3714  6175  8425  10214  10960  10262  8157  4915  1257  -1644  -3055  -3150  -2482  -1587  -943  -749  -827  -925  -960  -961  -954  -936  -886  -807  -721  -628  -529  -437  -356  -274  -204  -152  -99  -48  -19  -5  26  105  218  337  467  629  793  909  991  1126  1395  1775  2146  2428  2625  2767  2881  2978  3048  3087  3116  3150  3166  3109  2926  2591  2141  1646  1107  533  34  -314  -552  -739  -925  -1126  -1293  -1391  -1449  -1508  -1557  -1551  -1505  -1488  -1535  -1614  -1679  -1701  -1687  -1663  -1655  -1660  -1637  -1559  -1461  -1412  -1445  -1521  -1576  -1582  -1563  -1553  -1553  -1526  -1428  -1270  -1118  -1021  -985  -1001  -1070  -1179  -1287  -1347  -1331  -1230  -1071  -911  -782  -694  -667  -697  -729  -715  -652  -573  -503  -444  -382  -318  -276  -281  -345  -444  -523  -546  -527  -515  -564  -688  -839  -958  -1034  -1101  -1184  -1272  -1361  -1455  -1546  -1605  -1629  -1633  -1661  -1795  -2028  -2083  -1534  -179  1844  4304  6914  9241  10822  11179  9931  7178  3545  -1  -2446  -3293  -2810  -1672  -661  -330  -594  -955  -1119  -1104  -993  -840  -707  -638  -627  -642  -662  -665  -612  -471  -285  -132  -31  48  124  197  249  259  230  198  226  325  436  520  597  712  898  1145  1409  1683  1977  2263  2514  2737  2934  3080  3149  3159  3143  3104  2990  2753  2391  1925  1400  893  447  60  -274  -563  -822  -1089  -1376  -1629  -1787  -1839  -1792  -1677  -1578  -1571  -1673  -1823  -1929  -1957  -1944  -1935  -1935  -1909  -1826  -1707  -1611  -1562  -1545  -1545  -1553  -1561  -1565  -1573  -1593  -1616  -1623  -1603  -1554  -1492  -1453  -1472  -1536  -1591  -1607  -1594  -1575  -1548  -1501  -1443  -1403  -1391  -1394  -1392  -1374  -1345  -1313  -1255  -1141  -1002  -904  -864  -837  -777  -692  -626  -601  -608  -628  -644  -649  -643  -626  -597  -581  -653  -884  -1222  -1508  -1666  -1747  -1809  -1838  -1805  -1748  -1764  -1897  -2083  -2222  -2219  -1963  -1302  -45  1912  4409  7101  9580  11235  11395  9775  6672  2878  -510  -2604  -3253  -2904  -2081  -1228  -689  -563  -684  -846  -965  -1032  -1054  -1039  -974  -834  -613  -357  -152  -48  -22  -29  -44  -59  -71  -61  23  223  492  719  851  927  1018  1186  1431  1673  1836  1939  2057  2235  2443  2634  2817  3026  3257  3469  3628  3727  3789  3830  3832  3774  3636  3362  2880  2190  1443  856  502  266  24  -246  -502  -717  -900  -1050  -1135  -1147  -1127  -1117  -1126  -1132  -1103  -1037  -969  -910  -853  -830  -878  -969  -1034  -1036  -1001  -983  -993  -995  -959  -895  -842  -837  -875  -915  -930  -924  -911  -914  -967  -1082  -1219  -1313  -1351  -1359  -1357  -1329  -1253  -1145  -1051  -991  -961  -964  -999  -1054  -1090  -1061  -951  -775  -586  -460  -404  -342  -226  -130  -162  -285  -379  -422  -479  -582  -685  -734  -749  -793  -900  -1049  -1179  -1241  -1238  -1243  -1309  -1370  -1343  -1268  -1237  -1289  -1406  -1574  -1810  -2065  -2101  -1583  -314  1655  4079  6606  8861  10392  10635  9230  6384  2817  -444  -2471  -3057  -2723  -2088  -1583  -1319  -1124  -928  -823  -829  -890  -942  -944  -895  -816  -730  -644  -550  -455  -371  -273  -140  3  108  149  144  129  143  223  380  583  786  961  1109  1243  1360  1453  1547  1710  1987  2326  2612  2786  2890  2997  3138  3293  3436  3553  3617  3560  3307  2877  2372  1853  1309  759  288  -77  -397  -700  -964  -1196  -1389  -1489  -1503  -1490  -1477  -1471  -1471  -1472  -1475  -1472  -1447  -1408  -1379  -1371  -1368  -1355  -1335  -1326  -1333  -1355  -1382  -1401  -1395  -1337  -1214  -1074  -983  -956  -955  -943  -920  -905  -907  -907  -877  -821  -789  -822  -905  -997  -1071  -1106  -1098  -1069  -1039  -1012  -989  -974  -972  -983  -985  -910  -700  -412  -188  -80  -34  -4  18  36  43  -3  -152  -377  -575  -677  -706  -723  -762  -822  -886  -934  -961  -976  -997  -1041  -1112  -1190  -1258  -1324  -1381  -1438  -1558  -1752  -1825  -1415  -263  1615  3982  6455  8624  10095  10416  9240  6667  3266  -63  -2371  -3246  -2993  -2156  -1262  -766  -750  -919  -1013  -1001  -942  -873  -795  -716  -658  -589  -449  -259  -107  -36  -15  -10  10  70  132  134  84  42  65  201  457  781  1079  1271  1384  1516  1694  1873  2037  2224  2441  2642  2803  2952  3110  3251  3352  3414  3432  3380  3244  3061  2856  2570  2149  1636  1044  348  -325  -750  -893  -923  -975  -1070  -1196  -1365  -1575  -1782  -1931  -2006  -2026  -2022  -2008  -1979  -1936  -1899  -1886  -1884  -1875  -1858  -1831  -1795  -1757  -1723  -1696  -1665  -1625  -1592  -1584  -1595  -1606  -1608  -1607  -1606  -1585  -1539  -1491  -1465  -1464  -1474  -1480  -1456  -1382  -1282  -1217  -1215  -1249  -1282  -1298  -1292  -1253  -1177  -1096  -1050  -1040  -1020  -944  -830  -730  -658  -579  -490  -433  -417  -420  -436  -467  -494  -514  -565  -688  -856  -996  -1078  -1138  -1209  -1289  -1363  -1414  -1428  -1420  -1434  -1512  -1667  -1873  -2046  -2105  -1944  -1286  148  2303  4827  7353  9521  10861  10887  9362  6462  2836  -468  -2503  -3034  -2543  -1761  -1237  -1077  -1076  -1052  -964  -849  -751  -666  -570  -464  -373  -311  -273  -247  -224  -191  -145  -94  -41  7  49  105  204  348  503  655  835  1062  1290  1478  1643  1809  1978  2169  2382  2558  2639  2663  2766  3062  3475  3799  3949  3997  4002  3958  3848  3657  3315  2729  1982  1358  1027  882  728  469  132  -204  -492  -735  -947  -1128  -1261  -1332  -1357  -1358  -1341  -1299  -1246  -1225  -1251  -1275  -1262  -1211  -1126  -1021  -903  -776  -679  -656  -705  -790  -848  -868  -906  -974  -1013  -1005  -985  -978  -985  -993  -978  -922  -829  -717  -605  -518  -475  -468  -475  -481  -481  -478  -485  -514  -560  -604  -623  -574  -419  -191  18  179  324  474  600  678  717  728  693  555  276  -108  -518  -877  -1165  -1410  -1641  -1862  -2059  -2203  -2280  -2298  -2271  -2233  -2216  -2237  -2299  -2382  -2474  -2632  -2863  -2948  -2575  -1585  43  2286  4950  7564  9491  10157  9220  6776  3380  -120  -2736  -3863  -3762  -3087  -2290  -1669  -1407  -1418  -1483  -1502  -1503  -1511  -1525  -1537  -1542  -1548  -1553  -1542  -1474  -1306  -1046  -794  -650  -611  -603  -571  -477  -294  -42  206  398  522  598  681  822  1001  1166  1329  1551  1833  2118  2357  2544  2709  2877  3069  3299  3532  3695  3770  3771  3634  3242  2622  1980  1498  1173  869  469  -5  -423  -697  -852  -955  -1067  -1220  -1386  -1508  -1562  -1573  -1575  -1572  -1549  -1506  -1444  -1373  -1326  -1325  -1350  -1372  -1379  -1379  -1381  -1390  -1393  -1368  -1296  -1201  -1132  -1112  -1119  -1127  -1128  -1136  -1168  -1214  -1242  -1233  -1196  -1136  -1060  -993  -963  -992  -1102  -1271  -1427  -1521  -1542  -1483  -1345  -1178  -1064  -1027  -1032  -1043  -1053  -1062  -1055  -985  -802  -531  -270  -95  -18  -22  -91  -206  -324  -402  -425  -413  -395  -416  -528  -731  -956  -1140  -1290  -1454  -1633  -1767  -1821  -1822  -1804  -1782  -1733  -1622  -1480  -1447  -1554  -1504  -881  542  2745  5435  8118  10253  11284  10819  8810  5539  1799  -1276  -2932  -3114  -2294  -1220  -520  -354  -483  -628  -686  -687  -675  -647  -575  -465  -366  -313  -300  -301  -303  -306  -308  -265  -116  134  395  583  703  784  836  862  872  892  975  1165  1416  1631  1804  2020  2287  2538  2763  2988  3191  3362  3503  3601  3651  3673  3681  3676  3624  3446  3076  2532  1962  1511  1159  819  493  234  52  -134  -445  -866  -1228  -1432  -1513  -1521  -1475  -1398  -1336  -1335  -1390  -1448  -1478  -1491  -1495  -1475  -1406  -1301  -1207  -1149  -1119  -1109  -1111  -1100  -1083  -1094  -1129  -1149  -1131  -1082  -1034  -1022  -1054  -1121  -1201  -1255  -1255  -1203  -1125  -1056  -1014  -998  -1014  -1081  -1206  -1344  -1410  -1342  -1150  -908  -710  -602  -570  -571  -572  -563  -524  -423  -256  -82  29  46  -21  -123  -215  -304  -414  -521  -587  -626  -687  -777  -857  -908  -985  -1150  -1368  -1529  -1583  -1569  -1528  -1466  -1429  -1552  -1870  -2077  -1690  -381  1849  4618  7329  9439  10551  10416  8940  6213  2696  -653  -2864  -3647  -3356  -2540  -1754  -1345  -1268  -1300  -1304  -1258  -1168  -1052  -976  -996  -1060  -1059  -940  -750  -588  -511  -489  -460  -401  -337  -297  -277  -249  -173  -32  132  258  355  507  744  994  1179  1300  1399  1498  1627  1838  2153  2520  2850  3100  3284  3422  3507  3549  3551  3464  3214  2796  2285  1758  1269  849  471  118  -181  -442  -711  -975  -1170  -1273  -1323  -1373  -1445  -1525  -1579  -1596  -1593  -1587  -1585  -1586  -1589  -1591  -1585  -1567  -1542  -1525  -1523  -1530  -1530  -1494  -1403  -1287  -1206  -1183  -1186  -1171  -1121  -1057  -1012  -995  -996  -1013  -1052  -1107  -1151  -1173  -1181  -1179  -1148  -1066  -953  -849  -768  -683  -590  -513  -477  -473  -466  -416  -304  -167  -68  -36  -69  -156  -260  -330  -352  -357  -378  -411  -436  -447  -466  -509  -576  -660  -766  -891  -1004  -1088  -1170  -1267  -1368  -1451  -1516  -1552  -1473  -1104  -231  1274  3333  5702  8056  9905  10685  10023  7887  4694  1332  -1207  -2441  -2575  -2121  -1576  -1231  -1037  -807  -529  -332  -265  -258  -238  -192  -142  -83  11  124  205  247  291  384  532  677  756  764  750  778  889  1046  1160  1191  1184  1236  1428  1744  2091  2376  2579  2745  2924  3127  3364  3614  3821  3982  4125  4249  4329  4335  4239  4024  3693  3264  2783  2299  1845  1424  1023  663  362  88  -177  -388  -511  -579  -636  -699  -772  -846  -895  -910  -905  -899  -913  -958  -1027  -1092  -1137  -1155  -1123  -1020  -882  -779  -743  -748  -774  -815  -844  -825  -761  -697  -664  -660  -674  -704  -736  -752  -791  -906  -1039  -1092  -1049  -969  -912  -883  -840  -750  -611  -435  -246  -67  85  206  283  299  215  0  -287  -515  -627  -672  -703  -750  -813  -863  -898  -959  -1088  -1279  -1459  -1543  -1541  -1522  -1516  -1525  -1552  -1604  -1679  -1738  -1747  -1702  -1477  -763  684  2756  4923  6554  7408  7674  7424  6296  4032  1122  -1374  -2697  -2971  -2806  -2618  -2477  -2317  -2129  -1988  -1940  -1959  -1998  -2029  -2041  -2044  -2049  -2051  -2018  -1923  -1793  -1692  -1658  -1697  -1810  -1955  -2056  -2072  -2027  -1956  -1864  -1736  -1574  -1410  -1280  -1195  -1138]
