reading_id,reading_time,wire_id,result_classification,heart_rate,heart_rate_alert,firmware_version,device_app_version,hardware_version,waveform_samples
de23d210-623d-11ed-8080-808080808080,Sat Nov 12 03:55:37 UTC 2022,0101e39b1d39,NSR,75,NONE,20001.171.50,2.10.0,Charge 5,[1575  1933  2555  3379  4073  4387  4292  3869  3328  2948  2828  2853  2901  2916  2836  2586  2183  1753  1426  1274  1285  1350  1270  837  63  -711  -1164  -1270  -1142  -822  -388  -63  -173  -903  -1818  -1935  -668  1649  4227  6590  8686  10336  11100  10530  8281  4401  -274  -4248  -6266  -6110  -4428  -2367  -1256  -1525  -2297  -2683  -2635  -2456  -2333  -2273  -2211  -2129  -2065  -2030  -1982  -1861  -1635  -1350  -1059  -733  -390  -177  -195  -378  -578  -695  -734  -743  -712  -565  -274  34  172  89  -55  -77  19  118  211  366  584  791  910  945  990  1153  1434  1687  1750  1586  1328  1115  954  811  703  641  597  543  444  235  -203  -952  -1823  -2434  -2628  -2567  -2488  -2598  -3021  -3624  -4088  -4266  -4264  -4218  -4173  -4137  -4122  -4178  -4367  -4673  -4961  -5080  -4986  -4762  -4544  -4448  -4595  -5065  -5701  -6171  -6349  -6411  -6573  -6863  -7169  -7428  -7677  -7945  -8201  -8407  -8573  -8737  -8916  -9103  -9271  -9390  -9495  -9645  -9839  -10076  -10408  -10799  -11082  -11177  -11141  -11030  -10857  -10670  -10554  -10538  -10547  -10452  -10169  -9783  -9487  -9367  -9321  -9213  -9015  -8786  -8532  -8155  -7600  -6980  -6501  -6280  -6265  -6322  -6327  -6176  -5837  -5415  -5055  -4803  -4599  -4281  -3666  -2851  -2216  -1979  -1987  -1928  -1522  -528  1243  3819  7095  10779  14141  16310  16718  15067  11529  7230  3785  2098  1895  2384  3046  3700  4259  4798  5478  6227  6805  7239  7779  8457  9094  9639  10095  10392  10685  11326  12348  13377  14163  14811  15481  16159  16770  17371  18047  18719  19265  19750  20379  21276  22372  23407  24111  24488  24774  25087  25321  25393  25393  25409  25319  24936  24308  23702  23213  22608  21639  20303  18812  17556  16868  16543  15878  14288  11744  8716  5792  3291  1161  -871  -2943  -4936  -6769  -8341  -9468  -10291  -11193  -12212  -13083  -13767  -14517  -15400  -16208  -16918  -17742  -18631  -19230  -19347  -19077  -18620  -18156  -17782  -17492  -17212  -16795  -16128  -15342  -14741  -14449  -14360  -14301  -14111  -13720  -13210  -12764  -12527  -12496  -12574  -12675  -12754  -12809  -12838  -12817  -12706  -12494  -12301  -12315  -12532  -12736  -12780  -12719  -12733  -12970  -13356  -13658  -13775  -13790  -13804  -13837  -13830  -13719  -13519  -13301  -13137  -13066  -13055  -12988  -12767  -12457  -12232  -12157  -12093  -11812  -11214  -10385  -9367  -8082  -6648  -5400  -4349  -3053  -1259  815  2886  4795  6460  7881  9107  10188  11183  12023  12551  12807  13029  13341  13705  14225  15149  16675  18946  21897  25128  28020  29932  30348  28976  26089  22623  19569  17524  16655  16740  17247  17624  17545  17018  16404  16059  15984  15991  15939  15777  15564  15419  15374  15331  15193  14969  14693  14303  13745  13114  12557  12149  11916  11838  11820  11725  11478  11149  10886  10743  10644  10537  10445  10381  10293  10109  9791  9357  8826  8110  7099  5933  4966  4308  3647  2640  1381  336  -157  -105  333  928  1409  1636  1647  1516  1264  860  287  -412  -1169  -1921  -2566  -3016  -3338  -3661  -4013  -4361  -4736  -5186  -5671  -6102  -6426  -6691  -7022  -7440  -7797  -7983  -8037  -8048  -8096  -8236  -8429  -8548  -8533  -8456  -8390  -8329  -8258  -8203  -8192  -8197  -8172  -8111  -8051  -8017  -7997  -7962  -7915  -7938  -8166  -8633  -9150  -9483  -9586  -9575  -9551  -9549  -9562  -9573  -9578  -9574  -9561  -9541  -9542  -9625  -9834  -10103  -10291  -10299  -10109  -9795  -9512  -9369  -9325  -9259  -9084  -8817  -8540  -8243  -7808  -7256  -6753  -6346  -5931  -5494  -5137  -4870  -4543  -4073  -3568  -3180  -2935  -2763  -2623  -2548  -2579  -2682  -2747  -2731  -2714  -2756  -2797  -2724  -2469  -2112  -1837  -1701  -1570  -1388  -1298  -1258  -726  899  3659  7078  10505  13155  14258  13465  10925  7166  3181  199  -1102  -1086  -675  -436  -298  -101  73  162  234  341  447  503  509  516  579  724  915  1056  1065  990  964  1037  1134  1184  1186  1182  1222  1341  1541  1762  1909  1955  1941  1907  1860  1791  1706  1666  1747  1949  2171  2308  2378  2507  2730  2940  3055  3084  3066  3046  3080  3215  3404  3511  3456  3275  2985  2513  1903  1340  899  498  100  -261  -588  -916  -1228  -1467  -1607  -1690  -1766  -1827  -1846  -1832  -1793  -1732  -1679  -1674  -1745  -1887  -2041  -2137  -2139  -2042  -1879  -1726  -1653  -1643  -1615  -1498  -1311  -1153  -1084  -1097  -1162  -1253  -1348  -1452  -1558  -1607  -1548  -1417  -1289  -1201  -1158  -1138  -1118  -1104  -1116  -1147  -1174  -1193  -1214  -1231  -1234  -1248  -1329  -1478  -1634  -1776  -1913  -2021  -2077  -2100  -2112  -2099  -2027  -1884  -1689  -1486  -1328  -1254  -1291  -1451  -1684  -1879  -1969  -1980  -1947  -1865  -1722  -1558  -1443  -1406  -1411  -1405  -1347  -1233  -1104  -1000  -894  -742  -580  -486  -479  -519  -552  -560  -568  -593  -622  -654  -724  -857  -999  -1047  -992  -919  -882  -876  -874  -868  -873  -922  -1028  -1147  -1200  -1037  -329  1264  3799  7052  10571  13548  15015  14417  11884  8072  4001  826  -797  -1070  -523  319  907  1024  900  797  794  865  985  1124  1231  1281  1289  1282  1290  1343  1437  1533  1616  1701  1781  1839  1867  1864  1842  1822  1821  1851  1905  1963  2005  2027  2069  2198  2429  2686  2884  3000  3048  3055  3047  3043  3054  3100  3202  3337  3462  3572  3674  3753  3803  3845  3890  3931  3911  3699  3207  2563  2012  1621  1280  897  472  62  -270  -509  -678  -787  -867  -970  -1093  -1192  -1256  -1315  -1403  -1534  -1693  -1860  -1988  -2032  -1988  -1891  -1805  -1777  -1803  -1856  -1913  -1979  -2080  -2192  -2260  -2272  -2254  -2233  -2221  -2209  -2171  -2099  -2054  -2122  -2291  -2452  -2536  -2556  -2553  -2550  -2551  -2548  -2544  -2565  -2643  -2776  -2894  -2913  -2812  -2639  -2465  -2361  -2360  -2448  -2568  -2652  -2670  -2636  -2577  -2510  -2439  -2356  -2248  -2106  -1944  -1799  -1707  -1671  -1671  -1724  -1855  -2001  -2039  -1942  -1797  -1670  -1583  -1515  -1426  -1311  -1205  -1133  -1070  -959  -767  -487  -155  124  270  312  313  280  192  75  -2  -19  -10  15  83  179  247  254  217  185  191  201  158  73  4  -23  -28  -27  -21  -15  -29  -82  -52  462  1871  4196  7155  10281  12863  14216  13924  11865  8371  4339  910  -1227  -2178  -2297  -1841  -1208  -749  -449  -187  40  186  224  195  158  130  112  104  102  99  106  152  248  357  425  442  442  463  508  555  588  634  742  908  1077  1209  1322  1467  1641  1792  1890  1935  1906  1802  1700  1722  1869  2004  2051  2065  2159  2402  2781  3177  3409  3389  3191  2966  2821  2741  2643  2517  2408  2281  2040  1689  1326  969  507  -113  -731  -1108  -1210  -1183  -1147  -1130  -1116  -1085  -1023  -942  -873  -796  -658  -487  -422  -546  -775  -936  -958  -900  -847  -824  -816  -805  -792  -784  -783  -785  -787  -783  -766  -734  -701  -669  -624  -578  -552  -552  -572  -600  -618  -619  -610  -609  -627  -653  -673  -694  -738  -816  -907  -970  -990  -987  -980  -971  -966  -992  -1082  -1225  -1361  -1449  -1494  -1523  -1568  -1680  -1872  -2078  -2224  -2301  -2321  -2284  -2201  -2099  -2026  -2040  -2123  -2181  -2156  -2070  -1955  -1804  -1630  -1486  -1389  -1321  -1285  -1286  -1303  -1331  -1431  -1677  -2004  -2251  -2365  -2429  -2513  -2600  -2658  -2709  -2769  -2801  -2782  -2744  -2723  -2718  -2701  -2642  -2584  -2679  -3013  -3369  -3247  -2079  314  3464  6688  9449  11141  11170  9346  5986  1912  -1630  -3579  -3799  -2989  -2010  -1505  -1684  -2203  -2586  -2692  -2631  -2506  -2351  -2196  -2096  -2080  -2129  -2192  -2185  -2086  -1994  -1991  -2000  -1864  -1572  -1316  -1240  -1306  -1387  -1399  -1338  -1237  -1133  -1060  -987  -826  -544  -220  35  163  189  185  200  248  340  485  657  819  979  1148  1321  1512  1747  1995  2175  2255  2280  2274  2157  1802  1213  578  80  -235  -431  -576  -695  -757  -720  -584  -400  -244  -168  -194  -330  -534  -710  -795  -805  -780  -730  -648  -557  -508  -532  -609  -686  -729  -731  -700  -639  -558  -475  -415  -388  -385  -393  -404  -409  -383  -306  -200  -122  -101  -118  -147  -165  -161  -126  -68  -4  46  74  73  42  -11  -65  -107  -140  -151  -131  -105  -94  -100  -115  -132  -139  -106  -10  120  216  254  264  271  268  241  211  218  292  422  555  640  703  834  1053  1263  1361  1336  1243  1140  1045  965  944  1056  1335  1686  1969  2169  2376  2606  2761  2771  2663  2521  2422  2387  2389  2419  2485  2567  2613  2599  2539  2426  2247  2059  1952  1950  2023  2120  2207  2289  2371  2404  2305  2089  2023  2561  4089  6737  10159  13555  16056  17027  16201  13804  10444  6846  3705  1552  560  578  1227  1950  2329  2354  2242  2139  2079  2070  2110  2169  2201  2195  2171  2142  2119  2111  2109  2104  2096  2109  2185  2310  2378  2375  2472  2744  3052  3285  3437  3516  3566  3655  3793  3921  3995  4021  4028  4065  4177  4371  4597  4821  5068  5324  5511  5590  5607  5639  5754  5965  6189  6300  6235  6008  5672  5315  5026  4774  4434  3964  3427  2884  2418  2125  2007  1946  1808  1525  1179  937  860  861  850  816  791  781  721  542  284  71  -43  -127  -278  -505  -741  -952  -1148  -1344  -1523  -1661  -1758  -1821  -1865  -1921  -2001  -2121  -2313  -2537  -2709  -2849  -3047  -3305  -3529  -3662  -3721  -3733  -3736  -3773  -3862  -4001  -4167  -4287  -4337  -4378  -4440  -4489  -4493  -4434  -4262  -3951  -3583  -3262  -3007  -2797  -2637  -2535  -2475  -2461  -2594  -2991  -3555  -4009  -4224  -4301  -4373  -4471  -4557  -4616  -4667  -4705  -4703  -4683  -4700  -4781  -4929  -5096  -5183  -5113  -4889  -4606  -4402  -4317  -4263  -4169  -4040  -3920  -3830  -3751  -3631  -3420  -3161  -2970  -2890  -2875  -2870  -2852  -2830  -2829  -2880  -3005  -3166  -3274  -3295  -3286  -3349  -3533  -3737  -3803  -3723  -3609  -3518  -3467  -3498  -3705  -4129  -4571  -4745  -4528  -3757  -2222  0  2693  5732  8727  10774  11002  9160  5593  1254  -2462  -4653  -5317  -4881  -3998  -3362  -3182  -3179  -3093  -2906  -2712  -2574  -2472  -2371  -2276  -2194  -2111  -2036  -1995  -1993  -2003  -2026  -2075  -2129  -2151  -2136  -2105  -2081  -2073  -2078  -2086  -2077  -2025  -1928  -1826  -1752  -1691  -1615  -1533  -1471  -1425  -1355  -1169  -778  -255  168  356  373  342  322  316  317  327  354  391  426  459  500  545  545  356  -150  -828  -1360  -1694  -2033  -2467  -2912  -3295  -3596  -3792  -3873  -3864  -3802  -3710  -3594  -3445  -3289  -3203  -3263  -3497  -3882  -4311  -4633  -4790  -4850  -4868  -4834  -4734  -4640  -4674  -4837  -5003  -5095  -5128  -5146  -5163  -5161  -5128  -5094  -5118  -5245  -5453  -5669  -5834  -5937  -5992  -6007  -5996  -6007  -6057  -6118  -6172  -6214  -6235  -6227  -6205  -6200  -6216  -6210  -6152  -6060  -5937  -5753  -5523  -5319  -5186  -5109  -5035  -4889  -4653  -4407  -4245  -4178  -4150  -4085  -3921  -3672  -3428  -3248  -3128  -3046  -2987  -2911  -2775  -2568  -2325  -2108  -1965  -1890  -1843  -1794  -1706  -1538  -1286  -1013  -803  -633  -382  -20  314  485  492  436  468  747  1299  1901  2263  2284  2038  1693  1457  1507  1905  2524  3129  3584  3870  3998  4018  4017  4013  3894  3721  4003  5244  7494  10522  13954  17248  19821  21064  20377  17593  13259  8505  4619  2333  1522  1605  1923  2040  1890  1576  1164  665  160  -189  -344  -429  -550  -682  -759  -774  -759  -726  -655  -552  -458  -404  -383  -368  -308  -137  133  385  525  568  574  585  657  869  1247  1698  2068  2277  2357  2388  2433  2542  2776  3148  3579  3949  4172  4256  4257  4226  4220  4261  4305  4290  4183  4002  3751  3388  2969  2667  2544  2515  2499  2483  2452  2371  2236  2099  2031  2064  2173  2319  2479  2644  2790  2884  2915  2917  2965  3130  3385  3616  3769  3896  4065  4309  4643  5024  5372  5634  5815  5950  6084  6240  6405  6558  6681  6757  6797  6826  6857  6888  6874  6707  6281  5662  5109  4818  4750  4760  4777  4805  4844  4879  4920  5011  5181  5393  5584  5717  5812  5923  6084  6298  6564  6823  6978  6994  6912  6803  6737  6732  6744  6695  6525  6291  6122  6077  6099  6084  5909  5495  4909  4335  3915  3679  3566  3455  3210  2766  2179  1606  1214  1032  939  821  621  288  -157  -583  -870  -1003  -1036  -1044  -1134  -1402  -1804  -2094  -1952  -1097  671  3378  6687  9857  11970  12319  10660  7382  3387  -332  -3009  -4312  -4432  -3885  -3177  -2632  -2356  -2283  -2294  -2324  -2324  -2249  -2113  -1999  -1952  -1952  -1960  -1964  -1968  -1984  -2008  -2013  -1970  -1884  -1780  -1690  -1637  -1621  -1611  -1570  -1494  -1416  -1373  -1361  -1340  -1258  -1090  -887  -739  -679  -671  -656  -562  -354  -95  119  282  450  637  798  886  892  844  785  740  690  587  418  198  -79  -482  -1065  -1748  -2342  -2780  -3154  -3508  -3762  -3873  -3903  -3933  -3988  -4047  -4094  -4138  -4195  -4277  -4380  -4484  -4562  -4605  -4631  -4651  -4670  -4701  -4763  -4844  -4902  -4917  -4902  -4893  -4939  -5080  -5274  -5416  -5457  -5429  -5378  -5330  -5301  -5316  -5392  -5516  -5640  -5720  -5747  -5737  -5710  -5688  -5704  -5793  -5966  -6174  -6332  -6386  -6332  -6205  -6064  -5977  -5994  -6156  -6439  -6718  -6875  -6909  -6888  -6856  -6787  -6644  -6460  -6323  -6252  -6187  -6106  -6049  -6030  -6003  -5909  -5756  -5619  -5540  -5467  -5325  -5131  -4974  -4885  -4840  -4824  -4826  -4804  -4720  -4606  -4537  -4516  -4492  -4456  -4404  -4291  -4113  -3946  -3862  -3843  -3824  -3759  -3659  -3564  -3519  -3595  -3808  -3949  -3638  -2559  -554  2282  5564  8784  11334  12525  11918  9536  5942  2241  -439  -1616  -1538  -872  -262  78  371  861  1534  2178  2596  2792  2936  3140  3422  3819  4352  4919  5373  5724  6134  6669  7209  7598  7791  7848  7840  7790  7675  7491  7281  7094  6924  6717  6459  6197  5978  5809  5675  5579  5533  5541  5592  5662  5721  5765  5824  5924  6055  6179  6270  6324  6336  6269  6066  5730  5353  5021  4738  4468  4177  3821  3383  2897  2381  1842  1321  898  619  425  231  1  -265  -522  -717  -858  -969  -1040  -1074  -1113  -1218  -1440  -1765  -2109  -2392  -2577  -2672  -2703  -2698  -2684  -2695  -2765  -2904  -3084  -3283  -3501  -3717  -3879  -3954  -3956  -3935  -3951  -4037  -4193  -4387  -4555  -4643  -4658  -4648  -4650  -4671  -4714  -4794  -4908  -5013  -5040  -4878  -4453  -3894  -3448  -3198  -3055  -2966  -2933  -2961  -3042  -3142  -3221  -3259  -3243  -3166  -3046  -2917  -2808  -2713  -2566  -2282  -1838  -1310  -830  -468  -203  -9  86  19  -257  -659  -996  -1175  -1250  -1269  -1252  -1233  -1210  -1178  -1187  -1230  -1233  -1192  -1153  -1144  -1181  -1287  -1491  -1795  -2152  -2504  -2837  -3153  -3427  -3665  -3940  -4282  -4669  -5122  -5597  -5931  -6038  -5979  -5845  -5718  -5652  -5592  -5309  -4456  -2826  -486  2373  5383  7866  9082  8543  6129  2314  -1673  -4503  -5629  -5334  -4330  -3417  -3035  -3038  -3061  -2917  -2572  -2059  -1490  -1003  -671  -461  -257  26  352  613  809  1080  1508  1984  2343  2550  2692  2844  3001  3160  3376  3709  4126  4490  4683  4731  4765  4895  5133  5423  5703  5917  6032  6071  6095  6162  6279  6392  6457  6488  6532  6614  6719  6784  6701  6454  6191  6016  5862  5612  5203  4696  4202  3726  3175  2521  1836  1197  650  214  -128  -448  -817  -1215  -1557  -1833  -2108  -2423  -2780  -3146  -3441  -3600  -3686  -3856  -4176  -4556  -4860  -5027  -5089  -5113  -5142  -5193  -5282  -5430  -5624  -5807  -5929  -5986  -6002  -6019  -6085  -6211  -6352  -6471  -6564  -6635  -6664  -6628  -6526  -6382  -6246  -6173  -6164  -6147  -6025  -5744  -5310  -4752  -4100  -3401  -2733  -2165  -1678  -1195  -686  -160  329  713  1048  1481  2008  2473  2814  3125  3521  4032  4592  5095  5476  5757  6013  6319  6704  7106  7432  7697  8022  8433  8801  9025  9085  9006  8849  8672  8498  8339  8186  7993  7706  7353  7037  6814  6666  6550  6408  6209  5992  5800  5649  5549  5500  5470  5444  5428  5406  5294  5003  4595  4256  4073  3986  3934  3882  3788  3580  3213  2777  2446  2265  2125  1957  1803  1713  1684  1690  1720  1778  1817  1730  1541  1542  2226  4029  6968  10540  14022  16626  17568  16397  13267  8951  4723  1816  730  1128  2164  2962  3170  2999  2743  2532  2393  2330  2335  2379  2418  2422  2388  2331  2275  2231  2196  2170  2156  2145  2125  2099  2099  2168  2292  2394  2432  2430  2419  2414  2415  2421  2419  2394  2345  2307  2298  2302  2303  2322  2405  2579  2822  3061  3210  3254  3248  3240  3226  3177  3088  2998  2937  2870  2710  2424  2078  1741  1379  931  420  -114  -640  -1073  -1403  -1791  -2358  -2969  -3380  -3532  -3561  -3594  -3658  -3751  -3896  -4075  -4219  -4310  -4399  -4486  -4529  -4530  -4517  -4497  -4481  -4487  -4506  -4502  -4460  -4438  -4503  -4634  -4772  -4894  -4995  -5066  -5103  -5109  -5084  -5038  -4996  -4982  -4983  -4972  -4933  -4876  -4825  -4801  -4818  -4880  -4987  -5124  -5258  -5357  -5411  -5454  -5536  -5649  -5738  -5774  -5765  -5720  -5660  -5628  -5676  -5821  -6015  -6172  -6245  -6253  -6241  -6233  -6230  -6230  -6235  -6246  -6262  -6280  -6314  -6382  -6483  -6580  -6608  -6519  -6354  -6227  -6204  -6253  -6314  -6352  -6363  -6362  -6353  -6335  -6309  -6294  -6323  -6412  -6515  -6556  -6509  -6379  -6197  -6071  -6093  -6218  -6336  -6387  -6375  -6314  -6199  -6040  -5887  -5779  -5726  -5712  -5709  -5701  -5685  -5661  -5640  -5616  -5570  -5517  -5490  -5516  -5611  -5754  -5897  -6016  -6125  -6241  -6373  -6487  -6526  -6490  -6432  -6384  -6351  -6395  -6633  -7080  -7509  -7607  -7170  -6028  -4068  -1448  1485  4349  6594  7560  6930  4855  1678  -1980  -5232  -7455  -8410  -8049  -6797  -5529  -4798  -4468  -4190  -3875  -3609  -3374  -3012  -2394  -1615  -952  -568  -379  -193  111  543  1092  1759  2445  2975  3312  3576  3857  4164  4480  4804  5151  5554  6044  6531  6848  6959  6974  6976  6985  7012  7066  7171  7362  7591  7751  7808  7833  7933  8211  8677  9217  9675  9965  10118  10220  10317  10377  10357  10254  10090  9914  9787  9717  9671  9593  9349  8819  8124  7560  7220  6907  6398  5669  4936  4424  4102  3789  3440  3129  2862  2551  2143  1699  1342  1137  1037  913  669  354  109  -24  -128  -265  -439  -639  -890  -1218  -1555  -1770  -1829  -1802  -1754  -1736  -1831  -2110  -2472  -2679  -2605  -2358  -2129  -2045  -2205  -2682  -3318  -3781  -3936  -3907  -3827  -3731  -3630  -3556  -3524  -3525  -3542  -3556  -3528  -3425  -3261  -3111  -3035  -3023  -3033  -3028  -2992  -2937  -2894  -2879  -2882  -2861  -2718  -2363  -1849  -1331  -918  -629  -467  -391  -275  18  475  926  1232  1400  1488  1541  1602  1723  1959  2324  2739  3082  3350  3653  4052  4478  4813  5015  5152  5309  5501  5685  5819  5915  6019  6138  6216  6202  6118  6025  5972  5960  5949  5886  5736  5524  5337  5215  5081  4838  4506  4163  3867  3809  4373  5874  8306  11286  14170  16276  17037  16132  13620  9970  6087  2982  1140  472  672  1278  1797  2000  1960  1845  1743  1650  1536  1398  1261  1152  1087  1077  1103  1137  1167  1184  1182  1171  1168  1162  1097  918  676  499  451  499  592  691  756  770  745  696  646  625  648  709  784  876  1006  1151  1246  1268  1255  1246  1260  1304  1372  1454  1537  1587  1557  1413  1190  960  730  433  -7  -600  -1204  -1644  -1869  -1955  -2049  -2283  -2633  -2951  -3172  -3349  -3536  -3704  -3798  -3816  -3808  -3813  -3833  -3860  -3893  -3948  -4042  -4158  -4245  -4285  -4307  -4334  -4356  -4342  -4270  -4162  -4087  -4124  -4309  -4575  -4785  -4875  -4880  -4862  -4870  -4913  -4965  -5004  -5033  -5051  -5057  -5049  -5026  -4995  -4969  -4961  -4980  -5030  -5089  -5121  -5119  -5100  -5085  -5084  -5085  -5066  -5021  -4981  -4984  -5029  -5080  -5129  -5192  -5262  -5308  -5321  -5315  -5309  -5316  -5343  -5381  -5412  -5428  -5430  -5422  -5409  -5397  -5390  -5388  -5387  -5384  -5387  -5409  -5456  -5511  -5549  -5565  -5561  -5525  -5437  -5313  -5218  -5220  -5295  -5345  -5294  -5157  -5006  -4871  -4736  -4597  -4467  -4322  -4089  -3732  -3333  -3031  -2874  -2796  -2690  -2443  -2005  -1467  -999  -680  -454  -271  -135  -25  142  449  882  1332  1731  2147  2627  3069  3340  3428  3456  3603  4051  5055  6876  9493  12647  16014  19100  21215  21812  20682  17932  14147  10425  7803  6583  6395  6714  7023  6916  6464  6049  5849  5757  5613  5340  4964  4594  4357  4287  4310  4337  4338  4344  4381  4409  4355  4208  4045  3918  3803  3680  3576  3502  3447  3415  3408  3401  3368  3307  3237  3198  3241  3387  3571  3678  3660  3575  3501  3465  3460  3504  3634  3831  4020  4145  4198  4206  4205  4214  4217  4157  3954  3555  3022  2491  1999  1496  1007  636  417  270  82  -215  -581  -898  -1077  -1128  -1117  -1097  -1085  -1088  -1127  -1220  -1345  -1451  -1523  -1583  -1628  -1622  -1554  -1458  -1388  -1374  -1414  -1508  -1625  -1708  -1739  -1748  -1754  -1726  -1626  -1482  -1374  -1336  -1335  -1339  -1356  -1412  -1514  -1638  -1751  -1836  -1891  -1904  -1863  -1804  -1793  -1866  -1987  -2079  -2110  -2105  -2092  -2088  -2106  -2160  -2243  -2329  -2404  -2469  -2516  -2525  -2460  -2306  -2114  -1978  -1931  -1935  -1958  -2005  -2083  -2167  -2218  -2226  -2218  -2216  -2222  -2232  -2242  -2252  -2273  -2321  -2398  -2480  -2544  -2581  -2587  -2552  -2455  -2293  -2116  -1987  -1930  -1923  -1935  -1922  -1840  -1689  -1533  -1439  -1417  -1445  -1510  -1589  -1653  -1703  -1763  -1844  -1937  -2023  -2085  -2136  -2215  -2366  -2596  -2829  -2969  -3004  -3004  -3024  -3063  -3105  -3156  -3225  -3262  -3249  -3294  -3422  -3321  -2454  -452  2518  5873  8962  11105  11698  10567  7877  3963  -300  -3627  -5313  -5529  -4797  -3834  -3344  -3447  -3728  -3868  -3866  -3821  -3774  -3714  -3653  -3631  -3666  -3732  -3780  -3789  -3777  -3762  -3741  -3708  -3671  -3639  -3609  -3580  -3560  -3549  -3534  -3496  -3421  -3324  -3249  -3205  -3142  -3015  -2828  -2646  -2520  -2436  -2346  -2241  -2152  -2098  -2048  -1943  -1764  -1546  -1332  -1146  -979  -803  -606  -411  -258  -166  -141  -186  -274  -371  -530  -847  -1272  -1604  -1737  -1742  -1729  -1730  -1697  -1565  -1327  -1043  -772  -543  -356  -189  -6  235  554  944  1362  1733  2042  2366  2738  3076  3299  3408  3461  3500  3524  3532  3553  3573  3570  3572  3579  3555  3519  3472  3375  3235  3107  3028  2996  2999  3019  3037  3034  2967  2800  2574  2379  2248  2162  2119  2125  2165  2193  2143  1966  1688  1400  1180  1043  960  904  833  688  484  307  213  216  290  372  444  541  686  859  1005  1081  1090  1066  1044  1037  1052  1122  1289  1534  1784  1979  2101  2187  2321  2552  2811  2975  3007  2974  2942  2923  2890  2821  2721  2609  2484  2348  2225  2135  2049  1895  1622  1301  1052  886  723  513  269  45  -102  -174  -221  -290  -410  -579  -795  -997  -909  -116  1579  4053  7004  10020  12541  13879  13483  11219  7458  3118  -531  -2608  -3161  -2813  -2181  -1697  -1502  -1483  -1513  -1544  -1573  -1606  -1639  -1648  -1583  -1412  -1188  -1013  -921  -879  -856  -830  -794  -763  -748  -744  -744  -739  -727  -706  -675  -636  -596  -563  -532  -458  -271  37  374  623  749  795  819  844  886  970  1102  1242  1388  1619  1982  2406  2760  2959  3000  2909  2704  2447  2241  2105  1984  1850  1701  1480  1114  635  186  -122  -312  -479  -678  -869  -986  -1029  -1048  -1074  -1097  -1125  -1186  -1284  -1379  -1433  -1449  -1447  -1439  -1419  -1384  -1342  -1311  -1304  -1324  -1370  -1416  -1412  -1352  -1302  -1318  -1386  -1454  -1505  -1554  -1612  -1666  -1700  -1708  -1703  -1691  -1667  -1633  -1590  -1545  -1536  -1562  -1593  -1637  -1716  -1793  -1833  -1836  -1822  -1808  -1807  -1839  -1916  -2013  -2083  -2104  -2079  -1995  -1840  -1663  -1546  -1521  -1567  -1645  -1712  -1739  -1723  -1687  -1651  -1607  -1535  -1447  -1385  -1370  -1392  -1422  -1406  -1296  -1110  -908  -737  -626  -567  -519  -476  -463  -486  -525  -560  -585  -604  -612  -618  -668  -813  -1047  -1307  -1530  -1673  -1723  -1711  -1685  -1677  -1693  -1714  -1735  -1811  -2036  -2385  -2595  -2223  -877  1477  4444  7482  10106  11847  12226  10930  8026  4044  50  -2728  -3779  -3500  -2604  -1752  -1345  -1335  -1448  -1533  -1572  -1575  -1542  -1472  -1385  -1316  -1272  -1244  -1230  -1221  -1188  -1113  -1032  -1000  -1009  -1008  -975  -868  -637  -321  -41  125  192  205  210  245  341  509  730  968  1180  1345  1466  1546  1595  1643  1749  1968  2303  2688  3015  3239  3413  3596  3765  3878  3940  3963  3899  3657  3231  2740  2314  1992  1719  1409  1062  769  584  489  442  399  341  281  251  249  237  195  116  -12  -156  -246  -265  -254  -258  -302  -374  -437  -467  -468  -460  -460  -471  -485  -495  -494  -491  -493  -489  -455  -397  -369  -437  -620  -862  -1068  -1188  -1231  -1224  -1200  -1190  -1194  -1198  -1201  -1213  -1241  -1288  -1342  -1404  -1467  -1488  -1433  -1343  -1283  -1265  -1268  -1281  -1321  -1410  -1525  -1610  -1638  -1619  -1557  -1450  -1314  -1177  -1076  -1052  -1120  -1243  -1347  -1393  -1394  -1376  -1356  -1340  -1332  -1350  -1414  -1515  -1609  -1669  -1701  -1688  -1555  -1233  -781  -369  -122  -24  -1  -25  -111  -250  -386  -471  -499  -492  -480  -477  -493  -539  -623  -741  -869  -987  -1096  -1210  -1334  -1462  -1573  -1644  -1661  -1630  -1562  -1534  -1694  -2046  -2227  -1706  -195  2248  5312  8493  11222  12967  13233  11731  8654  4681  840  -1905  -3169  -3159  -2437  -1681  -1272  -1175  -1210  -1260  -1298  -1334  -1363  -1366  -1314  -1191  -1027  -883  -795  -747  -690  -598  -480  -372  -308  -295  -304  -286  -189  -9  178  297  351  423  577  773  912  972  1014  1102  1242  1415  1607  1803  1968  2085  2163  2225  2341  2609  3025  3435  3687  3785  3802  3763  3674  3577  3508  3443  3316  3085  2750  2313  1803  1314  943  697  525  392  291  217  153  70  -45  -164  -224  -202  -141  -95  -76  -71  -66  -70  -112  -224  -407  -595  -686  -634  -478  -303  -187  -144  -134  -129  -145  -223  -382  -571  -704  -752  -752  -744  -740  -740  -739  -738  -745  -767  -802  -842  -893  -949  -990  -1003  -995  -985  -1001  -1061  -1146  -1210  -1239  -1254  -1279  -1314  -1345  -1371  -1401  -1414  -1387  -1347  -1344  -1397  -1483  -1559  -1604  -1623  -1625  -1611  -1580  -1535  -1489  -1453  -1436  -1442  -1481  -1555  -1642  -1693  -1680  -1619  -1552  -1508  -1490  -1486  -1488  -1489  -1467  -1389  -1246  -1086  -984  -948  -897  -790  -692  -656  -663  -680  -695  -691  -634  -515  -404  -352  -316  -284  -318  -413  -496  -539  -580  -681  -878  -1140  -1386  -1543  -1590  -1547  -1471  -1456  -1535  -1649  -1797  -1997  -2079  -1788  -899  818  3411  6581  9863  12705  14287  13871  11433  7612  3419  77  -1672  -2035  -1654  -1084  -693  -574  -584  -590  -575  -567  -576  -584  -552  -442  -264  -96  4  64  147  288  457  566  574  531  500  488  478  473  513  636  806  933  958  890  778  691  675  756  975  1339  1749  2068  2229  2268  2261  2254  2251  2248  2255  2297  2410  2620  2914  3195  3329  3279  3136  2989  2820  2579  2289  1998  1680  1280  824  388  10  -291  -501  -622  -675  -700  -735  -784  -833  -873  -895  -890  -864  -824  -778  -747  -751  -796  -864  -920  -946  -956  -959  -959  -952  -942  -932  -928  -938  -971  -1020  -1062  -1087  -1077  -999  -843  -665  -547  -522  -560  -623  -701  -797  -903  -1001  -1054  -1048  -1013  -986  -972  -966  -973  -1016  -1115  -1236  -1323  -1356  -1356  -1336  -1287  -1214  -1147  -1118  -1135  -1171  -1202  -1220  -1230  -1241  -1266  -1307  -1353  -1386  -1407  -1430  -1451  -1455  -1448  -1447  -1449  -1426  -1347  -1231  -1137  -1098  -1096  -1099  -1090  -1066  -1033  -1014  -1022  -1041  -1063  -1126  -1268  -1447  -1556  -1542  -1451  -1355  -1264  -1135  -967  -813  -706  -637  -578  -503  -417  -350  -326  -359  -463  -613  -739  -800  -815  -848  -968  -1172  -1373  -1503  -1579  -1635  -1673  -1678  -1651  -1612  -1599  -1668  -1853  -2082  -2218  -2135  -1571  -133  2322  5522  8910  11700  13101  12728  10710  7461  3597  32  -2353  -3330  -3281  -2712  -2062  -1643  -1517  -1536  -1544  -1495  -1421  -1370  -1357  -1347  -1296  -1199  -1092  -1015  -979  -976  -988  -997  -1003  -1002  -942  -757  -477  -214  -27  119  255  355  388  376  383  486  720  1027  1298  1455  1506  1508  1527  1628  1860  2178  2466  2675  2861  3075  3300  3497  3666  3806  3881  3856  3724  3505  3264  3073  2904  2663  2326  1937  1552  1216  934  684  442  176  -85  -263  -333  -359  -400  -461  -516  -548  -576  -626  -685  -714  -674  -549  -387  -263  -198  -182  -230  -367  -552  -691  -743  -739  -717  -704  -722  -777  -855  -931  -993  -1041  -1061  -1026  -921  -779  -658  -586  -551  -536  -555  -634  -784  -958  -1075  -1111  -1102  -1084  -1072  -1076  -1110  -1161  -1188  -1164  -1098  -1020  -952  -907  -899  -953  -1079  -1235  -1344  -1385  -1403  -1431  -1440  -1397  -1324  -1261  -1214  -1176  -1136  -1081  -1024  -987  -975  -975  -976  -970  -961  -953  -951  -952  -955  -956  -948  -921  -871  -803  -733  -663  -544  -318  -13  263  425  476  470  438  365  252  148  94  84  90  100  119  143  120  -40  -369  -737  -970  -1031  -997  -935  -866  -815  -831  -953  -1158  -1349  -1339  -852  362  2398  5156  8250  11083  13091  13751  12658  9889  6070  2134  -902  -2453  -2715  -2294  -1651  -1033  -622  -480  -502  -547  -566  -577  -602  -635  -650  -637  -607  -557  -459  -294  -105  22  63  56  41  20  -6  -23  0  74  194  347  512  667  790  874  915  935  971  1048  1149  1241  1324  1433  1582  1731  1846  1956  2124  2358  2590  2763  2872  2928  2942  2920  2855  2748  2607  2427  2205  1936  1577  1089  545  110  -130  -236  -311  -395  -478  -543  -583  -598  -595  -589  -607  -668  -757  -835  -884  -913  -928  -931  -913  -864  -782  -690  -610  -540  -482  -478  -561  -689  -760  -715  -580  -423  -300  -257  -320  -467  -631  -746  -794  -794  -775  -761  -786  -851  -915  -944  -949  -954  -967  -985  -1017  -1090  -1202  -1305  -1360  -1373  -1367  -1358  -1350  -1354  -1386  -1450  -1526  -1580  -1581  -1535  -1474  -1419  -1377  -1356  -1356  -1372  -1393  -1410  -1417  -1423  -1436  -1464  -1504  -1540  -1556  -1537  -1475  -1404  -1366  -1353  -1327  -1278  -1232  -1210  -1207  -1209  -1209  -1214  -1238  -1290  -1352  -1383  -1355  -1282  -1205  -1153  -1118  -1059  -945  -803  -674  -552  -421  -300  -214  -160  -125  -99  -90  -122  -212  -329  -418  -465  -489  -513  -553  -601  -629  -626  -629  -702  -889  -1145  -1368  -1499  -1552  -1562  -1576  -1651  -1806  -1958  -1991  -1757  -961  694  3206  6294  9528  12271  13751  13371  11044  7306  3167  -215  -2091  -2575  -2337  -1905  -1542  -1398  -1439  -1503  -1494  -1403  -1266  -1133  -1043  -1004  -995  -982  -942  -892  -861  -841  -816  -792  -780  -759  -691  -569  -439  -337  -237  -104  36  136  196  236  262  280  304  330  349  384  484  678  929  1150  1279  1335  1383  1467  1601  1799  2058  2327  2533  2657  2726  2747  2700  2581  2413  2219  1983  1659  1222  702  152  -341  -679  -835  -878  -886  -912  -986  -1094  -1191  -1250  -1272  -1275  -1269  -1251  -1212  -1162  -1126  -1110  -1094  -1062  -1015  -967  -931  -902  -860  -797  -719  -649  -610  -605  -600  -534  -358  -98  131  272  371  483  601  699  769  815  851  871  853  769  611  402  209  90  81  177  317  420  459  454  421  353  247  111  -54  -222  -339  -407  -479  -561  -602  -563  -472  -386  -335  -313  -301  -282  -267  -271  -280  -255  -178  -104  -137  -303  -502  -606  -577  -471  -362  -287  -244  -224  -229  -270  -342  -420  -476  -493  -480  -462  -457  -463  -451  -395  -303  -211  -145  -97  -25  105  285  456  568  614  611  556  438  274  105  -45  -179  -293  -372  -427  -492  -577  -665  -733  -773  -794  -816  -870  -980  -1114  -1211  -1297  -1479  -1761  -1920  -1599  -488  1544  4371  7622  10728  13000  13774  12646  9736  5710  1664  -1294  -2696  -2819  -2287  -1734  -1486  -1464  -1495  -1510  -1511  -1506  -1496  -1477  -1451  -1430  -1400  -1308  -1127  -913  -758  -691  -683  -698  -715  -728  -739  -740  -704  -605  -456  -315  -225  -191  -193  -198  -148  14  272  516  650  680  673  681  723  790  876  1021  1287  1683  2108  2415  2554  2595  2606  2604  2589  2558  2489  2364  2199  2030  1832  1541  1155  727  262  -196  -533  -721  -856  -999  -1123  -1184  -1187  -1172  -1163  -1150  -1109  -1049  -1007  -1007  -1031  -1042  -1036  -1049  -1090  -1135  -1176  -1215  -1243  -1257  -1264  -1268  -1270  -1259  -1217  -1145  -1070  -1034  -1054  -1106  -1165  -1219  -1251  -1249  -1221  -1188  -1149  -1091  -1025  -975  -944  -931  -951  -1028  -1167  -1324  -1437  -1483  -1473  -1435  -1401  -1385  -1383  -1386  -1389  -1395  -1399  -1395  -1376  -1343  -1309  -1292  -1298  -1315  -1328  -1336  -1339  -1343  -1342  -1325  -1286  -1250  -1255  -1305  -1358  -1388  -1392  -1361  -1274  -1134  -999  -911  -845  -747  -616  -502  -431  -362  -234  -53  104  173  127  -27  -240  -440  -617  -795  -949  -1039  -1073  -1081  -1071  -1058  -1099  -1207  -1314  -1377  -1406  -1410  -1390  -1380  -1434  -1506  -1326  -491  1302  4021  7230  10257  12416  13110  11978  9191  5413  1537  -1414  -2788  -2843  -2295  -1648  -1165  -965  -975  -1035  -1065  -1070  -1069  -1073  -1078  -1070  -1034  -969  -889  -813  -723  -583  -415  -297  -261  -270  -284  -294  -305  -311  -277  -164  3  154  252  322  394  462  516  589  725  933  1197  1481  1731  1895  1973  2008  2058  2162  2322  2521  2734  2935  3101  3239  3345  3359  3207  2916  2605  2330  2025  1653  1254  855  489  210  10  -175  -359  -501  -581  -626  -672  -734  -805  -871  -908  -892  -817  -724  -673  -677  -699  -716  -740  -789  -856  -911  -943  -956  -945  -885  -756  -589  -438  -325  -248  -204  -198  -237  -329  -459  -581  -653  -682  -714  -778  -855  -900  -873  -757  -595  -461  -382  -349  -371  -439  -507  -517  -462  -399  -400  -463  -515  -519  -493  -469  -467  -494  -558  -672  -812  -911  -933  -895  -839  -801  -794  -800  -765  -632  -420  -220  -81  30  137  208  205  128  17  -67  -101  -102  -83  -39  23  72  68  1  -89  -147  -173  -231  -375  -566  -708  -755  -739  -695  -652  -661  -776  -990  -1220  -1401  -1518  -1513  -1136  34  2225  5196  8431  11310  13194  13615  12405  9730  6066  2243  -742  -2379  -2831  -2476  -1798  -1296  -1108  -1038  -946  -851  -805  -795  -779  -751  -736  -737  -733  -696  -616  -522  -467  -474  -513  -549  -572  -582  -554  -450  -268  -53  130  235  264  255  245  240  239  248  307  462  693  909  1040  1077  1053  1040  1125  1353  1674  1977  2198  2334  2409  2451  2473  2451  2351  2183  2003  1863  1745  1568  1265  837  330  -202  -674  -1014  -1234  -1383  -1465  -1488  -1484  -1480  -1484  -1493  -1501  -1508  -1534  -1595  -1659  -1677  -1653  -1633  -1639  -1651  -1626  -1555  -1483  -1468  -1534  -1662  -1796  -1887  -1922  -1903  -1834  -1740  -1664  -1636  -1679  -1815  -2011  -2172  -2236  -2191  -2045  -1853  -1720  -1719  -1854  -2055  -2217  -2279  -2224  -2051  -1823  -1659  -1622  -1689  -1806  -1921  -1989  -2000  -1977  -1958  -1963  -1993  -2035  -2072  -2100  -2130  -2171  -2216  -2251  -2276  -2294  -2306  -2310  -2310  -2308  -2306  -2303  -2299  -2287  -2244  -2139  -1945  -1679  -1434  -1302  -1299  -1383  -1492  -1569  -1600  -1606  -1638  -1743  -1903  -2037  -2105  -2161  -2292  -2525  -2799  -3011  -3111  -3129  -3131  -3151  -3184  -3210  -3225  -3259  -3372  -3612  -3895  -3938  -3405  -2088  65  2915  6068  9025  11226  12029  11030  8358  4572  643  -2282  -3641  -3712  -3099  -2350  -1841  -1627  -1520  -1363  -1108  -767  -396  -12  470  1056  1583  1956  2252  2554  2834  3010  3063  3047  3013  2998  3057  3236  3482  3671  3749  3751  3690  3547  3356  3213  3169  3202  3270  3349  3423  3486  3528  3547  3551  3557  3595  3693  3842  3979  4054  4084  4130  4227  4345  4426  4456  4459  4444  4384  4243  3987  3586  3039  2441  1931  1567  1312  1119  927  672  384  178  77  15  -34  -49  -20  25  59  78  103  145  196  244  267  240  157  22  -125  -230  -276  -287  -283  -263  -230  -197  -184  -183  -186  -213  -272  -329  -354  -358  -376  -443  -549  -636  -663  -642  -616  -629  -697  -783  -847  -877  -885  -886  -897  -940  -1045  -1192  -1304  -1320  -1264  -1203  -1169  -1144  -1115  -1101  -1124  -1181  -1243  -1281  -1293  -1291  -1289  -1310  -1376  -1470  -1546  -1576  -1569  -1549  -1520  -1468  -1385  -1275  -1142  -993  -833  -673  -540  -452  -407  -411  -473  -560  -624  -651  -656  -665  -701  -775  -868  -943  -997  -1081  -1238  -1447  -1654  -1819  -1921  -1966  -1992  -2028  -2071  -2103  -2140  -2221  -2303  -2160  -1486  -92  2078  4951  8184  11188  13256  13693  12152  8864  4609  597  -2077  -3127  -2992  -2306  -1624  -1278  -1255  -1334  -1377  -1404  -1454  -1534  -1634  -1719  -1752  -1723  -1647  -1553  -1460  -1367  -1265  -1166  -1098  -1049  -990  -932  -895  -861  -822  -787  -723  -578  -382  -231  -146  -63  49  167  281  417  583  756  901  995  1058  1141  1267  1413  1550  1702  1919  2193  2438  2586  2628  2587  2491  2352  2156  1888  1559  1193  819  466  121  -254  -627  -902  -1048  -1127  -1190  -1231  -1243  -1257  -1300  -1368  -1425  -1455  -1465  -1465  -1455  -1430  -1388  -1329  -1242  -1138  -1089  -1148  -1263  -1348  -1378  -1355  -1274  -1156  -1075  -1055  -1024  -934  -840  -823  -880  -941  -943  -883  -809  -785  -834  -936  -1039  -1082  -1085  -1086  -1043  -938  -836  -775  -732  -699  -702  -741  -780  -798  -799  -792  -785  -797  -855  -968  -1110  -1247  -1357  -1427  -1466  -1482  -1457  -1354  -1195  -1058  -994  -986  -995  -1007  -1025  -1037  -979  -774  -454  -172  -44  -61  -163  -288  -379  -412  -403  -384  -373  -378  -431  -579  -821  -1084  -1278  -1370  -1390  -1392  -1397  -1402  -1403  -1415  -1431  -1384  -1252  -1157  -1194  -1211  -878  151  2074  4784  7862  10702  12668  13217  12045  9280  5521  1704  -1176  -2604  -2777  -2243  -1502  -906  -591  -482  -446  -429  -436  -482  -554  -614  -636  -622  -587  -524  -417  -284  -184  -144  -134  -121  -94  -55  -5  57  141  246  327  352  346  367  450  572  668  702  693  678  698  781  916  1059  1190  1339  1560  1843  2104  2278  2378  2446  2520  2595  2637  2627  2591  2546  2447  2211  1788  1249  765  469  342  259  95  -185  -519  -816  -1034  -1182  -1273  -1327  -1374  -1428  -1479  -1518  -1538  -1515  -1433  -1324  -1242  -1207  -1197  -1190  -1168  -1124  -1064  -1005  -967  -952  -946  -944  -958  -1001  -1063  -1112  -1130  -1114  -1048  -923  -777  -679  -648  -647  -653  -667  -684  -688  -666  -633  -620  -626  -641  -671  -714  -746  -757  -755  -750  -749  -760  -786  -803  -781  -725  -676  -652  -637  -610  -565  -520  -499  -519  -583  -679  -785  -874  -905  -859  -774  -709  -693  -712  -728  -671  -485  -222  -14  62  23  -102  -276  -434  -528  -554  -536  -502  -487  -535  -649  -777  -870  -922  -955  -995  -1062  -1158  -1262  -1355  -1424  -1462  -1481  -1529  -1620  -1541  -843  821  3411  6526  9553  11889  13016  12484  10202  6625  2632  -670  -2513  -2919  -2405  -1600  -1037  -862  -882  -921  -941  -954  -964  -959  -916  -810  -638  -449  -325  -291  -313  -351  -383  -393  -341  -196  -2  142  197  202  202  219  252  282  315  399  565  759  895  955  985  1022  1085  1181  1294  1391  1474  1603  1832  2113  2349  2516  2636  2717  2760  2783  2802  2829  2826  2709  2434  2065  1706  1407  1121  759  311  -129  -477  -714  -876  -1028  -1195  -1345  -1443  -1469  -1424  -1353  -1318  -1338  -1374  -1396  -1418  -1454  -1503  -1560  -1619  -1665  -1681  -1630  -1480  -1276  -1130  -1101  -1167  -1266  -1340  -1366  -1349  -1290  -1196  -1080  -966  -876  -819  -792  -784  -788  -796  -803  -811  -832  -865  -892  -894  -872  -855  -867  -892  -906  -908  -908  -904  -878  -811  -724  -661  -635  -611  -581  -590  -675  -788  -852  -849  -808  -772  -762  -774  -793  -801  -795  -789  -791  -789  -778  -790  -861  -975  -1071  -1107  -1080  -1002  -904  -827  -778  -721  -634  -545  -483  -428  -344  -236  -111  75  344  607  749  728  558  313  103  -25  -112  -206  -303  -369  -390  -384  -383  -417  -510  -655  -807  -925  -989  -991  -947  -933  -1058  -1353  -1664  -1799  -1674  -1184  -119  1710  4357  7611  10885  13314  14062  12721  9588  5540  1680  -1038  -2244  -2257  -1737  -1245  -1023  -1021  -1094  -1164  -1209  -1232  -1246  -1264  -1282  -1284  -1257  -1200  -1134  -1085  -1053  -1012  -951  -881  -816  -763  -732  -709  -669  -598  -504  -404  -325  -288  -286  -286  -250  -158  -16  163  351  512  625  703  778  905  1111  1342  1512  1604  1671  1742  1831  1976  2204  2456  2638  2715  2687  2528  2223  1834  1465  1175  949  738  493  165  -256  -707  -1057  -1225  -1252  -1232  -1217  -1204  -1174  -1128  -1085  -1066  -1099  -1216  -1394  -1553  -1624  -1571  -1390  -1150  -979  -931  -963  -1011  -1041  -1048  -1042  -1034  -1034  -1063  -1132  -1227  -1311  -1360  -1379  -1376  -1360  -1343  -1334  -1323  -1298  -1266  -1244  -1244  -1287  -1390  -1510  -1547  -1435  -1209  -976  -816  -724  -673  -649  -642  -640  -637  -627  -613  -607  -617  -639  -653  -624  -517  -355  -207  -118  -84  -96  -158  -269  -388  -464  -485  -472  -428  -346  -249  -189  -192  -233  -276  -306  -321  -333  -347  -363  -363  -330  -299  -343  -467  -590  -660  -691  -713  -741  -772  -779  -744  -657  -519  -362  -239  -181  -172  -180  -192  -208  -214  -166  -21  178  307  275  94  -136  -311  -388  -408  -427  -462  -496  -523  -583  -738  -982  -1214  -1341  -1363  -1334  -1289  -1243  -1218  -1242  -1350  -1553  -1814  -2005  -1915  -1328  -37  2107  5042  8388  11512  13653  14110  12599  9455  5417  1486  -1307  -2571  -2660  -2108  -1395  -907  -727  -696  -687  -676  -675  -677  -671  -654  -640  -641  -626  -554  -456  -391  -371  -374  -381  -367  -301  -179  -31  104  205  261  279  280  299  349  400  414  415  445  507  598  705  781  821  873  949  1036  1141  1271  1418  1592  1815  2065  2279  2413  2479  2490  2458  2427  2430  2431  2340  2060  1570  978  459  123  -20  -44  -49  -124  -298  -517  -700  -801  -836  -835  -809  -764  -718  -690  -683  -693  -716  -754  -801  -848  -899  -951  -967  -919  -820  -703  -597  -524  -478  -433  -391  -372  -379  -402  -427  -443  -449  -449  -438  -407  -362  -320  -294  -306  -382  -518  -659  -736  -714  -627  -571  -611  -705  -776  -793  -785  -779  -770  -732  -671  -615  -586  -583  -590  -592  -583  -556  -499  -434  -425  -513  -653  -759  -802  -819  -832  -805  -718  -611  -520  -453  -421  -435  -474  -505  -519  -524  -527  -529  -522  -507  -488  -466  -434  -392  -355  -341  -349  -363  -367  -359  -330  -245  -94  71  175  205  197  186  178  170  156  129  64  -60  -218  -352  -431  -477  -539  -661  -827  -980  -1085  -1149  -1178  -1177  -1160  -1149  -1168  -1244  -1419  -1671  -1808  -1533  -548  1335  3956  6842  9543  11599  12435  11682  9396  5969  2168  -969  -2784  -3360  -3118  -2469  -1795  -1321  -1052  -921  -869  -846  -818  -777  -725  -671  -625  -593  -567  -534  -476  -378  -239  -99  -11  11  -2  -26  -48  -51  -2  130  323  515  656  735  774  801  825  850  881  923  981  1062  1186  1367  1585  1771  1875  1922  1973  2060  2190  2366  2552  2682  2736  2751  2750  2695  2519  2207  1834  1525  1331  1134  764  233  -258  -571  -706  -732  -721  -705  -688  -681  -710  -799  -923  -1025  -1082  -1109  -1109  -1063  -966  -833  -701  -624  -653  -803  -1009  -1161  -1215  -1200  -1138  -1023  -853  -667  -527  -461  -453  -495  -593  -721  -817  -855  -852  -820  -755  -688  -671  -718  -784  -829  -835  -820  -828  -868  -909  -943  -977  -1005  -1024  -1045  -1087  -1152  -1201  -1191  -1124  -1013  -881  -769  -710  -699  -722  -770  -832  -904  -982  -1034  -1029  -994  -971  -970  -980  -988  -973  -911  -804  -683  -581  -520  -496  -491  -495  -526  -596  -666  -672  -611  -538  -469  -373  -243  -113  -10  55  92  123  153  171  179  183  180  152  72  -90  -335  -594  -783  -892  -959  -1013  -1050  -1066  -1073  -1093  -1138  -1200  -1278  -1407  -1587  -1658  -1362  -519  965  3134  5826  8615  11011  12543  12673  11049  7884  3914  234  -2103  -2809  -2452  -1820  -1402  -1281  -1292  -1272  -1177  -1054  -969  -957  -1021  -1142  -1294  -1432  -1500  -1467  -1339  -1144  -921  -734  -637  -610  -588  -536  -462  -383  -295  -163  40  266  417  463  449  423  411  445  550  704  858  1027  1259  1541  1806  2010  2156  2260  2342  2435  2577  2761  2946  3098  3196  3221  3174  3032  2730  2260  1725  1232  851  627  506  319  -75  -615  -1067  -1277  -1285  -1200  -1105  -1043  -1030  -1067  -1156  -1274  -1376  -1434  -1453  -1447  -1413  -1349  -1278  -1232  -1218  -1219  -1224  -1225  -1224  -1222  -1220  -1224  -1237  -1255  -1268  -1273  -1273  -1274  -1273  -1259  -1229  -1197  -1182  -1184  -1170  -1095  -959  -826  -752  -739  -757  -779  -790  -791  -788  -789  -795  -795  -768  -698  -610  -545  -522  -534  -579  -654  -749  -838  -893  -908  -902  -900  -908  -924  -940  -959  -988  -1004  -987  -957  -939  -928  -914  -902  -906  -924  -928  -896  -834  -773  -728  -685  -636  -605  -619  -683  -765  -815  -809  -770  -731  -690  -606  -435  -181  82  262  323  289  180  7  -188  -351  -453  -495  -492  -470  -476  -579  -813  -1098  -1307  -1407  -1446  -1456  -1427  -1361  -1294  -1249  -1203  -1171  -1243  -1423  -1449  -887  556  2867  5792  8921  11697  13517  13844  12326  9064  4831  861  -1715  -2520  -2056  -1207  -660  -622  -880  -1133  -1254  -1268  -1225  -1165  -1115  -1104  -1141  -1171  -1113  -947  -748  -623  -610  -641  -647  -629  -606  -582  -543  -475  -385  -302  -255  -235  -190  -84  70  224  325  363  382  435  528  620  675  721  853  1138  1500  1791  1961  2086  2250  2472  2704  2880  2972  3003  2998  2945  2775  2437  2010  1621  1241  785  315  -29  -216  -328  -467  -678  -931  -1139  -1244  -1271  -1273  -1267  -1247  -1228  -1243  -1303  -1388  -1474  -1546  -1593  -1608  -1592  -1546  -1485  -1426  -1365  -1295  -1233  -1189  -1135  -1046  -950  -881  -853  -873  -929  -981  -1010  -1021  -1022  -1001  -944  -866  -807  -789  -811  -872  -968  -1073  -1139  -1134  -1068  -978  -904  -868  -859  -857  -858  -893  -989  -1120  -1220  -1270  -1293  -1294  -1262  -1212  -1176  -1162  -1168  -1202  -1271  -1357  -1418  -1437  -1429  -1413  -1405  -1432  -1517  -1635  -1720  -1726  -1662  -1575  -1510  -1456  -1370  -1254  -1154  -1099  -1084  -1087  -1078  -1031  -942  -849  -793  -775  -750  -682  -572  -447  -342  -301  -349  -457  -571  -654  -697  -714  -722  -730  -737  -737  -727  -730  -789  -941  -1155  -1340  -1427  -1412  -1309  -1161  -1115  -1258  -1344  -865  624  3254  6660  10078  12719  13949  13393  11157  7706  3724  229  -1867  -2498  -2197  -1483  -809  -489  -488  -600  -700  -751  -759  -752  -743  -700  -589  -438  -324  -285  -296  -322  -341  -341  -307  -230  -111  18  118  195  291  421  557  659  715  752  793  833  867  901  942  993  1052  1113  1168  1229  1334  1495  1675  1860  2082  2339  2580  2773  2914  2999  3036  3042  3033  3017  2982  2878  2638  2228  1675  1044  419  -83  -395  -546  -619  -682  -759  -856  -1001  -1195  -1379  -1488  -1515  -1483  -1405  -1308  -1240  -1223  -1234  -1238  -1194  -1067  -884  -726  -651  -638]
