reading_id,reading_time,wire_id,result_classification,heart_rate,heart_rate_alert,firmware_version,device_app_version,hardware_version,waveform_samples
8e5894a0-566c-11ed-8080-808080808080,Fri Oct 28 02:59:36 UTC 2022,0101e39b1d39,NSR,77,NONE,20001.171.50,2.10.0,Charge 5,[-327  -348  -385  -411  -353  -152  154  448  667  823  879  790  638  528  472  460  511  626  762  859  887  836  709  567  476  344  -134  -1210  -2643  -3793  -4323  -4444  -4505  -4689  -5003  -5324  -5564  -5747  -5880  -5903  -5793  -5656  -5666  -5854  -6103  -6338  -6548  -6736  -6829  -6645  -6180  -5717  -5485  -5455  -5498  -5557  -5682  -5946  -6311  -6634  -6792  -6727  -6490  -6258  -6174  -6244  -6437  -6747  -7185  -7783  -8508  -9102  -9159  -8444  -7005  -5031  -2699  -310  1713  3009  2999  1047  -2874  -7955  -12587  -15106  -14926  -12660  -9523  -6672  -4540  -2774  -825  1473  3730  5439  6530  7291  8110  9416  11264  13132  14520  15427  16088  16568  16768  16666  16389  16089  15859  15733  15703  15717  15659  15371  14769  13946  13105  12437  12027  11840  11767  11676  11486  11233  11025  10922  10864  10739  10519  10273  10065  9882  9651  9317  8913  8517  8176  7916  7743  7628  7544  7427  7096  6317  5084  3746  2745  2230  1983  1711  1310  818  298  -129  -365  -451  -512  -620  -757  -855  -889  -919  -1047  -1337  -1703  -1968  -2111  -2277  -2530  -2799  -3040  -3250  -3362  -3322  -3190  -3069  -3012  -3009  -3016  -2983  -2892  -2779  -2702  -2740  -2952  -3268  -3544  -3720  -3831  -3892  -3848  -3663  -3407  -3194  -3083  -3061  -3120  -3308  -3649  -4013  -4199  -4177  -4065  -3959  -3916  -3945  -4007  -4069  -4093  -4066  -4028  -4013  -4022  -4032  -4002  -3895  -3722  -3490  -3165  -2797  -2536  -2442  -2441  -2449  -2423  -2326  -2126  -1830  -1487  -1155  -892  -735  -667  -640  -611  -537  -399  -255  -238  -455  -857  -1241  -1451  -1504  -1493  -1470  -1440  -1415  -1418  -1438  -1437  -1435  -1583  -1991  -2348  -1992  -518  1973  4964  7638  9327  9753  8794  6591  3719  889  -1291  -2481  -2800  -2610  -2208  -1829  -1613  -1520  -1436  -1299  -1160  -1112  -1160  -1226  -1263  -1270  -1234  -1146  -1029  -920  -825  -729  -642  -578  -522  -463  -407  -353  -292  -221  -137  -32  93  222  314  352  364  379  388  388  424  548  753  976  1198  1452  1747  2021  2204  2316  2438  2626  2858  3061  3194  3265  3284  3219  3010  2682  2348  2097  1905  1617  1097  457  -47  -328  -508  -742  -1061  -1356  -1546  -1664  -1777  -1912  -2036  -2097  -2087  -2057  -2046  -2061  -2074  -2027  -1864  -1619  -1415  -1329  -1329  -1359  -1404  -1484  -1594  -1690  -1731  -1716  -1659  -1567  -1435  -1289  -1186  -1153  -1158  -1166  -1174  -1209  -1272  -1313  -1302  -1271  -1260  -1262  -1251  -1220  -1183  -1163  -1180  -1255  -1371  -1460  -1492  -1489  -1480  -1476  -1474  -1471  -1463  -1445  -1418  -1392  -1380  -1377  -1369  -1350  -1342  -1362  -1410  -1468  -1481  -1427  -1357  -1309  -1246  -1085  -785  -440  -202  -116  -128  -207  -363  -577  -765  -843  -784  -626  -454  -349  -349  -457  -641  -820  -931  -975  -976  -940  -876  -813  -765  -734  -784  -973  -1186  -1151  -510  1047  3503  6397  9036  10779  11212  10166  7816  4732  1734  -370  -1332  -1563  -1445  -1143  -871  -722  -623  -548  -514  -519  -541  -550  -509  -382  -195  -49  0  -7  -20  -7  32  77  121  182  257  320  367  408  442  465  481  518  624  829  1111  1394  1594  1689  1729  1760  1792  1833  1908  2022  2180  2408  2699  2994  3252  3471  3637  3735  3802  3890  4005  4086  4044  3819  3471  3168  2981  2764  2313  1598  799  167  -160  -234  -206  -212  -343  -593  -845  -989  -1023  -1010  -983  -937  -877  -824  -792  -784  -797  -813  -817  -815  -825  -858  -907  -952  -1001  -1070  -1146  -1196  -1204  -1173  -1115  -1052  -997  -948  -925  -943  -968  -955  -920  -895  -878  -846  -800  -791  -846  -919  -972  -1021  -1074  -1116  -1139  -1141  -1143  -1165  -1206  -1260  -1325  -1376  -1378  -1308  -1173  -1028  -940  -917  -922  -925  -925  -944  -998  -1063  -1088  -1064  -1031  -1019  -1022  -1032  -1065  -1120  -1141  -1051  -881  -750  -707  -695  -633  -474  -247  -29  123  201  215  173  78  -45  -157  -235  -258  -220  -175  -173  -208  -248  -286  -353  -493  -715  -979  -1224  -1426  -1577  -1650  -1595  -1446  -1378  -1492  -1646  -1525  -727  958  3326  6001  8542  10313  10766  9732  7363  4163  1056  -1025  -1814  -1706  -1234  -804  -649  -761  -965  -1144  -1282  -1362  -1354  -1252  -1103  -988  -945  -955  -991  -1036  -1079  -1095  -1046  -923  -761  -615  -529  -499  -476  -424  -353  -294  -230  -106  86  278  373  349  286  283  393  596  795  907  972  1140  1498  1936  2252  2381  2430  2518  2673  2828  2922  2970  3031  3116  3187  3213  3187  3079  2791  2246  1564  1006  664  363  -59  -520  -838  -983  -1030  -1015  -957  -905  -895  -924  -969  -1001  -1004  -978  -938  -905  -888  -882  -882  -877  -845  -788  -734  -703  -687  -665  -612  -525  -435  -377  -350  -351  -415  -575  -761  -843  -798  -719  -662  -604  -529  -458  -409  -375  -373  -441  -564  -669  -709  -703  -679  -652  -622  -588  -550  -513  -489  -482  -500  -555  -634  -730  -859  -953  -913  -744  -549  -429  -414  -455  -483  -483  -479  -505  -579  -664  -697  -679  -660  -677  -723  -747  -699  -587  -465  -387  -350  -313  -278  -297  -403  -555  -686  -759  -722  -548  -339  -189  -78  11  79  154  240  299  315  296  247  155  15  -154  -334  -498  -613  -673  -711  -749  -784  -826  -895  -980  -1055  -1137  -1261  -1427  -1607  -1782  -1933  -1919  -1396  -32  2159  4780  7347  9493  10821  10839  9266  6294  2627  -538  -2189  -2382  -1914  -1422  -1153  -1095  -1119  -1136  -1129  -1121  -1138  -1188  -1245  -1262  -1186  -998  -766  -596  -529  -527  -543  -553  -554  -542  -509  -451  -383  -322  -250  -132  9  113  176  263  401  543  631  675  731  846  1007  1184  1375  1576  1769  1973  2226  2499  2703  2811  2885  2975  3065  3127  3155  3167  3186  3209  3180  3014  2690  2316  1993  1667  1246  796  462  250  9  -383  -872  -1286  -1513  -1580  -1583  -1595  -1614  -1603  -1540  -1448  -1374  -1329  -1281  -1220  -1169  -1144  -1133  -1119  -1088  -1045  -1023  -1074  -1185  -1279  -1310  -1293  -1251  -1193  -1124  -1050  -1003  -1046  -1224  -1467  -1612  -1577  -1440  -1327  -1280  -1272  -1271  -1268  -1265  -1261  -1251  -1230  -1207  -1197  -1228  -1321  -1465  -1624  -1752  -1797  -1728  -1576  -1422  -1340  -1369  -1524  -1760  -1977  -2120  -2201  -2239  -2246  -2241  -2238  -2240  -2243  -2235  -2192  -2084  -1905  -1708  -1578  -1574  -1706  -1924  -2126  -2244  -2287  -2296  -2293  -2271  -2218  -2147  -2096  -2107  -2190  -2312  -2415  -2469  -2445  -2267  -1906  -1497  -1236  -1178  -1242  -1337  -1413  -1450  -1407  -1233  -958  -680  -461  -302  -192  -94  38  196  307  345  355  382  415  428  430  453  489  507  504  538  704  1029  1393  1657  1821  1945  2009  1908  1597  1260  1268  1945  3442  5659  8237  10728  12715  13731  13317  11404  8430  5103  2241  451  -257  -306  -92  178  452  713  890  930  858  738  619  520  445  384  300  229  295  499  685  760  772  791  830  865  886  907  916  879  819  824  908  992  1039  1099  1239  1457  1676  1850  1991  2130  2285  2436  2524  2557  2608  2717  2861  3041  3280  3551  3772  3914  4025  4123  4202  4276  4317  4292  4228  4106  3786  3200  2520  1968  1561  1228  967  772  608  473  353  191  -20  -208  -359  -563  -871  -1224  -1491  -1609  -1641  -1667  -1680  -1618  -1439  -1213  -1067  -1037  -1053  -1047  -1050  -1243  -1805  -2591  -3187  -3379  -3249  -2956  -2658  -2426  -2261  -2232  -2358  -2542  -2673  -2642  -2462  -2240  -2083  -2114  -2302  -2441  -2451  -2411  -2384  -2375  -2377  -2378  -2361  -2306  -2225  -2156  -2130  -2130  -2132  -2154  -2205  -2251  -2246  -2191  -2164  -2204  -2222  -2154  -2049  -1931  -1747  -1475  -1190  -1007  -966  -1029  -1137  -1224  -1254  -1258  -1285  -1342  -1375  -1340  -1285  -1264  -1250  -1162  -967  -742  -581  -492  -456  -490  -636  -909  -1175  -1222  -1030  -760  -501  -265  -101  -47  -110  -291  -532  -724  -820  -861  -888  -914  -925  -912  -893  -918  -1052  -1334  -1723  -2110  -2452  -2744  -2921  -2900  -2396  -1024  1090  3573  6207  8423  9496  9178  7502  4656  1266  -1579  -3033  -3127  -2431  -1649  -1435  -1686  -1671  -1273  -977  -967  -1099  -1231  -1316  -1355  -1314  -1182  -1021  -905  -861  -858  -810  -650  -424  -259  -217  -259  -317  -356  -338  -217  -34  96  140  158  217  333  531  903  1418  1820  1951  1928  1935  2041  2186  2339  2556  2820  3004  3040  3055  3246  3606  3931  4093  4131  4139  4171  4218  4187  3934  3394  2656  1933  1448  1231  1109  909  585  221  -67  -264  -458  -699  -936  -1108  -1214  -1278  -1296  -1219  -994  -685  -451  -370  -411  -528  -672  -781  -820  -806  -777  -748  -722  -710  -726  -809  -971  -1074  -984  -793  -654  -601  -584  -558  -524  -509  -525  -573  -657  -778  -907  -961  -900  -792  -725  -719  -751  -797  -838  -856  -840  -809  -776  -734  -683  -639  -624  -661  -783  -1012  -1269  -1396  -1342  -1195  -1014  -830  -711  -720  -856  -1046  -1184  -1231  -1214  -1165  -1097  -1024  -962  -920  -894  -869  -838  -818  -844  -944  -1084  -1186  -1190  -1091  -939  -807  -722  -665  -605  -494  -288  -41  129  185  178  165  168  184  193  151  23  -149  -273  -315  -320  -337  -372  -407  -435  -463  -497  -541  -592  -659  -750  -831  -932  -1177  -1437  -1240  -226  1640  4115  6758  9180  10952  11484  10407  7852  4415  1084  -1121  -1775  -1307  -556  -99  -60  -293  -590  -834  -963  -914  -720  -530  -456  -491  -568  -646  -734  -811  -831  -770  -631  -445  -255  -92  19  73  92  95  84  61  53  107  274  574  954  1290  1460  1457  1389  1359  1396  1481  1581  1683  1801  1923  2023  2109  2242  2508  2905  3288  3503  3552  3535  3516  3491  3430  3331  3212  3041  2725  2224  1631  1095  701  411  142  -110  -280  -354  -389  -424  -462  -543  -715  -895  -934  -857  -798  -799  -823  -837  -841  -846  -864  -889  -885  -833  -806  -879  -1010  -1131  -1247  -1349  -1365  -1239  -1034  -875  -818  -827  -865  -914  -962  -1000  -1025  -1035  -1028  -1017  -1014  -1016  -1017  -1016  -1012  -1003  -1003  -1045  -1134  -1205  -1205  -1176  -1162  -1147  -1110  -1067  -1030  -968  -872  -824  -911  -1094  -1221  -1211  -1140  -1100  -1102  -1125  -1160  -1212  -1273  -1320  -1346  -1358  -1365  -1365  -1351  -1334  -1339  -1360  -1373  -1373  -1374  -1377  -1359  -1295  -1188  -1067  -949  -850  -794  -776  -740  -634  -469  -315  -230  -211  -218  -217  -193  -153  -146  -249  -494  -783  -970  -1022  -1025  -1064  -1148  -1225  -1258  -1261  -1281  -1351  -1464  -1616  -1844  -2088  -2050  -1322  336  2816  5674  8386  10451  11319  10578  8212  4687  1029  -1577  -2627  -2456  -1705  -963  -575  -542  -726  -1023  -1327  -1515  -1521  -1359  -1115  -916  -825  -810  -815  -821  -824  -829  -848  -885  -921  -912  -844  -747  -649  -550  -459  -374  -270  -141  -18  78  156  225  275  305  334  388  485  628  823  1100  1460  1806  2021  2111  2189  2357  2621  2920  3192  3376  3415  3314  3162  3053  2979  2839  2525  2059  1578  1182  861  567  271  -34  -349  -635  -867  -1057  -1204  -1285  -1308  -1310  -1321  -1340  -1359  -1371  -1374  -1370  -1361  -1345  -1320  -1280  -1233  -1212  -1232  -1271  -1292  -1285  -1267  -1237  -1175  -1070  -951  -872  -874  -920  -936  -908  -881  -885  -916  -949  -972  -988  -987  -953  -876  -779  -712  -704  -746  -806  -847  -857  -844  -824  -806  -799  -819  -885  -980  -1048  -1037  -935  -809  -752  -752  -756  -772  -796  -784  -726  -654  -601  -588  -614  -666  -729  -788  -831  -829  -739  -542  -281  -68  10  -44  -165  -272  -323  -334  -333  -329  -300  -215  -62  129  312  510  809  1185  1492  1646  1669  1568  1322  1000  755  659  661  694  726  742  734  714  697  683  661  613  534  464  427  393  341  267  133  -74  -259  -149  633  2304  4771  7675  10385  12114  12200  10462  7395  3851  758  -1121  -1693  -1394  -724  -157  80  101  81  73  37  -74  -217  -302  -313  -301  -295  -281  -230  -147  -95  -115  -168  -199  -188  -144  -91  -56  -50  -88  -189  -325  -422  -425  -337  -210  -110  -58  -15  69  189  278  291  273  332  564  941  1328  1606  1737  1777  1829  1955  2148  2378  2646  2891  2953  2778  2492  2210  1939  1652  1327  991  717  510  244  -211  -834  -1430  -1795  -1913  -1907  -1877  -1851  -1822  -1778  -1723  -1683  -1669  -1668  -1669  -1669  -1680  -1722  -1800  -1909  -2031  -2128  -2175  -2178  -2155  -2088  -1944  -1743  -1566  -1469  -1421  -1369  -1313  -1289  -1331  -1447  -1589  -1691  -1741  -1745  -1690  -1583  -1487  -1462  -1472  -1444  -1381  -1320  -1276  -1251  -1243  -1241  -1238  -1238  -1261  -1324  -1410  -1475  -1486  -1442  -1375  -1346  -1344  -1300  -1223  -1176  -1171  -1180  -1177  -1145  -1089  -1038  -1012  -1011  -1021  -1023  -1006  -963  -895  -809  -711  -603  -480  -333  -171  -29  51  60  15  -68  -183  -315  -429  -505  -593  -748  -937  -1074  -1147  -1217  -1303  -1370  -1399  -1413  -1426  -1432  -1458  -1580  -1795  -1830  -1243  204  2364  4874  7315  9219  10091  9548  7511  4372  1063  -1356  -2396  -2308  -1764  -1402  -1363  -1385  -1290  -1129  -1003  -943  -916  -897  -891  -903  -899  -822  -669  -509  -415  -385  -357  -273  -126  23  88  57  26  73  154  204  215  207  202  232  337  516  727  942  1152  1343  1517  1654  1709  1706  1751  1933  2246  2602  2899  3105  3292  3556  3877  4132  4245  4261  4255  4240  4144  3859  3346  2699  2073  1542  1062  623  291  104  17  -73  -261  -513  -715  -827  -900  -955  -950  -871  -761  -668  -625  -636  -667  -685  -687  -684  -688  -706  -743  -803  -869  -905  -905  -905  -908  -884  -839  -799  -774  -771  -800  -867  -951  -978  -906  -801  -750  -780  -867  -963  -1051  -1142  -1202  -1177  -1085  -994  -945  -937  -957  -999  -1039  -1036  -987  -934  -916  -930  -950  -962  -975  -1003  -1043  -1080  -1102  -1106  -1080  -1012  -917  -832  -781  -760  -742  -702  -652  -642  -705  -808  -887  -919  -933  -942  -919  -800  -560  -271  -55  48  93  123  131  91  0  -122  -241  -327  -374  -408  -473  -609  -811  -1029  -1202  -1284  -1281  -1244  -1217  -1211  -1237  -1353  -1606  -1865  -1795  -1054  531  2840  5438  7836  9607  10323  9704  7735  4758  1605  -794  -2029  -2223  -1809  -1317  -1042  -986  -1043  -1115  -1165  -1210  -1247  -1242  -1199  -1155  -1112  -1030  -907  -788  -712  -682  -682  -687  -662  -559  -361  -134  23  76  67  48  44  50  57  64  78  118  190  297  461  714  1027  1301  1462  1528  1600  1784  2064  2314  2447  2477  2472  2530  2744  3107  3503  3815  3969  3925  3686  3345  3016  2673  2210  1662  1168  735  253  -257  -649  -853  -931  -954  -954  -947  -939  -932  -942  -982  -1048  -1109  -1147  -1167  -1173  -1157  -1126  -1089  -1055  -1028  -1018  -1028  -1044  -1050  -1045  -1036  -1029  -1027  -1029  -1032  -1031  -1014  -965  -885  -787  -691  -620  -589  -593  -646  -770  -939  -1080  -1137  -1101  -989  -835  -693  -607  -577  -583  -630  -722  -808  -822  -797  -808  -842  -854  -847  -851  -895  -976  -1048  -1070  -1048  -994  -913  -836  -797  -786  -780  -779  -784  -788  -791  -792  -791  -785  -781  -800  -863  -954  -1027  -1054  -1023  -920  -767  -611  -484  -388  -312  -227  -116  -5  45  6  -80  -150  -180  -197  -231  -277  -307  -326  -378  -501  -677  -858  -1016  -1132  -1183  -1179  -1154  -1123  -1094  -1121  -1310  -1684  -2041  -2023  -1309  179  2212  4477  6790  8949  10520  10887  9614  6777  3068  -288  -2227  -2616  -2053  -1232  -669  -559  -734  -928  -1023  -1054  -1089  -1153  -1224  -1264  -1241  -1152  -1041  -949  -875  -815  -772  -730  -693  -668  -629  -542  -406  -266  -162  -100  -57  -22  11  59  138  241  350  466  595  715  805  892  1049  1320  1662  1976  2189  2310  2418  2574  2762  2943  3120  3313  3508  3656  3719  3690  3569  3354  3065  2733  2320  1772  1170  697  415  212  -44  -360  -625  -749  -763  -742  -716  -705  -763  -937  -1162  -1284  -1254  -1177  -1145  -1152  -1162  -1151  -1090  -967  -825  -722  -678  -676  -699  -750  -813  -834  -795  -744  -718  -708  -703  -705  -717  -757  -846  -967  -1067  -1117  -1130  -1121  -1082  -992  -862  -756  -747  -820  -900  -950  -989  -1028  -1046  -1013  -934  -848  -794  -774  -759  -733  -707  -698  -709  -734  -777  -830  -874  -894  -895  -888  -883  -880  -881  -883  -884  -883  -882  -882  -891  -917  -956  -990  -1020  -1063  -1113  -1142  -1134  -1097  -1054  -1007  -930  -807  -654  -513  -432  -410  -379  -260  -31  202  285  186  16  -108  -149  -145  -144  -149  -166  -259  -493  -809  -1051  -1148  -1148  -1086  -955  -798  -729  -829  -1055  -1288  -1471  -1591  -1487  -799  770  3144  5875  8405  10207  10807  9982  7850  4797  1547  -983  -2272  -2456  -2023  -1440  -959  -679  -623  -687  -739  -750  -762  -808  -877  -930  -950  -953  -951  -929  -850  -710  -571  -491  -470  -484  -497  -479  -441  -401  -359  -321  -296  -248  -123  79  302  484  597  660  728  871  1122  1415  1638  1754  1815  1874  1970  2143  2368  2575  2750  2941  3169  3393  3553  3632  3673  3667  3517  3158  2673  2179  1639  976  290  -228  -525  -683  -818  -1012  -1252  -1445  -1542  -1577  -1585  -1567  -1513  -1444  -1392  -1372  -1375  -1392  -1419  -1446  -1465  -1466  -1448  -1406  -1336  -1236  -1127  -1051  -1033  -1067  -1127  -1158  -1120  -1032  -931  -843  -789  -789  -849  -956  -1082  -1193  -1264  -1291  -1270  -1185  -1046  -911  -837  -819  -825  -844  -884  -941  -989  -1015  -1018  -1009  -999  -993  -987  -970  -946  -934  -937  -934  -898  -830  -758  -709  -682  -667  -662  -676  -730  -824  -921  -967  -942  -874  -799  -733  -691  -661  -608  -528  -453  -404  -364  -306  -223  -110  32  167  239  229  151  35  -80  -172  -233  -267  -296  -361  -489  -656  -799  -881  -910  -914  -919  -923  -898  -861  -955  -1298  -1719  -1788  -1133  344  2535  5194  7857  9872  10651  9840  7480  4159  882  -1381  -2288  -2202  -1703  -1238  -1052  -1136  -1287  -1322  -1186  -949  -737  -612  -539  -478  -436  -432  -463  -512  -557  -586  -582  -525  -420  -295  -187  -127  -108  -78  16  177  339  439  497  587  730  880  988  1064  1149  1263  1411  1604  1826  2024  2170  2263  2326  2407  2554  2804  3180  3605  3932  4079  4069  3983  3907  3866  3823  3712  3442  2935  2220  1474  857  386  25  -221  -349  -398  -441  -534  -672  -801  -885  -939  -1007  -1104  -1186  -1193  -1112  -1017  -1010  -1102  -1217  -1289  -1311  -1308  -1280  -1216  -1125  -1028  -951  -950  -1071  -1256  -1391  -1409  -1310  -1150  -1001  -900  -853  -844  -845  -850  -879  -944  -1024  -1072  -1068  -1035  -1003  -992  -995  -987  -959  -930  -919  -927  -944  -951  -926  -855  -774  -765  -854  -963  -1018  -1024  -1012  -1003  -1001  -1003  -1005  -1004  -993  -967  -937  -916  -897  -862  -786  -651  -484  -358  -294  -223  -75  141  340  446  458  402  282  100  -101  -249  -311  -334  -382  -479  -603  -711  -772  -793  -792  -803  -856  -955  -1070  -1163  -1217  -1269  -1383  -1501  -1347  -592  949  3249  5970  8491  10166  10486  9233  6703  3599  732  -1224  -2077  -2118  -1763  -1375  -1141  -1014  -912  -843  -827  -850  -859  -821  -762  -715  -674  -630  -599  -591  -595  -589  -557  -506  -461  -440  -439  -445  -445  -426  -381  -313  -240  -182  -138  -90  -48  -14  71  283  607  920  1106  1152  1135  1178  1366  1654  1898  2034  2146  2334  2587  2802  2925  2985  3031  3070  3057  2912  2575  2125  1715  1376  1062  758  389  -121  -681  -1101  -1331  -1454  -1537  -1592  -1634  -1694  -1774  -1833  -1845  -1817  -1774  -1739  -1716  -1702  -1701  -1709  -1718  -1722  -1725  -1727  -1720  -1693  -1645  -1584  -1516  -1449  -1401  -1381  -1378  -1384  -1397  -1421  -1452  -1479  -1497  -1509  -1506  -1472  -1412  -1354  -1323  -1351  -1460  -1607  -1694  -1666  -1554  -1413  -1278  -1176  -1125  -1115  -1122  -1130  -1133  -1124  -1098  -1062  -1039  -1052  -1102  -1183  -1278  -1352  -1383  -1375  -1336  -1268  -1186  -1113  -1059  -1000  -904  -752  -569  -406  -289  -203  -141  -97  -75  -86  -151  -277  -442  -596  -690  -715  -711  -721  -766  -838  -908  -954  -974  -975  -956  -931  -932  -1012  -1211  -1489  -1726  -1781  -1510  -737  660  2658  5134  7826  10126  11296  10875  8792  5532  2157  -291  -1434  -1546  -1156  -756  -608  -659  -742  -795  -834  -861  -844  -746  -593  -464  -395  -360  -337  -324  -301  -243  -158  -88  -55  -38  -8  38  91  148  202  248  313  423  545  635  705  784  859  900  925  1002  1189  1460  1734  1967  2165  2347  2551  2809  3078  3275  3413  3593  3838  4052  4162  4188  4143  3996  3732  3370  2933  2436  1905  1418  1062  838  677  502  255  -44  -303  -461  -533  -553  -541  -531  -579  -722  -908  -1034  -1059  -1025  -986  -961  -936  -895  -838  -762  -673  -610  -602  -628  -657  -687  -721  -763  -808  -854  -884  -867  -792  -687  -577  -467  -384  -377  -469  -647  -833  -901  -826  -727  -698  -738  -800  -848  -882  -908  -918  -917  -927  -956  -984  -997  -1000  -1001  -1008  -1025  -1052  -1079  -1082  -1038  -952  -875  -876  -950  -1025  -1058  -1063  -1062  -1056  -1036  -1001  -959  -914  -870  -818  -754  -687  -616  -541  -476  -419  -363  -309  -255  -202  -165  -151  -152  -154  -159  -190  -273  -393  -498  -562  -599  -642  -730  -873  -1040  -1180  -1256  -1300  -1375  -1494  -1603  -1676  -1752  -1854  -1870  -1487  -327  1685  4269  7035  9481  10950  10926  9282  6301  2739  -276  -1944  -2334  -2001  -1490  -1201  -1197  -1253  -1233  -1160  -1084  -1035  -1010  -986  -964  -968  -999  -1025  -1020  -993  -977  -984  -976  -920  -818  -677  -510  -356  -263  -228  -195  -127  -44  17  53  102  211  360  481  546  593  685  855  1092  1341  1560  1761  1972  2168  2299  2378  2500  2735  3032  3282  3433  3524  3620  3726  3734  3488  2959  2326  1811  1470  1189  857  432  -54  -480  -720  -784  -791  -837  -922  -992  -1032  -1076  -1141  -1190  -1186  -1154  -1124  -1091  -1033  -960  -903  -877  -886  -928  -987  -1033  -1050  -1046  -1040  -1056  -1108  -1162  -1166  -1108  -1024  -939  -872  -824  -779  -736  -711  -706  -703  -666  -567  -444  -390  -466  -631  -793  -896  -938  -930  -887  -834  -796  -779  -771  -768  -769  -767  -754  -725  -670  -599  -541  -518  -540  -620  -740  -845  -895  -902  -898  -900  -915  -932  -945  -950  -955  -964  -965  -926  -821  -682  -584  -558  -570  -584  -587  -592  -611  -650  -699  -741  -757  -740  -707  -678  -649  -605  -562  -549  -566  -582  -580  -554  -505  -425  -301  -142  20  168  295  398  460  483  473  422  317  182  68  -7  -53  -88  -143  -249  -409  -604  -783  -889  -915  -915  -941  -987  -975  -893  -918  -1152  -1298  -889  299  2229  4726  7408  9679  10924  10677  8820  5791  2441  -313  -1856  -2223  -1940  -1457  -994  -704  -643  -714  -813  -901  -965  -999  -1004  -950  -803  -591  -413  -348  -388  -446  -445  -375  -273  -190  -126  -42  66  156  188  153  84  28  3  4  34  120  293  534  761  906  972  985  970  963  1026  1210  1493  1796  2053  2240  2387  2560  2778  2983  3105  3109  2990  2771  2510  2269  2066  1856  1557  1126  613  118  -286  -582  -807  -996  -1151  -1305  -1530  -1813  -2047  -2156  -2152  -2096  -2052  -2038  -2021  -1966  -1882  -1811  -1774  -1756  -1736  -1713  -1718  -1799  -1960  -2075  -1999  -1778  -1559  -1408  -1339  -1350  -1406  -1473  -1525  -1546  -1561  -1607  -1680  -1731  -1706  -1580  -1407  -1278  -1231  -1237  -1249  -1221  -1122  -983  -881  -855  -885  -935  -982  -1020  -1045  -1056  -1055  -1038  -988  -892  -784  -720  -708  -714  -717  -725  -744  -767  -782  -794  -812  -828  -797  -672  -485  -324  -228  -148  -42  91  228  328  362  335  285  249  239  243  248  241  217  182  140  69  -64  -272  -493  -644  -711  -751  -806  -853  -841  -760  -682  -743  -1032  -1361  -1282  -455  1218  3647  6358  8582  9745  9606  8189  5838  3083  507  -1358  -2278  -2365  -1908  -1268  -790  -612  -623  -680  -735  -784  -821  -827  -787  -692  -552  -416  -335  -309  -303  -291  -265  -219  -153  -78  -6  53  95  109  113  153  215  259  314  413  543  691  838  958  1054  1151  1259  1394  1599  1883  2185  2428  2579  2654  2714  2835  3049  3337  3650  3908  4036  4024  3926  3799  3648  3408  3004  2441  1819  1244  736  287  -75  -351  -568  -737  -853  -914  -935  -942  -948  -947  -936  -915  -896  -892  -902  -916  -927  -931  -934  -947  -978  -1011  -1016  -995  -975  -973  -986  -994  -984  -959  -931  -919  -934  -962  -981  -991  -1008  -1043  -1077  -1072  -1006  -898  -806  -769  -793  -874  -988  -1096  -1179  -1232  -1251  -1244  -1228  -1211  -1197  -1177  -1145  -1109  -1088  -1082  -1059  -984  -864  -754  -697  -693  -731  -803  -881  -928  -938  -932  -938  -969  -1014  -1051  -1073  -1085  -1066  -958  -732  -442  -181  15  157  232  217  115  -19  -118  -172  -238  -349  -466  -547  -610  -694  -805  -923  -1023  -1081  -1093  -1082  -1079  -1110  -1193  -1325  -1479  -1613  -1616  -1295  -458  1065  3286  5888  8347  10009  10218  8752  5999  2722  -137  -1860  -2446  -2324  -1839  -1315  -1052  -1087  -1224  -1304  -1313  -1292  -1251  -1160  -994  -790  -629  -557  -574  -660  -755  -779  -709  -595  -488  -398  -316  -247  -200  -175  -148  -86  10  108  187  275  405  570  747  934  1112  1237  1304  1362  1468  1649  1883  2118  2324  2497  2644  2781  2942  3132  3318  3484  3625  3718  3728  3615  3350  2973  2548  2090  1620  1180  748  327  10  -164  -286  -447  -653  -849  -1014  -1174  -1300  -1311  -1213  -1110  -1066  -1063  -1060  -1040  -1020  -1037  -1094  -1157  -1181  -1140  -1061  -994  -959  -939  -925  -917  -915  -917  -915  -906  -895  -895  -914  -945  -972  -983  -985  -981  -969  -948  -928  -902  -851  -789  -777  -860  -1003  -1112  -1135  -1096  -1052  -1038  -1048  -1057  -1059  -1065  -1083  -1101  -1079  -998  -906  -848  -821  -795  -765  -766  -825  -919  -982  -961  -840  -627  -387  -199  -80  -5  26  24  0  -38  -72  -77  -65  -93  -221  -440  -654  -788  -856  -900  -927  -937  -946  -975  -1028  -1077  -1091  -1098  -1213  -1509  -1794  -1670  -856  706  2896  5402  7765  9440  9920  8987  6801  3838  894  -1201  -2152  -2221  -1850  -1448  -1249  -1222  -1244  -1250  -1231  -1205  -1188  -1186  -1197  -1205  -1177  -1080  -933  -795  -708  -673  -669  -678  -689  -707  -731  -745  -738  -714  -670  -588  -468  -332  -167  44  273  453  569  659  745  830  933  1068  1210  1318  1410  1547  1751  1984  2215  2434  2646  2878  3117  3295  3376  3393  3371  3288  3095  2748  2242  1647  1053  522  101  -180  -351  -495  -668  -858  -1008  -1098  -1156  -1206  -1244  -1259  -1252  -1238  -1227  -1204  -1151  -1081  -1033  -1028  -1047  -1064  -1071  -1071  -1070  -1069  -1064  -1052  -1037  -1023  -1013  -1000  -966  -906  -850  -834  -858  -890  -908  -904  -875  -828  -781  -750  -735  -730  -735  -761  -819  -894  -957  -997  -1023  -1039  -1046  -1048  -1039  -1015  -979  -950  -928  -902  -861  -807  -751  -713  -703  -719  -750  -752  -629  -315  88  364  397  229  -6  -175  -242  -254  -267  -327  -470  -669  -842  -935  -964  -973  -992  -1040  -1108  -1169  -1212  -1255  -1321  -1418  -1564  -1720  -1676  -1137  86  2031  4539  7181  9298  10234  9619  7558  4593  1545  -788  -2048  -2356  -2014  -1411  -943  -774  -810  -902  -992  -1081  -1150  -1172  -1158  -1134  -1113  -1099  -1089  -1066  -999  -875  -713  -541  -385  -275  -227  -235  -281  -345  -386  -345  -185  44  223  297  310  322  361  429  522  635  770  924  1067  1191  1348  1622  1995  2332  2545  2669  2784  2948  3164  3368  3484  3481  3363  3164  2924  2626  2236  1754  1188  594  100  -216  -394  -524  -677  -866  -1047  -1175  -1254  -1309  -1343  -1352  -1341  -1319  -1298  -1284  -1268  -1236  -1179  -1116  -1080  -1071  -1064  -1041  -1007  -980  -970  -969  -967  -961  -955  -951  -940  -907  -848  -782  -764  -849  -989  -1053  -992  -881  -804  -780  -783  -792  -807  -837  -885  -939  -978  -985  -953  -889  -826  -781  -740  -706  -695  -697  -687  -634  -527  -390  -258  -135  -25  48  74  74  68  63  55  42  23  -11  -82  -202  -377  -617  -909  -1174  -1328  -1368  -1337  -1263  -1169  -1098  -1112  -1263  -1539  -1794  -1770  -1174  224  2456  5244  8029  10122  10895  10010  7643  4435  1257  -1067  -2162  -2250  -1837  -1367  -1069  -965  -980  -1053  -1149  -1236  -1281  -1283  -1254  -1205  -1140  -1062  -983  -928  -914  -934  -960  -963  -922  -835  -735  -669  -640  -605  -522  -392  -258  -148  -54  42  154  294  452  587  680  743  815  954  1189  1479  1755  1967  2115  2255  2451  2708  2977  3196  3326  3378  3390  3375  3308  3162  2924  2604  2214  1757  1253  793  476  245  -41  -386  -653  -770  -811  -874  -975  -1059  -1085  -1068  -1045  -1032  -1021  -1007  -996  -991  -996  -1012  -1036  -1052  -1042  -992  -922  -871  -861  -870  -875  -878  -897  -932  -947  -913  -856  -820  -811  -813  -816  -822  -832  -837  -827  -816  -818  -824  -817  -799  -785  -783  -787  -814  -906  -1048  -1159  -1199  -1195  -1184  -1179  -1178  -1173  -1154  -1124  -1096  -1080  -1071  -1055  -1019  -967  -927  -929  -983  -1053  -1082  -1048  -969  -854  -707  -549  -397  -242  -70  93  193  193  93  -67  -219  -315  -358  -381  -429  -539  -687  -804  -856  -867  -887  -947  -1045  -1143  -1196  -1196  -1175  -1196  -1359  -1701  -2064  -2104  -1465  42  2343  5118  7853  9947  10881  10284  8107  4832  1388  -1228  -2447  -2426  -1828  -1277  -1025  -1012  -1098  -1179  -1215  -1211  -1195  -1186  -1193  -1207  -1210  -1185  -1123  -1033  -938  -844  -753  -681  -636  -590  -508  -402  -323  -301  -309  -302  -243  -126  17  143  227  297  401  526  616  655  705  841  1066  1306  1506  1692  1930  2212  2452  2599  2679  2744  2856  3050  3263  3396  3422  3371  3220  2896  2393  1816  1279  830  464  164  -56  -212  -381  -606  -839  -1031  -1176  -1268  -1305  -1307  -1287  -1245  -1180  -1108  -1061  -1049  -1058  -1066  -1047  -984  -894  -827  -808  -822  -846  -873  -907  -947  -968  -958  -938  -927  -905  -843  -757  -692  -667  -662  -666  -694  -766  -857  -917  -933  -932  -933  -932  -915  -889  -882  -898  -895  -840  -760  -701  -676  -675  -688  -716  -766  -823  -861  -874  -873  -869  -871  -884  -906  -929  -946  -955  -955  -930  -863  -772  -691  -628  -576  -532  -480  -391  -262  -118  12  112  170  189  189  187  187  182  160  108  28  -60  -136  -192  -244  -324  -441  -549  -613  -644  -680  -746  -865  -1021  -1149  -1221  -1295  -1425  -1517  -1278  -362  1336  3596  6020  8155  9552  9819  8713  6369  3349  443  -1629  -2577  -2601  -2135  -1629  -1321  -1154  -994  -818  -675  -607  -604  -633  -671  -692  -677  -633  -587  -560  -544  -507  -429  -334  -264  -238  -232  -210  -150  -54  51  128  169  199  258  362  480  578  669  802  985  1166  1293  1376  1474  1622  1803  1975  2133  2303  2503  2741  3002  3230  3382  3465  3515  3563  3594  3549  3354  2986  2501  1983  1491  1062  696  356  40  -203  -359  -474  -596  -724  -823  -878  -903  -918  -950  -1018  -1098  -1140  -1122  -1081  -1044  -1011  -980  -961  -947  -921  -883  -848  -828  -822  -820  -813  -794  -769  -767  -808  -867  -910  -928  -930  -928  -931  -939  -946  -947  -948  -965  -1011  -1085  -1161  -1211  -1228  -1227  -1214  -1175  -1089  -975  -888  -854  -854  -864  -878  -916  -996  -1098  -1170  -1194  -1190  -1187  -1203  -1237  -1277  -1314  -1342  -1347  -1298  -1180  -1036  -937  -906  -907  -910  -908  -904  -904  -914  -939  -985  -1051  -1131  -1209  -1264  -1273  -1222  -1122  -1020  -953  -904  -823  -683  -522  -396  -300  -187  -52  52  98  104  96  66  0  -87  -148  -167  -172  -207  -301  -453  -641  -838  -995  -1059  -1037  -983  -945  -955  -1016  -1098  -1222  -1432  -1643  -1568  -849  736  3077  5715  8120  9844  10475  9741  7734  4891  1881  -504  -1753  -1970  -1621  -1125  -748  -597  -628  -726  -809  -862  -896  -915  -916  -903  -877  -842  -798  -750  -695  -636  -583  -532  -476  -424  -383  -356  -344  -340  -318  -248  -113  56  204  322  452  603  738  822  863  905  989  1117  1242  1341  1455  1632  1866  2117  2383  2676  2951  3148  3268  3353  3442  3560  3692  3767  3685  3366  2838  2263  1800  1463  1172  861  529  220  -34  -246  -441  -623  -752  -803  -803  -796  -811  -851  -901  -942  -962  -968  -968  -956  -918  -856  -798  -763  -755  -782  -834  -885  -924  -942  -927  -886  -841  -814  -808  -819  -845  -868  -864  -831  -798  -792  -790  -759  -712  -690  -704  -721  -710  -698  -718  -748  -761  -755  -743  -734  -729  -729  -737  -757  -789  -823  -850  -865  -868  -859  -839  -811  -780  -748  -725  -735  -784  -851  -907  -943  -959  -949  -908  -843  -779  -729  -686  -648  -622  -625  -672  -758  -856  -934  -965  -939  -880  -826  -795  -779  -763  -755  -765  -790  -818  -842  -849  -814  -715  -568  -443  -389  -381  -338  -196  25  232  342  340  250  114  -13  -105  -166  -199  -207  -201  -208  -260  -377  -539  -690  -787  -839  -875  -906  -933  -969  -1031  -1131  -1286  -1514  -1730  -1633  -861  745  3063  5717  8195  9976  10604  9800  7614  4500  1295  -1082  -2191  -2240  -1764  -1285  -1046  -991  -1013  -1057  -1083  -1068  -1016  -952  -903  -869  -845  -827  -807  -774  -726  -672  -631  -605  -574  -517  -445  -395  -375  -357  -305  -209  -90  19  109  186  250  285  299  327  403  518  646  798  1024  1346  1689  1938  2077  2182  2305  2448  2591  2743  2928  3125  3273  3355  3398  3400  3307  3088  2781  2456  2121  1724  1242  724  233  -160  -401  -498  -530  -584  -701  -849  -969  -1037  -1071  -1098  -1105  -1067  -999  -928  -866  -827  -804  -774  -742  -745  -815  -917  -974  -942  -858  -784  -744  -726  -715  -703  -683  -652  -615  -572  -530  -502  -503  -527  -551  -567  -584  -604  -622  -638  -656  -685  -734  -792  -827  -819  -783  -753  -752  -767  -777  -779  -780  -784  -791  -797  -799  -798  -797  -797  -801  -807  -812  -808  -793  -769  -744  -730  -734  -753  -776  -793  -802  -798  -781  -759  -733  -709  -699  -700  -710  -724  -734  -738  -739  -746  -766  -797  -817  -772  -606  -366  -175  -84  -38  13  72  113  124  108  71  25  -10  -27  -33  -54  -128  -260  -404  -517  -630  -797  -1008  -1190  -1284  -1302  -1294  -1295  -1333  -1441  -1600  -1627  -1202  -54  1855  4274  6757  8804  9937  9781  8249  5646  2584  -152  -1906  -2564  -2463  -2010  -1521  -1190  -1060  -1047  -1053  -1040  -1014  -997  -990  -975  -950  -921  -894  -877  -872  -861  -821  -757  -700  -674  -672  -672  -650  -577  -431  -228  -37  85  158  221  278  318  348  391  467  578  700  813  949  1145  1379  1606  1824  2053  2287  2501  2677  2826  2995  3205  3409  3543  3595  3593  3544  3390  3058  2565  2012  1512  1118  806  523  254  0  -254  -494  -680  -814  -922  -1010  -1064  -1088  -1098  -1102  -1088  -1040  -977  -935  -924  -928  -934  -938  -941  -942  -933  -905  -866  -835  -824  -826  -831  -826  -804  -771  -745  -733  -730  -742  -766  -774  -751  -705  -654  -615  -596  -591  -592  -592  -593  -592  -588  -584  -581  -575  -563  -550  -540  -546  -571  -598  -603  -592  -590  -608  -636  -658  -669  -672  -673  -676  -684  -701  -722  -734  -711  -643  -559  -514  -521  -546  -564  -581  -602  -616  -604  -562  -510  -476  -463  -454  -443  -452  -504  -586  -643  -640  -609  -600  -618  -632  -613  -545  -451  -375  -335  -288  -169  23  208  311  335  320  296  274  260  251  238  211  178  147  99  -11  -196  -420  -624  -760  -824  -850  -869  -892  -918  -953  -1039  -1225  -1448  -1451  -958  139  1821  3972  6353  8592  10191  10582  9365  6668  3239  159  -1686  -2164  -1822  -1315  -1019  -985  -1094  -1208  -1250  -1207  -1108  -1006  -949  -941  -950  -934  -870  -780  -713  -691  -695  -698  -683  -639  -581  -534  -501  -465  -422  -380  -327  -218  -33  168  308  373  397  398  382  369  420  612  932  1250  1453  1565  1674  1822  1987  2150  2332  2558  2826  3091  3290  3412  3497  3557  3545  3372  2998  2510  2030  1595  1170  731  328  52  -82  -158  -279  -493  -767  -1047  -1283  -1424  -1460  -1430  -1368  -1294  -1226  -1166  -1112  -1075  -1065  -1079  -1101  -1109  -1089  -1056  -1032  -1026  -1025  -1014  -992  -978  -982  -987  -981  -976  -989  -1025  -1066  -1084  -1045  -929  -775  -664  -623  -610  -593  -592  -635  -699  -739  -745  -744  -769  -834  -909  -947  -931  -887  -852  -841  -837  -827  -803  -773  -746  -721  -697  -678  -668  -669  -697  -768  -863  -932  -941  -903  -858  -819  -773  -732  -708  -690  -676  -678  -690  -695  -686  -654  -592  -498  -402  -361  -404  -492  -559  -581  -577  -570  -568  -570  -570  -556  -515  -450  -380  -321  -254  -150  -22  76  122  133  138  143  151  163  169  142  52  -104  -297  -473  -598  -678  -747  -826  -911  -989  -1043  -1045  -993  -983  -1187  -1598  -1884  -1648  -668  1126  3603  6342  8785  10444  10900  9848  7386  4113  919  -1306  -2152  -1928  -1292  -782  -658  -857  -1104  -1219  -1225  -1182  -1103  -1004  -929  -908  -922  -921  -859  -735  -593  -477  -404  -361  -323  -269  -201  -143  -104  -77  -64  -64  -66  -48  16  146  323  495  618  679  703  745  843  978  1116  1303  1606  1976  2272  2439  2531  2620  2780  3054  3396  3690  3848  3891  3895  3897  3853  3662  3229  2593  1965  1506  1159  788  365  -33  -335  -531  -661  -752  -804  -821  -823  -851  -942  -1079  -1203  -1278  -1306  -1284  -1196  -1059  -936  -884  -899  -940  -969  -976  -974  -980  -1004  -1041  -1085  -1140  -1203  -1246  -1235  -1162  -1061  -988  -967  -976  -987  -985  -972  -959  -949  -935  -913  -896  -895  -907  -931  -961  -984  -996  -997  -985  -970  -965  -968  -971  -970  -969  -975  -997  -1029  -1060  -1076  -1060  -978  -833  -693  -651  -742  -899  -1024  -1081  -1102  -1119  -1135  -1143  -1147  -1149  -1144  -1127  -1094  -1052  -1012  -987  -979  -984  -992  -997  -1003  -1006  -970  -869  -737  -625  -525  -409  -263  -101  33  105  115  95  68  39  3  -27  -33  -30  -82  -237  -458  -643  -745  -797  -836  -868  -887  -897  -901  -913  -983  -1161  -1394  -1503  -1242  -353  1266  3465  5941  8261  9884  10362  9406  6996  3651  378  -1876  -2758  -2562  -1905  -1337  -1053  -939  -858  -788  -748  -732  -724  -713  -712  -727  -743  -745  -745  -763  -776  -722  -586  -431  -312  -257  -261  -279  -250  -155  -30  78  165  256  352  426  476  530  600  670  731  819  978  1179  1334  1425  1521  1682  1920  2194  2445  2655  2850  3041  3234  3427  3592  3686  3693  3633  3537  3395  3125  2666  2088  1510  1008  631  383  175  -98  -434  -720  -874  -917  -918  -929  -983  -1085  -1203  -1291  -1321  -1286  -1201  -1103  -1044  -1046  -1085  -1129  -1162  -1182  -1189  -1181  -1152  -1104  -1055  -1015  -974  -930  -893  -867  -848  -838  -838  -830  -802  -769  -770  -835  -952  -1062  -1119  -1123  -1107  -1082  -1045  -1003  -977  -970  -957  -918  -863  -820  -801  -801  -815  -848  -891  -926  -941  -942  -940  -945  -966  -998  -1029  -1049  -1044  -990  -870  -675  -407  -132  56  130  141  139  133  86  -31  -184  -290  -320  -316  -328  -382  -476  -592  -726  -884  -1041  -1142  -1169  -1165  -1189  -1289  -1484  -1732  -1942  -2029  -1880  -1254  114  2221  4693  7047  8869  9757  9368  7642  4913  1821  -828  -2383  -2752  -2360  -1733  -1227  -991  -988  -1082  -1164  -1192  -1161  -1092  -1015  -947  -909  -897  -880  -823  -723  -613  -534  -478  -424  -364  -304  -255  -225  -203  -175  -143  -114  -85  -44  33  159  304  428  535  645  768  905  1039  1144  1248  1434  1737  2081  2363  2556  2707  2862  3025  3175  3327  3523  3744  3890  3852  3576  3145  2737  2410  2056  1590  1033  446  -72  -413  -581  -683  -802  -954  -1103  -1196  -1225  -1222  -1205  -1169  -1116  -1068  -1047  -1057  -1086  -1124  -1172  -1233  -1299  -1334  -1312  -1243  -1140  -1027  -944  -911  -920  -961  -1017  -1059  -1077  -1082  -1079  -1051  -984  -914  -903  -957  -1020  -1055  -1064  -1059  -1044  -1014  -979  -957  -962  -999  -1052  -1093  -1112  -1112  -1098  -1071  -1040  -1024  -1026  -1037  -1044  -1049  -1053  -1039  -987  -900  -800  -703  -628  -584  -545  -460  -312  -129  40  161  212  171  29  -160  -298  -343  -335  -328  -365  -466  -622  -794  -938  -1035  -1088  -1104  -1098  -1081  -1044  -978  -934  -1068  -1509  -2057  -2180  -1448  205  2598  5374  8010  9952  10733  10032  7872  4760  1540  -915  -2165  -2374  -1993  -1485  -1188  -1109  -1054  -969  -917  -909  -916  -923  -933  -955  -979  -980  -934  -851  -766  -700  -644  -572  -482  -398  -322  -246  -179  -131  -91  -38  24  74  102  126  165  226  311  416  535  649  747  871  1083  1399  1765  2098  2341  2488  2569  2621  2692  2830  3033  3230  3346  3379  3369  3338  3263  3086  2770  2340  1847  1322  789  314  -36  -282  -503  -733  -947  -1099  -1168  -1185  -1199  -1228  -1252  -1248  -1230  -1240  -1295  -1351  -1353  -1291  -1196  -1121  -1093  -1091  -1090  -1095  -1119  -1155  -1184  -1194  -1190  -1174  -1137  -1082  -1049  -1065  -1107  -1150  -1192  -1211  -1186  -1143  -1117  -1113  -1119  -1121  -1101  -1042  -956  -890  -878  -934  -1062  -1222  -1335  -1365  -1341  -1305  -1281  -1270  -1261  -1250  -1242  -1219  -1158  -1064  -984  -946  -939  -934  -906  -841  -749  -639  -511  -365  -224  -113  -49  -23  -13  -13  -42  -127  -278  -469  -636  -733  -767  -780  -812  -884  -999  -1144  -1285  -1383  -1429  -1451  -1479  -1523  -1570  -1609  -1574  -1255  -392  1159  3365  5982  8509  10245  10595  9356  6762  3480  470  -1474  -2194  -2034  -1484  -1002  -795  -785  -854  -973  -1120  -1242  -1307  -1329  -1305  -1216  -1082  -953  -862  -814  -794  -777  -739  -679  -625  -605  -606  -587  -515  -408  -311  -235  -142  -2  159  282  352  411  495  593  669  707  744  860  1108  1464  1835  2118  2264  2310  2366  2530  2803  3092  3316  3455  3525  3558  3570  3519  3314  2914  2380  1824  1342  950  593  241  -66  -294  -496  -745  -1005  -1174  -1224  -1207  -1168  -1114  -1047  -976  -926  -916  -953  -1018  -1070  -1090  -1086  -1072  -1057  -1044  -1032  -1024  -1018  -1015  -1019  -1033  -1049  -1049  -1008  -916  -796  -707  -700  -779  -902  -1004  -1057  -1068  -1046  -989  -900  -810  -758  -763  -816  -885  -927  -923  -882  -832  -806  -812  -845  -901  -972  -1028  -1028  -976  -916  -870  -837  -825  -847  -901  -958  -991  -991  -965  -932  -910  -901  -891  -868  -819  -732  -601  -459  -354  -292  -232  -143  -49  10  28  26  23  22  16  -1  -31  -78  -142  -216  -304  -416  -555  -721  -900  -1053  -1148  -1176  -1169  -1163  -1177  -1221  -1309  -1431  -1511  -1308  -493  1071  3288  5910  8479  10387  11091  10249  7902  4604  1293  -1120  -2213  -2211  -1705  -1202  -914  -825  -830  -854  -872  -872  -846  -801  -754  -725  -715  -707  -694  -695  -726  -764  -764  -711  -617  -520  -460  -430  -384  -277  -109  56  155  188  190  188  195  229  320  486  706  927  1102  1207  1263  1338  1501  1722  1908  2049  2220  2465  2748  3017  3236  3388  3475  3511  3489  3399  3249  3037  2718  2279  1777  1265  762  315  -28  -297  -550  -789  -971  -1072  -1116  -1144  -1166  -1179  -1184  -1190  -1205  -1225  -1232  -1207  -1154  -1097  -1059  -1044  -1045  -1049  -1050  -1043  -1022  -994  -975  -972  -963  -938  -918  -926  -952  -961  -930  -887  -877  -927  -1031  -1139  -1191  -1185  -1163  -1145  -1128  -1111  -1100  -1095  -1090  -1074  -1051  -1046  -1070  -1110  -1149  -1166  -1155  -1137  -1135  -1145  -1158  -1168  -1175  -1180  -1184  -1181  -1166  -1133  -1091  -1060  -1050  -1046  -1025  -996  -974  -964  -964  -969  -944  -842  -658  -436  -228  -62  67  173  231  192  37  -164  -289  -297  -263  -294  -444  -663  -837  -923  -970  -1026  -1091  -1138  -1152  -1150  -1175  -1239  -1319  -1433  -1555  -1421  -650  917  3134  5637  7923  9465  9820  8738  6382  3348  454  -1557  -2410  -2359  -1877  -1378  -1095  -1041  -1092  -1138  -1153  -1144  -1114  -1051  -954  -843  -741  -665  -620  -597  -585  -571  -541  -491  -431  -374  -324  -270  -215  -169  -121  -34  94  211  275  301  343  444  609  787  919  1009  1095  1197  1319  1462  1610  1765  1990  2318  2659  2898  3026  3118  3226  3336  3414  3452  3470  3461  3366  3103  2655  2118  1608  1137  681  281  -12  -212  -357  -492  -649  -836  -1020  -1158  -1227  -1231  -1197  -1150  -1110  -1086  -1081  -1088  -1097  -1097  -1085  -1058  -1015  -973  -949  -954  -992  -1052  -1114  -1160  -1186  -1194  -1183  -1144  -1078  -1013  -973  -956  -946  -931  -898  -848  -790  -738  -704  -703  -732  -772  -815  -860  -890  -889  -853  -797  -744  -711  -701  -704  -709  -707  -703  -699  -693  -678  -654  -636  -645  -699  -781  -836  -822  -756  -677  -611  -565  -548  -557  -573  -572  -535  -452  -351  -267  -162  36  278  426  456  458  470  461  416  360  321  285  211  101  0  -58  -85  -113  -174  -263  -368  -473  -551  -597  -622  -618  -649  -796  -968  -858  -102  1531  3957  6700  9097  10586  10798  9622  7275  4271  1350  -754  -1753  -1824  -1301  -610  -163  -58  -119  -181  -195  -175  -143  -103  -60  -32  -26  -24  3  76  197  350  487  544  525  525  590  676  760  873  1012  1129  1207  1286  1401  1533  1637  1695  1719  1749  1829  1986  2189  2381  2539  2712  2942  3183  3365  3533  3807  4201  4585  4841  4962  5000  5004  5001  4990  4940  4807  4567  4209  3724  3122  2486  1966  1614  1329  1044  807  665  595  553  515  478  447  430  424  420  415  401  365  303  240  199  179  162  154  168  199  240  287  333  363  373  372  370  363  347  321  280  208  114  30  -22  -44  -37  5  100  215  262  203  91  0  -38  -31  -11  3  14  17  -16  -115  -248  -337  -344  -306  -270  -254  -256  -278  -329  -408  -522  -669  -810  -896  -920  -921  -930  -947  -946  -921  -899  -910  -961  -1048  -1147  -1221  -1274  -1339  -1429  -1517  -1573  -1587  -1571  -1539  -1502  -1462  -1407  -1340  -1271  -1214  -1177  -1160  -1160  -1197  -1301  -1470  -1659  -1827  -1966  -2103  -2250  -2394  -2534  -2703  -2919  -3169  -3438  -3701  -3913  -4037  -4080  -4086  -4117  -4219  -4383  -4556  -4711  -4813  -4648  -3819  -2089  247  2461  3916  4473  4265  3338  1811  1]
