reading_id,reading_time,wire_id,result_classification,heart_rate,heart_rate_alert,firmware_version,device_app_version,hardware_version,waveform_samples
6063a470-5416-11ed-8080-808080808080,Tue Oct 25 03:37:40 UTC 2022,0101e39b1d39,NSR,78,NONE,20001.171.50,2.10.0,Charge 5,[6377  6865  7279  7529  7534  7121  6337  5799  6058  7010  8315  9708  10801  11227  10903  9779  7747  5155  2854  1451  1049  1507  2388  3019  3033  2634  2149  1715  1411  1263  1204  1208  1286  1405  1514  1585  1606  1540  1346  1077  859  747  677  578  469  417  410  375  291  196  116  49  -9  -40  -27  22  107  211  285  306  306  352  495  698  824  798  724  723  784  827  799  663  376  -15  -365  -570  -663  -742  -899  -1190  -1596  -2003  -2320  -2543  -2684  -2749  -2770  -2799  -2867  -3012  -3274  -3606  -3878  -4011  -4027  -4008  -4028  -4101  -4220  -4368  -4482  -4525  -4546  -4602  -4700  -4827  -4949  -5033  -5096  -5180  -5310  -5496  -5718  -5906  -6039  -6168  -6281  -6308  -6222  -6080  -5974  -5964  -6059  -6220  -6326  -6285  -6153  -5991  -5754  -5389  -4957  -4593  -4370  -4248  -4148  -4033  -3938  -3896  -3890  -3897  -3913  -3945  -3982  -4012  -4059  -4158  -4290  -4393  -4467  -4562  -4656  -4656  -4534  -4350  -4182  -4075  -4055  -4156  -4411  -4738  -4891  -4578  -3594  -1959  -15  1860  3541  4916  5652  5466  4279  2179  -279  -2172  -2947  -2771  -2169  -1634  -1387  -1298  -1100  -729  -326  -11  195  340  497  686  864  1000  1104  1214  1367  1548  1702  1820  1930  2022  2084  2159  2314  2543  2773  2938  3016  3018  2970  2903  2853  2863  2970  3176  3431  3682  3900  4077  4223  4346  4462  4597  4760  4925  5053  5120  5134  5116  5080  5023  4923  4696  4226  3533  2813  2254  1916  1713  1523  1308  1108  965  886  834  772  712  680  674  693  756  880  1031  1140  1181  1171  1114  1001  871  811  869  993  1099  1156  1185  1208  1236  1274  1309  1326  1327  1329  1321  1242  1033  706  369  142  32  -47  -132  -189  -198  -164  -115  -74  -37  2  38  58  42  -44  -205  -365  -413  -304  -113  30  70  50  -4  -117  -277  -399  -417  -343  -258  -239  -339  -602  -1095  -1791  -2469  -2887  -3012  -2960  -2845  -2742  -2707  -2767  -2907  -3046  -2974  -2362  -981  1039  3225  5073  6370  7196  7489  6887  5187  2600  -225  -2329  -3212  -3169  -2752  -2496  -2640  -2853  -2753  -2460  -2254  -2178  -2154  -2148  -2159  -2155  -2106  -1997  -1807  -1570  -1387  -1310  -1323  -1394  -1487  -1571  -1620  -1624  -1606  -1593  -1581  -1544  -1461  -1346  -1229  -1115  -976  -813  -661  -502  -272  28  311  518  651  741  879  1211  1769  2358  2734  2856  2836  2760  2629  2412  2127  1851  1641  1450  1153  703  194  -261  -631  -944  -1222  -1410  -1424  -1291  -1129  -1021  -977  -973  -985  -1005  -1030  -1055  -1070  -1064  -1028  -979  -945  -940  -953  -968  -974  -970  -955  -938  -931  -934  -930  -879  -753  -604  -535  -565  -619  -637  -635  -668  -778  -924  -1012  -1005  -963  -949  -972  -1006  -1011  -999  -1001  -1021  -1047  -1018  -877  -702  -604  -603  -685  -823  -972  -1100  -1205  -1290  -1342  -1346  -1286  -1153  -957  -716  -487  -348  -314  -309  -253  -140  -54  -42  -52  -50  -70  -123  -190  -248  -298  -354  -411  -464  -516  -551  -557  -558  -579  -623  -689  -776  -859  -952  -1167  -1539  -1815  -1659  -957  260  1925  3880  5883  7610  8604  8403  6857  4247  1195  -1443  -3004  -3443  -3097  -2359  -1694  -1382  -1311  -1291  -1245  -1111  -853  -552  -338  -262  -280  -345  -447  -567  -649  -639  -526  -364  -233  -156  -96  -22  65  150  209  243  278  371  597  966  1348  1587  1666  1675  1713  1840  2039  2276  2560  2850  3045  3138  3228  3382  3557  3677  3733  3765  3782  3710  3481  3165  2920  2767  2568  2212  1733  1283  980  792  620  423  222  46  -86  -187  -272  -335  -363  -365  -352  -319  -260  -189  -147  -148  -168  -180  -175  -145  -58  114  338  508  530  369  108  -77  -117  -105  -122  -146  -133  -91  -57  -35  3  66  129  183  229  245  191  64  -78  -162  -161  -94  2  106  226  351  413  355  180  -47  -227  -303  -295  -229  -112  36  161  230  271  329  407  465  483  478  486  536  624  718  777  774  721  655  608  585  580  587  607  637  646  546  258  -171  -595  -893  -1017  -993  -910  -851  -839  -855  -937  -1219  -1751  -2294  -2471  -2031  -835  1042  3190  5203  6813  7651  7417  6122  4008  1497  -808  -2366  -3060  -3122  -2760  -2167  -1648  -1397  -1354  -1373  -1381  -1359  -1291  -1161  -976  -791  -677  -650  -663  -650  -577  -464  -359  -284  -264  -330  -459  -567  -595  -542  -419  -248  -78  24  50  53  88  174  298  440  576  679  729  743  782  931  1221  1568  1849  2010  2047  1957  1761  1533  1342  1200  1075  905  623  170  -441  -1031  -1371  -1450  -1488  -1718  -2181  -2677  -2974  -3047  -3020  -2985  -2962  -2944  -2933  -2933  -2941  -2946  -2919  -2839  -2736  -2687  -2738  -2848  -2946  -3007  -3047  -3074  -3081  -3051  -2963  -2821  -2688  -2649  -2701  -2750  -2733  -2676  -2626  -2566  -2436  -2237  -2027  -1844  -1743  -1778  -1925  -2107  -2264  -2362  -2415  -2458  -2475  -2427  -2333  -2258  -2239  -2232  -2162  -2021  -1855  -1670  -1427  -1121  -832  -654  -595  -595  -606  -618  -639  -657  -643  -572  -411  -158  105  276  363  477  686  942  1164  1319  1399  1412  1392  1371  1328  1207  965  615  251  5  -92  -135  -196  -271  -309  -291  -266  -268  -270  -251  -236  -278  -398  -503  -414  66  1083  2617  4513  6477  7968  8463  7801  6120  3802  1425  -434  -1405  -1553  -1251  -857  -687  -798  -892  -795  -639  -553  -517  -463  -412  -426  -491  -551  -585  -592  -577  -527  -410  -253  -138  -104  -117  -139  -149  -127  -55  60  196  334  476  623  754  837  905  1032  1233  1467  1730  2007  2234  2401  2577  2823  3151  3521  3853  4077  4172  4131  3947  3662  3363  3122  2968  2838  2611  2230  1716  1160  714  436  240  61  -78  -161  -209  -257  -325  -384  -370  -259  -106  -3  23  8  -22  -68  -132  -213  -298  -354  -323  -150  137  412  574  641  684  741  786  763  654  520  435  411  414  419  434  473  526  544  461  291  184  253  398  475  486  521  643  799  833  645  334  100  20  29  49  62  72  65  24  -36  -83  -79  -16  58  83  43  -32  -105  -172  -240  -288  -303  -310  -334  -381  -441  -504  -536  -484  -326  -101  104  223  256  246  244  283  379  502  590  622  613  556  412  204  24  -65  -79  -68  -100  -236  -484  -782  -1048  -1236  -1362  -1469  -1573  -1660  -1735  -1841  -2005  -2146  -2093  -1593  -402  1316  3068  4600  5839  6587  6648  5915  4251  1707  -1041  -3070  -3967  -3904  -3352  -2786  -2429  -2271  -2211  -2162  -2113  -2132  -2272  -2476  -2608  -2602  -2506  -2385  -2250  -2103  -1966  -1830  -1684  -1556  -1463  -1388  -1334  -1311  -1302  -1275  -1228  -1214  -1264  -1310  -1249  -1038  -709  -347  -60  83  129  215  444  786  1105  1294  1377  1473  1668  1950  2246  2474  2593  2631  2636  2618  2540  2346  2014  1607  1228  879  493  47  -397  -749  -959  -1052  -1135  -1321  -1605  -1847  -1947  -1942  -1900  -1837  -1755  -1649  -1529  -1457  -1475  -1532  -1574  -1621  -1697  -1736  -1640  -1433  -1254  -1170  -1148  -1145  -1146  -1150  -1153  -1148  -1124  -1061  -929  -740  -582  -533  -597  -732  -868  -945  -945  -882  -786  -693  -621  -566  -509  -439  -357  -280  -231  -217  -220  -219  -207  -191  -185  -195  -210  -203  -159  -107  -72  -24  75  175  163  22  -136  -217  -215  -174  -128  -81  -39  -19  -30  -71  -117  -138  -121  -75  -24  28  110  228  341  410  438  447  441  418  384  353  333  312  265  202  168  201  290  375  393  347  267  147  -48  -312  -566  -735  -809  -823  -791  -688  -547  -540  -745  -881  -510  602  2425  4696  6937  8652  9431  8887  6961  4151  1159  -1338  -2848  -3329  -3104  -2570  -2103  -1855  -1654  -1342  -999  -767  -670  -649  -651  -656  -661  -663  -648  -598  -502  -388  -311  -291  -310  -332  -316  -219  -31  209  449  630  714  716  682  673  770  1041  1461  1874  2103  2078  1866  1664  1709  2037  2418  2646  2754  2901  3122  3313  3399  3410  3402  3376  3254  2949  2503  2069  1707  1350  972  625  339  71  -213  -475  -639  -700  -723  -776  -868  -966  -1057  -1135  -1193  -1237  -1284  -1328  -1356  -1370  -1379  -1370  -1299  -1164  -1056  -1031  -1019  -983  -956  -917  -834  -720  -625  -622  -744  -957  -1184  -1325  -1299  -1080  -752  -483  -381  -436  -581  -757  -928  -1072  -1165  -1194  -1149  -1021  -850  -717  -660  -663  -707  -792  -893  -968  -994  -977  -919  -843  -791  -778  -775  -734  -637  -528  -464  -443  -447  -477  -514  -526  -496  -424  -328  -229  -124  -12  84  122  76  -21  -118  -181  -201  -181  -134  -84  -60  -73  -106  -147  -193  -248  -345  -536  -792  -998  -1084  -1078  -1037  -1013  -1088  -1320  -1641  -1853  -1596  -514  1327  3425  5257  6483  7008  6887  6049  4500  2490  331  -1496  -2530  -2849  -2824  -2550  -2021  -1479  -1179  -1094  -1049  -969  -899  -875  -879  -869  -814  -726  -652  -631  -651  -646  -559  -419  -310  -271  -272  -263  -207  -95  46  164  223  243  272  355  523  733  880  942  995  1083  1188  1291  1411  1602  1909  2275  2596  2859  3087  3239  3295  3303  3301  3264  3138  2910  2607  2239  1808  1354  945  589  221  -153  -427  -562  -641  -721  -751  -696  -645  -717  -914  -1140  -1306  -1383  -1397  -1382  -1350  -1312  -1278  -1243  -1187  -1115  -1077  -1056  -927  -681  -513  -591  -877  -1187  -1363  -1386  -1321  -1232  -1140  -1029  -906  -819  -791  -795  -804  -807  -805  -804  -809  -826  -860  -891  -892  -842  -749  -646  -554  -478  -426  -398  -380  -371  -367  -362  -350  -347  -396  -523  -657  -696  -653  -609  -597  -604  -590  -515  -390  -258  -152  -110  -149  -230  -268  -177  64  373  619  733  706  526  223  -67  -192  -121  40  166  221  243  245  173  -40  -358  -647  -849  -1023  -1196  -1308  -1318  -1262  -1252  -1400  -1619  -1601  -1086  -1  1594  3525  5430  6876  7550  7282  6044  4004  1596  -588  -2150  -2978  -3110  -2766  -2289  -1897  -1624  -1454  -1370  -1333  -1289  -1186  -1030  -898  -848  -846  -837  -833  -870  -931  -954  -901  -802  -700  -593  -474  -367  -266  -131  19  162  307  421  470  483  509  569  655  743  821  908  1066  1349  1721  2103  2450  2733  2926  3053  3157  3255  3346  3437  3513  3520  3408  3163  2810  2415  2032  1648  1269  976  824  760  668  465  180  -65  -170  -144  -102  -153  -314  -485  -523  -422  -304  -247  -233  -225  -218  -212  -205  -210  -255  -349  -453  -548  -660  -769  -816  -761  -593  -388  -283  -320  -389  -384  -317  -260  -263  -318  -373  -397  -401  -413  -436  -443  -406  -332  -243  -158  -97  -87  -173  -364  -557  -633  -585  -483  -397  -371  -427  -566  -756  -929  -1043  -1096  -1100  -1068  -1016  -953  -891  -850  -838  -856  -904  -964  -1012  -1057  -1124  -1202  -1232  -1154  -967  -726  -495  -330  -270  -310  -394  -458  -482  -482  -462  -416  -350  -291  -265  -299  -424  -630  -868  -1093  -1271  -1383  -1430  -1425  -1386  -1351  -1414  -1637  -1880  -1832  -1210  47  1752  3691  5694  7421  8353  8059  6467  3928  1081  -1279  -2618  -2999  -2841  -2515  -2229  -2049  -1934  -1825  -1686  -1546  -1459  -1428  -1387  -1273  -1107  -973  -910  -880  -843  -772  -656  -536  -485  -535  -642  -721  -728  -683  -614  -537  -451  -341  -213  -99  17  178  392  610  756  795  777  806  983  1332  1772  2197  2545  2791  2923  2961  2954  2934  2917  2909  2910  2916  2887  2744  2445  2060  1694  1322  812  156  -444  -803  -917  -910  -886  -882  -889  -895  -896  -893  -885  -873  -855  -819  -767  -747  -793  -869  -911  -902  -862  -836  -847  -879  -896  -863  -754  -595  -464  -403  -398  -442  -548  -708  -870  -944  -860  -655  -455  -340  -294  -276  -276  -323  -442  -620  -800  -914  -913  -782  -564  -357  -250  -277  -433  -663  -873  -1008  -1070  -1083  -1075  -1064  -1058  -1058  -1059  -1048  -1001  -917  -840  -802  -776  -734  -696  -692  -708  -665  -500  -273  -109  -37  0  48  109  163  197  216  227  224  205  173  123  54  -43  -203  -419  -627  -777  -862  -893  -899  -904  -913  -908  -871  -817  -806  -857  -846  -552  248  1675  3572  5500  7014  7838  7742  6562  4400  1693  -840  -2516  -3120  -2901  -2303  -1766  -1491  -1347  -1131  -845  -628  -538  -536  -586  -666  -742  -790  -818  -803  -715  -607  -546  -510  -439  -312  -202  -217  -352  -488  -546  -526  -417  -189  122  402  578  679  763  846  918  1003  1151  1375  1665  2027  2403  2674  2814  2923  3082  3268  3397  3445  3459  3462  3400  3194  2858  2494  2152  1800  1453  1174  915  553  104  -312  -663  -956  -1141  -1176  -1075  -890  -706  -582  -504  -436  -389  -411  -533  -714  -846  -873  -823  -739  -652  -593  -556  -510  -454  -425  -455  -534  -629  -719  -794  -852  -913  -998  -1082  -1088  -957  -737  -548  -444  -403  -411  -479  -607  -769  -906  -975  -991  -991  -992  -983  -956  -920  -890  -842  -737  -585  -448  -360  -341  -414  -545  -658  -723  -757  -777  -802  -833  -858  -867  -862  -852  -848  -851  -844  -820  -785  -772  -798  -834  -825  -737  -597  -463  -356  -255  -132  27  182  243  191  81  -40  -150  -217  -233  -222  -212  -228  -288  -379  -488  -625  -778  -885  -907  -857  -777  -722  -756  -927  -1203  -1460  -1544  -1305  -633  497  2065  3964  5893  7376  7935  7289  5484  2900  245  -1731  -2660  -2654  -2147  -1611  -1246  -1035  -973  -990  -966  -898  -856  -873  -932  -964  -915  -822  -731  -629  -491  -320  -156  -54  -27  -27  -14  11  21  5  -22  -42  -23  59  189  336  472  571  640  700  779  934  1199  1522  1831  2101  2333  2531  2704  2842  2926  2963  2971  2960  2926  2865  2779  2632  2357  1969  1593  1334  1188  1061  841  530  225  -30  -271  -508  -704  -841  -933  -996  -1043  -1070  -1053  -952  -772  -613  -600  -727  -871  -958  -997  -1017  -1031  -1031  -979  -837  -642  -506  -487  -532  -570  -583  -587  -602  -636  -674  -711  -762  -821  -841  -793  -706  -641  -621  -622  -612  -589  -578  -606  -684  -819  -981  -1100  -1125  -1056  -920  -768  -658  -623  -660  -737  -814  -876  -931  -984  -1026  -1053  -1056  -996  -836  -623  -467  -417  -436  -474  -521  -591  -644  -597  -450  -308  -242  -225  -228  -288  -457  -692  -859  -894  -858  -823  -804  -780  -724  -614  -450  -262  -64  151  363  510  558  505  355  156  1  -80  -125  -164  -212  -273  -347  -456  -609  -770  -893  -954  -967  -971  -1004  -1102  -1311  -1590  -1716  -1407  -476  1058  2900  4664  6145  7275  7948  7924  6896  4763  1909  -791  -2454  -2826  -2360  -1712  -1314  -1196  -1137  -1051  -994  -984  -990  -993  -993  -1008  -1039  -1052  -1021  -984  -987  -1007  -973  -848  -689  -550  -427  -334  -308  -341  -369  -296  -93  143  314  429  526  596  641  702  797  906  1024  1167  1347  1586  1899  2252  2580  2829  2975  3039  3073  3147  3297  3436  3410  3191  2914  2664  2373  1969  1485  1004  604  335  162  1  -164  -302  -402  -490  -588  -701  -819  -924  -988  -988  -919  -809  -715  -651  -573  -459  -363  -375  -551  -820  -1040  -1157  -1211  -1223  -1168  -1035  -862  -698  -562  -461  -417  -416  -417  -408  -422  -506  -654  -796  -875  -899  -906  -904  -858  -740  -579  -454  -424  -498  -651  -825  -946  -994  -1007  -1006  -967  -855  -701  -584  -538  -539  -568  -622  -689  -737  -753  -742  -715  -689  -703  -787  -910  -1005  -1039  -1019  -954  -858  -761  -687  -645  -638  -675  -760  -869  -966  -1034  -1074  -1097  -1114  -1131  -1136  -1091  -934  -648  -322  -65  92  179  220  232  230  211  150  15  -182  -378  -530  -658  -770  -836  -854  -883  -979  -1122  -1242  -1306  -1327  -1312  -1247  -1129  -1064  -1187  -1306  -940  144  1778  3700  5652  7225  7943  7555  6143  3947  1352  -966  -2408  -2912  -2731  -2182  -1691  -1436  -1230  -1007  -902  -939  -1038  -1133  -1190  -1203  -1178  -1106  -982  -834  -703  -610  -550  -501  -457  -433  -423  -388  -291  -154  -41  19  48  72  95  106  95  70  81  219  531  927  1275  1538  1751  1945  2139  2332  2531  2753  2975  3150  3290  3427  3534  3562  3466  3201  2779  2333  2028  1887  1773  1511  1024  421  -82  -369  -475  -502  -531  -585  -645  -684  -703  -719  -730  -704  -617  -496  -413  -401  -425  -451  -477  -506  -541  -590  -650  -705  -736  -747  -770  -826  -884  -890  -844  -775  -696  -620  -576  -567  -572  -576  -584  -620  -699  -798  -872  -897  -850  -717  -543  -424  -401  -430  -459  -469  -471  -477  -491  -520  -570  -632  -678  -699  -703  -682  -617  -513  -416  -364  -352  -352  -352  -355  -363  -359  -325  -273  -234  -215  -208  -218  -260  -345  -452  -530  -562  -569  -562  -505  -359  -151  31  140  192  235  311  409  474  461  360  177  -46  -248  -388  -465  -497  -505  -498  -476  -462  -509  -658  -860  -1012  -1062  -1012  -859  -630  -414  -210  221  1142  2542  4261  6065  7485  7954  7188  5256  2504  -328  -2334  -3083  -2780  -1936  -1065  -519  -468  -822  -1236  -1451  -1446  -1296  -1098  -945  -860  -795  -687  -543  -444  -474  -639  -839  -948  -956  -937  -932  -903  -773  -510  -197  35  128  121  102  156  328  570  780  903  964  1036  1175  1371  1584  1803  2047  2323  2587  2780  2893  2967  3037  3108  3141  3105  3008  2861  2600  2135  1550  1089  862  733  538  256  -49  -339  -611  -846  -998  -1043  -1025  -997  -976  -969  -995  -1061  -1141  -1197  -1215  -1206  -1180  -1145  -1103  -1057  -1025  -1024  -1033  -1004  -919  -808  -718  -673  -664  -683  -742  -840  -942  -1006  -1020  -1007  -990  -972  -946  -916  -907  -938  -975  -978  -947  -909  -882  -868  -849  -815  -784  -778  -809  -883  -976  -1033  -1030  -986  -938  -901  -851  -759  -661  -636  -685  -740  -773  -804  -845  -888  -910  -861  -703  -487  -329  -276  -284  -306  -340  -407  -494  -550  -555  -539  -529  -516  -482  -424  -361  -305  -225  -81  111  274  357  376  370  363  361  371  402  440  426  319  164  39  -67  -227  -437  -611  -692  -705  -698  -695  -694  -688  -685  -710  -778  -853  -828  -474  453  1918  3657  5479  7137  8193  8291  7264  5090  2153  -593  -2268  -2727  -2347  -1634  -1128  -1050  -1153  -1181  -1138  -1094  -1062  -1040  -1027  -990  -896  -775  -673  -588  -501  -429  -390  -375  -361  -344  -323  -292  -251  -192  -99  14  98  133  143  162  224  363  570  774  910  973  990  1024  1198  1602  2156  2659  2977  3111  3132  3146  3246  3445  3662  3805  3855  3808  3601  3172  2596  2079  1745  1523  1251  836  339  -101  -434  -671  -799  -826  -809  -805  -846  -932  -1055  -1210  -1365  -1467  -1514  -1546  -1558  -1478  -1312  -1190  -1186  -1237  -1261  -1231  -1151  -1040  -933  -871  -859  -874  -897  -947  -1022  -1063  -1018  -928  -860  -839  -852  -873  -883  -883  -884  -895  -927  -984  -1041  -1069  -1073  -1068  -1057  -1043  -1018  -966  -884  -783  -703  -685  -725  -781  -821  -833  -816  -775  -718  -650  -584  -537  -513  -490  -468  -504  -679  -964  -1205  -1277  -1181  -1021  -906  -863  -850  -812  -715  -556  -384  -261  -199  -194  -245  -322  -376  -365  -282  -173  -75  14  83  111  113  111  105  79  25  -43  -121  -241  -421  -634  -850  -1044  -1178  -1236  -1242  -1235  -1240  -1277  -1383  -1528  -1457  -758  726  2605  4303  5652  6805  7697  7964  7251  5359  2519  -383  -2387  -3171  -2986  -2272  -1502  -1017  -842  -804  -790  -792  -823  -868  -901  -904  -869  -790  -686  -595  -534  -494  -464  -443  -416  -365  -302  -265  -266  -287  -295  -235  -72  141  299  356  354  341  358  441  623  910  1234  1480  1605  1677  1808  2088  2480  2825  3030  3138  3207  3248  3263  3256  3199  3030  2733  2394  2130  1960  1782  1475  1039  604  263  18  -127  -181  -196  -277  -523  -897  -1217  -1347  -1307  -1195  -1103  -1067  -1065  -1049  -988  -912  -871  -870  -878  -877  -874  -895  -968  -1073  -1146  -1117  -969  -770  -636  -611  -647  -685  -697  -689  -686  -691  -684  -654  -642  -695  -781  -838  -847  -829  -814  -821  -852  -888  -919  -949  -969  -966  -942  -892  -810  -702  -592  -522  -516  -558  -605  -629  -643  -667  -701  -726  -735  -735  -728  -709  -683  -655  -633  -624  -635  -660  -684  -693  -678  -605  -422  -151  89  209  218  176  125  64  -11  -82  -123  -131  -146  -207  -313  -424  -500  -545  -601  -701  -845  -981  -1017  -901  -709  -615  -762  -1138  -1534  -1640  -1209  -170  1329  2984  4572  6014  7088  7432  6807  5088  2452  -328  -2338  -3207  -3105  -2450  -1731  -1298  -1218  -1320  -1408  -1380  -1218  -995  -831  -777  -799  -858  -927  -979  -1002  -995  -951  -872  -771  -658  -547  -450  -366  -296  -236  -166  -79  -11  1  -16  -23  7  101  247  387  482  571  755  1091  1487  1791  1945  2014  2091  2211  2363  2543  2728  2863  2918  2914  2858  2725  2505  2221  1868  1407  850  316  -61  -258  -349  -399  -440  -514  -662  -852  -1010  -1116  -1189  -1232  -1244  -1242  -1241  -1247  -1249  -1218  -1133  -1027  -961  -967  -1027  -1111  -1198  -1272  -1321  -1335  -1290  -1165  -996  -862  -804  -804  -830  -858  -868  -854  -844  -870  -906  -898  -817  -690  -586  -539  -518  -503  -514  -563  -615  -619  -566  -493  -426  -366  -320  -314  -364  -444  -505  -541  -573  -600  -585  -514  -429  -376  -361  -364  -374  -395  -429  -470  -506  -523  -496  -414  -321  -276  -270  -265  -268  -284  -277  -201  -37  158  274  255  153  94  150  253  313  330  361  437  510  479  316  117  -8  -51  -72  -130  -257  -436  -593  -639  -544  -425  -520  -839  -945  -355  1006  2888  4894  6553  7553  7878  7498  6259  4207  1726  -587  -2122  -2604  -2262  -1611  -1090  -827  -697  -574  -453  -380  -374  -425  -514  -619  -724  -804  -812  -722  -567  -413  -308  -253  -224  -175  -43  166  356  448  471  484  511  533  523  469  398  363  403  546  795  1074  1277  1387  1472  1601  1767  1947  2181  2496  2799  2985  3081  3184  3323  3441  3473  3352  3028  2552  2091  1739  1414  1030  624  250  -78  -355  -568  -723  -820  -860  -858  -844  -856  -926  -1050  -1178  -1258  -1284  -1282  -1277  -1272  -1260  -1238  -1220  -1208  -1160  -1041  -890  -786  -752  -759  -790  -848  -922  -978  -998  -986  -940  -866  -794  -765  -794  -845  -872  -845  -755  -631  -533  -490  -498  -544  -601  -654  -713  -767  -796  -804  -808  -813  -813  -788  -729  -672  -676  -747  -826  -862  -855  -824  -785  -743  -713  -704  -722  -773  -858  -978  -1127  -1261  -1311  -1234  -1058  -869  -732  -659  -636  -650  -674  -680  -669  -654  -631  -581  -498  -393  -270  -121  34  156  223  251  257  220  116  -25  -133  -171  -165  -149  -146  -174  -251  -380  -527  -636  -690  -710  -710  -701  -719  -809  -990  -1250  -1521  -1585  -1164  -174  1251  2876  4512  6153  7686  8583  8292  6698  4101  1151  -1208  -2328  -2377  -1914  -1341  -919  -787  -875  -1011  -1076  -1049  -947  -816  -716  -669  -653  -646  -637  -622  -587  -507  -403  -338  -345  -392  -433  -455  -464  -449  -366  -177  57  216  264  280  375  597  873  1076  1178  1262  1402  1590  1781  1961  2119  2226  2315  2459  2651  2811  2912  2980  3024  3047  3056  3033  2936  2755  2517  2191  1703  1125  660  385  198  -34  -341  -643  -841  -896  -839  -739  -662  -624  -607  -606  -664  -824  -1044  -1213  -1280  -1274  -1217  -1094  -926  -788  -729  -727  -725  -688  -621  -556  -521  -514  -516  -516  -516  -527  -550  -573  -587  -593  -607  -647  -701  -735  -736  -721  -708  -686  -627  -528  -437  -437  -572  -783  -943  -979  -916  -832  -777  -740  -700  -659  -630  -626  -645  -658  -648  -635  -647  -679  -720  -761  -777  -727  -597  -443  -369  -425  -550  -649  -700  -745  -801  -845  -860  -859  -858  -859  -854  -819  -729  -590  -435  -279  -103  73  189  220  201  165  103  -23  -217  -410  -541  -621  -671  -679  -648  -603  -571  -596  -699  -841  -963  -1029  -1041  -1018  -969  -920  -962  -1158  -1378  -1303  -554  1069  3289  5456  7051  7762  7400  6086  4148  1916  -169  -1692  -2513  -2709  -2425  -1911  -1508  -1368  -1339  -1212  -956  -709  -612  -681  -817  -906  -910  -870  -835  -804  -750  -670  -592  -504  -362  -180  -38  26  45  52  46  20  -17  -33  -4  58  168  373  674  984  1204  1316  1366  1414  1506  1673  1903  2137  2363  2616  2880  3074  3140  3090  2988  2891  2807  2733  2650  2484  2155  1698  1247  902  637  365  53  -240  -435  -522  -566  -644  -786  -923  -966  -962  -1012  -1103  -1149  -1098  -951  -774  -651  -606  -622  -668  -727  -804  -893  -954  -936  -818  -643  -482  -373  -331  -360  -409  -417  -369  -319  -359  -532  -762  -925  -986  -998  -1002  -993  -958  -907  -869  -854  -852  -850  -843  -831  -816  -805  -803  -801  -772  -703  -617  -537  -485  -509  -610  -706  -742  -733  -712  -698  -703  -738  -792  -833  -839  -814  -780  -757  -749  -736  -688  -582  -416  -223  -62  35  74  75  59  39  23  4  -33  -85  -133  -169  -197  -242  -331  -457  -578  -679  -756  -801  -820  -836  -871  -985  -1255  -1627  -1847  -1560  -562  1015  2873  4738  6284  7163  7176  6294  4597  2326  -1  -1802  -2807  -3051  -2683  -2002  -1451  -1263  -1285  -1302  -1280  -1265  -1263  -1239  -1155  -1026  -913  -848  -821  -808  -778  -701  -599  -522  -458  -357  -221  -115  -58  -20  15  51  97  145  183  220  273  364  535  801  1095  1318  1437  1497  1540  1586  1661  1810  2077  2452  2831  3104  3234  3259  3232  3173  3086  2994  2903  2737  2394  1892  1361  876  439  52  -297  -589  -763  -814  -808  -795  -780  -758  -746  -775  -866  -1020  -1209  -1379  -1475  -1486  -1419  -1269  -1064  -880  -794  -808  -853  -865  -849  -839  -851  -874  -892  -900  -901  -902  -905  -908  -897  -858  -802  -763  -760  -788  -822  -847  -853  -833  -799  -763  -720  -671  -634  -621  -629  -631  -609  -585  -582  -592  -597  -597  -598  -600  -603  -608  -617  -612  -575  -518  -466  -451  -483  -516  -517  -491  -451  -402  -340  -244  -115  9  88  146  227  299  317  305  304  314  320  320  320  326  324  287  191  53  -94  -241  -388  -533  -657  -744  -791  -816  -857  -940  -1089  -1269  -1314  -1005  -172  1192  2861  4541  6037  7147  7615  7230  5870  3602  910  -1367  -2612  -2821  -2391  -1804  -1423  -1272  -1157  -997  -865  -815  -828  -874  -929  -965  -953  -883  -781  -701  -673  -685  -699  -666  -548  -374  -235  -192  -228  -288  -332  -353  -368  -368  -290  -56  309  655  844  881  855  842  891  1020  1232  1542  1938  2329  2627  2832  2981  3104  3200  3247  3233  3176  3080  2889  2530  2067  1677  1442  1286  1084  786  445  131  -143  -386  -575  -699  -778  -845  -908  -958  -1009  -1091  -1193  -1265  -1277  -1245  -1205  -1174  -1110  -958  -754  -618  -604  -658  -708  -732  -737  -731  -716  -688  -652  -616  -595  -602  -640  -693  -723  -702  -652  -597  -545  -504  -472  -440  -411  -404  -455  -610  -843  -1031  -1093  -1032  -903  -794  -752  -721  -642  -528  -403  -267  -133  -32  21  17  -98  -358  -621  -667  -506  -351  -312  -343  -382  -409  -426  -435  -442  -448  -451  -446  -432  -416  -391  -326  -216  -87  35  156  329  583  792  751  458  126  -81  -161  -173  -169  -160  -127  -70  -32  -58  -154  -315  -502  -631  -653  -614  -572  -565  -636  -823  -1079  -1241  -1088  -377  987  2746  4511  6046  7146  7591  7253  6079  4159  1859  -235  -1629  -2228  -2233  -1897  -1509  -1271  -1174  -1138  -1109  -1077  -1067  -1096  -1155  -1218  -1260  -1271  -1272  -1282  -1306  -1312  -1231  -1008  -708  -473  -371  -369  -405  -425  -438  -484  -554  -599  -590  -519  -400  -231  17  338  655  907  1080  1180  1219  1236  1321  1568  1962  2372  2682  2853  2895  2873  2869  2879  2832  2700  2494  2191  1767  1317  991  781  551  233  -114  -418  -666  -885  -1067  -1175  -1216  -1227  -1237  -1250  -1266  -1276  -1273  -1246  -1189  -1115  -1057  -1033  -1037  -1048  -1061  -1075  -1085  -1088  -1087  -1088  -1087  -1075  -1052  -1033  -1030  -1043  -1067  -1095  -1110  -1076  -980  -864  -787  -763  -761  -752  -735  -737  -800  -913  -999  -980  -828  -603  -413  -310  -279  -297  -355  -438  -516  -560  -557  -522  -485  -470  -488  -531  -572  -577  -521  -395  -230  -86  -5  12  -24  -128  -295  -453  -523  -512  -475  -439  -409  -393  -392  -389  -352  -271  -174  -100  -65  -61  -73  -76  -40  71  263  482  663  756  736  595  372  160  30  -13  -10  4  12  0  -45  -114  -190  -263  -332  -389  -444  -518  -611  -695  -746  -789  -929  -1212  -1379  -932  379  2270  4262  6041  7394  8066  7814  6502  4197  1427  -879  -2140  -2487  -2274  -1814  -1461  -1318  -1189  -1015  -902  -859  -848  -876  -923  -917  -797  -591  -430  -399  -442  -476  -481  -475  -474  -476  -462  -412  -341  -277  -228  -180  -111  20  220  417  526  536  500  486  551  702  879  1003  1092  1256  1560  1946  2295  2539  2694  2813  2920  3008  3061  3054  2988  2892  2738  2451  2043  1612  1243  943  671  389  116  -98  -260  -433  -641  -839  -996  -1108  -1146  -1066  -880  -701  -638  -678  -763  -874  -994  -1079  -1109  -1098  -1074  -1039  -981  -910  -854  -814  -782  -762  -756  -757  -759  -763  -771  -788  -812  -822  -787  -722  -688  -721  -795  -857  -884  -892  -894  -880  -827  -717  -578  -486  -485  -537  -587  -610  -614  -630  -686  -789  -902  -969  -984  -980  -962  -927  -883  -830  -759  -683  -620  -579  -557  -542  -530  -532  -553  -589  -630  -664  -693  -717  -704  -623  -503  -420  -397  -365  -234  6  260  426  477  434  326  187  60  -9  -20  -1  12  -23  -144  -316  -459  -540  -582  -607  -618  -616  -616  -654  -771  -965  -1181  -1354  -1397  -1141  -327  1170  3146  5224  6959  7802  7396  5842  3562  1110  -907  -2112  -2556  -2487  -2142  -1729  -1354  -1037  -823  -729  -704  -708  -742  -795  -833  -832  -802  -775  -760  -732  -658  -529  -365  -209  -93  -9  66  136  188  199  158  99  71  95  165  279  447  643  811  941  1055  1145  1207  1302  1518  1863  2239  2573  2843  3026  3134  3232  3345  3437  3476  3447  3329  3133  2903  2647  2299  1809  1271  858  607  410  196  -29  -246  -442  -612  -766  -891  -939  -899  -828  -782  -764  -763  -798  -893  -1020  -1116  -1150  -1146  -1119  -1063  -963  -841  -768  -783  -836  -864  -845  -802  -782  -800  -821  -825  -829  -839  -849  -844  -814  -754  -685  -637  -620  -623  -638  -672  -726  -791  -848  -883  -894  -895  -898  -903  -905  -900  -892  -889  -891  -895  -884  -837  -741  -625  -545  -524  -543  -574  -614  -674  -746  -799  -810  -784  -742  -704  -674  -633  -583  -524  -429  -270  -71  113  235  271  228  154  103  93  100  96  65  15  -36  -97  -208  -394  -605  -760  -839  -882  -912  -925  -912  -880  -847  -847  -906  -997  -1059  -983  -536  509  2134  4084  6014  7496  8064  7439  5675  3124  400  -1749  -2853  -2994  -2564  -1983  -1593  -1439  -1324  -1156  -1000  -917  -908  -931  -957  -986  -1009  -1015  -1003  -970  -895  -766  -615  -497  -434  -411  -402  -388  -368  -344  -302  -238  -171  -110  -37  61  168  247  277  291  379  613  968  1347  1644  1797  1851  1948  2189  2524  2804  2937  2958  2946  2934  2910  2857  2791  2714  2591  2381  2067  1627  1093  610  320  214  161  29  -213  -470  -623  -661  -653  -651  -660  -674  -725  -853  -1023  -1136  -1138  -1042  -886  -732  -634  -593  -575  -564  -558  -564  -589  -635  -689  -736  -764  -775  -778  -756  -679  -571  -493  -466  -467  -473  -475  -487  -522  -571  -608  -622  -624  -623  -609  -569  -513  -464  -436  -431  -442  -448  -436  -423  -429  -448  -478  -523  -578  -627  -658  -669  -667  -659  -662  -701  -771  -827  -842  -826  -778  -748  -795  -873  -896  -859  -802  -763  -744  -713  -643  -536  -416  -307  -217  -128  -34  37  79  106  116  97  63  35  13  -22  -90  -194  -325  -492  -705  -937  -1130  -1244  -1296  -1337  -1373  -1393  -1441  -1553  -1632  -1484  -901  237  1851  3690  5478  6970  7846  7761  6591  4540  2051  -298  -1969  -2703  -2657  -2242  -1814  -1537  -1410  -1354  -1305  -1260  -1241  -1241  -1222  -1137  -989  -824  -693  -613  -560  -510  -471  -473  -526  -605  -665  -683  -657  -594  -520  -459  -389  -266  -82  125  303  414  489  611  819  1052  1202  1239  1221  1226  1315  1517  1812  2137  2430  2673  2918  3183  3384  3440  3337  3101  2811  2552  2295  1957  1511  975  404  -89  -442  -680  -833  -922  -974  -1014  -1048  -1065  -1039  -953  -870  -886  -983  -1084  -1168  -1239  -1281  -1292  -1282  -1248  -1189  -1122  -1080  -1055  -990  -836  -620  -433  -368  -437  -554  -600  -536  -462  -487  -558  -558  -499  -486  -573  -715  -826  -864  -829  -730  -604  -515  -488  -493  -497  -487  -473  -470  -495  -555  -654  -772  -869  -922  -935  -930  -911  -871  -811  -745  -685  -646  -638  -635  -598  -527  -436  -336  -261  -236  -251  -275  -271  -188  -18  166  279  330  409  573  777  936  992  961  905  860  787  654  482  333  252  238  244  219  146  53  -34  -116  -200  -299  -406  -479  -500  -514  -584  -702  -775  -773  -712  -407  473  2040  4051  6073  7606  8179  7576  5958  3706  1301  -718  -1963  -2452  -2443  -2133  -1736  -1452  -1295  -1186  -1089  -1005  -960  -964  -983  -1023  -1079  -1086  -1038  -984  -902  -771  -647  -586  -594  -634  -653  -625  -575  -555  -587  -630  -623  -547  -434  -299  -115  97  259  360  476  651  846  1034  1229  1432  1613  1740  1803  1834  1902  2062  2319  2601  2808  2919  2966  2938  2791  2536  2226  1837  1299  696  218  -68  -258  -453  -688  -926  -1104  -1194  -1209  -1173  -1118  -1077  -1063  -1077  -1115  -1168  -1215  -1255  -1300  -1346  -1358  -1302  -1180  -1024  -870  -754  -692  -662  -633  -602  -585  -581  -579  -566  -549  -564  -645  -752  -811  -811  -794  -786  -785  -774  -737  -677  -597  -489  -375  -309  -305  -333  -379  -437  -489  -525  -558  -606  -662  -704  -717  -693  -622  -512  -399  -330  -337  -402  -467  -493  -488  -474  -462  -450  -440  -440  -462  -502  -526  -494  -395  -253  -90  72  227  388  552  681  749  767  720  553  276  6  -153  -206  -211  -218  -269  -382  -518  -615  -651  -661  -695  -775  -881  -986  -1108  -1250  -1247  -798  242  1719  3346  4914  6252  7092  7143  6246  4421  1945  -540  -2289  -2979  -2815  -2212  -1589  -1247  -1169  -1150  -1107  -1070  -1050  -1040  -1040  -1048  -1052  -1038  -1007  -961  -895  -819  -760  -721  -678  -633  -610  -618  -644  -650  -618  -577  -560  -551  -498  -363  -180  -10  158  356  548  700  845  1024  1219  1363  1424  1453  1551  1792  2120  2388  2543  2666  2800  2901  2938  2938  2900  2735  2341  1772  1227  830  537  242  -83  -368  -537  -600  -629  -682  -764  -850  -941  -1035  -1103  -1129  -1135  -1150  -1177  -1162  -1023  -761  -510  -385  -370  -389  -390  -356  -307  -271  -249  -229  -222  -267  -408  -638  -903  -1153  -1336  -1404  -1338  -1164  -944  -745  -586  -435  -288  -180  -132  -125  -156  -250  -418  -615  -738  -747  -701  -657  -647  -679  -712  -702  -656  -598  -552  -522  -495  -469  -453  -464  -504  -542  -553  -550  -550  -544  -521  -492  -474  -474  -483  -492  -501  -509  -520  -525  -478  -319  -40  275  516  615  571  425  243  88  -6  -52  -77  -97  -116  -135  -151  -173  -231  -353  -517  -658  -728  -726  -685  -661  -766  -1096  -1549  -1797  -1543  -706  614  2200  3828  5409  6860  7893  8067  7023  4763  1806  -906  -2530  -2906  -2454  -1725  -1197  -1040  -1088  -1161  -1208  -1219  -1198  -1176  -1180  -1205  -1207  -1132  -985  -824  -687  -577  -493  -452  -463  -508  -556  -581  -572  -533  -468  -385  -288  -160  -21  70  91  76  89  187  383  623  846  1038  1220  1423  1647  1860  2053  2252  2451  2608  2719  2833  2988  3150  3227  3151  2931  2611  2212  1750  1291  931  682  458  213  -4  -137  -207  -280  -382  -493  -609  -731  -826  -870  -881  -878  -853  -782  -675  -579  -529  -518  -527  -547  -580  -618  -649  -667  -671  -657  -622  -574  -532  -503  -475  -439  -393  -326  -245  -181  -151  -132  -113  -105  -138  -231  -352  -435  -452  -416  -356  -297  -247  -199  -158  -174  -289  -467  -614  -672  -652  -581  -471  -352  -298  -346  -433  -482  -488  -480  -480  -503  -556  -622  -667  -667  -621  -548  -474  -410  -354  -313  -293  -286  -282  -267  -228  -164  -102  -107  -250  -508  -742  -846  -804  -633  -387  -151  41  193  297  345  363  398  476  582  656  630  466  206  -54  -277  -461  -578  -617  -625  -656  -747  -894  -1023  -1033  -938  -882  -952  -1083  -1195  -1343  -1541  -1519  -871  558  2540  4663  6556  7901  8359  7670  5855  3250  491  -1667  -2827  -3115  -2843  -2312  -1769  -1372  -1179  -1150  -1183  -1215  -1230  -1219  -1175  -1096  -992  -881  -796  -767  -785  -803  -791  -760  -744  -768  -831  -888  -880  -767  -533  -241  -7  111  151  156  148  132  126  185  363  628  896  1147  1386  1565  1654  1702  1808  2046  2385  2719  2963  3101  3161  3170  3113  2951  2687  2397  2148  1924  1650  1257  731  168  -274  -511  -583  -586  -595  -641  -727  -825  -887  -904  -907  -908  -903  -901  -930  -1004  -1094  -1144  -1129  -1073  -1005  -934  -855  -769  -687  -631  -609  -606  -607  -612  -637  -679  -695  -629  -478  -323  -275  -368  -523  -633  -666  -650  -620  -594  -570  -542  -521  -543  -620  -704  -720  -655  -576  -536  -537  -559  -606  -696  -809  -892  -919  -892  -817  -720  -652  -636  -661  -701  -738  -760  -768  -761  -729  -651  -543  -465  -462  -539  -654  -748  -797  -809  -796  -768  -719  -644  -570  -520  -475  -406  -288  -83  178  383  459  422  317  185  53  -54  -110  -105  -62  -35  -77  -197  -352  -486  -593  -718  -893  -1054  -1082  -975  -847  -776  -773  -863  -1034  -1087  -660  458  2135  4048  5867  7200  7679  7188  5795  3650  1190  -878  -2106  -2537  -2413  -1981  -1542  -1279  -1143  -1055  -1010  -996  -984  -947  -865  -757  -660  -582  -498  -382  -250  -145  -90  -85  -129  -218  -316  -382  -406  -394  -343  -240  -86  86  235  331  391  453  564  760  999  1171  1234  1247  1307  1467  1691  1909  2100  2294  2517  2766  3005  3186  3305  3382  3397  3290  3028  2665  2280  1903  1549  1222  894  572  293  56  -179  -428  -647  -789  -858  -885  -908  -952  -1003  -1035  -1047  -1044  -1007  -914  -791  -703  -678  -688  -702  -710  -717  -727  -741  -753  -762  -774  -800  -846  -910  -979  -1000  -894  -677  -469  -354  -321  -323  -322  -306  -300  -334  -414  -517  -638  -788  -943  -1049  -1068  -997  -856  -700  -596  -567  -587  -616  -624  -608  -591  -587  -578  -554  -536  -543  -565  -577  -571  -565  -577  -614  -657  -684  -685  -670  -642  -588  -513  -464  -454  -420  -324  -179  9  213  347  355  254  115  16  -15  -13  -7  -5  -13  -42  -95  -157  -214  -268  -337  -423  -518  -638  -782  -904  -974  -1001  -997  -977  -1015  -1161  -1246  -899  119  1731  3674  5587  7056  7733  7354  5892  3647  1110  -1108  -2478  -2880  -2583  -1983  -1416  -1076  -985  -1032  -1091  -1118  -1112  -1054  -921  -760  -685  -758  -919  -1057  -1109  -1053  -869  -608  -399  -325  -357  -419  -457  -465  -463  -431  -308  -73  192  383  495  591  689  753  777  810  925  1157  1436  1649  1753  1796  1852  1988  2267  2702  3165  3472  3577  3556  3456  3285  3088  2909  2662  2196  1551  958  559  315  142  -19  -189  -365  -533  -667  -735  -749  -757  -799  -875  -941  -961  -955  -972  -1014  -1062  -1111  -1151  -1164  -1148  -1113  -1081  -1059  -1029  -983  -925  -844  -744  -659  -615  -614  -633  -646  -630  -593  -598  -687  -790  -822  -783  -721  -675  -650  -632  -649  -747  -886  -938  -865  -761  -704  -693  -700  -708  -710  -717  -735  -731  -682  -629  -619  -651  -704  -731  -692  -602  -513  -459  -437  -429  -433  -465  -542  -644  -722  -761  -782  -766  -695  -604  -518  -423  -316  -212  -102  40  223  390  458  390  237  95  24  15  33  58  83  92  38  -128  -388  -635  -755  -721  -632  -615  -716  -886  -1052  -1181  -1268  -1303  -1213  -802  157  1717  3664  5630  7236  8055  7731  6302  4161  1792  -275  -1610  -2150  -2126  -1841  -1579  -1458  -1395  -1308  -1213  -1131  -1048  -961  -882  -825  -797  -788  -779  -768  -758  -727  -648  -533  -431  -366  -328  -298  -275  -256  -238  -226  -228  -238  -232  -174  -49  128  337  552  719  792  805  889  1166  1586  1950  2131  2188  2265  2451  2727  3012  3232  3358  3418  3446  3384  3114  2637  2137  1772  1513  1259  978  667  314  -59  -373  -575  -691  -761  -801  -832  -878  -951  -1037  -1113  -1147  -1119  -1031  -903  -780  -729  -778  -874  -930  -904  -830  -757  -695  -634  -578  -541  -526  -531  -563  -640  -761  -887  -972  -989  -925  -800  -675  -593  -559  -573  -640  -733  -799  -819  -809  -784  -739  -672  -603  -565  -567  -610  -692  -785  -847  -871  -876  -881  -885  -880  -867  -841  -783  -691  -602  -564  -578  -612  -649  -692  -752  -844  -948  -1000  -957  -846  -723  -612  -519  -464  -450  -453  -449  -434  -420  -406  -367  -286  -187  -111  -77  -66  -42  13  84  130  137  133  128  82  -30  -186  -334  -438  -513  -601  -706  -791  -840  -877  -928  -1004  -1109  -1232  -1314  -1275  -1137  -911  -392  678  2331  4343  6354  7902  8514  7960  6314  3872  1182  -1050  -2360  -2783  -2631  -2199  -1727  -1355  -1084  -894  -796  -777  -788  -801  -809  -817  -821  -804  -749  -664  -585  -535  -511  -494  -478  -465  -462  -476  -501  -507  -464  -369  -236  -95  1  53  121  240  370  473  574  731  939  1135  1274  1352  1411  1524  1745  2063  2412  2718  2935  3077  3177  3244  3286  3312  3275  3055  2592  2040  1612  1298  946  532  123  -279  -644  -875  -961  -992  -1013  -1019  -1019  -1042  -1076  -1086  -1065  -1043  -1039  -1043  -1041  -1031  -1022  -1018  -1020  -1020  -1004  -960  -903  -858  -818  -766  -717  -694  -686  -679  -680  -677  -660  -630  -591  -541  -484  -473  -541  -628  -680  -722  -765  -803  -835  -860  -878  -877  -830  -711  -543  -391  -302  -282  -301  -347  -439  -579  -750  -953  -1168  -1301  -1239  -929  -497  -188  -151  -353  -649  -874  -963  -943  -850  -714  -589  -512  -442  -303  -103  62  134  139  114  73  20  -46  -139  -246  -314  -307  -250  -225  -309  -501  -734  -926  -1030  -1055  -1045  -1030  -1023  -1046  -1126  -1266  -1405  -1407  -1122  -468  597  2080  3837  5603  7073  7837  7533  6108  3780  1062  -1232  -2533  -2924  -2756  -2288  -1784  -1461  -1335  -1297  -1258  -1174  -1050  -910  -790  -716  -687  -677  -678  -689  -678  -590  -427  -283  -252  -320  -405  -473  -549  -619  -618  -503  -283  -15  213  352  426  493  600  741  881  1023  1175  1315  1435  1577  1820  2187  2563  2796  2865  2859  2860  2904  3000  3117  3204  3223  3139  2915  2547  2122  1761  1489  1219  871  450  32  -289  -482  -612  -762  -942  -1092  -1152  -1127  -1073  -1025  -974  -923  -889  -875  -872  -883  -917  -969  -1016  -1041  -1046  -1034  -997  -926  -843  -781  -738  -683  -614  -561  -540  -540  -544  -547  -562  -598  -655  -717  -760  -777  -769  -735  -686  -648  -628  -606  -569  -522  -469  -408  -327  -242  -225  -360  -604  -802  -873  -858  -828  -816  -809  -785  -752  -716  -666  -613  -589  -609  -651  -685  -707  -732  -749  -705  -541  -277  -37  68  40  -44  -110  -132  -120  -81  -24  38  92  123  120  71  -26  -162  -333  -522  -697  -846  -965  -1027  -1028  -1004  -987  -988  -1016  -1070  -1073  -865  -253  877  2455  4252  5960  7174  7526  6880  5311  3128  848  -1056  -2329  -2859  -2640  -1923  -1196  -817  -791  -901  -987  -1034  -1043  -970  -801  -609  -487  -455  -467  -479  -469  -428  -357  -274  -208  -167  -149  -151  -165  -176  -166  -114  -8  148  324  463  538  566  580  602  636  710  879  1155  1451  1663  1769  1843  1983  2234  2555  2869  3109  3252  3319  3350  3374  3382  3318  3089  2647  2077  1521  1027  549  75  -324  -579  -689  -709  -696  -683  -678  -678  -687  -724  -797  -888  -972  -1043  -1105  -1157  -1191  -1208  -1213  -1194  -1117  -967  -787  -651  -591  -580  -576  -578  -626  -748  -874  -886  -781  -673  -644  -683  -744  -818  -912  -975  -928  -769  -600  -539  -590  -663  -709  -746  -793  -836  -864  -876  -875  -866  -862  -872  -892  -882  -804  -692  -616  -608  -651  -709  -750  -762  -760  -757  -755  -752  -751  -760  -790  -833  -866  -868  -827  -753  -676  -628  -609  -598  -567  -503  -412  -326  -262  -194  -94  19  95  111  92  61  6  -103  -276  -472  -635  -737  -797  -851  -905  -943  -964  -1007  -1105  -1222  -1304  -1367  -1507  -1785  -2041  -1935  -1239  30  1704  3537  5269  6615  7265  6971  5679  3594  1138  -1075  -2542  -3200  -3239  -2856  -2304  -1840  -1607  -1574  -1612  -1635  -1628  -1606  -1592  -1594  -1597  -1585  -1563  -1543  -1540  -1536  -1497  -1440  -1408  -1409  -1410  -1361  -1218  -989  -750  -590  -532  -535  -556  -578  -585  -539  -401  -191  20  213  408  608  807  1025  1301  1614  1867  2004  2080  2208  2455  2761  2990  3081  3080  3050  3003  2890  2618  2162  1655  1265  1032  884  763  663  570  456  336  276  315  421  523  580  593  575  531  473  418  365  312  272  250  244  243  235  204  144  73  25  0  -26  -56  -75  -69  -29  58  178  269  286  246  201  202  252  304  315  270  189  114  62  22  -12  -57  -136  -233  -303  -333  -336  -321  -283  -225  -166  -128  -117  -119  -116  -97  -70  -49  -37  -28  -25  -60  -163  -299  -359  -251  0]
