reading_id,reading_time,wire_id,result_classification,heart_rate,heart_rate_alert,firmware_version,device_app_version,hardware_version,waveform_samples
0a890430-60a7-11ed-8080-808080808080,Thu Nov 10 03:23:27 UTC 2022,0101e39b1d39,NSR,96,NONE,20001.171.50,2.10.0,Charge 5,[0  2310  4133  5140  5296  4583  2847  252  -2403  -4205  -4896  -4872  -4548  -4098  -3659  -3381  -3284  -3296  -3393  -3577  -3755  -3761  -3540  -3210  -2919  -2742  -2667  -2618  -2504  -2299  -2068  -1880  -1737  -1617  -1535  -1516  -1583  -1739  -1921  -2008  -1905  -1627  -1296  -1054  -950  -932  -917  -855  -708  -445  -103  208  413  535  656  860  1170  1491  1685  1699  1579  1417  1307  1277  1294  1310  1280  1142  818  284  -352  -898  -1206  -1288  -1269  -1239  -1179  -1056  -908  -809  -786  -816  -844  -815  -707  -547  -399  -321  -357  -535  -814  -1076  -1253  -1379  -1463  -1453  -1379  -1361  -1469  -1638  -1734  -1689  -1575  -1494  -1470  -1474  -1494  -1536  -1592  -1631  -1622  -1553  -1450  -1346  -1251  -1186  -1205  -1318  -1457  -1555  -1602  -1613  -1603  -1575  -1538  -1508  -1491  -1489  -1498  -1504  -1455  -1305  -1098  -945  -890  -897  -934  -1005  -1114  -1237  -1347  -1446  -1551  -1646  -1700  -1699  -1644  -1556  -1479  -1477  -1615  -1896  -2235  -2566  -2704  -2152  -596  1641  4099  6492  8393  9257  8685  6558  3263  -153  -2513  -3362  -3065  -2297  -1675  -1486  -1567  -1662  -1720  -1768  -1794  -1801  -1816  -1832  -1786  -1618  -1383  -1213  -1163  -1189  -1232  -1261  -1265  -1230  -1154  -1067  -972  -837  -661  -481  -301  -111  65  210  319  392  437  485  577  736  957  1208  1423  1550  1595  1613  1673  1833  2090  2389  2643  2740  2602  2275  1911  1662  1565  1499  1286  853  324  -100  -345  -476  -594  -769  -981  -1128  -1116  -938  -690  -512  -453  -459  -478  -508  -552  -589  -603  -629  -717  -853  -956  -980  -944  -877  -804  -739  -654  -491  -262  -76  -4  -3  -4  4  7  2  -3  -6  -6  4  40  92  124  103  41  2  62  230  437  590  649  646  639  670  744  837  931  1065  1300  1630  1944  2123  2151  2097  2030  1988  1968  1944  1912  1887  1882  1888  1886  1854  1775  1640  1445  1221  1038  933  953  1148  1309  1099  741  969  2194  4307  6905  9309  10758  10778  9402  7068  4313  1699  -220  -1238  -1501  -1188  -576  -94  74  80  96  157  218  285  406  560  645  602  478  374  338  370  491  716  969  1135  1183  1153  1082  1010  1006  1134  1363  1576  1685  1705  1704  1746  1863  2030  2171  2240  2277  2352  2487  2639  2766  2868  2970  3101  3280  3487  3679  3840  3937  3895  3707  3419  3001  2401  1729  1208  885  619  341  126  27  -12  -128  -415  -785  -1046  -1128  -1108  -1074  -1067  -1115  -1228  -1371  -1457  -1376  -1067  -642  -326  -214  -228  -294  -399  -521  -606  -631  -618  -597  -589  -586  -567  -517  -415  -252  -83  17  43  35  26  17  0  -21  -37  -46  -54  -60  -43  20  117  196  228  237  255  297  394  579  811  949  780  172  -657  -1268  -1510  -1591  -1713  -1916  -2159  -2432  -2780  -3198  -3576  -3823  -3975  -4143  -4379  -4625  -4792  -4894  -5029  -5221  -5305  -4933  -3747  -1690  905  3505  5471  6199  5395  3182  63  -3117  -5462  -6487  -6307  -5446  -4554  -4052  -3907  -3882  -3874  -3897  -3939  -3978  -4008  -4018  -3963  -3801  -3575  -3380  -3230  -3067  -2890  -2757  -2640  -2441  -2167  -1943  -1838  -1804  -1780  -1735  -1660  -1575  -1523  -1511  -1485  -1387  -1225  -1053  -869  -634  -382  -189  -29  179  431  687  974  1300  1566  1696  1728  1717  1626  1388  1052  755  521  274  9  -237  -479  -726  -949  -1128  -1263  -1369  -1476  -1602  -1715  -1790  -1832  -1850  -1835  -1759  -1622  -1469  -1334  -1219  -1126  -1067  -1039  -1024  -1000  -949  -881  -827  -800  -794  -800  -802  -782  -743  -709  -697  -703  -721  -755  -803  -834  -815  -749  -645  -519  -405  -329  -298  -320  -393  -483  -533  -532  -510  -495  -501  -508  -438  -215  108  374  491  480  418  369  351  335  283  194  118  91  94  88  63  31  -12  -80  -162  -231  -276  -299  -298  -274  -275  -417  -741  -965  -603  576  2426  4653  6887  8652  9517  9241  7763  5231  2131  -671  -2347  -2651  -1881  -602  418  626  198  -268  -460  -427  -294  -139  0  128  227  248  210  204  263  340  391  416  433  452  461  438  372  290  261  374  654  988  1217  1303  1328  1365  1434  1524  1641  1817  2042  2234  2329  2338  2309  2286  2325  2482  2736  2966  3056  2959  2704  2409  2205  2090  1953  1695  1272  714  173  -154  -239  -206  -168  -174  -237  -336  -420  -462  -483  -512  -546  -581  -623  -663  -682  -665  -602  -513  -443  -416  -410  -386  -329  -274  -285  -375  -473  -519  -527  -528  -532  -535  -528  -502  -464  -428  -401  -401  -462  -576  -672  -713  -730  -754  -761  -701  -588  -496  -459  -438  -380  -279  -170  -78  9  107  201  262  283  288  287  259  179  63  -50  -169  -324  -488  -600  -646  -655  -644  -608  -545  -469  -378  -315  -459  -837  -990  -315  1339  3635  6020  7936  9016  9128  8192  6158  3316  432  -1639  -2492  -2314  -1623  -909  -394  -116  -29  0  50  107  178  243  249  171  20  -147  -251  -269  -217  -98  51  171  240  282  314  339  361  369  357  346  393  552  796  1032  1201  1297  1322  1296  1263  1261  1311  1437  1657  1959  2288  2536  2625  2580  2500  2462  2465  2444  2351  2196  1997  1771  1497  1133  702  315  68  -70  -222  -446  -686  -860  -936  -951  -978  -1044  -1121  -1177  -1202  -1212  -1238  -1289  -1339  -1368  -1380  -1384  -1398  -1450  -1545  -1649  -1713  -1728  -1720  -1706  -1679  -1640  -1615  -1627  -1662  -1693  -1697  -1674  -1646  -1618  -1574  -1528  -1501  -1492  -1495  -1520  -1582  -1674  -1757  -1795  -1769  -1667  -1504  -1331  -1202  -1126  -1069  -967  -794  -614  -505  -472  -474  -484  -506  -562  -664  -793  -899  -943  -924  -874  -834  -843  -939  -1145  -1403  -1592  -1634  -1518  -1304  -1220  -1486  -1864  -1749  -795  816  2675  4507  6204  7564  8103  7240  4756  1240  -1969  -3694  -3750  -2734  -1499  -765  -709  -995  -1249  -1347  -1350  -1332  -1310  -1249  -1110  -927  -794  -757  -769  -760  -696  -601  -531  -509  -513  -511  -485  -435  -360  -257  -135  -23  64  149  260  400  562  757  966  1128  1217  1260  1290  1346  1461  1623  1795  1953  2083  2177  2244  2299  2343  2371  2373  2316  2141  1802  1339  883  539  296  74  -200  -534  -852  -1064  -1137  -1114  -1063  -1034  -1034  -1042  -1039  -1034  -1040  -1053  -1062  -1075  -1114  -1185  -1263  -1320  -1343  -1310  -1199  -1041  -911  -849  -839  -850  -853  -836  -805  -801  -887  -1092  -1332  -1470  -1482  -1422  -1339  -1286  -1270  -1229  -1126  -984  -845  -732  -636  -549  -487  -467  -490  -527  -526  -450  -311  -157  -44  4  2  -26  -78  -152  -235  -286  -246  -79  155  330  351  204  -68  -375  -628  -779  -844  -894  -987  -1104  -1222  -1386  -1601  -1714  -1486  -738  519  2153  4075  6071  7721  8587  8192  6275  3292  260  -1855  -2620  -2301  -1559  -956  -705  -713  -808  -888  -917  -905  -880  -858  -848  -847  -852  -855  -846  -806  -728  -635  -573  -559  -569  -560  -494  -369  -216  -82  0  50  110  183  238  268  302  359  445  566  762  1095  1546  1950  2162  2200  2168  2136  2133  2184  2303  2447  2545  2563  2521  2454  2385  2320  2215  1955  1454  854  428  244  146  9  -179  -402  -611  -743  -786  -785  -785  -794  -775  -685  -572  -540  -595  -659  -677  -637  -573  -542  -585  -705  -830  -860  -778  -658  -572  -528  -502  -488  -505  -574  -678  -766  -799  -766  -678  -570  -500  -493  -538  -603  -648  -653  -622  -572  -526  -488  -448  -417  -432  -504  -591  -649  -666  -652  -606  -530  -451  -386  -306  -191  -56  85  217  285  247  115  -54  -196  -293  -376  -462  -540  -588  -590  -559  -535  -584  -770  -1075  -1412  -1680  -1719  -1292  -271  1256  3139  5225  7198  8574  8913  7944  5690  2696  -41  -1688  -2143  -1863  -1358  -987  -886  -941  -992  -1000  -980  -940  -887  -838  -807  -791  -770  -725  -651  -560  -477  -399  -310  -218  -132  -53  31  139  287  457  602  680  685  645  612  617  648  713  851  1044  1221  1347  1432  1485  1542  1699  2016  2393  2663  2787  2835  2843  2786  2666  2526  2362  2102  1740  1368  1021  661  312  70  -45  -114  -199  -296  -375  -446  -534  -624  -682  -703  -709  -714  -710  -689  -654  -618  -592  -587  -639  -781  -969  -1101  -1116  -1029  -903  -816  -818  -907  -1031  -1121  -1143  -1106  -1038  -974  -948  -974  -1035  -1094  -1126  -1128  -1110  -1082  -1064  -1094  -1199  -1354  -1489  -1568  -1602  -1595  -1536  -1415  -1243  -1066  -951  -914  -914  -918  -922  -928  -921  -874  -779  -668  -589  -560  -565  -604  -698  -838  -971  -1052  -1083  -1108  -1174  -1291  -1412  -1488  -1510  -1493  -1470  -1511  -1708  -2059  -2414  -2589  -2524  -2180  -1344  215  2476  5103  7482  8879  8761  7034  4087  705  -2087  -3517  -3563  -2775  -1860  -1395  -1460  -1696  -1828  -1845  -1817  -1773  -1718  -1660  -1616  -1593  -1584  -1582  -1582  -1581  -1587  -1611  -1652  -1694  -1713  -1657  -1476  -1210  -980  -850  -788  -755  -748  -755  -721  -573  -307  -23  189  338  489  676  887  1110  1350  1604  1830  1976  2045  2100  2202  2322  2380  2361  2325  2307  2264  2125  1870  1575  1334  1175  1056  927  771  611  477  373  288  214  136  50  -19  -57  -71  -85  -112  -130  -100  1  167  339  450  488  484  433  311  145  26  24  145  322  445  424  232  -52  -295  -415  -412  -308  -134  49  168  187  128  37  -36  -71  -94  -147  -245  -358  -436  -449  -401  -327  -265  -225  -195  -177  -174  -167  -118  0  175  340  440  477  481  479  481  485  469  414  326  233  147  65  -2  -50  -94  -165  -297  -466  -587  -615  -569  -518  -602  -956  -1434  -1541  -843  684  2729  4888  6771  8046  8499  7980  6402  3935  1154  -1104  -2241  -2308  -1820  -1311  -1068  -1070  -1146  -1195  -1213  -1197  -1147  -1070  -936  -712  -450  -236  -73  67  152  135  26  -88  -129  -96  -29  45  79  40  -23  -48  -2  122  292  437  554  722  986  1281  1496  1570  1521  1429  1460  1766  2247  2622  2764  2763  2696  2546  2300  2011  1740  1528  1387  1269  1128  987  888  810  660  349  -87  -480  -707  -789  -804  -803  -831  -945  -1153  -1373  -1504  -1531  -1500  -1458  -1421  -1381  -1336  -1301  -1285  -1283  -1283  -1279  -1270  -1263  -1276  -1328  -1411  -1496  -1563  -1592  -1570  -1513  -1425  -1289  -1126  -1009  -1002  -1080  -1166  -1215  -1234  -1237  -1220  -1175  -1111  -1051  -1014  -996  -978  -957  -942  -936  -932  -924  -907  -867  -781  -645  -506  -413  -374  -362  -356  -341  -309  -255  -185  -139  -186  -376  -653  -885  -1015  -1092  -1169  -1253  -1338  -1435  -1535  -1596  -1557  -1334  -917  -417  187  1152  2640  4537  6536  8060  8331  6999  4427  1352  -1286  -2675  -2710  -1917  -938  -298  -167  -285  -374  -387  -377  -385  -420  -475  -532  -565  -554  -490  -385  -267  -151  -43  5  -27  -68  -47  42  195  378  521  597  645  693  730  736  731  759  840  948  1080  1257  1464  1651  1811  1959  2088  2192  2276  2339  2396  2474  2553  2584  2553  2453  2274  2006  1626  1127  567  54  -299  -451  -470  -463  -485  -528  -614  -797  -1054  -1278  -1360  -1249  -1018  -830  -779  -854  -1016  -1228  -1432  -1557  -1576  -1519  -1441  -1384  -1360  -1360  -1377  -1386  -1321  -1124  -856  -674  -671  -803  -962  -1064  -1096  -1094  -1083  -1085  -1113  -1154  -1182  -1194  -1205  -1224  -1248  -1270  -1283  -1275  -1223  -1112  -957  -794  -683  -691  -805  -932  -990  -969  -914  -865  -818  -766  -719  -686  -662  -616  -501  -331  -194  -164  -233  -348  -457  -534  -587  -639  -693  -755  -876  -1099  -1379  -1602  -1683  -1593  -1313  -858  -240  654  1940  3557  5351  6986  7879  7543  5871  3127  62  -2181  -2882  -2275  -1112  -141  158  -150  -600  -853  -896  -821  -662  -445  -251  -179  -250  -383  -457  -412  -287  -161  -81  -47  -37  -30  -26  -25  -8  57  191  353  466  510  539  616  733  836  912  984  1065  1165  1312  1501  1678  1798  1863  1876  1836  1791  1795  1850  1923  1975  1983  1924  1722  1330  855  479  259  120  -6  -157  -380  -646  -839  -903  -887  -848  -818  -828  -899  -1009  -1099  -1133  -1112  -1063  -1019  -998  -997  -979  -910  -799  -693  -625  -591  -577  -575  -584  -605  -633  -661  -688  -713  -722  -702  -664  -643  -668  -727  -757  -711  -613  -546  -566  -647  -717  -740  -731  -725  -752  -821  -880  -853  -749  -655  -622  -631  -649  -656  -630  -554  -447  -367  -348  -357  -346  -313  -274  -226  -164  -90  -9  54  79  43  -87  -299  -504  -626  -673  -690  -699  -713  -758  -842  -914  -893  -826  -925  -1205  -1224  -481  1141  3405  5826  7728  8456  7754  5858  3237  578  -1286  -2012  -1900  -1371  -821  -564  -575  -650  -708  -763  -802  -807  -795  -788  -773  -696  -521  -301  -136  -76  -92  -131  -165  -189  -195  -145  0  197  341  388  380  368  371  391  434  493  536  552  586  705  924  1160  1319  1394  1441  1501  1574  1634  1668  1682  1693  1710  1726  1699  1586  1401  1232  1139  1059  861  499  67  -305  -544  -642  -651  -632  -626  -645  -684  -740  -826  -934  -1024  -1065  -1037  -932  -797  -725  -759  -853  -932  -959  -933  -859  -767  -711  -714  -749  -781  -804  -832  -867  -901  -926  -939  -950  -966  -964  -934  -888  -848  -819  -808  -832  -914  -1050  -1190  -1267  -1230  -1083  -889  -703  -561  -509  -569  -696  -827  -949  -1060  -1129  -1128  -1057  -948  -841  -759  -706  -661  -556  -339  -68  143  233  217  158  132  167  200  150  22  -104  -194  -283  -403  -534  -639  -694  -710  -716  -732  -751  -752  -715  -650  -627  -667  -549  143  1661  3837  6208  8118  8826  7981  5879  3059  144  -2010  -2789  -2349  -1301  -255  338  350  53  -175  -224  -199  -199  -238  -276  -311  -378  -462  -513  -525  -516  -478  -362  -140  112  278  324  308  284  270  268  285  330  401  475  532  569  609  665  740  827  922  1023  1135  1260  1384  1476  1517  1535  1586  1704  1887  2102  2254  2234  2079  1948  1880  1691  1183  486  -45  -269  -322  -342  -369  -395  -408  -404  -394  -391  -403  -448  -543  -688  -842  -949  -988  -988  -978  -972  -968  -963  -946  -885  -754  -589  -474  -455  -513  -597  -656  -669  -649  -613  -591  -635  -785  -995  -1150  -1171  -1058  -866  -693  -600  -574  -578  -608  -677  -774  -849  -868  -848  -822  -808  -804  -804  -804  -810  -835  -888  -952  -1000  -1023  -1024  -989  -881  -699  -480  -255  -66  29  13  -59  -120  -143  -127  -75  1  59  31  -147  -452  -744  -901  -922  -874  -813  -789  -869  -1075  -1291  -1377  -1288  -841  293  2150  4428  6745  8506  8964  7850  5518  2547  -299  -2201  -2833  -2500  -1803  -1260  -992  -795  -553  -363  -309  -335  -341  -306  -271  -256  -213  -82  110  256  257  79  -193  -373  -360  -242  -140  -81  -43  16  131  292  449  563  646  723  792  853  904  931  937  973  1086  1252  1389  1454  1468  1478  1531  1649  1793  1886  1892  1831  1752  1699  1682  1677  1628  1438  1037  496  5  -301  -438  -480  -477  -469  -500  -605  -748  -855  -891  -887  -872  -852  -832  -828  -860  -916  -926  -849  -728  -638  -607  -627  -682  -764  -865  -953  -1000  -1011  -1006  -991  -954  -890  -819  -769  -741  -714  -695  -711  -754  -776  -749  -702  -693  -751  -866  -1000  -1100  -1137  -1128  -1109  -1106  -1118  -1126  -1119  -1090  -1021  -909  -778  -661  -564  -470  -348  -213  -125  -130  -226  -355  -448  -504  -572  -662  -729  -759  -779  -817  -881  -977  -1092  -1185  -1239  -1280  -1319  -1354  -1389  -1410  -1388  -1257  -903  -232  812  2296  4184  6160  7543  7579  6088  3556  720  -1550  -2658  -2795  -2450  -1904  -1406  -1119  -964  -830  -713  -632  -580  -554  -557  -576  -592  -605  -607  -559  -425  -243  -108  -59  -57  -63  -62  -54  -48  -44  -42  -48  -67  -88  -74  -12  64  146  272  447  609  715  783  851  935  1048  1184  1301  1367  1399  1434  1487  1567  1663  1709  1646  1513  1385  1270  1094  803  461  151  -138  -432  -673  -823  -924  -1029  -1138  -1215  -1241  -1225  -1186  -1137  -1079  -1015  -963  -945  -984  -1097  -1241  -1321  -1292  -1203  -1118  -1021  -862  -673  -539  -483  -458  -407  -313  -202  -128  -132  -226  -382  -533  -617  -619  -585  -576  -606  -648  -681  -698  -666  -542  -344  -171  -90  -69  -25  83  227  353  440  499  541  586  645  697  699  614  452  279  164  114  87  44  -43  -206  -426  -614  -691  -655  -558  -428  -253  -82  -48  -202  -422  -435  33  1104  2805  4977  7043  8243  8027  6265  3381  307  -1975  -3052  -3119  -2507  -1515  -561  -41  -4  -181  -336  -423  -486  -568  -666  -739  -770  -782  -783  -732  -578  -357  -181  -104  -100  -129  -164  -183  -172  -147  -132  -98  5  156  293  393  472  551  638  715  778  842  913  1008  1175  1432  1706  1906  2020  2109  2203  2271  2286  2261  2225  2181  2083  1884  1585  1229  858  491  163  -91  -289  -450  -550  -585  -617  -703  -837  -959  -1019  -1029  -1025  -1012  -953  -810  -618  -491  -532  -695  -833  -873  -847  -803  -748  -681  -617  -577  -567  -575  -586  -589  -589  -592  -600  -607  -610  -597  -550  -466  -376  -320  -305  -325  -376  -445  -498  -516  -490  -414  -316  -249  -237  -254  -246  -166  -7  162  271  306  292  262  245  273  366  494  576  508  233  -146  -425  -506  -436  -292  -150  -89  -173  -405  -710  -996  -1200  -1217  -992  -599  -14  965  2410  4224  6194  7771  8245  7251  4920  1862  -934  -2586  -2841  -2103  -1070  -361  -191  -318  -424  -433  -413  -415  -440  -452  -433  -406  -392  -371  -303  -195  -97  -43  -25  -24  -28  -28  -39  -76  -115  -120  -78  38  256  508  680  734  700  601  468  383  476  834  1343  1753  1942  1981  1969  1950  1941  1966  2043  2140  2179  2092  1867  1543  1183  850  585  385  210  42  -94  -191  -293  -443  -615  -740  -804  -860  -944  -1027  -1070  -1067  -1040  -1013  -1001  -1015  -1055  -1103  -1132  -1140  -1143  -1145  -1124  -1049  -924  -790  -684  -622  -604  -634  -722  -853  -993  -1109  -1149  -1079  -948  -852  -851  -955  -1147  -1364  -1508  -1531  -1463  -1366  -1296  -1266  -1247  -1208  -1153  -1105  -1047  -938  -795  -688  -657  -685  -729  -750  -757  -789  -850  -914  -982  -1067  -1173  -1289  -1402  -1505  -1587  -1661  -1789  -2031  -2333  -2523  -2462  -2219  -2068  -2113  -2000  -1299  105  2082  4311  6207  7064  6406  4287  1360  -1384  -3093  -3455  -2826  -1997  -1652  -1849  -2162  -2298  -2300  -2267  -2215  -2113  -1961  -1802  -1686  -1636  -1638  -1644  -1600  -1487  -1374  -1335  -1327  -1255  -1111  -952  -800  -664  -580  -574  -633  -717  -783  -818  -822  -749  -540  -232  43  199  265  304  348  392  433  519  711  980  1212  1334  1374  1390  1395  1359  1251  1079  912  830  813  757  586  330  74  -175  -452  -716  -942  -1141  -1232  -1124  -856  -557  -340  -216  -122  -29  47  97  124  146  204  344  582  856  1054  1133  1132  1109  1095  1102  1122  1143  1164  1188  1202  1194  1170  1113  942  570  74  -316  -486  -505  -469  -409  -335  -293  -316  -346  -317  -258  -201  -131  -28  127  352  621  854  976  962  819  597  388  266  240  276  326  350  338  298  223  119  11  -71  -112  -118  -122  -167  -273  -418  -551  -546  -127  991  2781  4854  6759  8069  8369  7537  5802  3410  775  -1242  -1932  -1402  -284  756  1225  1039  568  210  42  -55  -139  -179  -156  -102  -61  -52  -59  -56  -17  45  65  5  -61  -39  76  208  284  278  180  -6  -213  -344  -356  -275  -157  -56  22  109  220  359  546  769  950  1034  1048  1037  1027  1025  1032  1029  995  933  873  834  793  703  545  341  136  -57  -296  -626  -978  -1229  -1333  -1342  -1323  -1310  -1316  -1343  -1383  -1419  -1441  -1432  -1349  -1164  -918  -708  -601  -583  -602  -625  -641  -652  -664  -671  -668  -667  -697  -775  -852  -869  -843  -829  -829  -788  -655  -464  -320  -301  -425  -648  -865  -953  -832  -506  -121  130  159  -4  -269  -498  -584  -517  -364  -224  -155  -147  -166  -180  -160  -56  161  429  613  632  507  330  200  147  144  154  128  -4  -254  -530  -737  -870  -954  -974  -896  -729  -532  -387  -360  -469  -615  -481  281  1782  3867  6084  7719  8165  7233  5094  2256  -386  -2043  -2548  -2163  -1358  -713  -513  -588  -682  -714  -726  -774  -853  -888  -828  -705  -584  -488  -409  -357  -356  -396  -423  -385  -306  -245  -235  -262  -290  -304  -310  -318  -322  -297  -217  -99  4  66  104  160  287  515  778  960  1019  1005  983  989  1030  1085  1119  1110  1079  1041  991  920  826  708  567  405  207  -56  -370  -642  -800  -882  -970  -1113  -1320  -1534  -1659  -1608  -1354  -1000  -744  -705  -872  -1150  -1393  -1494  -1445  -1292  -1092  -912  -836  -899  -1033  -1130  -1137  -1057  -919  -772  -675  -640  -634  -639  -690  -825  -1007  -1133  -1127  -988  -795  -657  -607  -596  -584  -570  -562  -560  -564  -578  -599  -604  -574  -515  -434  -345  -282  -262  -276  -312  -353  -376  -365  -321  -235  -86  102  241  259  171  54  -20  -39  -32  -47  -116  -219  -302  -337  -341  -335  -334  -350  -397  -472  -578  -740  -936  -1058  -971  -505  529  2185  4289  6471  8136  8612  7574  5239  2251  -471  -2106  -2432  -1839  -883  -22  468  602  562  470  334  151  -32  -162  -204  -168  -106  -59  -14  47  110  150  175  210  258  296  323  361  418  475  524  564  596  640  727  831  902  929  927  908  880  880  1000  1318  1744  2054  2164  2180  2211  2269  2320  2354  2367  2305  2103  1815  1576  1418  1204  804  300  -72  -213  -218  -199  -197  -211  -241  -305  -418  -556  -679  -788  -920  -1059  -1136  -1116  -1025  -919  -847  -816  -803  -796  -792  -803  -847  -914  -928  -830  -675  -598  -676  -845  -990  -1082  -1170  -1259  -1280  -1216  -1139  -1106  -1110  -1115  -1089  -1027  -961  -896  -813  -733  -693  -678  -657  -641  -666  -742  -838  -920  -963  -954  -901  -836  -797  -773  -686  -479  -215  -33  -1  -81  -194  -280  -323  -335  -314  -260  -212  -219  -298  -426  -556  -645  -685  -697  -687  -634  -540  -543  -867  -1414  -1587  -881  661  2674  4719  6366  7297  7229  5903  3431  533  -1779  -2817  -2586  -1715  -991  -778  -834  -828  -777  -798  -808  -680  -469  -360  -414  -482  -429  -307  -242  -277  -344  -336  -239  -139  -105  -126  -171  -215  -231  -170  9  257  450  547  603  655  690  697  699  735  823  945  1105  1343  1628  1839  1929  1954  1978  2025  2090  2139  2143  2084  1963  1789  1561  1272  936  589  281  72  -31  -80  -123  -185  -280  -402  -512  -569  -582  -587  -609  -636  -655  -658  -635  -587  -536  -500  -487  -494  -503  -499  -490  -504  -581  -725  -882  -969  -912  -677  -352  -122  -112  -313  -594  -796  -866  -857  -813  -743  -665  -607  -576  -561  -556  -563  -583  -617  -662  -702  -723  -730  -743  -774  -805  -801  -745  -642  -523  -422  -332  -237  -152  -103  -89  -95  -104  -112  -138  -224  -407  -672  -931  -1094  -1153  -1154  -1115  -1018  -874  -751  -711  -776  -915  -1054  -1168  -1223  -1002  -266  968  2550  4349  6106  7342  7553  6414  3984  918  -1708  -3052  -2996  -2080  -1073  -488  -334  -356  -379  -371  -391  -513  -722  -917  -1031  -1072  -1046  -941  -786  -646  -550  -477  -374  -174  120  396  546  571  543  512  493  484  480  481  486  500  524  566  653  798  966  1108  1211  1280  1313  1320  1331  1384  1494  1646  1807  1936  2001  1975  1806  1447  954  502  231  129  102  71  -1  -106  -205  -283  -352  -439  -576  -752  -897  -962  -959  -919  -872  -839  -829  -829  -831  -835  -846  -859  -848  -794  -724  -688  -691  -702  -701  -683  -658  -638  -622  -592  -553  -523  -515  -524  -538  -547  -546  -535  -522  -530  -565  -605  -632  -650  -676  -735  -824  -906  -940  -928  -899  -876  -830  -714  -542  -397  -333  -321  -311  -286  -253  -219  -188  -171  -167  -168  -172  -209  -322  -497  -657  -753  -810  -875  -966  -1065  -1136  -1159  -1132  -1065  -1022  -1090  -1218  -1144  -560  730  2694  5008  7066  8140  7831  6301  3966  1361  -823  -2107  -2512  -2288  -1689  -1061  -724  -695  -786  -876  -946  -1004  -1058  -1094  -1105  -1102  -1096  -1079  -1026  -914  -743  -546  -374  -248  -163  -117  -110  -126  -136  -100  11  168  288  329  303  224  120  53  97  286  540  716  769  789  890  1095  1322  1479  1555  1586  1601  1612  1616  1599  1541  1410  1190  919  658  411  147  -107  -282  -367  -442  -583  -776  -938  -1012  -1011  -974  -926  -878  -837  -809  -802  -831  -890  -926  -893  -819  -757  -733  -749  -798  -877  -974  -1048  -1047  -921  -672  -401  -239  -239  -373  -562  -727  -850  -925  -910  -796  -651  -575  -601  -669  -711  -722  -719  -695  -640  -569  -505  -420  -283  -170  -207  -381  -533  -556  -491  -419  -317  -104  186  400  430  290  78  -86  -145  -128  -88  -68  -99  -200  -372  -565  -702  -757  -761  -760  -799  -879  -912  -858  -782  -677  -373  351  1728  3838  6337  8419  9206  8205  5622  2385  -326  -1792  -2026  -1538  -949  -632  -528  -421  -276  -171  -147  -201  -298  -388  -431  -414  -331  -202  -59  73  177  231  241  231  226  239  281  359  475  600  684  721  742  764  786  839  969  1145  1276  1310  1272  1208  1161  1173  1285  1495  1748  1997  2234  2435  2548  2543  2415  2199  1988  1860  1813  1779  1632  1240  661  153  -105  -159  -123  -61  3  50  44  -49  -232  -428  -546  -561  -509  -441  -395  -379  -381  -394  -422  -456  -469  -446  -399  -359  -341  -338  -336  -314  -262  -196  -159  -171  -219  -300  -417  -535  -605  -622  -618  -619  -624  -629  -638  -653  -679  -697  -656  -530  -364  -246  -237  -313  -389  -420  -421  -416  -409  -391  -351  -261  -98  94  212  205  123  52  25  3  -56  -172  -326  -459  -530  -550  -541  -510  -474  -471  -542  -700  -924  -1167  -1293  -1067  -302  1056  2901  4941  6772  7908  7893  6582  4212  1356  -1102  -2466  -2691  -2198  -1555  -1144  -958  -866  -827  -822  -824  -833  -851  -862  -811  -638  -370  -132  -21  -61  -235  -467  -627  -621  -447  -202  -14  76  114  141  174  236  354  519  676  774  814  824  819  809  803  818  875  1007  1249  1559  1820  1971  2055  2099  2059  1916  1748  1633  1521  1267  838  388  64  -136  -293  -471  -697  -945  -1164  -1329  -1453  -1546  -1613  -1670  -1724  -1768  -1805  -1845  -1889  -1920  -1926  -1913  -1883  -1839  -1786  -1727  -1674  -1654  -1690  -1769  -1853  -1912  -1941  -1949  -1954  -1969  -1978  -1946  -1857  -1741  -1652  -1607  -1578  -1548  -1523  -1514  -1515  -1518  -1519  -1518  -1516  -1519  -1535  -1561  -1566  -1505  -1364  -1173  -998  -899  -875  -875  -858  -825  -799  -781  -755  -713  -683  -718  -863  -1080  -1260  -1332  -1324  -1299  -1326  -1456  -1667  -1858  -1947  -1903  -1729  -1520  -1435  -1436  -1201  -445  906  2799  4881  6437  6816  5731  3321  269  -2400  -3883  -3988  -3171  -2173  -1514  -1301  -1355  -1428  -1426  -1428  -1468  -1484  -1443  -1364  -1262  -1151  -1063  -1022  -1009  -983  -907  -771  -606  -450  -310  -182  -65  14  -24  -188  -352  -436  -464  -471  -425  -223  184  656  988  1143  1222  1304  1419  1602  1856  2100  2256  2338  2395  2437  2457  2463  2463  2447  2395  2301  2180  2033  1852  1637  1359  965  488  74  -151  -214  -216  -227  -261  -304  -341  -367  -378  -367  -325  -261  -197  -150  -138  -177  -272  -410  -558  -674  -745  -785  -806  -812  -803  -771  -720  -678  -675  -707  -727  -695  -637  -611  -631  -654  -644  -613  -578  -539  -503  -491  -512  -557  -601  -627  -645  -646  -549  -262  147  472  607  646  710  806  852  825  791  808  858  892  898  887  876  866  859  856  862  876  884  847  717  503  316  339  709  1457  2616  4200  5999  7570  8377  7974  6287  3713  976  -1136  -2138  -2026  -1186  -180  506  709  602  443  348  301  276  269  293  363  462  531  523  430  299  203  172  187  226  270  297  305  318  371  468  574  654  716  767  789  766  722  705  745  835  949  1082  1227  1358  1450  1498  1525  1552  1582  1602  1610  1618  1639  1654  1576  1300  851  421  177  102  62  -36  -172  -265  -295  -311  -359  -411  -400  -338  -337  -442  -579  -673  -699  -666  -596  -504  -411  -341  -295  -269  -273  -313  -373  -433  -493  -550  -585  -575  -515  -433  -371  -338  -313  -290  -280  -290  -336  -418  -520  -630  -737  -805  -817  -795  -774  -755  -668  -439  -132  69  80  -14  -95  -123  -137  -180  -247  -301  -326  -335  -347  -366  -385  -406  -442  -493  -553  -625  -718  -834  -955  -1063  -1178  -1360  -1628  -1939  -2107  -1697  -415  1490  3589  5564  6935  7199  6241  4267  1674  -824  -2459  -2952  -2561  -1773  -1100  -809  -815  -920  -1012  -1059  -1068  -1053  -1012  -932  -817  -719  -687  -687  -649  -579  -525  -503  -499  -498  -497  -491  -468  -411  -303  -155  -22  46  54  35  15  10  30  78  145  229  353  531  734  927  1113  1301  1457  1544  1560  1528  1457  1335  1154  936  731  568  430  280  101  -104  -329  -533  -665  -721  -756  -800  -858  -930  -1003  -1048  -1059  -1051  -1042  -1038  -1046  -1074  -1119  -1149  -1107  -956  -743  -566  -462  -427  -484  -639  -812  -897  -876  -804  -736  -701  -701  -711  -721  -744  -776  -792  -783  -771  -778  -797  -817  -835  -846  -838  -801  -737  -662  -589  -527  -477  -438  -413  -399  -376  -322  -249  -195  -193  -246  -334  -425  -494  -531  -540  -544  -568  -625  -728  -895  -1091  -1236  -1295  -1296  -1275  -1248  -1222  -1217  -1261  -1348  -1392  -1231  -622  629  2467  4578  6455  7443  7069  5319  2629  -189  -2229  -2986  -2581  -1638  -925  -768  -919  -1053  -1061  -968  -840  -752  -735  -771  -824  -860  -853  -797  -714  -627  -545  -474  -425  -420  -470  -503  -432  -295  -187  -120  -31  126  314  432  400  200  -78  -291  -366  -310  -110  233  625  913  1028  1016  958  915  897  882  853  812  772  749  744  736  673  483  128  -318  -702  -933  -1060  -1184  -1320  -1430  -1504  -1560  -1594  -1589  -1528  -1422  -1319  -1277  -1326  -1450  -1588  -1678  -1704  -1696  -1677  -1661  -1654  -1653  -1656  -1664  -1675  -1677  -1649  -1597  -1564  -1583  -1634  -1700  -1794  -1897  -1949  -1911  -1787  -1568  -1226  -830  -514  -295  -84  153  360  485  576  712  885  1004  1028  991  939  894  877  949  1185  1545  1866  2030  2070  2061  2010  1864  1632  1417  1292  1186  977  690  474  415  470  565  632  599  400  55  -304  -510  -422  22  816  1940  3393  5111  6891  8285  8730  7894  5842  3032  279  -1578  -2153  -1696  -871  -252  15  74  79  77  50  1  -47  -113  -215  -327  -400  -412  -363  -259  -119  16  116  178  213  238  269  306  332  337  319  303  309  335  389  491  618  710  741  735  748  849  1060  1312  1513  1647  1727  1743  1695  1657  1720  1873  2004  2015  1882  1653  1386  1094  798  561  387  217  24  -169  -350  -502  -600  -647  -680  -743  -841  -943  -1015  -1048  -1062  -1071  -1081  -1087  -1077  -1038  -970  -897  -842  -799  -752  -710  -690  -689  -693  -695  -686  -663  -635  -634  -713  -920  -1197  -1394  -1425  -1314  -1155  -1032  -964  -926  -916  -952  -1033  -1119  -1172  -1189  -1188  -1189  -1199  -1210  -1195  -1138  -1065  -1013  -955  -820  -598  -354  -144  2  57  10  -119  -307  -515  -691  -803  -874  -932  -987  -1038  -1083  -1119  -1144  -1155  -1129  -1032  -905  -910  -1131  -1400  -1373  -684  787  2759  4784  6484  7456  7265  5752  3240  453  -1745  -2787  -2652  -1862  -1139  -804  -716  -733  -807  -868  -870  -809  -704  -581  -428  -239  -59  68  127  121  64  -16  -80  -111  -96  13  263  576  790  815  677  478  344  369  573  863  1105  1264  1376  1450  1477  1469  1471  1553  1744  1969  2116  2146  2107  2058  2027  2014  1995  1933  1817  1653  1445  1217  1027  889  758  572  299  -1  -223  -350  -475  -639  -791  -891  -935  -940  -944  -961  -974  -976  -971  -966  -967  -973  -970  -931  -844  -737  -667  -675  -776  -936  -1077  -1148  -1154  -1123  -1067  -1001  -946  -914  -895  -852  -757  -633  -540  -497  -480  -486  -545  -661  -785  -846  -809  -704  -559  -378  -190  -47  37  84  107  112  110  104  92  71  38  -14  -81  -165  -315  -556  -813  -984  -1041  -1020  -971  -917  -855  -797  -835  -1110  -1555  -1826  -1571  -658  774  2428  4065  5537  6545  6577  5289  2867  -17  -2429  -3652  -3682  -3038  -2217  -1518  -1099  -962  -969  -987  -985  -988  -1023  -1110  -1251  -1395  -1471  -1447  -1354  -1235  -1121  -1034  -983  -968  -975  -968  -918  -834  -744  -655  -549  -428  -315  -233  -188  -163  -115  -6  161  387  681  988  1208  1321  1397  1489  1618  1779  1927  1998  1984  1928  1865  1764  1591  1378  1166  919  575  168  -181  -398  -518  -607  -694  -776  -838  -872  -886  -914  -991  -1075  -1068  -952  -810  -714  -678  -685  -714  -761  -833  -924  -1011  -1067  -1066  -1018  -964  -930  -915  -896  -842  -750  -652  -572  -509  -438  -340  -239  -178  -178  -227  -299  -365  -444  -572  -718  -778  -687  -504  -344  -266  -245  -231  -189  -48  258  654  943  1024  927  722  501  355  293  267  237  172  57  -84  -207  -274  -286  -268  -234  -184  -123  -106  -237  -511  -674  -387  510  1880  3442  5055  6601  7693  7856  6831  4662  1879  -592  -2024  -2240  -1553  -559  206  531  526  413  325  301  344  421  482  510  515  511  509  524  570  639  705  756  791  809  811  806  810  840  909  997  1066  1103  1117  1126  1156  1222  1304  1391  1502  1641  1767  1838  1862  1876  1892  1898  1876  1804  1701  1625  1602  1585  1501  1315  1065  795  518  274  111  -10  -182  -436  -720  -964  -1161  -1364  -1583  -1766  -1890  -1966  -2008  -2022  -2006  -1941  -1818  -1667  -1560  -1538  -1538  -1491  -1465  -1555  -1704  -1788  -1753  -1615  -1442  -1317  -1253  -1205  -1142  -1085  -1068  -1074  -1062  -1033  -992  -914  -781  -624  -510  -466  -468  -479  -475  -429  -333  -221  -144  -102  -47  35  114  160  189  231  292  347  392  442  502  538  471  249  -48  -261  -356  -448  -628  -874  -1107  -1252  -1298  -1279  -1224  -1169  -1205  -1381  -1513  -1207  -189  1466  3419  5205  6361  6579  5801  4184  1976  -421  -2335  -3211  -3019  -2207  -1435  -1145  -1249  -1404  -1442  -1382  -1250  -1060  -872  -766  -761  -815  -864  -884  -894  -911  -923  -913  -872  -808  -746  -702  -673  -647  -610  -527  -351  -106  98  175  136  57  16  49  141  255  366  463  548  636  754  944  1232  1567  1810  1858  1735  1531  1337  1214  1165  1149  1099  912  540  118  -162  -267  -293  -328  -409  -518  -600  -628  -616  -581  -536  -509  -538  -636  -757  -823  -815  -774  -732  -706  -685  -607  -420  -182  -18  -1  -108  -256  -363  -407  -428  -467  -531  -598  -656  -706  -689  -521  -245  -22  37  -28  -130  -215  -292  -394  -513  -602  -652  -712  -799  -861  -809  -591  -285  -54  25  12  -18  -47  -93  -170  -248  -290  -314  -363  -454  -585  -751  -938  -1139  -1330  -1453  -1489  -1476  -1459  -1473  -1536  -1618  -1590  -1215  -233  1397  3385  5294  6709  7192  6445  4597  2146  -232  -1873  -2464  -2189  -1552  -1066  -909  -919  -913  -835  -722  -636  -604  -605  -617  -622  -591  -475  -256  -11  148  194  175  125  39  -66  -138  -139  -70  32  148  293  457  575  616  610  596  597  646  782  1004  1230  1375  1459  1560  1694  1818  1893  1919  1920  1918  1914  1897  1861  1818  1758  1596  1237  750  349  138  32  -70  -184  -284  -370  -473  -613  -750  -829  -845  -831  -812  -802  -808  -832  -867  -896  -906  -885  -816  -699  -573  -492  -468  -471  -477  -479  -486  -512  -564  -623  -650  -627  -575  -523  -462  -358  -229  -135  -126  -202  -334  -474  -578  -613  -572  -502  -466  -484  -512  -515  -490  -414  -241  -6  182  287  351  402  421  399  344  253  132  4  -129  -258  -354  -434  -560  -727  -856  -907  -909  -903  -909  -922  -926  -929  -994  -1171  -1268  -815  558  2762  5293  7470  8611  8203  6201  3207  147  -2133  -3110  -2799  -1735  -666  -114  -87  -271  -421  -501  -557  -605  -633  -637  -634  -637  -630  -590  -511  -408  -307  -238  -206  -189  -172  -149  -110  -47  44  156  253  293  267  197  112  35  -13  -12  73  258  495  713  865  935  947  967  1055  1201  1349  1467  1542  1551  1504  1444  1353  1156  845  498  189  -64  -300  -536  -731  -866  -975  -1081  -1164  -1208  -1215  -1188  -1120  -1027  -954  -943  -1020  -1183  -1370  -1485  -1460  -1289  -1050  -865  -785  -794  -866  -956  -1013  -1014  -977  -959  -1019  -1150  -1291  -1384  -1412  -1396  -1338  -1231  -1105  -1026  -1017  -1039  -1051  -1045  -1026  -989  -943  -903  -862  -796  -708  -639  -606  -591  -572  -530  -448  -347  -274  -248  -236  -210  -180  -190  -259  -357  -437  -473  -474  -462  -465  -508  -590  -672  -737  -811  -889  -930  -928  -981  -1134  -1152  -690  398  2046  4030  5965  7349  7621  6433  3978  957  -1688  -3150  -3223  -2382  -1334  -605  -344  -364  -433  -466  -476  -485  -508  -530  -517  -446  -307  -137  -17  16  -5  -41  -64  -52  8  111  244  403  549  605  537  410  341  392  529  686  844  1014  1199  1399  1597  1767  1890  1960  1980  1979  1992  2036  2096  2150  2195  2228  2232  2183  2077  1942  1819  1719  1615  1452  1166  773  391  96  -111  -233  -279  -299  -332  -374  -418  -468  -512  -531  -535  -536  -530  -496  -426  -357  -333  -356  -388  -396  -407  -470  -543  -563  -534  -500  -492  -522  -578  -633  -665  -663  -647  -649  -663  -648  -594  -544  -543  -583  -619  -625  -615  -615  -623  -605  -529  -412  -308  -240  -195  -163  -135  -99  -59  -29  -15  -20  -59  -143  -244  -317  -352  -405  -534  -711  -844  -891  -886  -869  -848  -837  -925  -1211  -1575  -1674  -1298  -509  594  1983  3626  5343  6674  7058  6173  4100  1372  -1116  -2598  -2971  -2642  -2029  -1422  -954  -620  -420  -351  -364  -438  -583  -752  -843  -794  -645  -488  -389  -356  -359  -374  -398  -438  -474  -472  -428  -376  -341  -323  -321  -327  -316  -255  -141  -19  57  92  130  221  393  628  858  1007  1060  1041  970  885  852  932  1125  1347  1486  1469  1272  952  644  423  257  102  -54  -212  -384  -576  -769  -921  -1017  -1064  -1069  -1058  -1065  -1098  -1162  -1268  -1387  -1444  -1393  -1264  -1124  -1011  -924  -850  -801  -799  -818  -826  -834  -871  -961  -1083  -1168  -1143  -982  -756  -591  -559  -651  -811  -959  -1030  -1023  -971  -906  -845  -802  -774  -738  -668  -572  -495  -465  -496  -600  -752  -865  -817  -514  -21  420  598  505  274  38  -161  -327  -445  -502  -506  -498  -520  -583  -655  -702  -725  -745  -748  -693  -604  -567  -558  -355  340  1710  3651  5679  7147  7606  6872  5038  2545  118  -1535  -2145  -1919  -1266  -619  -264  -198  -246  -282  -288  -290  -307  -333  -345  -322  -250  -128  7  100  136  158  239  435  716  981  1145  1205  1182  1099  994  917  904  962  1077  1229  1399  1569  1726  1850  1935  2017  2155  2380  2633  2799  2811  2698  2535  2384  2254  2131  2027  1957  1906  1862  1794  1613  1256  842  566  466  415  311  168  49  -26  -73  -87  -88  -150  -341  -611  -819  -903  -907  -889  -873  -861  -855  -848  -800  -668  -497  -410  -485  -664  -817  -875  -870  -866  -878  -893  -902  -906  -909  -917  -929  -937  -934  -919  -903  -897  -898  -894  -890  -901  -937  -985  -1023  -1044  -1056  -1065  -1062  -1027  -947  -812  -613  -397  -248  -189  -183  -206  -278  -432  -640  -813  -901  -922  -925  -975  -1105  -1242  -1273  -1208  -1158  -1174  -1281  -1514  -1787  -1875  -1585  -862  242  1700  3537  5531  7031  7332  6159  3780  917  -1481  -2733  -2850  -2334  -1661  -1159  -1006  -1126  -1316  -1432  -1437  -1390  -1367  -1352  -1286  -1189  -1113  -1078  -1082  -1101  -1104  -1086  -1070  -1068  -1064  -1032  -958  -855  -751  -674  -633  -605  -575  -546  -513  -456  -365  -239  -70  117  258  320  343  387  461  540  618  703  818  999  1221  1390  1443  1365  1160  880  612  381  167  -22  -173  -301  -416  -501  -556  -619  -722  -849  -948  -994  -996  -962  -898  -822  -764  -745  -752  -754  -730  -679  -597  -505  -443  -429  -450  -482  -506  -519  -531  -554  -596  -646  -684  -700  -705  -704  -685  -633  -564  -513  -486  -464  -443  -445  -481  -516  -519  -498  -466  -409  -324  -242  -179  -114  -15  120  267  414  564  713  856  968  1006  961  861  730  587  459  361  287  236  206  198  218  265  324  371  376  282  42  -267  -427  -238  380  1437  2836  4468  6269  7944  8829  8306  6285  3287  271  -1742  -2260  -1601  -545  265  608  573  361  106  -164  -424  -611  -714  -770  -784  -766  -764  -798  -844  -867  -853  -816  -767  -702  -620  -530  -460  -433  -451  -485  -497  -463  -383  -286  -197  -124  -71  -35  -5  20  42  87  212  446  755  1059  1270  1374  1456  1591  1751  1833  1790  1663  1484  1217  884  621  497  419  248  -45  -352  -546  -606  -596  -571  -556  -587  -714  -924  -1130  -1254  -1302  -1315  -1316  -1304  -1272  -1229  -1196  -1183  -1181  -1176  -1164  -1152  -1180  -1285  -1442  -1579  -1649  -1667  -1668  -1677  -1682  -1627  -1437  -1110  -772  -558  -487  -517  -656  -913  -1198  -1379  -1424  -1398  -1361  -1342  -1341  -1354  -1371  -1356  -1250  -1040  -808  -657  -595  -555  -479  -347  -202  -107  -64  -25  30  61  37  -12  -57  -113  -187  -253  -292  -317  -346  -383  -419  -440  -439  -415  -364  -330  -411  -557  -559  -242  576  2015  3836  5634  7177  8214  8311  7124  4709  1637  -1112  -2605  -2529  -1417  -173  592  764  565  320  210  245  378  536  640  669  659  645  637  634  633  632  633  645  664  673  654  623  617  689  864  1082  1236  1288  1278  1244  1191  1125  1079  1093  1192  1346  1481  1543  1541  1502  1451  1416  1422  1488  1601  1709  1757  1734  1662  1556  1405  1195  934  655  412  261  177  54  -204  -576  -913  -1097  -1133  -1065  -917  -742  -626  -623  -723  -866  -982  -1053  -1092  -1098  -1078  -1038  -981  -910  -826  -741  -685  -693  -773  -888  -976  -1008  -1005  -997  -1009  -1037  -1052  -1055  -1095  -1178  -1246  -1249  -1187  -1096  -1022  -982  -959  -932  -910  -930  -1003  -1087  -1111  -1051  -969  -958  -1029  -1111  -1153  -1165  -1162  -1129  -1041  -923  -837  -796  -764  -717  -651  -547  -415  -328  -400  -697  -1108  -1409  -1495  -1423  -1289  -1169  -1107  -1101  -1130  -1175  -1231  -1309  -1387  -1355  -1062  -414  641  2109  3870  5630  6968  7419  6627  4616  1902  -709  -2483  -3088  -2719  -1903  -1148  -723  -617  -654  -691  -706  -717  -733  -737  -705  -648  -594  -558  -550  -587  -687  -825  -928  -927  -783  -526  -279  -160  -174  -229  -248  -250  -286  -344  -365  -309  -159  68  314  490  563  567  547  536  580  721  936  1143  1290  1375  1405  1383  1343  1327  1333  1336  1319  1236  1003  606  157  -211  -441  -551  -585  -582  -568  -556  -561  -597  -655  -691  -676  -641  -612  -572  -515  -475  -475  -499  -515  -504  -476  -447  -418  -369  -297  -223  -178  -164  -140  -75  2  38  -10  -163  -359  -491  -505  -424  -311  -229  -193  -183  -199  -252  -324  -369  -375  -370  -400  -512  -720  -945  -1041  -928  -695  -506  -439  -458  -485  -436  -257  -4  191  266  268  250  219  169  105  43  -17  -82  -154  -234  -329  -425  -475  -452  -397  -362  -353  -368  -428  -576  -781  -856  -604  57  1154  2637  4388  6230  7693  8123  7169  4946  2001  -682  -2182  -2304  -1546  -568  151  410  289  14  -276  -567  -820  -974  -1023  -1012  -959  -843  -671  -502  -386  -335  -329  -338  -326  -251  -88  110  241  263  220  170  141  129  115  106  153  317  563  757  836  880  966  1113  1355  1682  1979  2151  2218  2254  2307  2373  2422  2439  2439  2437  2421  2321  2046  1605  1155  864  741  672  572  438  286  131  9  -51  -56  -25  24  79  122  138  122  81  30  -9  -26  0  85  205  295  326  315  286  256  227  201  190  225  314  421  491  509  504  504  515  536  583  673  785  871  905  891  835  748  650  562  511  522  607  740  864  940  978  1016  1072  1137  1209  1308  1465  1679  1892  2034  2080  2055  2004  1947  1874  1790  1723  1679  1646  1612  1578  1540  1497  1462  1444  1436  1434  1452  1505  1546  1481  1295  1167  1396  2252  3852  6097  8548  10442  11082  10202  7994  5063  2282  439  -162  216  1080  1923  2350  2317  2111  1974  1927  1913  1939  2049  2206  2305  2310  2272  2233  2208  2202  2224  2284  2383  2492  2565  2588  2588  2583  2584  2608  2674  2764  2829  2852  2849  2842  2832  2819  2812  2848  2969  3158  3333  3439  3489  3531  3582  3635  3693  3774  3863  3913  3922  3927  3937  3892  3690  3272  2681  2033  1458  1046  826  754  728  660  536  394  262  150  75  51  64  83  71  -8  -149  -290  -368  -371  -322  -253  -209  -239  -367  -552  -725  -877  -1021  -1156  -1313  -1514  -1701  -1806  -1831  -1819  -1801  -1783  -1770  -1780  -1839  -1954  -2113  -2306  -2521  -2715  -2855  -2975  -3119  -3275  -3429  -3593  -3771  -3980  -4258  -4558  -4762  -4825  -4794  -4712  -4604  -4509  -4455  -4452  -4521  -4702  -4980  -5282  -5576  -5898  -6252  -6577  -6835  -7047  -7260  -7503  -7779  -8092  -8450  -8829  -9161  -9412  -9602  -9756  -9909  -10101  -10324  -10484  -10371  -9731  -8558  -7187  -5921  -4777]
