reading_id,reading_time,wire_id,result_classification,heart_rate,heart_rate_alert,firmware_version,device_app_version,hardware_version,waveform_samples
0898dda0-551a-11ed-8080-808080808080,Wed Oct 26 10:36:22 UTC 2022,0101e39b1d39,NSR,65,NONE,20001.171.50,2.10.0,Charge 5,[1236  1259  1250  1160  969  683  282  -188  -660  -1282  -2182  -3188  -4171  -5075  -5652  -5837  -5976  -6386  -7157  -8189  -9153  -9684  -9635  -9218  -8882  -8834  -8897  -8816  -8423  -7726  -6968  -6412  -6072  -5725  -5064  -3916  -2370  -694  788  1898  2742  3552  4443  5362  6183  6876  7482  7982  8321  8491  8542  8533  8497  8454  8424  8392  8304  8096  7722  7191  6600  6085  5710  5462  5362  5576  6270  7252  8049  8496  8913  9608  10495  11294  11916  12426  12837  13177  13595  14242  15037  15716  16121  16296  16352  16378  16412  16462  16552  16740  17099  17641  18235  18689  18937  19039  19079  19157  19358  19643  19873  19971  19981  19960  19913  19824  19688  19495  19169  18501  17253  15482  13525  11547  9460  7249  5092  3184  1595  291  -847  -1968  -3085  -4086  -5008  -6070  -7373  -8823  -10217  -11331  -12211  -13130  -14150  -15119  -16006  -16922  -17992  -19293  -20742  -22215  -23777  -25420  -26803  -27605  -27895  -27994  -28178  -28497  -28788  -28922  -29025  -29416  -30206  -30846  -30474  -28797  -26143  -23070  -20306  -18545  -18095  -18894  -20747  -23313  -25878  -27594  -28033  -27351  -26117  -25011  -24384  -24113  -23825  -23161  -22037  -20704  -19463  -18429  -17494  -16421  -15181  -14089  -13390  -12940  -12453  -11869  -11334  -10936  -10636  -10375  -10046  -9474  -8672  -7934  -7466  -7180  -6892  -6473  -5832  -4981  -4072  -3259  -2639  -2261  -2084  -1992  -1889  -1703  -1390  -930  -310  393  1040  1612  2212  2872  3565  4319  5099  5764  6265  6682  7052  7335  7490  7538  7536  7506  7410  7204  6883  6458  5929  5380  4971  4771  4724  4749  4825  5041  5508  6159  6727  7014  7066  7044  7035  7013  6921  6763  6598  6478  6387  6270  6128  6024  5988  5986  5980  5965  5950  5938  5939  5946  5925  5820  5564  5154  4688  4236  3752  3246  2838  2539  2238  1882  1509  1184  964  839  752  685  675  719  767  800  820  779  580  201  -223  -527  -669  -709  -714  -706  -649  -492  -247  -7  146  219  270  333  403  460  488  487  480  515  625  778  890  928  933  961  1079  1342  1703  2020  2210  2297  2326  2323  2316  2327  2358  2415  2517  2643  2736  2778  2799  2823  2851  2894  2999  3206  3484  3755  3955  4087  4218  4433  4752  5110  5419  5649  5861  6175  6666  7255  7743  7992  8060  8121  8292  8554  8823  9042  9204  9322  9414  9502  9630  9854  10206  10659  11091  11350  11422  11408  11397  11419  11476  11549  11608  11632  11582  11401  11068  10645  10203  9751  9284  8833  8407  7980  7644  7531  7587  7673  7704  7629  7582  7988  9262  11356  13748  15806  16793  16008  13313  9093  4056  -712  -4228  -6207  -7025  -7363  -7817  -8508  -9201  -9732  -10108  -10378  -10560  -10676  -10777  -10916  -11098  -11272  -11378  -11405  -11395  -11395  -11424  -11472  -11522  -11579  -11654  -11747  -11841  -11890  -11829  -11634  -11331  -10972  -10583  -10197  -9883  -9687  -9598  -9580  -9584  -9539  -9394  -9179  -8959  -8734  -8472  -8163  -7774  -7326  -6902  -6498  -6036  -5547  -5152  -4890  -4672  -4372  -3939  -3448  -2968  -2454  -1933  -1579  -1464  -1498  -1599  -1783  -2106  -2592  -3194  -3788  -4212  -4417  -4514  -4601  -4676  -4717  -4729  -4739  -4766  -4784  -4731  -4563  -4301  -4033  -3852  -3761  -3697  -3603  -3484  -3373  -3283  -3212  -3158  -3077  -2902  -2651  -2417  -2252  -2152  -2114  -2118  -2108  -2013  -1814  -1574  -1360  -1170  -977  -793  -655  -562  -499  -486  -542  -641  -693  -644  -556  -510  -509  -521  -526  -525  -525  -535  -548  -532  -441  -298  -193  -192  -263  -295  -204  -16  191  351  415  391  336  299  295  328  397  480  537  549  527  489  435  350  254  225  321  507  685  782  795  767  736  702  666  641  631  625  612  600  592  576  528  432  311  230  270  474  781  1051  1192  1203  1140  1068  1008  959  923  896  870  885  1041  1393  1835  2182  2347  2331  2123  1731  1280  951  803  743  649  488  327  229  176  113  20  -83  -176  -243  -271  -270  -259  -265  -336  -498  -660  -667  -406  352  1878  4161  6909  9611  11525  11976  10769  8236  5056  2127  217  -546  -517  -67  445  750  836  837  855  931  1044  1127  1155  1151  1147  1154  1166  1174  1177  1180  1191  1204  1181  1076  914  786  738  739  749  768  807  859  898  919  958  1052  1191  1336  1488  1652  1788  1865  1917  1992  2105  2228  2318  2367  2432  2579  2811  3083  3369  3664  3957  4237  4516  4784  4997  5131  5193  5204  5170  5053  4760  4196  3367  2458  1753  1360  1096  701  131  -449  -887  -1145  -1274  -1363  -1481  -1637  -1786  -1894  -1950  -1961  -1935  -1895  -1886  -1914  -1923  -1880  -1794  -1674  -1526  -1383  -1295  -1297  -1382  -1502  -1597  -1643  -1650  -1632  -1608  -1589  -1560  -1474  -1282  -1028  -837  -770  -801  -895  -1022  -1137  -1212  -1242  -1244  -1233  -1221  -1209  -1179  -1105  -996  -891  -818  -782  -776  -795  -835  -887  -931  -948  -923  -837  -706  -582  -491  -425  -395  -410  -444  -463  -462  -457  -460  -479  -505  -526  -540  -552  -565  -575  -580  -583  -594  -616  -620  -551  -390  -208  -78  26  173  346  475  542  594  659  723  777  831  882  929  982  1030  1052  1060  1076  1096  1098  1058  958  788  571  388  315  360  465  568  647  706  755  799  808  698  423  107  173  1115  2983  5365  7695  9369  9972  9406  7779  5368  2668  309  -1252  -1912  -1830  -1399  -1023  -792  -612  -465  -375  -322  -261  -174  -77  13  100  179  234  265  290  315  351  427  541  651  721  747  753  771  817  879  948  1036  1144  1236  1290  1327  1374  1442  1529  1611  1668  1728  1858  2112  2477  2845  3078  3140  3115  3112  3207  3417  3705  4026  4332  4591  4824  5034  5173  5228  5231  5178  5000  4650  4206  3783  3328  2718  1990  1320  830  515  322  224  196  201  210  218  227  234  230  229  275  407  572  664  649  572  461  319  155  -20  -174  -265  -314  -393  -536  -723  -925  -1101  -1211  -1295  -1443  -1665  -1886  -2097  -2419  -2925  -3486  -3901  -4116  -4220  -4302  -4367  -4385  -4355  -4318  -4340  -4431  -4533  -4600  -4640  -4667  -4664  -4619  -4576  -4557  -4503  -4394  -4311  -4329  -4432  -4530  -4541  -4475  -4415  -4412  -4447  -4478  -4491  -4492  -4491  -4484  -4459  -4411  -4331  -4214  -4083  -3980  -3904  -3820  -3726  -3652  -3611  -3600  -3602  -3572  -3466  -3317  -3207  -3159  -3129  -3077  -2996  -2905  -2820  -2735  -2648  -2589  -2583  -2617  -2635  -2527  -2198  -1732  -1358  -1202  -1195  -1227  -1253  -1295  -1382  -1491  -1564  -1579  -1572  -1588  -1638  -1715  -1823  -1939  -1986  -1899  -1709  -1511  -1378  -1323  -1326  -1373  -1458  -1580  -1743  -1916  -1962  -1585  -451  1537  4135  6899  9309  10783  10875  9491  6873  3565  462  -1566  -2302  -2078  -1342  -624  -311  -317  -373  -385  -375  -368  -382  -406  -412  -379  -309  -234  -176  -121  -46  62  212  370  489  577  681  793  863  884  878  862  859  875  890  894  898  937  1042  1190  1328  1451  1582  1703  1783  1831  1910  2087  2337  2556  2686  2778  2910  3122  3392  3684  3994  4303  4557  4729  4838  4898  4894  4782  4517  4116  3643  3128  2520  1773  976  350  38  -35  -41  -113  -314  -600  -868  -1081  -1249  -1355  -1375  -1324  -1234  -1142  -1084  -1066  -1070  -1087  -1120  -1156  -1176  -1168  -1136  -1072  -949  -765  -590  -471  -368  -229  -42  156  295  344  351  383  464  555  610  641  712  865  1103  1360  1506  1481  1382  1322  1311  1311  1295  1257  1202  1143  1106  1131  1239  1383  1483  1512  1515  1541  1598  1655  1683  1674  1639  1606  1593  1606  1654  1727  1787  1811  1810  1803  1800  1805  1825  1863  1908  1939  1941  1916  1880  1847  1810  1760  1708  1670  1633  1565  1448  1276  1042  792  610  511  433  319  156  -11  -136  -212  -258  -284  -301  -325  -361  -397  -405  -351  -232  -90  29  106  126  75  -45  -188  -298  -350  -356  -351  -406  -586  -887  -1227  -1520  -1717  -1810  -1837  -1886  -2046  -2300  -2516  -2605  -2602  -2620  -2756  -3005  -3274  -3522  -3792  -3970  -3671  -2565  -702  1600  4010  6174  7701  8246  7542  5510  2458  -859  -3483  -4830  -5039  -4627  -4058  -3652  -3516  -3515  -3485  -3398  -3304  -3248  -3230  -3219  -3188  -3138  -3061  -2942  -2809  -2707  -2631  -2543  -2447  -2364  -2285  -2182  -2053  -1921  -1808  -1705  -1594  -1462  -1305  -1153  -1060  -1032  -1030  -1018  -965  -835  -641  -455  -334  -244  -113  62  219  340  496  751  1074  1390  1673  1953  2231  2474  2711  3032  3442  3821  4059  4127  4037  3812  3445  2925  2301  1688  1163  716  316  -40  -375  -717  -1036  -1262  -1371  -1407  -1416  -1419  -1420  -1413  -1396  -1379  -1379  -1395  -1406  -1416  -1443  -1464  -1440  -1347  -1185  -983  -785  -633  -560  -575  -640  -674  -628  -534  -455  -417  -401  -384  -351  -285  -175  -49  38  64  56  42  35  31  22  4  -22  -57  -79  -70  -49  -48  -79  -90  -38  43  94  99  79  66  63  59  56  83  169  296  411  476  506  535  573  621  661  648  582  522  513  546  587  631  690  733  694  537  307  102  -18  -82  -144  -221  -285  -298  -250  -181  -143  -151  -184  -213  -233  -266  -340  -448  -552  -604  -599  -596  -632  -672  -675  -651  -641  -650  -618  -484  -259  -13  186  286  249  105  -47  -153  -240  -326  -392  -449  -537  -657  -772  -857  -911  -928  -926  -960  -1082  -1262  -1398  -1437  -1423  -1399  -1369  -1351  -1417  -1616  -1815  -1691  -956  545  2794  5494  8164  10221  11022  10182  7858  4652  1436  -910  -2004  -2114  -1733  -1253  -922  -785  -747  -729  -696  -639  -580  -543  -534  -551  -595  -641  -631  -518  -338  -186  -118  -110  -108  -68  24  135  204  217  208  208  227  255  279  300  331  397  510  639  752  849  949  1056  1157  1256  1367  1486  1595  1702  1826  1956  2057  2114  2186  2398  2831  3376  3812  4036  4105  4112  4119  4131  4084  3866  3402  2715  1935  1266  829  536  192  -304  -847  -1250  -1451  -1512  -1525  -1541  -1576  -1635  -1705  -1757  -1770  -1745  -1690  -1629  -1591  -1581  -1586  -1593  -1591  -1561  -1474  -1322  -1161  -1066  -1050  -1065  -1072  -1069  -1067  -1067  -1057  -1020  -948  -856  -779  -742  -738  -741  -741  -747  -783  -843  -891  -905  -903  -914  -955  -1018  -1074  -1103  -1112  -1118  -1129  -1136  -1127  -1109  -1091  -1069  -1030  -981  -944  -935  -946  -963  -975  -980  -980  -978  -976  -983  -1013  -1066  -1110  -1133  -1157  -1190  -1218  -1239  -1255  -1261  -1263  -1268  -1277  -1286  -1289  -1279  -1243  -1176  -1096  -1035  -993  -942  -880  -835  -817  -808  -768  -660  -520  -452  -521  -677  -809  -858  -845  -812  -772  -732  -714  -738  -806  -896  -989  -1075  -1143  -1202  -1279  -1375  -1453  -1490  -1498  -1489  -1454  -1385  -1337  -1429  -1647  -1636  -918  724  3176  6024  8614  10303  10659  9504  7044  3882  869  -1201  -2047  -1998  -1593  -1184  -906  -778  -730  -683  -625  -560  -483  -408  -356  -318  -279  -244  -225  -221  -225  -227  -220  -211  -206  -202  -190  -173  -160  -151  -123  -47  81  237  393  521  594  614  618  638  687  765  870  1000  1140  1261  1338  1387  1517  1860  2360  2789  3018  3099  3142  3254  3519  3914  4306  4598  4788  4900  4937  4845  4528  4004  3447  2969  2480  1859  1156  563  200  -11  -225  -482  -706  -841  -920  -981  -1025  -1048  -1066  -1087  -1108  -1117  -1086  -1013  -938  -906  -914  -928  -929  -931  -946  -960  -957  -940  -925  -912  -887  -837  -781  -748  -739  -721  -661  -575  -508  -477  -472  -500  -576  -680  -761  -791  -767  -698  -607  -535  -506  -505  -508  -499  -487  -492  -504  -496  -469  -450  -445  -446  -452  -473  -505  -519  -505  -505  -551  -615  -647  -644  -645  -694  -766  -792  -763  -728  -719  -739  -767  -785  -797  -824  -887  -983  -1081  -1144  -1155  -1144  -1154  -1195  -1256  -1299  -1243  -1078  -915  -847  -868  -934  -1018  -1112  -1222  -1339  -1434  -1487  -1492  -1461  -1390  -1264  -1109  -997  -964  -989  -1046  -1122  -1198  -1237  -1200  -1075  -884  -689  -550  -481  -460  -457  -457  -456  -458  -466  -479  -489  -491  -482  -469  -477  -552  -717  -920  -1078  -1178  -1262  -1354  -1435  -1477  -1459  -1395  -1334  -1347  -1499  -1773  -2015  -2083  -1863  -1058  628  3086  5870  8483  10406  11170  10535  8554  5583  2328  -321  -1809  -2177  -1810  -1178  -662  -428  -454  -578  -660  -683  -697  -734  -790  -836  -856  -859  -858  -856  -827  -732  -568  -394  -271  -213  -198  -190  -160  -93  -9  62  118  170  214  240  273  345  449  540  590  606  617  662  788  1005  1239  1396  1469  1522  1582  1669  1882  2314  2881  3382  3705  3873  3991  4166  4399  4603  4714  4737  4674  4479  4084  3470  2724  1995  1358  823  416  103  -215  -568  -875  -1047  -1085  -1064  -1050  -1069  -1124  -1194  -1252  -1286  -1297  -1299  -1299  -1288  -1256  -1211  -1187  -1202  -1238  -1264  -1274  -1275  -1273  -1255  -1217  -1183  -1186  -1221  -1269  -1314  -1329  -1283  -1186  -1084  -1022  -1008  -1015  -1022  -1035  -1070  -1120  -1161  -1176  -1153  -1090  -1006  -945  -922  -921  -921  -912  -883  -826  -747  -674  -629  -602  -575  -535  -472  -395  -340  -328  -360  -416  -468  -488  -473  -441  -415  -401  -393  -391  -407  -446  -489  -497  -462  -444  -492  -554  -564  -532  -492  -450  -413  -398  -413  -461  -526  -575  -597  -609  -626  -646  -655  -631  -559  -466  -395  -365  -363  -383  -428  -489  -545  -588  -621  -643  -650  -651  -651  -650  -632  -571  -460  -321  -192  -101  -38  20  84  159  242  308  329  299  233  120  -76  -322  -505  -569  -549  -506  -486  -509  -555  -595  -624  -671  -763  -886  -1000  -1061  -1034  -959  -943  -1030  -1232  -1521  -1636  -1206  0  2046  4780  7717  10210  11722  11844  10345  7479  4001  855  -1177  -1893  -1700  -1166  -692  -455  -427  -476  -527  -581  -638  -675  -684  -684  -685  -681  -664  -644  -631  -629  -622  -587  -515  -428  -336  -220  -79  47  131  176  201  228  269  304  314  310  315  340  386  453  531  596  644  724  912  1217  1543  1809  2017  2193  2322  2384  2407  2465  2656  3027  3501  3929  4216  4367  4433  4450  4417  4306  4069  3639  2998  2240  1527  968  542  142  -306  -802  -1250  -1531  -1630  -1648  -1665  -1693  -1712  -1711  -1699  -1687  -1679  -1672  -1667  -1665  -1671  -1690  -1716  -1735  -1745  -1753  -1765  -1777  -1774  -1735  -1656  -1567  -1511  -1496  -1502  -1512  -1516  -1501  -1458  -1399  -1349  -1309  -1264  -1202  -1147  -1153  -1200  -1172  -1039  -910  -866  -890  -938  -984  -1035  -1092  -1133  -1131  -1072  -964  -840  -739  -691  -701  -746  -803  -864  -918  -956  -975  -978  -970  -955  -940  -924  -901  -872  -852  -846  -851  -856  -846  -810  -755  -708  -691  -699  -711  -707  -674  -610  -524  -438  -364  -309  -284  -313  -412  -572  -757  -908  -987  -985  -902  -748  -578  -455  -389  -350  -297  -197  -60  55  110  123  122  102  28  -108  -267  -397  -477  -515  -534  -575  -665  -791  -909  -987  -1022  -1036  -1062  -1116  -1186  -1249  -1287  -1297  -1302  -1350  -1423  -1370  -1000  -72  1673  4174  6948  9347  10731  10611  8907  6067  2837  -29  -1951  -2718  -2534  -1835  -1082  -637  -586  -709  -773  -762  -740  -731  -727  -715  -690  -657  -627  -606  -580  -544  -502  -457  -409  -348  -261  -158  -74  -38  -46  -47  4  88  153  177  188  226  311  420  523  610  697  808  948  1100  1234  1367  1548  1770  1970  2125  2291  2515  2757  2956  3118  3327  3674  4152  4604  4862  4880  4695  4372  3992  3597  3167  2671  2110  1505  878  268  -246  -578  -737  -829  -939  -1074  -1227  -1376  -1484  -1532  -1540  -1540  -1548  -1561  -1574  -1589  -1602  -1598  -1572  -1534  -1507  -1500  -1502  -1498  -1470  -1412  -1362  -1369  -1422  -1460  -1464  -1457  -1453  -1435  -1387  -1317  -1252  -1206  -1182  -1164  -1130  -1082  -1042  -1021  -1010  -1001  -990  -981  -992  -1028  -1073  -1102  -1110  -1104  -1099  -1104  -1107  -1090  -1054  -1015  -996  -1000  -1013  -1023  -1030  -1037  -1039  -1012  -942  -862  -831  -864  -923  -968  -991  -1010  -1049  -1100  -1117  -1064  -965  -870  -803  -746  -661  -512  -321  -165  -82  -41  -3  42  65  31  -57  -177  -320  -478  -604  -655  -649  -630  -633  -676  -760  -863  -937  -945  -932  -980  -1098  -1223  -1296  -1313  -1318  -1369  -1526  -1788  -1989  -1790  -867  885  3273  5870  8178  9800  10400  9697  7671  4704  1548  -900  -2117  -2239  -1783  -1261  -956  -854  -799  -718  -647  -623  -630  -633  -614  -562  -479  -389  -320  -286  -278  -280  -284  -287  -288  -268  -214  -141  -81  -27  60  191  313  379  388  372  377  464  665  908  1076  1132  1126  1127  1178  1270  1363  1469  1633  1863  2138  2442  2750  3014  3232  3462  3741  4043  4323  4549  4690  4734  4656  4420  4065  3690  3284  2725  1994  1244  595  57  -337  -567  -713  -880  -1091  -1297  -1454  -1562  -1637  -1684  -1704  -1706  -1706  -1710  -1710  -1694  -1674  -1676  -1703  -1731  -1746  -1751  -1748  -1742  -1741  -1738  -1715  -1663  -1610  -1598  -1617  -1629  -1631  -1652  -1681  -1666  -1565  -1403  -1261  -1194  -1188  -1209  -1238  -1266  -1296  -1334  -1368  -1383  -1370  -1329  -1270  -1220  -1194  -1179  -1147  -1086  -1022  -981  -969  -968  -970  -984  -1025  -1086  -1144  -1189  -1209  -1187  -1107  -974  -834  -746  -722  -727  -733  -724  -704  -689  -705  -774  -875  -954  -982  -975  -960  -955  -959  -960  -943  -913  -867  -785  -664  -548  -483  -462  -450  -390  -236  -15  167  234  180  40  -115  -218  -253  -251  -239  -225  -209  -200  -237  -354  -528  -678  -760  -792  -802  -780  -707  -623  -627  -751  -936  -1144  -1394  -1644  -1714  -1352  -346  1410  3846  6643  9238  10986  11395  10333  8049  5043  2045  -190  -1380  -1725  -1521  -1070  -668  -466  -447  -522  -609  -651  -634  -586  -541  -506  -464  -422  -399  -403  -424  -433  -397  -315  -230  -191  -194  -199  -191  -183  -175  -135  -42  91  219  298  319  308  304  358  509  715  882  970  1030  1146  1354  1599  1789  1916  2071  2323  2611  2834  3003  3211  3507  3866  4248  4588  4816  4922  4941  4851  4559  4030  3348  2642  2021  1530  1113  652  106  -410  -755  -912  -969  -1018  -1085  -1132  -1128  -1097  -1077  -1076  -1085  -1086  -1079  -1081  -1105  -1147  -1182  -1197  -1197  -1206  -1239  -1279  -1285  -1256  -1227  -1209  -1191  -1159  -1112  -1063  -1030  -1038  -1098  -1183  -1228  -1202  -1131  -1064  -1022  -994  -977  -993  -1064  -1166  -1248  -1276  -1244  -1157  -1051  -992  -1000  -1025  -1022  -1003  -992  -990  -986  -977  -966  -960  -969  -997  -1036  -1075  -1113  -1151  -1177  -1173  -1123  -1031  -921  -832  -789  -786  -800  -817  -830  -835  -832  -827  -829  -842  -867  -900  -944  -988  -1011  -1015  -1014  -1011  -988  -924  -830  -749  -715  -735  -794  -855  -887  -896  -901  -915  -941  -973  -999  -1015  -1020  -1010  -981  -938  -903  -893  -900  -910  -906  -849  -683  -422  -178  -49  -24  -42  -63  -76  -79  -76  -72  -81  -120  -186  -264  -340  -413  -488  -581  -707  -869  -1041  -1174  -1226  -1217  -1198  -1192  -1189  -1181  -1176  -1189  -1236  -1342  -1513  -1664  -1588  -996  357  2506  5176  7875  10093  11336  11193  9575  6797  3458  385  -1638  -2376  -2164  -1521  -923  -629  -587  -635  -686  -724  -748  -762  -787  -836  -880  -874  -822  -769  -743  -730  -710  -676  -618  -504  -327  -143  -19  29  39  50  82  128  181  261  394  552  676  765  871  997  1101  1175  1258  1370  1481  1571  1675  1846  2078  2316  2545  2799  3094  3427  3781  4093  4299  4429  4558  4714  4858  4929  4884  4712  4375  3809  3045  2233  1538  1048  720  410  15  -420  -757  -922  -971  -985  -1007  -1058  -1154  -1269  -1354  -1398  -1433  -1462  -1455  -1411  -1370  -1362  -1377  -1391  -1368  -1290  -1192  -1127  -1110  -1114  -1097  -1034  -946  -887  -882  -904  -907  -874  -818  -755  -693  -666  -709  -795  -845  -819  -749  -694  -673  -672  -675  -691  -732  -791  -835  -840  -802  -749  -728  -755  -806  -859  -910  -966  -1010  -991  -897  -781  -708  -693  -710  -729  -738  -747  -763  -789  -823  -856  -879  -892  -898  -900  -900  -895  -878  -850  -812  -751  -666  -586  -564  -631  -761  -882  -948  -965  -963  -960  -960  -960  -960  -962  -966  -965  -947  -903  -845  -784  -712  -633  -569  -526  -493  -472  -486  -553  -661  -773  -853  -892  -914  -953  -1014  -1070  -1099  -1091  -1046  -980  -928  -903  -899  -900  -903  -906  -910  -909  -891  -853  -806  -758  -672  -500  -260  -31  123  192  191  137  53  -27  -86  -131  -181  -240  -294  -348  -423  -534  -669  -801  -896  -927  -901  -845  -789  -746  -714  -711  -762  -848  -939  -1064  -1293  -1567  -1600  -984  554  2910  5682  8396  10534  11602  11266  9445  6454  3055  203  -1435  -1847  -1507  -969  -588  -438  -411  -413  -429  -472  -532  -573  -548  -436  -283  -171  -133  -137  -155  -179  -205  -224  -235  -244  -247  -212  -111  24  129  188  242  306  348  360  376  435  548  697  850  981  1082  1142  1163  1161  1155  1181  1292  1523  1838  2163  2459  2696  2846  2945  3101  3362  3673  3953  4169  4323  4419  4460  4446  4359  4134  3690  3005  2143  1260  582  214  18  -216  -528  -801  -995  -1177  -1361  -1487  -1527  -1520  -1514  -1527  -1558  -1609  -1658  -1679  -1662  -1613  -1554  -1511  -1488  -1480  -1481  -1487  -1505  -1543  -1579  -1589  -1562  -1498  -1403  -1294  -1203  -1165  -1179  -1206  -1221  -1228  -1235  -1245  -1266  -1304  -1361  -1409  -1400  -1334  -1263  -1218  -1188  -1162  -1134  -1116  -1110  -1091  -1040  -958  -867  -797  -755  -734  -742  -800  -905  -1021  -1095  -1097  -1030  -936  -872  -860  -878  -895  -903  -906  -904  -888  -853  -808  -772  -754  -750  -758  -784  -832  -883  -908  -897  -882  -892  -918  -941  -954  -956  -947  -936  -928  -923  -914  -892  -861  -838  -830  -830  -833  -840  -850  -853  -840  -823  -819  -821  -801  -736  -641  -533  -401  -252  -134  -65  -27  -4  14  18  -1  -33  -48  -49  -73  -135  -198  -234  -290  -447  -692  -908  -1011  -1015  -972  -916  -859  -797  -737  -715  -765  -903  -1119  -1370  -1570  -1481  -714  903  3151  5654  8024  9837  10684  10227  8393  5517  2320  -249  -1588  -1864  -1586  -1142  -807  -688  -695  -712  -705  -688  -675  -670  -665  -652  -619  -559  -488  -432  -399  -380  -371  -372  -381  -387  -360  -272  -146  -49  -12  -4  38  158  333  481  546  549  544  578  666  789  920  1042  1138  1197  1255  1368  1532  1713  1944  2279  2653  2928  3082  3231  3463  3767  4100  4452  4782  5016  5126  5117  4928  4489  3874  3233  2586  1888  1197  599  140  -145  -295  -429  -607  -802  -986  -1161  -1317  -1431  -1485  -1489  -1464  -1432  -1409  -1398  -1387  -1358  -1315  -1290  -1315  -1377  -1404  -1346  -1242  -1159  -1125  -1132  -1152  -1161  -1153  -1132  -1117  -1122  -1141  -1142  -1094  -1000  -936  -944  -968  -956  -930  -917  -916  -919  -920  -914  -894  -858  -818  -790  -775  -760  -740  -723  -712  -703  -701  -721  -775  -853  -918  -948  -952  -942  -918  -884  -850  -831  -831  -831  -815  -790  -761  -715  -651  -582  -515  -475  -496  -597  -740  -845  -878  -876  -873  -857  -804  -726  -657  -612  -588  -588  -599  -600  -588  -576  -573  -578  -581  -573  -552  -531  -530  -550  -576  -605  -656  -723  -774  -795  -797  -791  -776  -750  -723  -707  -709  -718  -719  -712  -713  -720  -723  -722  -722  -720  -700  -639  -518  -349  -190  -100  -80  -100  -153  -257  -391  -489  -523  -527  -547  -601  -681  -766  -848  -933  -1013  -1066  -1087  -1104  -1136  -1166  -1160  -1120  -1110  -1254  -1602  -1905  -1737  -818  967  3562  6569  9316  11172  11661  10523  7960  4693  1627  -546  -1599  -1746  -1415  -1033  -807  -697  -639  -634  -679  -746  -796  -810  -786  -727  -654  -602  -578  -566  -554  -547  -544  -540  -520  -470  -371  -224  -57  80  151  163  158  160  180  230  296  340  346  341  393  565  833  1085  1239  1297  1302  1316  1414  1637  1964  2320  2628  2868  3059  3196  3299  3472  3798  4202  4510  4640  4651  4638  4614  4492  4147  3514  2679  1862  1232  787  423  71  -231  -445  -608  -768  -929  -1088  -1243  -1370  -1441  -1464  -1465  -1462  -1463  -1470  -1474  -1446  -1361  -1243  -1158  -1150  -1208  -1282  -1323  -1324  -1310  -1289  -1252  -1182  -1084  -997  -964  -1006  -1093  -1160  -1167  -1122  -1056  -991  -922  -845  -769  -708  -674  -671  -683  -687  -683  -693  -728  -766  -780  -772  -762  -763  -774  -785  -784  -755  -690  -605  -548  -553  -617  -688  -708  -673  -629  -608  -602  -596  -604  -653  -736  -805  -830  -821  -799  -780  -778  -800  -835  -863  -874  -884  -913  -952  -968  -933  -858  -791  -770  -787  -812  -837  -871  -908  -935  -944  -944  -935  -914  -882  -847  -818  -800  -778  -750  -758  -803  -829  -825  -821  -828  -837  -842  -834  -801  -738  -665  -624  -648  -720  -784  -815  -827  -829  -785  -652  -465  -313  -232  -174  -101  -32  0  -11  -53  -112  -167  -202  -215  -220  -223  -238  -306  -456  -650  -824  -972  -1105  -1201  -1249  -1273  -1284  -1285  -1286  -1301  -1338  -1381  -1417  -1428  -1238  -524  919  3066  5713  8459  10696  11769  11228  9057  5732  2123  -727  -2169  -2316  -1733  -993  -498  -348  -397  -493  -579  -640  -663  -646  -609  -571  -538  -515  -503  -495  -475  -410  -289  -154  -65  -35  -34  -34  -25  -10  0  -3  -6  31  141  325  535  691  752  751  743  743  742  739  776  908  1134  1379  1571  1697  1793  1898  2054  2300  2647  3077  3524  3873  4080  4230  4406  4594  4719  4734  4637  4424  4047  3425  2617  1854  1298  910  570  192  -253  -709  -1065  -1281  -1390  -1433  -1448  -1474  -1534  -1622  -1693  -1712  -1689  -1672  -1713  -1798  -1836  -1787  -1703  -1636  -1592  -1558  -1538  -1533  -1541  -1562  -1601  -1654  -1683  -1645  -1551  -1440  -1342  -1275  -1246  -1234  -1211  -1163  -1114  -1087  -1085  -1102  -1126  -1146  -1160  -1170  -1175  -1170  -1151  -1117  -1084  -1065  -1056  -1044  -1027  -1021  -1035  -1052  -1052  -1035  -1014  -996  -976  -942  -907  -894  -918  -975  -1036  -1071  -1079  -1078  -1070  -1049  -1018  -1002  -1015  -1029  -1013  -974  -940  -915  -881  -834  -775  -707  -650  -642  -689  -760  -814  -835  -834  -834  -852  -889  -927  -949  -953  -947  -915  -824  -676  -531  -448  -431  -442  -443  -388  -252  -82  42  94  106  105  95  69  33  2  -31  -78  -135  -187  -242  -325  -446  -566  -645  -683  -707  -732  -766  -809  -856  -914  -994  -1102  -1239  -1392  -1507  -1431  -919  225  2037  4335  6789  9037  10634  11037  9909  7375  3955  539  -1835  -2715  -2467  -1715  -973  -555  -464  -512  -561  -576  -565  -536  -470  -344  -181  -52  4  8  -16  -78  -189  -324  -423  -449  -404  -291  -136  -2  75  125  189  275  351  401  437  479  567  748  981  1153  1224  1261  1343  1496  1694  1877  1992  2033  2055  2139  2322  2589  2894  3182  3424  3654  3922  4237  4571  4844  4969  4927  4766  4530  4224  3831  3296  2583  1768  1020  474  152  -68  -366  -782  -1184  -1442  -1556  -1595  -1615  -1628  -1631  -1629  -1637  -1667  -1707  -1718  -1663  -1547  -1425  -1356  -1370  -1459  -1578  -1667  -1706  -1712  -1687  -1612  -1491  -1354  -1237  -1176  -1173  -1198  -1219  -1229  -1228  -1203  -1139  -1052  -986  -962  -966  -977  -987  -982  -945  -872  -803  -787  -825  -873  -918  -988  -1081  -1149  -1143  -1054  -925  -824  -780  -777  -794  -808  -796  -744  -675  -630  -622  -629  -631  -631  -650  -712  -807  -895  -943  -959  -969  -972  -933  -844  -746  -676  -630  -597  -578  -567  -556  -547  -571  -651  -760  -828  -831  -805  -792  -795  -799  -801  -805  -812  -820  -831  -834  -805  -726  -619  -526  -475  -459  -443  -407  -348  -265  -144  22  190  269  211  69  -70  -158  -194  -197  -193  -190  -188  -187  -226  -369  -632  -924  -1122  -1190  -1186  -1169  -1160  -1157  -1154  -1157  -1202  -1334  -1543  -1690  -1480  -579  1108  3386  5993  8616  10760  11822  11340  9216  5887  2285  -544  -1985  -2153  -1641  -1028  -646  -548  -598  -679  -766  -843  -899  -936  -954  -938  -864  -726  -561  -436  -380  -366  -359  -357  -378  -419  -449  -442  -400  -339  -262  -169  -88  -48  -43  -34  40  217  442  612  687  709  724  765  854  978  1091  1176  1265  1392  1573  1812  2074  2301  2488  2725  3088  3519  3878  4105  4250  4375  4479  4522  4465  4283  3945  3421  2712  1914  1186  604  128  -288  -637  -908  -1118  -1285  -1411  -1493  -1557  -1633  -1717  -1776  -1799  -1802  -1799  -1784  -1749  -1700  -1648  -1600  -1558  -1544  -1567  -1581  -1540  -1462  -1401  -1387  -1405  -1435  -1464  -1476  -1449  -1371  -1265  -1171  -1106  -1058  -1007  -949  -913  -927  -981  -1031  -1046  -1046  -1066  -1099  -1102  -1030  -881  -722  -635  -636  -672  -697  -707  -729  -781  -850  -909  -940  -952  -956  -959  -963  -967  -965  -949  -914  -869  -833  -820  -827  -832  -820  -793  -771  -767  -766  -766  -791  -849  -899  -900  -848  -772  -716  -692  -687  -688  -691  -700  -709  -713  -712  -714  -734  -779  -838  -892  -937  -976  -1014  -1051  -1052  -991  -906  -862  -879  -927  -967  -983  -981  -936  -792  -548  -299  -145  -98  -108  -133  -155  -176  -208  -254  -293  -304  -304  -350  -456  -561  -633  -708  -807  -905  -978  -1020  -1039  -1046  -1051  -1060  -1072  -1086  -1097  -1093  -1107  -1254  -1595  -1905  -1724  -635  1466  4290  7283  9830  11363  11476  10059  7380  4050  911  -1249  -2166  -2162  -1741  -1303  -1024  -848  -714  -648  -663  -722  -759  -734  -668  -600  -547  -501  -449  -413  -416  -438  -438  -395  -322  -252  -194  -125  -23  97  194  239  249  246  251  287  383  526  665  765  837  903  979  1070  1179  1330  1524  1714  1852  1930  1988  2108  2357  2693  3014  3296  3560  3810  4049  4299  4529  4664  4670  4582  4444  4264  3982  3520  2883  2152  1382  635  33  -360  -592  -724  -816  -948  -1160  -1396  -1561  -1627  -1642  -1650  -1652  -1640  -1620  -1599  -1567  -1521  -1478  -1447  -1432  -1429  -1435  -1442  -1440  -1428  -1409  -1373  -1307  -1219  -1134  -1072  -1042  -1042  -1060  -1079  -1084  -1085  -1126  -1241  -1380  -1441  -1396  -1314  -1273  -1279  -1273  -1215  -1109  -995  -938  -969  -1036  -1074  -1069  -1033  -988  -953  -919  -869  -826  -820  -840  -856  -860  -855  -851  -858  -883  -919  -947  -956  -954  -951  -952  -960  -971  -980  -986  -995  -997  -962  -869  -752  -676  -657  -665  -675  -679  -691  -731  -793  -826  -794  -737  -700  -676  -635  -574  -510  -451  -357  -177  51  218  252  155  -29  -222  -345  -385  -380  -378  -403  -445  -486  -521  -575  -677  -828  -989  -1101  -1151  -1170  -1195  -1245  -1309  -1343  -1322  -1288  -1346  -1531  -1680  -1484  -691  842  3156  6013  8796  10751  11250  9995  7275  3923  897  -1125  -2039  -2201  -1995  -1660  -1338  -1072  -879  -762  -698  -656  -608  -565  -546  -543  -545  -548  -555  -563  -542  -457  -320  -182  -80  -50  -109  -196  -226  -164  -31  106  187  208  216  257  337  426  503  586  711  890  1091  1248  1328  1364  1415  1481  1545  1657  1906  2265  2579  2763  2905  3135  3485  3894  4281  4571  4733  4805  4844  4856  4746  4403  3864  3267  2639  1931  1181  482  -104  -554  -853  -1000  -1036  -1029  -1052  -1148  -1303  -1460  -1569  -1611  -1592  -1547  -1536  -1583  -1639  -1648  -1630  -1631  -1649  -1651  -1618  -1563  -1515  -1484  -1468  -1457  -1434  -1375  -1267  -1141  -1056  -1046  -1095  -1159  -1220  -1276  -1292  -1236  -1148  -1088  -1064  -1047  -1027  -1031  -1067  -1093  -1074  -1030  -998  -984  -977  -965  -951  -940  -926  -898  -852  -796  -752  -739  -769  -846  -937  -980  -941  -851  -768  -724  -722  -756  -803  -829  -817  -782  -748  -728  -721  -721  -724  -724  -714  -697  -691  -701  -731  -777  -818  -836  -838  -839  -842  -839  -819  -788  -759  -734  -714  -712  -736  -781  -833  -890  -952  -999  -1004  -946  -828  -684  -562  -499  -495  -514  -519  -491  -436  -351  -213  -44  81  127  119  74  -9  -116  -189  -193  -162  -158  -214  -319  -448  -585  -734  -893  -1035  -1119  -1134  -1109  -1082  -1073  -1083  -1116  -1199  -1372  -1649  -1861  -1655  -755  889  3139  5693  8168  10170  11240  10923  9088  6089  2710  -67  -1612  -1983  -1652  -1137  -798  -700  -726  -764  -778  -777  -766  -736  -708  -701  -703  -675  -580  -445  -344  -307  -319  -349  -378  -407  -448  -509  -563  -531  -332  -10  273  415  442  449  499  583  644  652  627  616  644  708  805  924  1037  1154  1308  1489  1652  1797  1974  2234  2562  2881  3152  3408  3708  4058  4391  4623  4729  4730  4606  4299  3816  3262  2714  2131  1469  766  90  -463  -787  -887  -909  -991  -1164  -1358  -1481  -1516  -1510  -1499  -1494  -1496  -1506  -1521  -1525  -1500  -1447  -1382  -1328  -1297  -1280  -1267  -1252  -1234  -1212  -1189  -1169  -1155  -1145  -1135  -1127  -1118  -1109  -1103  -1102  -1095  -1054  -965  -853  -772  -746  -756  -782  -813  -838  -848  -840  -814  -783  -762  -756  -751  -738  -711  -672  -635  -628  -656  -687  -701  -702  -703  -707  -711  -704  -687  -667  -656  -655  -656  -646  -615  -570  -533  -512  -507  -513  -533  -566  -601  -622  -627  -640  -683  -747  -796  -813  -797  -753  -692  -638  -603  -588  -594  -620  -656  -685  -696  -696  -688  -662  -620  -598  -620  -663  -693  -714  -745  -793  -844  -870  -862  -840  -836  -862  -905  -952  -989  -952  -770  -495  -264  -135  -65  -9  36  55  31  -48  -169  -297  -397  -454  -471  -465  -452  -446  -474  -567  -716  -867  -992  -1123  -1273  -1394  -1447  -1461  -1477  -1503  -1514  -1502  -1516  -1641  -1826  -1773  -1148  176  2167  4702  7496  10057  11778  12091  10722  7902  4333  1002  -1238  -2129  -1977  -1310  -625  -250  -235  -385  -498  -531  -526  -514  -506  -501  -492  -468  -451  -492  -585  -622  -505  -285  -104  -30  -26  -37  -42  -39  -27  -5  25  75  169  301  431  526  583  622  662  720  825  980  1122  1207  1278  1411  1625  1876  2104  2266  2376  2500  2718  3054  3411  3661  3786  3887  4073  4383  4736  4976  4993  4759  4332  3845  3366  2819  2150  1443  799  258  -156  -455  -688  -893  -1081  -1237  -1348  -1420  -1479  -1545  -1626  -1708  -1759  -1754  -1699  -1628  -1581  -1571  -1579  -1584  -1585  -1587  -1594  -1593  -1555  -1464  -1367  -1346  -1407  -1479  -1505  -1484  -1430  -1355  -1278  -1234  -1234  -1253  -1266  -1278  -1301  -1333  -1345  -1310  -1225  -1123  -1064  -1067  -1106  -1146  -1161  -1178  -1227  -1271  -1290  -1318  -1353  -1351  -1294  -1212  -1152  -1124  -1100  -1069  -1033  -981  -896  -808  -773  -793  -822  -837  -856  -912  -1016  -1107  -1094  -982  -876  -846  -873  -912  -946  -982  -1013  -1014  -965  -876  -791  -738  -712  -714  -739  -775  -828  -897  -968  -1017  -1014  -966  -942  -994  -1090  -1148  -1134  -1078  -1019  -944  -827  -697  -618  -618  -667  -698  -665  -562  -394  -179  15  129  154  93  -63  -265  -412  -456  -435  -398  -371  -380  -455  -600  -769  -907  -995  -1041  -1065  -1083  -1096  -1100  -1093  -1076  -1060  -1078  -1189  -1416  -1649  -1575  -795  919  3445  6295  8832  10495  10888  9874  7656  4671  1536  -980  -2359  -2651  -2220  -1477  -821  -469  -372  -374  -370  -345  -347  -421  -533  -616  -639  -613  -568  -526  -486  -441  -399  -351  -266  -133  24  171  272  299  269  244  280  364  448  525  607  681  737  787  850  926  990  1023  1046  1105  1230  1423  1678  1969  2219  2379  2523  2761  3066  3315  3481  3657  3910  4214  4486  4651  4698  4662  4564  4402  4128  3672  3082  2478  1850  1146  444  -106  -419  -549  -660  -850  -1067  -1226  -1333  -1430  -1513  -1557  -1566  -1558  -1544  -1530  -1518  -1510  -1511  -1517  -1524  -1536  -1566  -1604  -1600  -1511  -1373  -1272  -1250  -1273  -1295  -1301  -1299  -1309  -1333  -1345  -1321  -1278  -1237  -1196  -1155  -1121  -1097  -1073  -1043  -1022  -1026  -1065  -1136  -1233  -1328  -1384  -1385  -1344  -1256  -1108  -961  -915  -970  -1058  -1132  -1144  -1086  -1019  -991  -990  -996  -1000  -1010  -1025  -1029  -1012  -978  -936  -894  -864  -852  -849  -854  -884  -949  -1035  -1104  -1131  -1116  -1084  -1054  -1027  -1004  -988  -982  -974  -934  -862  -797  -754  -723  -695  -667  -628  -572  -511  -469  -449  -431  -385  -292  -172  -80  -44  -39  -41  -60  -105  -152  -172  -170  -161  -153  -158  -205  -341  -591  -882  -1086  -1151  -1111  -1006  -880  -805  -826  -930  -1073  -1231  -1410  -1564  -1548  -1128  -42  1799  4200  6813  9186  10792  11179  10124  7768  4613  1445  -873  -1945  -1976  -1411  -758  -415  -378  -411  -401  -383  -406  -470  -547  -609  -642  -642  -621  -588  -540  -472  -402  -353  -321  -286  -228  -152  -81  -22  24  50  52  51  84  171  286  381  451  528  630  740  831  892  936  992  1091  1253  1452  1634  1771  1890  2038  2260  2581  2967  3316  3559  3738  3954  4260  4593  4821  4876  4770  4530  4182  3747  3227  2630  1970  1271  578  -58  -576  -918  -1114  -1248  -1349  -1418  -1475  -1533  -1594  -1661  -1724  -1738  -1663  -1515  -1368  -1289  -1295  -1369  -1470  -1541  -1536  -1441  -1290  -1156  -1094  -1130  -1267  -1450  -1579  -1585  -1478  -1329  -1222  -1186  -1187  -1194  -1193  -1155  -1054  -920  -822  -790  -797  -809  -814  -798  -754  -698  -678  -752  -924  -1120  -1245  -1253  -1152  -1003  -886  -829  -804  -776  -724  -665  -634  -641  -658  -664  -658  -648  -644  -650  -668  -686  -704  -723  -740  -745  -737  -723  -708  -702  -723  -783  -861  -905  -884  -819  -753  -707  -677  -649  -623  -609  -611  -620  -630  -638  -647  -665  -694  -731  -794  -910  -1054  -1161  -1192  -1153  -1062  -952  -866  -824  -811  -798  -757  -685  -615  -582  -607  -678  -760  -824  -857  -864  -853  -818  -743  -633  -502  -336  -148  6  94  126  121  98  77  56  16  -54  -150  -259  -361  -426  -457  -491  -559  -655  -738  -792  -838  -889  -929  -952  -970  -992  -1013  -1039  -1086  -1191  -1367  -1509  -1362  -599  1007  3371  6074  8605  10563  11561  11198  9335  6287  2797  -150  -1821  -2182  -1727  -984  -350  -67  -86  -209  -340  -475  -596  -687  -746  -781  -800  -802  -783  -731  -640  -520  -402  -315  -266  -244  -238  -241  -238  -201  -117  -13  64  112  164  231  288  313  330  394  539  731  892  1001  1098  1206  1301  1370  1436  1526  1648  1802  2021  2330  2676  2983  3232  3456  3681  3903  4101  4257  4357  4403  4390  4271  3971  3460  2828  2237  1739  1269  791  324  -106  -472  -741  -938  -1152  -1398  -1583  -1654  -1645  -1594  -1530  -1482  -1459  -1452  -1456  -1473  -1500  -1526  -1542  -1549  -1550  -1537  -1501  -1445  -1392  -1360  -1347  -1330  -1277  -1189  -1103  -1053  -1049  -1084  -1145  -1213  -1270  -1305  -1301  -1245  -1161  -1085  -1027  -985  -956  -928  -893  -847  -794  -760  -768  -808  -852  -886  -913  -938  -956  -962  -962  -959  -950  -929  -899  -863  -820  -782  -766  -764  -763  -769  -786  -804  -813  -809  -790  -753  -706  -665  -639  -626  -626  -652  -707  -763  -777  -756  -740  -750  -778  -801  -811  -814  -804  -776  -748  -733  -727  -725  -726  -726  -727  -727  -726  -722  -715  -715  -734  -777  -827  -858  -856  -819  -766  -723  -702  -696  -685  -645  -557  -442  -354  -308  -257  -147  9  151  230  249  214  111  -41  -179  -251  -265  -260  -269  -312  -399  -522  -653  -770  -900  -1093  -1322  -1485  -1514  -1414  -1235  -1060  -973  -1041  -1283  -1562  -1563  -959  432  2574  5196  7860  10038  11213  11011  9354  6548  3226  226  -1714  -2431  -2265  -1686  -1133  -851  -782  -783  -791  -797  -799  -799  -792  -761  -689  -583  -482  -421  -405  -412  -416  -411  -399  -365  -281  -151  -26  45  60  46  30  37  89  191  322  445  547  647  754  845  915  992  1083  1182  1298  1433  1560  1677  1818  2002  2222  2451  2674  2905  3197  3580  3966  4219  4317  4342  4365  4404  4439  4412  4239  3840  3188  2366  1566  968  607  386  187  -107  -586  -1143  -1526  -1649  -1634  -1595  -1548  -1477  -1414  -1416  -1485  -1566  -1609  -1607  -1589  -1583  -1595  -1609  -1614  -1608  -1591  -1550  -1472  -1374  -1307  -1285  -1279  -1257  -1220  -1191  -1181  -1181  -1185  -1191  -1201  -1208  -1195  -1146  -1067  -990  -941  -927  -935  -943  -939  -933  -933  -933  -933  -936  -942  -943  -936  -929  -926  -928  -932  -936  -934  -916  -882  -847  -809  -762  -750  -808  -912  -1007  -1062  -1078  -1083  -1087  -1069  -1011  -932  -866  -824  -798  -778  -769  -765  -747  -709  -668  -647  -682  -767  -848  -898  -927  -921  -830  -633  -392  -211  -130  -116  -131  -158  -187  -200  -199  -205  -253  -359  -488  -590  -661  -739  -844  -967  -1078  -1165  -1246  -1306  -1290  -1198  -1098  -1037  -1003  -1004  -1128  -1445  -1779  -1683  -782  970  3349  5940  8204  9665  10003  9055  6938  4077  1151  -1072  -2200  -2383  -1985  -1383  -906  -677  -616  -620  -647  -692  -749  -796  -813  -784  -695  -568  -463  -413  -410  -429  -450  -464  -468  -464  -454  -442  -420  -378  -310  -230  -161  -80  53  215  336  412  504  622  717  774  823  873  905  925  995  1171  1426  1678  1902  2148  2451  2759  3003  3203  3429  3716  4053  4372  4592  4694  4688  4562  4311  3961  3554  3099  2564  1948  1287  627  54  -384  -758  -1094  -1331  -1454  -1521  -1570  -1610  -1656  -1711  -1751  -1737  -1650  -1516  -1403  -1362  -1378  -1407  -1420  -1413  -1406  -1415  -1419  -1384  -1306  -1227  -1207  -1255  -1319  -1351  -1353  -1347  -1343  -1341  -1331  -1306  -1268  -1229  -1206  -1202  -1210  -1214  -1192  -1128  -1041  -967  -916  -869  -813  -750  -695  -671  -695  -760  -845  -936  -1032  -1126  -1186  -1186  -1131  -1054  -996  -969  -952  -919  -847  -750  -674  -637  -627  -626  -639  -704  -844  -1004  -1112  -1155  -1137  -1079  -1024  -994  -985  -979  -941  -843  -709  -593  -510  -435  -355  -276  -204  -139  -71  -3  39  36  -2  -56  -110  -160  -203  -244  -303  -402  -539  -687  -804  -880  -947  -1019  -1076  -1112  -1144  -1172  -1198  -1228  -1242  -1207  -1148  -1172  -1337  -1469  -1148  41  2215  5057  7912  10079  11055  10608  8805  5988  2752  -76  -1834  -2414  -2093  -1314  -621  -348  -426  -599  -711  -756  -769  -767  -759  -752  -746  -723  -676  -633  -600  -544  -465  -398  -386  -421  -419  -328  -201  -101  -44  -24  -23  -22  6  95  247  406  511  565  619  706  809  886  923  944  996  1135  1370  1654  1929  2156  2359  2621  2973  3327  3593  3787  3979  4196  4398  4528  4573  4538  4399  4129  3734  3227  2625  1996  1416  880  369  -83  -471  -823  -1129  -1345  -1454  -1489  -1503  -1521  -1545  -1576  -1604  -1622  -1624  -1600  -1543  -1470  -1414  -1393  -1400  -1422  -1457  -1500  -1534  -1543  -1515  -1448  -1360  -1289  -1254  -1247  -1253  -1260  -1268  -1282  -1304  -1330  -1361  -1395  -1428  -1446  -1425  -1332  -1171  -1006  -912  -902  -946  -1006  -1054  -1084  -1089  -1057  -1002  -968  -984  -1040  -1107  -1171  -1227  -1266  -1283  -1264  -1187  -1050  -930  -926  -1028  -1129  -1153  -1106  -1035  -981  -941  -883  -809  -745  -699  -661  -654  -709  -817  -924  -966  -926  -856  -807  -772  -735  -706  -691  -680  -636  -531  -379  -214  -45  117  217  189  18  -216  -387  -447  -445  -442  -459  -487  -521  -581  -675  -777  -864  -925  -958  -963  -955  -961  -1011  -1109  -1205  -1253  -1281  -1394  -1637  -1821  -1562  -531  1347  3846  6571  9101  10964  11642  10772  8406  5063  1637  -869  -1952  -1888  -1291  -661  -298  -272  -417  -545  -605  -626  -633  -634  -643  -669  -711  -765  -814  -831  -782  -660  -513  -410  -379  -393  -396  -324  -154  50  188  230  207  151  89  63  113  238  396  535  630  694  773  897  1044  1181  1299  1415  1561  1762  1995  2201  2351  2486  2701  3053  3461  3793  4038  4261  4462  4589  4615  4559  4429  4162  3678  3016  2322  1676  1074  543  116  -243  -598  -947  -1219  -1366  -1436  -1488  -1524  -1535  -1533  -1522  -1493  -1450  -1411  -1385  -1378  -1405  -1484  -1592  -1677  -1716  -1720  -1696  -1641  -1565  -1503  -1465  -1435  -1412  -1403  -1402  -1401  -1397  -1392  -1387  -1369  -1325  -1262  -1206  -1158  -1114  -1077  -1055  -1046  -1044  -1051  -1070  -1097  -1121  -1135  -1134  -1111  -1071  -1026  -985  -950  -910  -865  -837  -838  -855  -868  -869  -864  -868  -900  -952  -971  -923  -844  -785  -755  -747  -757  -781  -819  -861  -894  -916  -934  -941  -925  -900  -903  -940  -979  -998  -1003  -1000  -975  -904  -788  -661  -570  -529  -521  -516  -491  -423  -296  -134  -1  59  61  40  15  -2  -9  -19  -54  -109  -150  -158  -150  -147  -162  -233  -405  -663  -916  -1082  -1158  -1175  -1156  -1120  -1111  -1174  -1297  -1427  -1569  -1735  -1782  -1452  -507  1185  3517  6134  8623  10546  11398  10749  8528  5183  1625  -1091  -2358  -2348  -1704  -1055  -737  -702  -728  -711  -683  -671  -675  -696  -735  -780  -817  -828  -783  -691  -607  -558  -520  -472  -412  -332  -246  -186  -159  -143  -127  -117  -114  -104  -76  -25  37  89  130  183  273  415  580  735  893  1072  1240  1368  1486  1636  1802  1952  2122  2379  2697  2971  3177  3386  3633  3869  4034  4107  4099  4031  3928  3798  3565  3099  2382  1574  848  271  -159  -506  -833  -1143  -1396  -1563  -1679  -1791  -1875  -1887  -1845  -1806  -1790  -1782  -1780  -1798  -1837  -1878  -1901  -1900  -1878  -1847  -1821  -1804  -1799  -1804  -1814  -1823  -1811  -1748  -1646  -1556  -1509  -1489  -1476  -1465  -1456  -1454  -1465  -1497  -1541  -1577  -1598  -1608  -1596  -1558  -1512  -1476  -1468  -1501  -1552  -1581  -1574  -1544  -1502  -1456  -1418  -1404  -1437  -1517  -1611  -1674  -1703  -1724  -1756  -1789  -1782  -1710  -1613  -1546  -1512  -1488  -1457  -1429  -1428  -1453  -1480  -1499  -1513  -1523  -1526  -1518  -1507  -1508  -1530  -1562  -1591  -1613  -1625  -1618  -1573  -1492  -1409  -1352  -1315  -1259  -1129  -918  -703  -578  -586  -708  -882  -1023  -1089  -1102  -1104  -1118  -1149  -1198  -1252  -1287  -1305  -1345  -1445  -1577  -1673  -1705  -1697  -1671  -1644  -1658  -1767  -1962  -2176  -2394  -2635  -2743  -2346  -1131  864  3294  5740  7819  9127  9346  8364  6263  3364  356  -1910  -2995  -3067  -2495  -1679  -1079  -894  -961  -1078  -1173  -1232  -1245  -1207  -1136  -1072  -1033  -1004  -976  -958  -946  -921  -881  -846  -822  -777  -678  -526  -366  -243  -157  -90  -40  -4  42  124  229  326  407  491  590  712  868  1041  1194  1336  1504  1710  1963  2284  2640  2934  3121  3279  3525  3864  4187  4449  4724  5049  5351  5556  5646  5613  5402  4978  4395  3765  3174  2657  2256  1981  1742  1413  1000  643  443  378  372  366  348  332  330  338  348  352  351  347  343  338]
