reading_id,reading_time,wire_id,result_classification,heart_rate,heart_rate_alert,firmware_version,device_app_version,hardware_version,waveform_samples
0d73e2d0-58ca-11ed-8080-808080808080,Mon Oct 31 03:13:55 UTC 2022,0101e39b1d39,NSR,83,NONE,20001.171.50,2.10.0,Charge 5,[10156  11548  13258  14950  16058  16377  15762  13818  10464  6474  3045  961  207  221  443  616  706  754  773  692  407  -79  -630  -1075  -1328  -1442  -1607  -2014  -2614  -3119  -3335  -3330  -3279  -3328  -3552  -3869  -4103  -4184  -4204  -4283  -4448  -4647  -4818  -4924  -4954  -4888  -4704  -4450  -4227  -4067  -3947  -3838  -3760  -3769  -3833  -3830  -3738  -3621  -3482  -3284  -3070  -2965  -3049  -3287  -3596  -3922  -4255  -4626  -5090  -5627  -6122  -6479  -6685  -6772  -6799  -6859  -6987  -7119  -7208  -7301  -7462  -7668  -7822  -7850  -7771  -7644  -7505  -7375  -7269  -7158  -6997  -6806  -6655  -6559  -6482  -6395  -6305  -6257  -6265  -6273  -6274  -6318  -6410  -6513  -6615  -6739  -6884  -6940  -6784  -6457  -6136  -5953  -5898  -5910  -5971  -6088  -6259  -6401  -6379  -6186  -5958  -5791  -5683  -5587  -5491  -5425  -5404  -5405  -5392  -5316  -5133  -4887  -4668  -4449  -4120  -3700  -3352  -3178  -3145  -3177  -3222  -3243  -3211  -3108  -2929  -2684  -2431  -2273  -2275  -2427  -2644  -2822  -2924  -2965  -2952  -2903  -2864  -2861  -2883  -2898  -2918  -3048  -3336  -3604  -3631  -3294  -2413  -746  1716  4641  7468  9484  10007  8773  6093  2630  -720  -3009  -3861  -3657  -2983  -2355  -2088  -2111  -2184  -2202  -2178  -2133  -2065  -1986  -1934  -1915  -1868  -1717  -1464  -1193  -966  -802  -718  -722  -795  -892  -952  -926  -793  -588  -379  -195  -21  180  447  747  977  1099  1197  1342  1499  1629  1752  1879  2004  2129  2244  2330  2426  2599  2823  2987  3044  3044  3032  3007  2915  2669  2210  1627  1114  794  644  562  471  337  153  -38  -161  -198  -211  -290  -483  -746  -954  -1042  -1048  -1026  -990  -932  -865  -822  -805  -768  -671  -533  -423  -410  -536  -796  -1089  -1262  -1191  -838  -354  -8  62  -80  -294  -450  -502  -495  -492  -521  -563  -577  -558  -543  -552  -553  -494  -375  -290  -330  -463  -582  -579  -382  -51  252  414  431  363  264  145  12  -106  -174  -175  -106  21  168  284  340  351  345  339  327  304  275  257  260  274  286  298  302  266  160  14  -107  -193  -284  -382  -480  -667  -1048  -1490  -1585  -924  660  3029  5799  8576  10977  12407  12269  10439  7240  3396  55  -1845  -2221  -1624  -757  -178  -28  -93  -153  -147  -86  13  117  181  204  230  290  368  434  447  364  244  226  331  453  529  576  631  710  803  882  924  927  920  941  1033  1213  1422  1572  1641  1687  1772  1906  2091  2364  2695  2960  3095  3150  3191  3221  3202  3144  3102  3079  2970  2654  2181  1731  1384  1096  831  565  258  -101  -436  -631  -675  -674  -741  -906  -1093  -1209  -1241  -1239  -1239  -1228  -1155  -995  -798  -642  -549  -510  -558  -762  -1109  -1448  -1637  -1671  -1612  -1491  -1304  -1083  -899  -783  -711  -687  -743  -875  -1033  -1183  -1325  -1439  -1466  -1409  -1313  -1193  -1096  -1093  -1190  -1326  -1428  -1466  -1443  -1338  -1127  -834  -570  -460  -505  -598  -673  -713  -706  -649  -565  -493  -448  -415  -372  -315  -257  -220  -209  -216  -231  -250  -263  -266  -259  -245  -243  -296  -442  -644  -811  -886  -895  -881  -863  -840  -829  -865  -962  -1092  -1229  -1389  -1510  -1327  -527  985  3027  5324  7559  9246  9941  9452  7693  4839  1599  -1098  -2618  -2842  -2164  -1289  -793  -730  -791  -771  -700  -648  -620  -590  -550  -516  -492  -473  -469  -487  -500  -469  -390  -289  -185  -74  56  214  368  457  467  442  436  484  604  787  990  1164  1289  1419  1608  1816  1964  2037  2073  2124  2276  2585  2952  3200  3279  3270  3234  3176  3112  3089  3091  2967  2564  1968  1457  1182  1077  1017  854  466  -49  -434  -594  -637  -640  -595  -533  -513  -546  -594  -633  -666  -687  -673  -620  -556  -513  -502  -528  -594  -683  -752  -785  -789  -778  -758  -731  -702  -680  -668  -663  -655  -642  -636  -671  -782  -981  -1195  -1269  -1085  -708  -345  -146  -85  -68  -65  -145  -377  -697  -937  -1026  -1020  -956  -831  -682  -595  -594  -628  -650  -636  -541  -317  -24  186  250  230  202  188  179  170  190  284  469  702  864  846  681  521  451  449  492  584  707  788  737  508  193  -36  -104  -65  7  84  150  155  5  -344  -764  -971  -566  850  3317  6313  9012  10793  11565  11437  10307  8042  4844  1418  -1195  -2318  -2161  -1534  -1118  -1111  -1365  -1652  -1839  -1914  -1915  -1877  -1819  -1751  -1652  -1488  -1296  -1200  -1268  -1425  -1542  -1580  -1594  -1662  -1816  -2018  -2203  -2335  -2393  -2326  -2090  -1764  -1512  -1379  -1225  -914  -510  -170  150  671  1443  2318  3146  3787  4139  4253  4259  4265  4374  4633  4919  5016  4876  4647  4406  4002  3258  2221  1097  -11  -1096  -1974  -2427  -2501  -2427  -2390  -2483  -2720  -3000  -3191  -3260  -3245  -3142  -2921  -2623  -2369  -2231  -2171  -2127  -2089  -2079  -2117  -2197  -2259  -2239  -2142  -2060  -2096  -2231  -2341  -2357  -2319  -2319  -2386  -2435  -2368  -2186  -1991  -1893  -1917  -1984  -2011  -1993  -1967  -1955  -1945  -1905  -1834  -1784  -1800  -1847  -1859  -1834  -1810  -1794  -1778  -1784  -1875  -2097  -2398  -2649  -2779  -2831  -2885  -2964  -3024  -3013  -2915  -2757  -2601  -2503  -2473  -2505  -2593  -2707  -2798  -2851  -2876  -2882  -2860  -2784  -2623  -2420  -2260  -2153  -2023  -1835  -1645  -1507  -1424  -1386  -1391  -1444  -1548  -1673  -1760  -1783  -1768  -1755  -1796  -1926  -2106  -2242  -2268  -2169  -1977  -1775  -1652  -1629  -1663  -1732  -1911  -2258  -2584  -2461  -1498  421  3143  6202  8849  10379  10364  8695  5716  2253  -678  -2375  -2801  -2437  -1877  -1521  -1416  -1381  -1275  -1093  -916  -820  -823  -882  -925  -887  -751  -534  -274  -36  109  157  163  174  195  226  285  384  499  612  731  868  1006  1105  1159  1208  1301  1420  1513  1561  1578  1606  1707  1915  2205  2520  2805  3022  3155  3210  3219  3221  3222  3190  3083  2910  2702  2465  2228  2032  1826  1502  1027  481  20  -228  -291  -315  -404  -532  -606  -595  -530  -429  -301  -191  -136  -131  -152  -189  -240  -294  -319  -300  -261  -227  -197  -158  -95  -15  44  50  -4  -113  -239  -321  -319  -238  -126  -45  -21  -31  -36  -4  69  154  254  373  402  209  -143  -450  -600  -637  -620  -561  -481  -407  -345  -269  -128  93  311  399  337  198  78  35  33  14  -6  25  122  274  500  830  1205  1493  1645  1713  1744  1738  1673  1568  1528  1629  1789  1878  1869  1816  1772  1752  1748  1763  1823  1929  2044  2116  2098  1932  1556  1012  505  232  182  193  116  -103  -461  -855  -1026  -786  -190  697  1951  3681  5856  8037  9423  9359  7803  5225  2237  -411  -2035  -2521  -2256  -1691  -1164  -860  -774  -781  -784  -765  -739  -715  -697  -678  -649  -615  -576  -509  -407  -303  -232  -196  -189  -198  -190  -155  -108  -47  35  133  245  397  606  857  1131  1381  1527  1550  1535  1608  1845  2176  2446  2587  2643  2671  2736  2893  3105  3273  3345  3322  3201  2990  2709  2353  1953  1615  1390  1205  988  739  473  211  -3  -136  -196  -215  -218  -209  -164  -66  62  177  268  368  486  586  634  635  638  688  784  906  1044  1172  1257  1299  1333  1385  1436  1444  1402  1358  1339  1330  1344  1383  1418  1407  1309  1113  873  663  506  381  262  109  -101  -331  -503  -596  -651  -713  -807  -925  -1043  -1200  -1444  -1745  -2023  -2216  -2265  -2146  -1938  -1759  -1657  -1606  -1588  -1623  -1746  -1946  -2113  -2111  -1950  -1748  -1556  -1356  -1154  -993  -929  -998  -1182  -1415  -1619  -1734  -1756  -1732  -1701  -1680  -1667  -1662  -1688  -1785  -1959  -2165  -2347  -2506  -2734  -3108  -3446  -3334  -2497  -976  989  3028  4716  5754  5945  5117  3347  982  -1495  -3442  -4417  -4513  -4006  -3161  -2406  -2119  -2255  -2474  -2559  -2521  -2429  -2322  -2227  -2169  -2152  -2167  -2206  -2260  -2309  -2332  -2327  -2310  -2290  -2254  -2184  -2080  -1971  -1913  -1942  -2032  -2151  -2273  -2355  -2356  -2258  -2072  -1843  -1606  -1408  -1341  -1453  -1650  -1730  -1542  -1120  -656  -285  12  270  448  509  456  304  84  -180  -466  -733  -968  -1185  -1361  -1486  -1615  -1793  -1972  -2078  -2102  -2091  -2069  -2033  -1977  -1885  -1724  -1491  -1253  -1096  -1034  -996  -892  -697  -466  -268  -132  -13  127  248  260  126  -78  -229  -282  -281  -270  -242  -173  -53  124  288  326  310  395  533  606  610  585  547  474  332  141  -12  -83  -91  -63  1  95  191  285  415  571  696  773  813  812  782  740  668  557  441  361  323  315  337  402  527  725  959  1137  1183  1106  995  939  971  1095  1266  1408  1457  1346  1016  566  227  97  83  77  55  23  -16  -44  -34  6  -21  -257  -617  -742  -385  479  1823  3581  5612  7615  9062  9371  8230  5812  2743  -52  -1735  -2098  -1548  -667  26  254  121  -54  -86  6  144  271  359  396  375  304  215  153  126  125  160  255  395  558  757  974  1129  1196  1228  1271  1327  1385  1435  1468  1505  1595  1767  1991  2193  2318  2369  2382  2397  2443  2541  2689  2864  3033  3176  3319  3477  3609  3673  3633  3426  3034  2533  2011  1550  1222  987  696  293  -100  -345  -411  -376  -353  -429  -625  -869  -1055  -1147  -1184  -1194  -1165  -1073  -942  -835  -779  -759  -764  -815  -920  -1022  -1040  -970  -839  -675  -550  -555  -725  -980  -1157  -1190  -1167  -1151  -1132  -1130  -1175  -1243  -1294  -1307  -1290  -1265  -1246  -1222  -1179  -1126  -1089  -1078  -1079  -1082  -1101  -1162  -1268  -1396  -1506  -1566  -1556  -1478  -1368  -1278  -1229  -1206  -1198  -1218  -1282  -1357  -1378  -1330  -1274  -1273  -1311  -1339  -1346  -1346  -1358  -1376  -1355  -1233  -1018  -797  -605  -412  -223  -81  0  32  -25  -225  -498  -700  -785  -807  -809  -796  -763  -734  -751  -827  -929  -1025  -1149  -1354  -1610  -1803  -1841  -1681  -1412  -1328  -1621  -1977  -1705  -301  2085  4754  6980  8321  8550  7568  5493  2747  13  -1952  -2737  -2477  -1722  -1108  -917  -1024  -1212  -1290  -1200  -1047  -937  -883  -853  -818  -774  -724  -663  -603  -555  -500  -419  -347  -315  -277  -195  -98  -12  62  119  152  187  254  350  443  529  640  815  1059  1326  1534  1629  1644  1654  1708  1835  2028  2232  2394  2498  2548  2556  2550  2556  2583  2603  2508  2167  1602  1026  621  378  188  -26  -265  -475  -618  -700  -756  -812  -847  -828  -767  -701  -663  -649  -634  -595  -527  -454  -430  -475  -545  -597  -645  -720  -818  -866  -811  -722  -689  -715  -753  -780  -799  -813  -819  -819  -827  -873  -961  -1037  -1062  -1048  -1017  -991  -980  -986  -1003  -1025  -1040  -1045  -1044  -1042  -1040  -1041  -1047  -1061  -1069  -1025  -889  -697  -551  -514  -595  -769  -964  -1093  -1121  -1049  -889  -698  -566  -552  -647  -791  -936  -1068  -1157  -1154  -1041  -870  -728  -647  -594  -549  -526  -556  -651  -759  -816  -833  -855  -898  -941  -943  -897  -825  -734  -637  -548  -455  -354  -271  -207  -131  -44  29  116  256  394  441  415  398  402  349  148  -171  -461  -620  -690  -752  -831  -911  -960  -958  -899  -790  -669  -578  -455  -140  541  1761  3578  5827  8091  9746  10148  8941  6271  2814  -366  -2275  -2607  -1890  -936  -256  21  -22  -203  -370  -488  -553  -566  -536  -448  -272  -44  157  292  366  420  491  576  642  672  681  683  699  750  832  918  979  1007  1016  1038  1095  1174  1266  1429  1718  2061  2322  2452  2492  2490  2471  2447  2431  2463  2614  2906  3228  3424  3438  3327  3193  3108  3071  3011  2813  2383  1756  1100  589  277  124  67  56  61  57  15  -73  -173  -239  -272  -299  -336  -385  -433  -462  -457  -418  -370  -342  -334  -336  -344  -361  -379  -394  -408  -425  -445  -455  -444  -407  -340  -259  -197  -172  -171  -181  -205  -249  -300  -324  -305  -267  -247  -257  -294  -359  -438  -499  -534  -567  -621  -688  -733  -731  -682  -610  -550  -512  -486  -478  -495  -523  -537  -532  -514  -500  -511  -573  -684  -803  -878  -897  -891  -884  -884  -890  -899  -908  -919  -933  -949  -949  -887  -730  -535  -424  -460  -591  -726  -820  -887  -964  -1064  -1138  -1112  -993  -873  -820  -820  -835  -852  -877  -908  -917  -834  -600  -282  -39  54  60  55  49  -7  -145  -332  -517  -674  -798  -903  -988  -1041  -1071  -1125  -1256  -1474  -1713  -1871  -1913  -1894  -1851  -1730  -1452  -961  -171  1059  2861  5077  7166  8573  8905  7877  5533  2380  -745  -2946  -3728  -3276  -2262  -1410  -1047  -1025  -1068  -1070  -1062  -1064  -1062  -1049  -1042  -1052  -1074  -1087  -1064  -976  -839  -702  -599  -530  -483  -472  -529  -646  -743  -739  -655  -590  -575  -502  -239  182  562  746  759  692  609  558  599  783  1075  1368  1603  1806  1976  2076  2110  2132  2184  2264  2331  2309  2104  1698  1223  869  707  641  524  302  7  -303  -571  -760  -877  -940  -969  -1005  -1072  -1125  -1103  -1023  -973  -1014  -1127  -1239  -1296  -1298  -1253  -1144  -991  -853  -763  -720  -722  -781  -898  -1033  -1128  -1170  -1183  -1173  -1121  -1019  -900  -827  -839  -923  -1038  -1144  -1225  -1290  -1335  -1331  -1239  -1066  -881  -760  -746  -833  -971  -1085  -1140  -1147  -1109  -1015  -886  -794  -797  -911  -1082  -1202  -1199  -1085  -914  -743  -610  -523  -485  -519  -642  -809  -930  -968  -952  -911  -847  -771  -743  -795  -841  -775  -599  -398  -252  -224  -328  -499  -628  -673  -654  -595  -512  -428  -362  -325  -294  -196  32  331  546  595  521  411  332  296  286  288  272  184  44  -62  -91  -72  -50  -49  -74  -131  -207  -269  -275  -200  -100  -128  -281  -254  267  1409  3177  5436  7727  9314  9548  8142  5341  2017  -684  -2072  -2284  -1875  -1292  -795  -498  -385  -358  -314  -227  -141  -92  -74  -62  -20  81  214  304  317  276  237  232  253  287  331  372  405  441  482  529  576  605  617  640  717  880  1100  1285  1371  1378  1379  1429  1540  1710  1951  2224  2468  2680  2869  2973  2947  2834  2705  2581  2458  2339  2225  2068  1795  1400  996  689  425  94  -263  -520  -645  -706  -753  -785  -792  -774  -744  -735  -756  -760  -700  -611  -595  -707  -861  -916  -849  -760  -720  -719  -724  -717  -706  -726  -816  -951  -1063  -1102  -1072  -999  -912  -835  -789  -781  -811  -878  -958  -1014  -1031  -1019  -989  -957  -943  -949  -962  -977  -1012  -1081  -1161  -1216  -1235  -1236  -1233  -1215  -1169  -1105  -1060  -1059  -1090  -1118  -1116  -1089  -1054  -1011  -959  -913  -880  -874  -915  -1004  -1097  -1134  -1093  -998  -873  -726  -565  -402  -250  -122  -25  35  68  81  54  -25  -123  -193  -233  -281  -373  -510  -649  -739  -766  -756  -725  -692  -707  -830  -1031  -1214  -1314  -1312  -1225  -1036  -517  666  2541  4793  6990  8588  9048  8128  5894  2716  -514  -2660  -3204  -2521  -1425  -685  -571  -779  -944  -974  -903  -741  -524  -337  -232  -200  -206  -209  -185  -140  -94  -59  -33  -8  18  61  144  283  440  562  640  687  700  689  687  724  805  943  1147  1379  1570  1709  1834  1952  2051  2161  2318  2513  2695  2803  2829  2807  2771  2725  2656  2562  2444  2250  1919  1496  1099  771  484  237  65  -15  -39  -62  -122  -247  -470  -802  -1173  -1459  -1578  -1531  -1357  -1115  -893  -767  -741  -765  -793  -808  -813  -814  -812  -796  -749  -680  -611  -556  -531  -539  -556  -560  -557  -556  -558  -555  -541  -512  -478  -468  -538  -736  -1009  -1230  -1321  -1277  -1125  -947  -835  -807  -819  -827  -820  -801  -759  -684  -607  -562  -533  -508  -553  -708  -926  -1128  -1259  -1297  -1217  -997  -706  -492  -418  -427  -451  -449  -404  -313  -196  -95  -43  -43  -97  -196  -303  -367  -360  -283  -175  -89  -49  -56  -135  -330  -634  -946  -1136  -1161  -1068  -938  -846  -831  -900  -1053  -1304  -1598  -1659  -1151  -8  1622  3579  5610  7329  8317  8244  6980  4698  1939  -464  -1899  -2367  -2122  -1457  -846  -601  -593  -611  -637  -722  -852  -948  -925  -743  -464  -230  -142  -195  -313  -389  -369  -309  -263  -207  -103  24  112  107  3  -151  -267  -262  -91  230  610  940  1166  1304  1386  1428  1446  1475  1560  1709  1881  2038  2187  2327  2432  2504  2550  2518  2396  2282  2247  2249  2193  2028  1763  1357  711  -60  -628  -860  -920  -962  -1004  -1021  -1016  -1004  -992  -981  -988  -1026  -1084  -1123  -1119  -1084  -1046  -1029  -1036  -1046  -1048  -1042  -1035  -1027  -1007  -960  -880  -792  -738  -749  -830  -944  -1041  -1100  -1119  -1087  -992  -854  -746  -728  -774  -819  -833  -821  -810  -820  -850  -890  -942  -1007  -1077  -1141  -1173  -1131  -999  -836  -741  -757  -851  -928  -929  -871  -782  -685  -628  -634  -683  -746  -821  -918  -1009  -1060  -1066  -1042  -988  -892  -739  -542  -340  -177  -84  -50  -43  -48  -72  -129  -214  -298  -370  -466  -607  -745  -830  -877  -947  -1045  -1123  -1138  -1084  -974  -836  -708  -634  -692  -896  -977  -490  787  2818  5398  8022  9858  10110  8540  5619  2238  -616  -2217  -2514  -2078  -1478  -939  -596  -545  -628  -634  -566  -511  -494  -498  -504  -504  -497  -488  -468  -427  -367  -285  -154  11  123  128  96  122  227  373  509  627  756  896  1004  1054  1071  1113  1189  1258  1308  1380  1521  1747  2038  2319  2515  2617  2698  2832  3010  3150  3200  3160  3032  2817  2526  2162  1747  1349  1011  733  521  359  182  -54  -321  -553  -697  -759  -795  -863  -960  -1043  -1078  -1052  -958  -832  -740  -706  -704  -704  -703  -739  -839  -969  -1055  -1074  -1059  -1041  -1023  -998  -971  -953  -947  -949  -954  -955  -945  -924  -915  -936  -964  -974  -983  -1035  -1150  -1284  -1371  -1397  -1389  -1365  -1326  -1282  -1260  -1278  -1311  -1337  -1379  -1475  -1608  -1704  -1718  -1653  -1507  -1289  -1069  -928  -868  -842  -826  -816  -810  -805  -797  -788  -809  -909  -1091  -1273  -1374  -1388  -1356  -1278  -1114  -884  -672  -523  -428  -375  -329  -236  -99  7  7  -146  -427  -721  -913  -981  -971  -934  -895  -870  -858  -862  -883  -909  -930  -1018  -1277  -1638  -1747  -1062  763  3480  6414  8884  10226  9960  8186  5408  2215  -568  -2164  -2521  -2179  -1641  -1190  -956  -901  -876  -797  -686  -585  -514  -481  -488  -516  -528  -509  -464  -383  -264  -133  -17  74  147  204  235  227  187  151  160  226  328  462  617  765  895  1016  1116  1176  1221  1347  1625  1993  2301  2460  2504  2513  2532  2573  2645  2753  2871  2945  2919  2770  2531  2245  1944  1660  1385  1079  722  322  -60  -342  -505  -589  -627  -640  -662  -715  -797  -873  -907  -889  -847  -806  -771  -750  -749  -769  -799  -810  -798  -807  -885  -1036  -1209  -1326  -1352  -1308  -1216  -1098  -992  -925  -908  -935  -971  -982  -972  -961  -957  -950  -910  -836  -787  -816  -897  -974  -1027  -1052  -1051  -1023  -964  -881  -797  -729  -692  -693  -718  -758  -807  -844  -858  -864  -878  -894  -896  -890  -895  -911  -915  -887  -842  -807  -784  -749  -673  -564  -471  -431  -424  -382  -252  -63  88  158  170  166  164  160  134  69  -39  -166  -263  -319  -366  -421  -495  -612  -746  -816  -789  -722  -671  -634  -633  -714  -816  -705  -31  1428  3533  5894  8067  9521  9667  8195  5355  1899  -1153  -2943  -3296  -2700  -1822  -1096  -638  -402  -330  -386  -531  -693  -810  -869  -889  -895  -875  -777  -581  -346  -153  -30  41  109  230  394  497  443  278  107  -36  -160  -223  -123  214  677  1030  1188  1240  1280  1361  1526  1793  2116  2396  2557  2606  2578  2493  2393  2325  2303  2302  2295  2272  2227  2121  1898  1538  1104  723  470  299  129  -63  -273  -527  -834  -1109  -1260  -1290  -1264  -1231  -1216  -1246  -1343  -1480  -1590  -1629  -1578  -1426  -1223  -1085  -1093  -1237  -1412  -1500  -1481  -1428  -1381  -1329  -1268  -1221  -1203  -1208  -1235  -1284  -1340  -1366  -1334  -1262  -1192  -1148  -1128  -1122  -1145  -1227  -1376  -1541  -1651  -1682  -1645  -1556  -1446  -1353  -1290  -1253  -1238  -1216  -1166  -1105  -1077  -1122  -1270  -1509  -1750  -1876  -1835  -1672  -1478  -1313  -1198  -1146  -1155  -1198  -1246  -1275  -1281  -1279  -1278  -1272  -1252  -1225  -1225  -1261  -1259  -1136  -921  -733  -650  -641  -639  -590  -473  -321  -187  -112  -127  -263  -529  -879  -1211  -1425  -1510  -1524  -1501  -1436  -1344  -1264  -1194  -1110  -1045  -1017  -859  -174  1360  3606  6076  8178  9258  8922  7281  4706  1743  -781  -2195  -2434  -1857  -1006  -422  -303  -472  -668  -755  -694  -483  -202  2  63  25  -40  -99  -135  -131  -69  62  241  429  597  735  839  907  964  1045  1142  1209  1235  1250  1276  1317  1374  1425  1437  1435  1547  1893  2384  2785  2999  3093  3140  3195  3316  3514  3729  3870  3892  3797  3609  3364  3081  2764  2413  2039  1693  1441  1280  1152  1000  800  597  454  380  350  346  356  368  373  373  374  381  392  391  350  248  117  31  39  140  288  410  474  504  527  546  550  537  511  474  433  414  427  439  441  487  601  717  767  742  665  582  519  461  392  314  235  166  125  128  178  253  296  272  213  154  89  14  -36  -25  63  196  317  397  437  438  398  322  239  182  164  166  171  175  169  141  87  15  -50  -84  -86  -94  -137  -204  -260  -292  -292  -192  110  571  989  1232  1326  1282  1076  797  596  515  485  418  263  34  -200  -361  -427  -455  -503  -570  -620  -643  -652  -653  -631  -547  -355  -30  495  1392  2770  4557  6582  8536  9811  9708  7897  4629  858  -2038  -3227  -2896  -1819  -841  -421  -444  -598  -725  -817  -898  -957  -973  -951  -913  -884  -867  -855  -853  -862  -870  -868  -856  -835  -794  -715  -616  -548  -541  -583  -628  -630  -590  -545  -517  -499  -487  -480  -463  -392  -235  -24  179  375  563  704  786  838  886  956  1065  1157  1141  1000  823  684  550  328  -18  -473  -1047  -1675  -2155  -2371  -2420  -2454  -2539  -2666  -2806  -2921  -2973  -2978  -3033  -3234  -3548  -3819  -3950  -3953  -3852  -3642  -3354  -3075  -2890  -2823  -2838  -2896  -3012  -3221  -3445  -3547  -3510  -3426  -3388  -3416  -3443  -3404  -3321  -3265  -3250  -3238  -3190  -3121  -3063  -3027  -3030  -3090  -3170  -3213  -3218  -3207  -3196  -3182  -3149  -3085  -2999  -2925  -2884  -2855  -2799  -2710  -2628  -2591  -2592  -2606  -2624  -2652  -2691  -2721  -2710  -2666  -2625  -2597  -2550  -2471  -2400  -2362  -2337  -2315  -2296  -2260  -2188  -2099  -2021  -1967  -1948  -1971  -2011  -2030  -1981  -1832  -1635  -1493  -1441  -1442  -1460  -1489  -1510  -1451  -1218  -833  -468  -263  -204  -208  -223  -230  -214  -160  -82  -15  12  -21  -136  -306  -479  -644  -798  -892  -889  -822  -715  -579  -500  -609  -915  -1172  -940  133  2120  4795  7677  10086  11282  10759  8597  5455  2286  41  -849  -758  -304  140  395  454  480  578  693  754  761  759  789  864  962  1044  1085  1082  1042  973  898  867  983  1331  1804  2147  2222  2088  1884  1752  1804  2078  2454  2729  2818  2785  2705  2642  2687  2907  3218  3448  3545  3589  3639  3682  3718  3782  3895  4037  4155  4194  4137  4023  3905  3804  3703  3550  3303  2948  2485  1961  1477  1119  897  735  528  260  17  -107  -70  122  380  564  614  567  485  411  371  369  393  414  379  257  99  0  0  78  192  305  393  451  498  542  541  460  346  269  246  254  289  363  465  546  562  483  289  39  -146  -209  -170  -60  67  127  79  -30  -131  -209  -266  -290  -271  -224  -160  -73  22  79  71  13  -98  -300  -559  -750  -780  -665  -496  -351  -246  -195  -221  -312  -441  -599  -749  -840  -866  -860  -847  -821  -767  -666  -503  -303  -119  37  172  275  370  492  597  587  422  172  -59  -212  -294  -355  -419  -461  -465  -453  -488  -621  -834  -1034  -1131  -1106  -1049  -998  -762  -43  1292  3112  5138  7096  8617  9165  8339  6174  3175  171  -2015  -3023  -3037  -2494  -1820  -1280  -938  -752  -662  -627  -627  -644  -662  -668  -654  -621  -578  -540  -516  -487  -426  -344  -273  -219  -166  -111  -56  6  78  148  201  222  215  200  212  275  391  557  778  1022  1222  1360  1462  1551  1648  1785  1960  2114  2199  2213  2187  2157  2141  2123  2076  2002  1926  1827  1581  1082  445  -57  -311  -427  -527  -638  -758  -878  -978  -1041  -1069  -1081  -1114  -1195  -1305  -1400  -1445  -1443  -1412  -1380  -1356  -1319  -1254  -1191  -1163  -1183  -1257  -1363  -1447  -1453  -1370  -1259  -1196  -1185  -1178  -1144  -1077  -990  -910  -865  -851  -836  -801  -768  -781  -863  -997  -1140  -1252  -1324  -1352  -1311  -1206  -1094  -1029  -1024  -1046  -1057  -1050  -1039  -1029  -1024  -1046  -1118  -1217  -1253  -1149  -957  -811  -767  -769  -734  -623  -468  -334  -232  -118  17  114  122  43  -71  -161  -197  -196  -181  -174  -211  -326  -499  -664  -774  -841  -921  -1063  -1242  -1370  -1412  -1391  -1331  -1277  -1336  -1539  -1694  -1549  -1019  -74  1376  3357  5641  7663  8694  8163  6050  3006  -24  -2231  -3224  -3188  -2653  -2083  -1668  -1364  -1083  -821  -630  -532  -505  -513  -527  -534  -537  -533  -516  -475  -406  -308  -195  -92  -34  -27  -52  -68  -14  153  384  561  637  657  678  732  830  956  1082  1196  1319  1478  1674  1879  2052  2168  2231  2264  2310  2413  2571  2745  2914  3069  3181  3191  2978  2466  1793  1210  819  568  356  90  -216  -449  -556  -608  -688  -834  -1021  -1177  -1250  -1257  -1247  -1266  -1343  -1455  -1536  -1519  -1384  -1189  -1037  -978  -979  -996  -1018  -1070  -1178  -1323  -1448  -1496  -1458  -1376  -1295  -1225  -1150  -1066  -978  -914  -904  -914  -911  -927  -983  -1049  -1097  -1122  -1126  -1124  -1138  -1175  -1223  -1265  -1289  -1298  -1298  -1289  -1253  -1162  -1040  -954  -938  -959  -977  -984  -989  -1001  -1029  -1065  -1076  -1033  -945  -857  -812  -811  -821  -794  -702  -575  -483  -446  -427  -401  -419  -553  -777  -973  -1074  -1116  -1172  -1274  -1392  -1469  -1503  -1567  -1712  -1876  -1927  -1800  -1502  -1043  -348  806  2627  4997  7316  8679  8412  6544  3711  797  -1413  -2574  -2855  -2578  -1984  -1361  -983  -860  -815  -739  -652  -608  -611  -615  -590  -553  -541  -563  -590  -586  -533  -436  -311  -167  -28  59  69  21  -36  -69  -74  -73  -78  -72  -16  136  390  662  853  990  1181  1452  1728  1927  2002  1989  1997  2103  2291  2483  2602  2633  2611  2559  2465  2311  2112  1904  1676  1368  944  427  -75  -427  -592  -643  -656  -674  -715  -764  -794  -803  -801  -790  -765  -730  -704  -702  -723  -759  -792  -804  -759  -623  -441  -307  -259  -258  -269  -304  -385  -479  -523  -514  -512  -551  -602  -618  -577  -508  -447  -407  -384  -359  -304  -221  -143  -96  -74  -76  -153  -359  -641  -849  -900  -819  -663  -479  -318  -223  -198  -209  -227  -242  -227  -149  -34  44  63  66  106  209  351  477  576  690  826  924  917  784  575  395  311  300  319  351  381  348  176  -112  -381  -532  -597  -634  -625  -499  -294  -256  -554  -906  -807  14  1497  3393  5503  7705  9573  10348  9401  6644  2847  -484  -2135  -2034  -973  16  252  -112  -452  -508  -442  -399  -396  -404  -390  -329  -239  -159  -93  -2  122  239  303  316  307  299  297  294  280  255  216  173  166  250  469  779  1046  1184  1234  1272  1316  1360  1448  1651  1943  2206  2380  2504  2618  2709  2759  2758  2705  2608  2497  2406  2318  2166  1919  1612  1294  980  645  259  -142  -482  -728  -912  -1063  -1172  -1226  -1239  -1233  -1220  -1219  -1256  -1349  -1466  -1552  -1584  -1581  -1554  -1498  -1439  -1421  -1443  -1476  -1503  -1525  -1559  -1589  -1544  -1417  -1289  -1206  -1152  -1114  -1092  -1083  -1082  -1100  -1165  -1273  -1384  -1468  -1529  -1577  -1595  -1590  -1612  -1663  -1681  -1642  -1577  -1514  -1466  -1421  -1380  -1406  -1512  -1626  -1684  -1670  -1611  -1553  -1517  -1491  -1470  -1462  -1475  -1505  -1540  -1564  -1574  -1580  -1577  -1541  -1443  -1283  -1094  -909  -735  -580  -481  -445  -440  -440  -440  -445  -438  -406  -374  -379  -423  -501  -652  -925  -1258  -1497  -1582  -1584  -1565  -1529  -1467  -1379  -1277  -1210  -1227  -1322  -1379  -1004  355  2836  5923  8806  10658  10792  9015  5810  2113  -1019  -2841  -3293  -2867  -2175  -1641  -1363  -1189  -994  -812  -717  -718  -785  -886  -984  -1043  -1044  -1000  -937  -852  -722  -570  -461  -414  -388  -365  -356  -361  -348  -272  -122  44  163  230  287  368  485  625  752  835  883  946  1098  1358  1640  1860  2031  2182  2291  2337  2337  2311  2275  2237  2195  2119  1957  1701  1442  1248  1034  680  232  -149  -386  -525  -631  -725  -803  -879  -979  -1096  -1205  -1281  -1308  -1286  -1220  -1125  -1031  -966  -926  -888  -848  -830  -842  -852  -834  -806  -819  -906  -1040  -1153  -1212  -1241  -1259  -1259  -1212  -1080  -868  -657  -538  -538  -625  -738  -816  -837  -831  -829  -847  -885  -954  -1066  -1172  -1176  -1044  -840  -647  -527  -486  -487  -495  -498  -499  -502  -504  -519  -604  -805  -1063  -1243  -1273  -1174  -1016  -878  -798  -754  -702  -610  -470  -317  -196  -107  -30  34  91  159  236  285  272  184  44  -85  -151  -167  -209  -344  -558  -761  -885  -922  -866  -709  -506  -363  -339  -445  -685  -1006  -1195  -892  204  2094  4501  7026  9154  10308  10016  8134  5057  1689  -950  -2311  -2504  -1982  -1239  -691  -440  -305  -176  -90  -114  -252  -385  -390  -288  -175  -107  -85  -80  -74  -64  -53  -37  6  105  238  346  396  404  408  425  446  452  449  484  611  812  993  1094  1151  1233  1375  1570  1781  1944  2040  2150  2366  2646  2836  2865  2799  2721  2641  2538  2431  2352  2248  2005  1614  1221  951  793  667  515  319  111  -59  -206  -383  -608  -861  -1092  -1244  -1309  -1327  -1342  -1370  -1390  -1385  -1371  -1370  -1374  -1366  -1326  -1255  -1150  -1002  -847  -780  -859  -1030  -1180  -1246  -1250  -1246  -1263  -1295  -1324  -1343  -1349  -1319  -1223  -1074  -941  -881  -925  -1084  -1305  -1481  -1563  -1581  -1571  -1546  -1505  -1459  -1414  -1343  -1214  -1053  -929  -875  -870  -885  -910  -944  -986  -1032  -1052  -1014  -921  -806  -673  -488  -270  -93  17  94  106  5  -170  -345  -460  -478  -434  -405  -427  -492  -558  -585  -557  -482  -407  -390  -441  -547  -750  -1103  -1481  -1542  -951  399  2337  4559  6774  8559  9330  8723  6877  4253  1480  -765  -2130  -2639  -2397  -1650  -876  -440  -337  -360  -355  -264  -82  139  300  356  344  314  303  342  448  585  682  705  672  620  587  613  717  859  971  1033  1065  1052  989  947  1013  1192  1425  1651  1817  1909  2000  2201  2511  2795  2939  2966  2963  2984  3019  3024  2988  2952  2948  2945  2859  2621  2216  1677  1117  704  512  464  459  412  260  9  -272  -535  -740  -846  -855  -821  -782  -740  -691  -629  -552  -485  -463  -459  -431  -411  -463  -584  -715  -808  -852  -860  -844  -806  -750  -691  -634  -559  -470  -427  -485  -621  -771  -891  -971  -1019  -1050  -1080  -1136  -1241  -1382  -1507  -1575  -1565  -1448  -1223  -984  -869  -924  -1078  -1228  -1345  -1470  -1597  -1672  -1694  -1708  -1728  -1727  -1687  -1625  -1577  -1527  -1386  -1091  -731  -474  -397  -446  -533  -597  -619  -592  -503  -374  -286  -361  -674  -1122  -1481  -1643  -1673  -1658  -1618  -1533  -1411  -1309  -1274  -1289  -1333  -1440  -1552  -1412  -806  322  1966  3951  5903  7406  8021  7406  5596  2982  191  -1986  -3001  -2926  -2310  -1674  -1253  -1066  -1027  -1044  -1101  -1223  -1386  -1519  -1572  -1530  -1378  -1143  -926  -806  -764  -742  -715  -684  -650  -604  -546  -505  -520  -612  -751  -859  -850  -656  -295  90  343  429  423  418  472  608  828  1117  1409  1614  1691  1680  1663  1740  1968  2281  2532  2638  2583  2360  2010  1650  1352  1115  906  691  472  292  149  -9  -229  -492  -723  -849  -876  -859  -840  -831  -830  -832  -837  -843  -839  -802  -712  -597  -513  -482  -478  -483  -520  -614  -730  -791  -781  -758  -769  -802  -821  -815  -800  -793  -793  -795  -792  -783  -770  -762  -757  -747  -731  -739  -831  -1041  -1296  -1459  -1430  -1201  -888  -663  -588  -595  -619  -655  -709  -748  -738  -709  -731  -833  -950  -994  -975  -953  -940  -916  -864  -742  -522  -263  -89  -66  -166  -310  -427  -506  -562  -587  -571  -548  -590  -748  -975  -1156  -1235  -1248  -1240  -1228  -1215  -1204  -1207  -1213  -1205  -1267  -1461  -1615  -1457  -747  779  3149  5843  8038  9051  8600  6837  4196  1375  -857  -2153  -2618  -2417  -1800  -1210  -923  -838  -787  -746  -732  -730  -721  -698  -668  -641  -622  -600  -539  -415  -264  -159  -118  -99  -36  112  304  441  487  478  452  430  441  514  644  782  896  1015  1183  1413  1675  1915  2092  2202  2283  2357  2413  2446  2485  2561  2671  2766  2788  2704  2518  2294  2109  1950  1751  1516  1296  1115  954  772  539  262  -5  -204  -341  -454  -532  -562  -559  -541  -520  -515  -535  -566  -604  -642  -668  -680  -687  -685  -648  -561  -480  -495  -601  -695  -712  -678  -642  -633  -647  -665  -647  -531  -311  -75  76  131  126  47  -147  -411  -607  -652  -554  -362  -156  -7  61  62  15  -40  -56  -29  0  6  -4  -11  0  18  23  1  -35  -65  -72  -62  -57  -43  8  63  67  25  -21  -44  -45  -46  -40  24  216  521  815  983  1031  1025  985  889  739  595  497  417  329  251  188  98  -71  -289  -448  -503  -491  -465  -471  -567  -763  -953  -996  -791  -266  619  1939  3774  5983  8126  9658  10071  9001  6461  3059  -89  -2018  -2598  -2314  -1667  -1025  -610  -413  -317  -260  -233  -226  -228  -234  -236  -225  -206  -194  -200  -217  -223  -202  -150  -70  11  57  26  -104  -292  -429  -418  -222  100  410  606  689  700  682  671  720  882  1139  1379  1504  1525  1511  1513  1537  1571  1633  1776  1984  2157  2202  2106  1941  1766  1545  1221  870  598  359  29  -384  -750  -980  -1109  -1200  -1295  -1439  -1656  -1889  -2039  -2056  -1968  -1833  -1685  -1551  -1467  -1461  -1535  -1651  -1738  -1738  -1639  -1488  -1360  -1293  -1272  -1272  -1287  -1308  -1325  -1340  -1361  -1387  -1412  -1428  -1435  -1438  -1446  -1455  -1454  -1426  -1369  -1315  -1308  -1353  -1411  -1451  -1461  -1444  -1416  -1390  -1369  -1357  -1354  -1354  -1353  -1349  -1340  -1326  -1317  -1345  -1447  -1607  -1753  -1820  -1786  -1655  -1483  -1350  -1269  -1187  -1087  -1002  -955  -935  -920  -877  -779  -624  -439  -276  -185  -182  -253  -367  -483  -556  -555  -495  -437  -466  -631  -879  -1082  -1172  -1179  -1166  -1159  -1144  -1112  -1137  -1350  -1687  -1786  -1411  -719  162  1321  2820  4646  6591  8043  8229  6815  4227  1292  -1205  -2676  -3049  -2790  -2309  -1787  -1374  -1128  -985  -890  -830  -805  -801  -785  -719  -595  -451  -322  -207  -96  0  52  66  63  54  35  6  -29  -75  -130  -164  -114  42  269  506  714  900  1095  1304  1476  1541  1505  1460  1481  1559  1676  1849  2075  2296  2437  2491  2531  2630  2776  2897  2941  2887  2684  2265  1628  928  397  139  75  58  -20  -166  -311  -405  -460  -527  -641  -768  -849  -858  -806  -725  -656  -624  -621  -625  -618  -603  -604  -645  -697  -697  -628  -532  -471  -477  -529  -587  -666  -814  -1003  -1134  -1138  -1013  -823  -660  -583  -594  -649  -687  -665  -586  -479  -383  -336  -341  -376  -412  -436  -446  -448  -445  -443  -443  -451  -466  -483  -493  -495  -503  -528  -567  -620  -699  -799  -876  -906  -912  -918  -911  -863  -769  -656  -561  -493  -421  -337  -265  -217  -178  -139  -120  -181  -370  -627  -814  -876  -868  -857  -860  -860  -846  -830  -822  -816  -799  -772  -765  -820  -940  -1023  -954  -766  -522  -51  929  2476  4409  6407  7985  8609  7920  5904  3003  89  -1901  -2538  -2120  -1384  -941  -875  -882  -766  -581  -426  -333  -286  -262  -266  -314  -392  -462  -506  -517  -469  -326  -122  40  106  107  93  85  83  83  100  156  265  425  616  801  939  1007  1027  1081  1238  1462  1638  1732  1819  1951  2118  2281  2406  2511  2641  2808  2962  3024  2938  2713  2445  2236  2073  1824  1376  772  218  -119  -284  -416  -568  -711  -807  -850  -859  -858  -859  -860  -857  -863  -899  -962  -991  -945  -875  -845  -851  -860  -856  -844  -829  -811  -790  -772  -765  -785  -847  -942  -1033  -1085  -1100  -1083  -1032  -951  -871  -830  -863  -988  -1164  -1288  -1267  -1083  -824  -630  -566  -611  -738  -894  -1000  -1026  -1007  -983  -969  -973  -1019  -1112  -1198  -1198  -1116  -1031  -991  -965  -906  -821  -754  -722  -701  -683  -695  -750  -807  -806  -766  -748  -752  -731  -676  -627  -615  -607  -500  -207  191  481  535  379  125  -90  -189  -209  -236  -330  -462  -554  -578  -571  -558  -547  -541  -540  -543  -544  -572  -711  -985  -1182  -914  112  1923  4234  6559  8399  9335  9096  7659  5270  2462  -30  -1662  -2295  -2099  -1493  -942  -642  -535  -517  -528  -556  -601  -657  -710  -731  -681  -539  -334  -141  -12  69  139  200  249  287  308  329  379  444  490  506  509  515  536  578  650  748  852  947  1040  1123  1182  1271  1478  1780  2047  2208  2312  2430  2560  2648  2672  2666  2663  2634  2464  2075  1578  1188  974  868  811  740  530  117  -357  -668  -747  -691  -595  -497  -416  -383  -434  -582  -784  -954  -1017  -972  -894  -849  -843  -852  -885  -966  -1074  -1130  -1071  -910  -733  -622  -599  -647  -748  -868  -964  -1012  -1020  -1015  -1010  -991  -949  -906  -887  -897  -916  -922  -910  -885  -853  -817  -795  -804  -849  -944  -1090  -1238  -1330  -1362  -1367  -1353  -1301  -1218  -1140  -1101  -1107  -1138  -1187  -1266  -1378  -1496  -1567  -1560  -1479  -1361  -1252  -1184  -1170  -1195  -1222  -1223  -1189  -1129  -1054  -968  -869  -770  -688  -617  -518  -364  -176  -13  65  39  -54  -171  -285  -385  -458  -498  -518  -559  -643  -752  -844  -901  -918  -905  -895  -898  -922  -1052  -1345  -1642  -1599  -896  556  2587  4982  7441  9353  10033  9108  6656  3245  -139  -2455  -3243  -2840  -1956  -1277  -1097  -1191  -1244  -1163  -1000  -823  -667  -544  -463  -418  -410  -455  -542  -583  -447  -128  187  338  326  227  128  78  61  38  9  20  162  480  868  1147  1257  1267  1265  1304  1401  1530  1662  1799  1957  2133  2294  2394  2422  2425  2466  2581  2758  2946  3076  3079  2884  2471  1956  1519  1239  1029  741  371  51  -144  -247  -302  -358  -485  -701  -928  -1060  -1064  -982  -852  -710  -615  -600  -652  -735  -820  -896  -916  -820  -646  -524  -527  -610  -686  -727  -750  -767  -769  -749  -716  -699  -713  -724  -690  -648  -667  -737  -765  -698  -598  -543  -533  -538  -549  -563  -564  -548  -534  -546  -581  -630  -701  -789  -849  -831  -715  -551  -434  -441  -578  -772  -910  -919  -809  -651  -534  -493  -499  -518  -536  -547  -534  -469  -319  -97  122  262  309  302  257  169  51  -53  -107  -118  -123  -150  -194  -235  -277  -340  -413  -473  -508  -524  -531  -543  -573  -614  -672  -784  -925  -941  -693  -124  870  2412  4448  6656  8478  9247  8474  6216  3095  -18  -2263  -3146  -2841  -1935  -1032  -554  -539  -670  -698  -622  -507  -387  -296  -258  -263  -302  -367  -432  -469  -468  -420  -318  -182  -64  5  37  46  42  41  73  167  306  437  535  616  699  778  832  880  977  1175  1475  1791  1995  2061  2075  2127  2244  2386  2486  2518  2505  2469  2415  2331  2191  1974  1675  1304  901  516  198  -23  -171  -319  -519  -747  -924  -1012  -1051  -1100  -1173  -1251  -1321  -1393  -1473  -1544  -1597  -1641  -1664  -1629  -1504  -1300  -1085  -941  -887  -887  -922  -999  -1102  -1195  -1271  -1336  -1382  -1405  -1409  -1375  -1273  -1120  -983  -905  -878  -876  -877  -873  -866  -873  -912  -971  -1015  -1041  -1076  -1135  -1192  -1216  -1190  -1118  -1029  -957  -909  -874  -849  -843  -858  -905  -988  -1047  -1029  -974  -946  -958  -979  -983  -967  -924  -806  -581  -313  -104  1  9  -74  -220  -359  -432  -432  -389  -331  -274  -247  -306  -495  -766  -998  -1106  -1087  -973  -818  -711  -741  -954  -1272  -1504  -1495  -1140  -303  1084  2936  5064  7149  8621  8845  7543  4971  1822  -942  -2545  -2852  -2276  -1427  -819  -608  -627  -683  -708  -709  -699  -678  -637  -565  -463  -350  -244  -154  -90  -65  -84  -145  -242  -352  -418  -362  -139  163  384  457  445  419  404  413  474  622  850  1076  1225  1332  1506  1755  1978  2115  2190  2240  2289  2357  2444  2538  2616  2659  2670  2654  2573  2359  2010  1624  1290  981  611  193  -143  -319  -384  -428  -498  -599  -736  -913  -1110  -1267  -1327  -1269  -1117  -932  -779  -702  -709  -788  -901  -996  -1042  -1048  -1028  -982  -920  -868  -843  -857  -911  -980  -1029  -1050  -1054  -1052  -1047  -1042  -1029  -1000  -960  -927  -913  -919  -939  -971  -1009  -1046  -1073  -1087  -1091  -1092  -1091  -1079  -1051  -1025  -1034  -1093  -1172  -1213  -1195  -1160  -1140  -1096  -975  -803  -676  -668  -783  -953  -1077  -1095  -1015  -861  -687  -561  -507  -476  -412  -328  -286  -311  -346  -338  -305  -287  -287  -278  -236  -164  -117  -195  -467  -843  -1123  -1218  -1179  -1071  -949  -880  -923  -1096  -1398  -1773  -2003  -1732  -671  1158  3396  5589  7410  8588  8838  7940  5814  2745  -373  -2467  -3096  -2599  -1642  -851  -520  -497  -515  -482  -427  -393  -398  -440  -508  -579  -611  -552  -387  -173  -10  51  52  62  123  215  286  317  333  351  364  375  417  518  649  755  843  972  1139  1283  1372  1431  1499  1616  1814  2072  2304  2448  2520  2565  2620  2710  2831  2936  2976  2922  2742  2403  1944  1455  993  573  213  -58  -238  -359  -461  -570  -690  -791  -852  -909  -1003  -1110  -1179  -1200  -1202  -1194  -1154  -1061  -937  -831  -771  -750  -746  -747  -751  -754  -756  -765  -784  -803  -797  -762  -722  -701  -697  -699  -700  -699  -691  -672  -662  -678  -694  -689  -689  -718  -764  -813  -832  -810  -772  -737  -703  -668  -639  -621  -618  -629  -655  -705  -777  -849  -891  -899  -892  -890  -907  -943  -963  -923  -839  -768  -746  -769  -797  -789  -756  -747  -804  -900  -906  -718  -413  -162  -33  6  -1  -29  -44  -43  -61  -115  -179  -261  -428  -702  -987  -1185  -1284  -1315  -1283  -1186  -1058  -958  -914  -929  -1038  -1253  -1453  -1470  -1219  -636  382  1935  4013  6366  8534  9838  9519  7347  3915  374  -2074  -2915  -2549  -1712  -1013  -759  -806  -863  -891  -992  -1185  -1403  -1554  -1580  -1465  -1223  -926  -664  -489  -410  -404  -413  -384  -283  -118  67  214  288  299  277  229  155  72  19  17  67  173  351  606  905  1185  1399  1539  1649  1781  1919  2031  2143  2293  2480  2666  2789  2776  2556  2134  1663  1323  1148  1060  960  775  473  94  -259  -504  -634  -711  -796  -892  -957  -961  -911  -836  -786  -806  -914  -1066  -1185  -1237  -1231  -1166  -1052  -939  -896  -948  -1046  -1121  -1145  -1139  -1125  -1119  -1142  -1212  -1307  -1376  -1377  -1306  -1198  -1111  -1074  -1071  -1076  -1081  -1093  -1117  -1134  -1121  -1074  -1016  -973  -961  -961  -942  -896  -847  -823  -829  -837  -805  -707  -583  -527  -583  -689  -755  -768  -764  -768  -769  -752  -723  -712  -732  -756  -750  -722  -728  -808  -920  -977  -943  -856  -776  -716  -665  -608  -519  -388  -231  -65  93  218  290  311  281  173  -28  -253  -379  -382  -351  -352  -368  -374  -387  -427  -485  -539  -581  -623  -665  -728  -884  -1160  -1389  -1259  -504  985  3077  5378  7428  8828  9221  8403  6446  3688  760  -1544  -2729  -2834  -2234  -1401  -733  -391  -289  -249  -168  -61  21  64  85  106  144  213  301  367  395  406  424  457  509  606  773  978  1137  1204  1204  1182  1170  1200  1298  1436  1561  1682  1846  2039  2194  2280  2323  2374  2466  2594  2755  2970  3261  3580  3826  3957  4023  4078  4095  3910  3371  2637  2094  1891  1858  1786  1564  1174  743  462  391  420  397  233  -36  -296  -468  -543  -554  -542  -532  -521  -501  -479  -457  -397  -241  -17  172  274  307  296  230  102  -44  -150  -208  -245  -272  -298  -327  -352  -344  -258  -72  173  382  444  304  24  -257  -451  -568  -645  -700  -734  -745  -717  -635  -520  -422  -350  -289  -251  -278  -398  -574  -721  -812  -895  -988  -1059  -1102  -1152  -1219  -1270  -1274  -1232  -1171  -1112  -1045  -944  -811  -685  -612  -594  -577  -510  -406  -330  -338  -441  -586  -689  -701  -634  -537  -462  -426  -422  -446  -501  -590  -701  -834  -1021  -1255  -1453  -1549  -1523  -1361  -1123  -1020  -1170  -1419  -1490  -1012  354  2454  4736  6734  8027  8164  6950  4582  1592  -1211  -2988  -3407  -2832  -1973  -1399  -1163  -993  -807  -714  -732  -814  -941  -1082  -1181  -1202  -1151  -1047  -911  -770  -642  -540  -444  -314  -144  12  105  132  123  102  82  66  51  46  82  186  328  437  518  648  853  1081  1306  1560  1820  2001  2082  2140  2252  2422  2579  2640  2586  2465  2325  2182  2047  1932  1807  1590  1210  688  164  -209  -409  -508  -562  -592  -607  -619  -640  -672  -709  -741  -781  -844  -902  -909  -867  -818  -789  -778  -770  -766  -803  -917  -1079  -1201  -1217  -1110  -914  -705  -551  -468  -439  -443  -440  -388  -291  -196  -157  -212  -334  -450  -521  -542  -510  -434  -332  -227  -151  -122  -145  -221  -321  -392  -409  -388  -356  -328  -303  -279  -261  -255  -256  -257  -264  -286  -321  -355  -368  -351  -311  -269  -244  -216  -146  -31  79  145  166  154  105  5  -139  -276  -320  -225  -57  73  135  170  211  267  385  628  945  1162  1113  760  272  -78  -182  -133  -53  -7  -20  -95  -200  -284  -324  -334  -342  -383  -474  -601  -736  -884  -1068  -1243  -1249  -864  92  1646  3634  5842  7932  9248  9104  7294  4207  766  -1850  -2982  -2870  -2181  -1548  -1312  -1370  -1464  -1528  -1597  -1658  -1687  -1684  -1658  -1598  -1507  -1420  -1375  -1376  -1402  -1433  -1465  -1495  -1518  -1541  -1563  -1569  -1559  -1569  -1631  -1728  -1827  -1895  -1921  -1911  -1866  -1793  -1722  -1681  -1671  -1683  -1715  -1757  -1790  -1782  -1705  -1555  -1360  -1157  -981  -844]
