reading_id,reading_time,wire_id,result_classification,heart_rate,heart_rate_alert,firmware_version,device_app_version,hardware_version,waveform_samples
cb3ee790-5f16-11ed-8080-808080808080,Tue Nov 08 03:38:22 UTC 2022,0101e39b1d39,NSR,84,NONE,20001.171.50,2.10.0,Charge 5,[4553  5442  6002  6179  6139  6041  5858  5418  4681  3907  3423  3256  3185  3006  2635  2072  1357  529  -354  -1183  -1886  -2600  -3546  -4640  -5495  -5928  -6175  -6540  -7025  -7391  -7524  -7521  -7522  -7664  -8076  -8707  -9284  -9591  -9687  -9759  -9887  -10021  -10113  -10148  -10125  -10077  -10050  -10055  -10080  -10133  -10248  -10393  -10433  -10331  -10212  -10183  -10244  -10334  -10405  -10470  -10555  -10628  -10596  -10363  -9922  -9465  -9266  -9357  -9555  -9753  -9960  -10209  -10507  -10787  -10960  -11008  -10956  -10818  -10637  -10494  -10441  -10462  -10520  -10588  -10642  -10676  -10727  -10835  -11052  -11479  -12140  -12914  -13627  -14089  -14252  -14348  -14371  -13626  -11511  -8274  -4589  -1274  769  1071  -327  -3220  -7118  -10997  -13573  -14165  -13224  -11766  -10615  -10082  -9827  -9247  -8142  -6874  -5949  -5488  -5215  -4913  -4616  -4395  -4250  -4182  -4181  -4220  -4243  -4142  -3830  -3388  -2985  -2592  -2050  -1399  -798  -290  119  397  595  854  1245  1671  1960  2054  2031  1995  2055  2331  2911  3783  4836  5869  6704  7390  8103  8906  9716  10386  10798  10960  10989  10975  10904  10712  10422  10167  10062  10107  10207  10284  10326  10345  10356  10376  10417  10504  10678  10914  11122  11215  11084  10568  9688  8803  8301  8205  8218  8014  7419  6467  5462  4798  4556  4493  4384  4140  3720  3126  2463  1950  1765  1866  2023  2061  1987  1871  1752  1605  1390  1122  845  571  309  78  -95  -187  -186  -99  48  210  334  399  445  533  671  851  1114  1446  1722  1831  1759  1539  1231  908  642  454  242  -106  -532  -869  -1045  -1104  -1114  -1110  -1076  -971  -791  -585  -405  -247  -44  252  602  922  1140  1241  1226  1036  627  71  -525  -1070  -1305  -889  260  1928  3866  5971  8120  10022  11309  11647  10818  8819  6049  3338  1384  377  241  596  754  398  -148  -505  -618  -622  -688  -930  -1304  -1704  -2129  -2539  -2725  -2527  -2044  -1506  -1063  -779  -747  -1012  -1421  -1721  -1778  -1620  -1373  -1132  -830  -332  270  682  752  591  416  380  470  589  756  1084  1602  2227  2910  3629  4247  4602  4715  4724  4645  4320  3644  2843  2302  2160  2297  2583  2899  3107  3146  3039  2819  2551  2342  2265  2321  2480  2721  2989  3194  3308  3374  3434  3488  3447  3077  2135  767  -474  -1282  -1897  -2597  -3294  -3754  -3942  -4026  -4203  -4547  -4965  -5355  -5759  -6252  -6731  -6975  -6891  -6591  -6248  -5950  -5703  -5500  -5324  -5110  -4759  -4282  -3829  -3475  -3158  -2858  -2614  -2445  -2348  -2278  -2145  -1896  -1524  -1040  -462  248  1090  1889  2464  2826  3025  3095  3214  3589  4182  4745  5072  5150  5101  5016  4922  4820  4681  4463  4171  3868  3630  3496  3426  3340  3194  3021  2884  2753  2611  2698  3137  3562  3666  3624  3905  5018  7093  9633  11862  13092  12845  11039  8078  4775  2092  575  144  475  1146  1690  1924  1974  1954  1906  1877  1890  1932  1977  1982  1861  1540  1111  802  722  804  927  1017  1070  1111  1150  1182  1210  1262  1352  1444  1473  1424  1352  1297  1221  1071  889  786  777  689  306  -368  -1043  -1447  -1566  -1542  -1519  -1609  -1881  -2269  -2599  -2820  -3118  -3666  -4354  -4932  -5357  -5766  -6232  -6683  -7020  -7236  -7333  -7266  -7126  -7085  -7187  -7366  -7498  -7479  -7358  -7283  -7347  -7517  -7687  -7780  -7768  -7570  -7083  -6431  -5925  -5699  -5642  -5614  -5504  -5227  -4809  -4407  -4161  -4096  -4179  -4342  -4480  -4538  -4546  -4539  -4497  -4387  -4233  -4098  -3997  -3888  -3760  -3673  -3709  -3912  -4223  -4500  -4647  -4637  -4487  -4229  -3910  -3610  -3409  -3327  -3372  -3620  -4096  -4608  -4861  -4729  -4323  -3827  -3371  -3042  -2889  -2854  -2829  -2780  -2793  -2954  -3195  -3392  -3502  -3549  -3563  -3574  -3592  -3610  -3618  -3603  -3545  -3419  -3242  -3089  -3034  -3108  -3351  -3806  -4386  -4749  -4486  -3439  -1710  529  3143  5858  8108  9288  9061  7344  4346  832  -2044  -3591  -3889  -3290  -2235  -1373  -1105  -1228  -1361  -1337  -1151  -898  -693  -572  -513  -498  -493  -436  -287  -81  142  410  686  806  658  341  63  -73  -96  -12  237  639  1052  1334  1462  1491  1478  1478  1549  1710  1934  2191  2425  2572  2626  2637  2651  2677  2715  2767  2821  2835  2783  2690  2589  2441  2177  1784  1322  904  640  551  547  537  486  393  240  14  -229  -393  -458  -487  -487  -344  53  597  1025  1249  1377  1502  1644  1779  1870  1875  1743  1445  1062  719  480  347  297  292  305  359  527  850  1243  1542  1669  1673  1664  1755  2009  2357  2637  2764  2807  2879  2998  3095  3156  3247  3380  3521  3625  3601  3436  3262  3180  3196  3329  3607  3951  4202  4306  4319  4251  4072  3835  3668  3611  3593  3539  3426  3292  3198  3173  3212  3294  3382  3451  3488  3454  3350  3242  3160  3066  2925  2733  2518  2300  2074  1855  1675  1497  1258  986  770  647  607  640  780  1079  1542  2267  3581  5773  8695  11644  13598  13568  11206  7350  3460  623  -672  -654  -114  338  540  468  171  -220  -582  -850  -1035  -1141  -1113  -955  -771  -618  -435  -164  75  77  -150  -398  -602  -914  -1433  -2018  -2442  -2640  -2700  -2720  -2706  -2568  -2247  -1860  -1596  -1516  -1542  -1570  -1544  -1472  -1394  -1325  -1217  -1002  -672  -294  38  286  463  578  636  651  629  545  370  104  -223  -582  -963  -1342  -1661  -1881  -2003  -2078  -2173  -2292  -2397  -2488  -2610  -2787  -2979  -3090  -2990  -2628  -2182  -1946  -1984  -2113  -2196  -2232  -2278  -2351  -2395  -2367  -2306  -2245  -2147  -1994  -1832  -1728  -1711  -1730  -1704  -1617  -1492  -1357  -1257  -1237  -1308  -1426  -1521  -1561  -1556  -1507  -1410  -1284  -1177  -1134  -1165  -1223  -1268  -1288  -1286  -1263  -1224  -1181  -1154  -1167  -1231  -1325  -1410  -1457  -1445  -1358  -1229  -1110  -988  -805  -591  -461  -504  -731  -1100  -1491  -1748  -1832  -1828  -1811  -1805  -1806  -1808  -1805  -1795  -1779  -1738  -1631  -1456  -1283  -1182  -1158  -1166  -1171  -1169  -1186  -1238  -1290  -1280  -1210  -1144  -1118  -1115  -1106  -1088  -1117  -1312  -1748  -2293  -2691  -2812  -2683  -2390  -2128  -2123  -2322  -2284  -1476  347  3012  6058  8861  10765  11293  10173  7506  4047  820  -1493  -2606  -2639  -2140  -1637  -1325  -1173  -1050  -847  -565  -294  -108  30  209  423  565  558  423  272  206  200  214  301  469  674  913  1135  1282  1390  1494  1582  1669  1795  1959  2104  2176  2174  2128  2078  2082  2204  2465  2780  3019  3138  3194  3255  3335  3425  3510  3562  3549  3445  3251  2941  2460  1895  1458  1192  952  648  287  -102  -461  -729  -907  -1017  -1052  -1039  -1069  -1172  -1267  -1289  -1270  -1252  -1225  -1147  -1021  -901  -826  -769  -675  -544  -433  -388  -419  -536  -716  -881  -949  -911  -848  -823  -821  -795  -728  -668  -668  -713  -744  -715  -614  -482  -402  -438  -589  -759  -841  -832  -803  -792  -791  -784  -761  -738  -723  -688  -592  -454  -336  -270  -270  -415  -781  -1255  -1595  -1688  -1594  -1395  -1141  -890  -715  -647  -685  -837  -1076  -1302  -1414  -1363  -1148  -862  -657  -587  -592  -619  -669  -749  -832  -881  -892  -888  -899  -940  -1019  -1189  -1532  -1973  -2298  -2396  -2346  -2287  -2281  -2301  -2313  -2324  -2357  -2406  -2444  -2322  -1649  -77  2293  4998  7462  9074  9337  8124  5626  2220  -1260  -3775  -4882  -4715  -3673  -2493  -1773  -1478  -1359  -1329  -1349  -1378  -1402  -1412  -1387  -1277  -1059  -811  -670  -664  -720  -781  -823  -836  -815  -731  -573  -385  -233  -157  -144  -149  -107  27  229  435  656  974  1414  1867  2188  2345  2411  2459  2527  2623  2762  2992  3354  3778  4128  4337  4412  4322  4019  3576  3175  2915  2755  2605  2389  2088  1738  1397  1096  828  611  493  485  535  577  582  564  520  427  308  245  283  386  512  666  842  977  1036  1046  1040  1018  967  885  762  575  355  199  144  142  150  179  241  322  390  418  373  220  -5  -194  -265  -225  -140  -77  -71  -116  -182  -276  -419  -574  -720  -894  -1090  -1235  -1287  -1246  -1112  -921  -759  -682  -682  -740  -842  -956  -1034  -1051  -1023  -970  -896  -813  -773  -816  -921  -1024  -1084  -1098  -1049  -960  -938  -1113  -1539  -2094  -2519  -2671  -2643  -2606  -2624  -2632  -2599  -2572  -2550  -2500  -2390  -2096  -1439  -279  1470  3762  6154  7820  8092  6760  4033  643  -2344  -4159  -4782  -4658  -4120  -3467  -3017  -2824  -2740  -2603  -2337  -2028  -1832  -1785  -1806  -1827  -1833  -1829  -1817  -1798  -1784  -1783  -1779  -1762  -1746  -1742  -1743  -1727  -1680  -1604  -1499  -1352  -1192  -1073  -968  -804  -594  -435  -378  -399  -422  -313  21  463  776  903  984  1119  1256  1323  1336  1337  1293  1116  769  335  -32  -224  -258  -255  -319  -467  -643  -793  -901  -961  -971  -927  -823  -663  -461  -262  -129  -86  -95  -115  -136  -160  -173  -156  -111  -52  22  160  419  737  949  979  898  818  802  835  862  869  880  907  922  909  887  884  900  924  945  960  978  993  999  1001  1009  1016  992  898  739  579  475  436  449  505  589  677  743  783  817  866  918  970  1072  1258  1467  1585  1568  1485  1422  1376  1275  1069  787  538  414  370  306  211  126  64  24  -3  -22  7  175  458  628  568  529  844  1677  3100  5063  7248  9176  10311  10080  8264  5275  1907  -897  -2434  -2725  -2263  -1498  -812  -421  -224  -95  -40  -63  -127  -174  -147  -53  37  91  120  136  140  140  145  162  210  312  441  532  555  537  514  510  558  681  856  1021  1147  1255  1364  1454  1503  1538  1609  1725  1861  2020  2204  2363  2454  2490  2495  2445  2275  1949  1547  1205  946  666  336  53  -103  -171  -247  -458  -927  -1587  -2165  -2467  -2518  -2386  -2136  -1882  -1707  -1614  -1582  -1582  -1588  -1587  -1589  -1609  -1663  -1723  -1719  -1624  -1514  -1476  -1501  -1523  -1493  -1409  -1317  -1272  -1288  -1325  -1350  -1374  -1427  -1522  -1641  -1736  -1778  -1790  -1807  -1842  -1870  -1847  -1737  -1567  -1428  -1401  -1494  -1636  -1734  -1758  -1754  -1791  -1898  -2025  -2063  -1954  -1768  -1624  -1549  -1470  -1300  -1042  -824  -800  -965  -1172  -1277  -1245  -1123  -948  -757  -634  -677  -919  -1251  -1490  -1566  -1552  -1546  -1634  -1875  -2201  -2448  -2531  -2466  -2289  -2100  -2042  -2078  -1911  -1141  566  3205  6316  9160  10846  10666  8565  5143  1391  -1579  -3085  -3248  -2705  -2165  -2048  -2189  -2205  -2048  -1828  -1540  -1216  -985  -907  -921  -955  -980  -998  -1036  -1117  -1220  -1308  -1327  -1193  -916  -625  -398  -241  -162  -171  -255  -373  -475  -540  -561  -523  -404  -178  144  466  686  796  889  1092  1466  1958  2426  2724  2830  2844  2835  2799  2702  2545  2362  2134  1800  1404  1084  873  682  488  347  258  143  -16  -156  -231  -253  -255  -262  -271  -238  -102  152  440  639  716  732  747  783  830  855  833  782  731  692  667  635  570  497  489  577  692  748  719  646  592  563  519  464  452  504  579  599  498  254  -76  -364  -501  -450  -219  97  332  348  92  -373  -844  -1104  -1072  -785  -398  -129  -93  -255  -497  -690  -763  -674  -391  -1  316  481  546  568  559  527  490  475  485  474  357  98  -226  -495  -675  -803  -903  -968  -997  -994  -936  -816  -788  -1136  -1771  -1965  -1049  996  3803  6814  9335  10850  11019  9591  6763  3235  -110  -2445  -3426  -3393  -2921  -2401  -2013  -1818  -1798  -1892  -2028  -2141  -2198  -2208  -2189  -2133  -2011  -1805  -1547  -1315  -1176  -1128  -1131  -1145  -1134  -1087  -1035  -1002  -976  -919  -806  -655  -501  -364  -257  -185  -123  0  271  663  1006  1182  1219  1184  1148  1182  1316  1534  1769  1940  2028  2043  1968  1787  1550  1339  1141  854  439  -30  -477  -844  -1100  -1297  -1524  -1794  -2037  -2211  -2328  -2387  -2368  -2266  -2129  -2029  -1994  -1995  -2004  -2011  -2014  -2008  -1984  -1952  -1948  -1980  -2000  -1974  -1909  -1797  -1611  -1382  -1196  -1098  -1060  -1040  -1021  -1015  -1024  -1036  -1042  -1043  -1039  -1033  -1027  -1028  -1035  -1047  -1071  -1122  -1183  -1217  -1194  -1108  -973  -828  -722  -688  -698  -684  -620  -548  -507  -486  -476  -508  -634  -842  -1041  -1162  -1218  -1230  -1177  -1044  -867  -668  -424  -134  135  333  496  687  892  1041  1092  1058  971  863  756  651  543  451  371  257  94  -42  -68  3  93  157  187  153  -3  -243  -262  407  1982  4284  6988  9705  11884  12902  12311  10003  6409  2578  -329  -1718  -1728  -986  -177  351  585  616  567  527  496  449  409  414  484  620  781  906  973  997  974  899  810  773  800  846  885  919  937  893  744  531  368  356  536  880  1290  1688  2075  2454  2754  2895  2893  2833  2786  2772  2773  2778  2786  2800  2817  2832  2830  2749  2515  2164  1844  1647  1521  1341  1004  510  -5  -358  -493  -517  -571  -719  -939  -1162  -1328  -1412  -1434  -1434  -1439  -1456  -1486  -1522  -1543  -1526  -1459  -1378  -1332  -1324  -1326  -1329  -1351  -1413  -1498  -1563  -1587  -1583  -1558  -1510  -1457  -1454  -1543  -1693  -1833  -1928  -1972  -1957  -1881  -1762  -1643  -1561  -1537  -1580  -1671  -1763  -1827  -1866  -1890  -1901  -1913  -1929  -1947  -1980  -2042  -2127  -2204  -2251  -2270  -2280  -2296  -2325  -2364  -2404  -2427  -2408  -2322  -2180  -2019  -1851  -1656  -1428  -1218  -1107  -1113  -1175  -1226  -1261  -1313  -1393  -1471  -1527  -1576  -1655  -1770  -1871  -1908  -1889  -1858  -1823  -1766  -1704  -1676  -1697  -1749  -1760  -1693  -1635  -1596  -1238  -44  2155  4985  7745  9686  10264  9286  6952  3780  496  -2059  -3366  -3578  -3163  -2475  -1793  -1333  -1121  -1046  -1021  -1015  -1025  -1040  -1030  -943  -758  -536  -375  -294  -217  -84  85  253  393  501  582  637  663  656  632  661  809  1029  1200  1272  1280  1280  1340  1516  1760  1961  2102  2258  2464  2668  2795  2830  2802  2742  2679  2648  2639  2580  2382  2036  1670  1451  1395  1360  1169  743  174  -355  -744  -1003  -1165  -1240  -1249  -1233  -1267  -1433  -1736  -2050  -2235  -2280  -2263  -2241  -2225  -2208  -2201  -2242  -2366  -2535  -2660  -2683  -2609  -2471  -2309  -2165  -2070  -2014  -1974  -1939  -1899  -1839  -1784  -1779  -1825  -1880  -1912  -1927  -1938  -1948  -1958  -1962  -1951  -1915  -1865  -1827  -1824  -1863  -1938  -2025  -2075  -2025  -1855  -1641  -1483  -1409  -1383  -1363  -1329  -1286  -1271  -1292  -1290  -1210  -1049  -864  -741  -706  -671  -527  -250  98  454  745  888  874  797  742  716  692  666  638  603  563  521  459  371  271  179  101  38  -4  -17  -1  57  207  464  739  951  1191  1677  2579  3962  5827  8031  10138  11509  11636  10410  8122  5227  2281  -90  -1504  -1887  -1330  -220  774  1220  1194  947  617  288  56  -43  -58  -52  -50  -30  48  194  370  531  644  694  686  652  629  620  596  562  577  650  733  794  830  852  912  1097  1445  1901  2377  2774  3022  3165  3316  3524  3759  3976  4181  4377  4520  4557  4446  4159  3761  3396  3149  3000  2875  2666  2290  1797  1363  1122  1052  1034  982  883  771  659  528  375  233  153  139  152  146  86  -27  -153  -241  -275  -264  -221  -159  -103  -70  -60  -76  -140  -272  -427  -498  -429  -289  -214  -272  -411  -534  -603  -637  -652  -652  -651  -671  -718  -804  -961  -1180  -1383  -1506  -1555  -1549  -1491  -1399  -1295  -1188  -1104  -1067  -1056  -1058  -1139  -1384  -1745  -2067  -2287  -2476  -2695  -2898  -2973  -2864  -2657  -2495  -2436  -2446  -2483  -2532  -2583  -2633  -2677  -2676  -2575  -2381  -2180  -2058  -2025  -2026  -2013  -1991  -1997  -2085  -2281  -2526  -2710  -2809  -2883  -2974  -3083  -3193  -3280  -3332  -3366  -3404  -3454  -3510  -3567  -3669  -3894  -4121  -3961  -3115  -1571  458  2718  5009  7042  8368  8554  7277  4498  778  -2744  -4992  -5625  -4979  -3730  -2684  -2245  -2172  -2129  -2056  -2002  -1954  -1869  -1747  -1641  -1597  -1590  -1530  -1316  -937  -504  -157  45  143  185  193  189  218  315  454  558  599  630  720  860  994  1122  1329  1657  2009  2268  2443  2612  2805  2987  3111  3175  3227  3295  3355  3381  3372  3333  3257  3073  2689  2175  1748  1515  1401  1306  1164  914  494  -74  -613  -923  -1002  -1011  -1057  -1097  -1019  -827  -633  -517  -471  -467  -510  -620  -771  -896  -963  -968  -903  -792  -705  -682  -695  -690  -632  -514  -356  -217  -138  -105  -88  -76  -80  -102  -131  -141  -108  -21  88  173  240  350  511  667  794  899  958  908  714  445  244  177  218  340  515  697  847  946  970  924  858  817  805  823  875  967  1094  1210  1275  1313  1379  1472  1544  1569  1564  1552  1549  1571  1630  1702  1747  1754  1757  1806  1920  2049  2106  2060  1966  1895  1839  1730  1550  1375  1281  1266  1280  1278  1243  1180  1086  908  608  273  25  -157  -392  -681  -903  -1008  -1057  -1107  -1121  -901  -122  1482  3881  6672  9249  10954  11145  9539  6491  2759  -742  -3093  -3904  -3591  -2910  -2422  -2295  -2375  -2458  -2482  -2466  -2431  -2381  -2332  -2306  -2310  -2324  -2328  -2316  -2300  -2286  -2276  -2271  -2272  -2279  -2283  -2277  -2256  -2226  -2197  -2174  -2142  -2079  -1983  -1876  -1755  -1589  -1384  -1184  -1010  -864  -719  -508  -224  38  208  304  363  394  402  400  399  389  350  276  168  11  -234  -589  -995  -1353  -1620  -1814  -1949  -2035  -2105  -2191  -2311  -2430  -2464  -2400  -2332  -2314  -2283  -2126  -1804  -1438  -1197  -1119  -1117  -1081  -960  -805  -713  -711  -752  -785  -781  -725  -607  -461  -347  -282  -232  -184  -162  -180  -209  -225  -236  -271  -360  -497  -634  -717  -724  -659  -533  -364  -191  -64  -23  -126  -423  -818  -1104  -1200  -1191  -1171  -1158  -1119  -1022  -882  -760  -707  -710  -726  -733  -725  -708  -708  -767  -875  -960  -983  -977  -996  -1054  -1096  -1061  -970  -850  -692  -531  -436  -396  -325  -162  69  327  620  949  1263  1517  1706  1834  1904  1941  1966  1957  1861  1676  1482  1368  1342  1356  1374  1378  1340  1216  998  759  599  542  536  478  279  -36  -352  -561  -530  22  1416  3628  6127  8355  10107  11213  11273  9986  7372  3779  123  -2407  -3318  -3042  -2313  -1702  -1447  -1415  -1396  -1351  -1320  -1324  -1368  -1448  -1527  -1558  -1526  -1462  -1428  -1483  -1641  -1837  -1971  -1982  -1844  -1588  -1324  -1166  -1118  -1104  -1056  -957  -842  -747  -646  -484  -262  -30  168  343  524  712  903  1082  1211  1285  1354  1491  1745  2076  2372  2553  2601  2521  2345  2123  1843  1441  944  491  155  -94  -288  -449  -623  -836  -1072  -1279  -1404  -1437  -1428  -1465  -1610  -1824  -1993  -2051  -2006  -1908  -1834  -1849  -1937  -2036  -2083  -2052  -1969  -1862  -1739  -1634  -1577  -1558  -1550  -1532  -1486  -1383  -1216  -1030  -890  -833  -848  -902  -935  -884  -722  -489  -261  -96  -8  23  33  41  52  67  115  231  382  464  407  254  117  72  98  137  177  241  345  465  543  541  458  339  256  266  380  545  661  641  460  199  16  48  323  709  982  1019  854  623  462  416  432  450  426  331  175  16  -105  -214  -346  -493  -636  -752  -813  -801  -711  -588  -572  -783  -1023  -703  683  3090  6024  8792  10620  10886  9394  6491  2957  -284  -2457  -3339  -3319  -2845  -2222  -1750  -1525  -1384  -1197  -981  -789  -656  -588  -551  -496  -417  -325  -201  -19  194  375  474  491  468  449  484  611  805  990  1141  1298  1456  1554  1601  1713  1971  2312  2601  2780  2900  3049  3256  3463  3615  3720  3824  3961  4132  4298  4412  4464  4487  4494  4444  4282  4021  3724  3377  2896  2282  1667  1173  818  572  395  269  194  153  103  22  -80  -193  -311  -434  -547  -624  -653  -635  -574  -490  -413  -355  -327  -362  -492  -720  -991  -1202  -1276  -1215  -1092  -989  -937  -920  -939  -1012  -1145  -1299  -1412  -1443  -1399  -1329  -1263  -1198  -1170  -1224  -1337  -1437  -1486  -1507  -1542  -1611  -1688  -1738  -1753  -1749  -1731  -1697  -1667  -1682  -1754  -1862  -1967  -2037  -2063  -2040  -1957  -1815  -1642  -1486  -1395  -1394  -1474  -1593  -1679  -1652  -1459  -1153  -894  -797  -829  -895  -934  -952  -983  -1046  -1127  -1195  -1248  -1378  -1690  -2115  -2436  -2553  -2545  -2506  -2472  -2485  -2651  -3046  -3526  -3724  -3237  -1840  330  2892  5460  7606  8807  8653  7050  4291  976  -2083  -4140  -4980  -4846  -4116  -3288  -2784  -2650  -2722  -2862  -2993  -3079  -3105  -3047  -2902  -2718  -2551  -2416  -2311  -2244  -2204  -2142  -2024  -1880  -1781  -1747  -1737  -1710  -1674  -1666  -1669  -1573  -1267  -823  -459  -278  -216  -187  -158  -126  -62  100  404  770  1079  1309  1508  1680  1797  1894  2043  2248  2443  2563  2557  2327  1821  1193  693  404  198  -101  -542  -1018  -1391  -1604  -1701  -1752  -1787  -1800  -1784  -1772  -1819  -1905  -1951  -1946  -1935  -1927  -1906  -1878  -1857  -1857  -1875  -1890  -1888  -1845  -1707  -1451  -1137  -852  -640  -493  -402  -359  -329  -257  -131  -12  2  -126  -317  -447  -471  -379  -151  146  358  398  304  165  47  -56  -173  -298  -397  -449  -446  -373  -237  -92  -6  -6  -70  -137  -131  -13  189  407  570  637  644  684  830  1045  1223  1328  1410  1512  1609  1652  1636  1594  1547  1503  1449  1348  1198  1053  965  911  820  667  506  411  394  412  420  364  193  -38  -91  376  1602  3578  6057  8641  10880  12309  12479  11146  8447  4908  1448  -926  -1766  -1404  -551  160  413  255  -14  -159  -158  -80  18  101  148  158  142  130  153  225  323  404  453  494  533  546  513  441  390  431  586  832  1088  1247  1289  1283  1293  1345  1454  1646  1918  2196  2370  2387  2310  2250  2271  2388  2603  2890  3194  3437  3500  3299  2898  2452  2061  1692  1245  697  158  -246  -497  -669  -830  -1006  -1215  -1444  -1622  -1700  -1708  -1697  -1693  -1694  -1697  -1697  -1697  -1696  -1699  -1708  -1732  -1784  -1870  -1962  -2037  -2109  -2196  -2289  -2360  -2376  -2330  -2220  -2033  -1813  -1656  -1600  -1602  -1607  -1576  -1497  -1387  -1292  -1289  -1415  -1600  -1733  -1786  -1802  -1806  -1797  -1772  -1719  -1610  -1441  -1269  -1156  -1120  -1162  -1310  -1570  -1852  -2020  -1994  -1779  -1482  -1264  -1184  -1185  -1186  -1132  -987  -741  -454  -235  -143  -138  -160  -191  -246  -316  -368  -392  -410  -435  -471  -532  -623  -722  -813  -900  -981  -1040  -1086  -1135  -1174  -1177  -1167  -1230  -1515  -2081  -2609  -2591  -1759  25  2731  5871  8830  11107  12071  11194  8543  4777  918  -1947  -3282  -3384  -2871  -2236  -1791  -1560  -1369  -1185  -1077  -1030  -1012  -1011  -990  -926  -848  -784  -731  -664  -574  -487  -434  -426  -451  -498  -558  -617  -616  -439  -21  488  835  943  930  909  929  1014  1168  1362  1550  1687  1757  1812  1923  2078  2201  2263  2330  2479  2691  2860  2927  2930  2921  2913  2858  2674  2347  1990  1683  1310  735  24  -593  -937  -1035  -1047  -1070  -1100  -1120  -1140  -1169  -1198  -1214  -1219  -1209  -1152  -1009  -814  -671  -652  -753  -920  -1073  -1162  -1177  -1145  -1113  -1096  -1087  -1101  -1129  -1133  -1118  -1130  -1192  -1268  -1308  -1304  -1292  -1296  -1311  -1306  -1241  -1102  -954  -887  -921  -1002  -1055  -1049  -1035  -1083  -1183  -1282  -1370  -1481  -1608  -1702  -1740  -1738  -1711  -1653  -1512  -1215  -792  -410  -189  -100  -71  -95  -182  -292  -354  -356  -341  -326  -303  -295  -353  -512  -753  -992  -1110  -1050  -884  -748  -730  -854  -1121  -1459  -1708  -1739  -1509  -1073  -558  42  937  2295  4129  6347  8644  10407  10959  9907  7299  3656  -3  -2571  -3555  -3245  -2355  -1594  -1260  -1223  -1249  -1234  -1206  -1183  -1146  -1117  -1143  -1203  -1232  -1167  -980  -717  -489  -366  -336  -351  -368  -359  -296  -177  -32  99  192  221  182  124  111  184  341  536  722  913  1189  1581  1999  2308  2463  2512  2521  2526  2539  2566  2602  2632  2621  2522  2310  1988  1597  1219  923  680  398  61  -231  -448  -718  -1130  -1561  -1826  -1898  -1857  -1749  -1597  -1455  -1377  -1372  -1424  -1505  -1579  -1611  -1593  -1538  -1465  -1399  -1367  -1362  -1335  -1237  -1084  -950  -881  -868  -885  -927  -989  -1054  -1092  -1050  -885  -631  -397  -263  -234  -296  -428  -576  -671  -689  -653  -598  -549  -517  -505  -506  -502  -471  -414  -351  -297  -256  -240  -255  -277  -303  -356  -429  -471  -417  -216  124  494  720  683  374  -50  -350  -398  -242  -13  177  313  420  485  504  518  569  651  716  719  634  476  305  175  79  -16  -125  -256  -450  -697  -904  -989  -961  -890  -830  -793  -822  -974  -1179  -1195  -723  505  2524  4989  7402  9353  10486  10444  8992  6248  2771  -566  -2878  -3784  -3566  -2774  -1939  -1384  -1096  -930  -838  -834  -927  -1099  -1282  -1394  -1395  -1280  -1064  -796  -545  -354  -215  -112  -33  41  110  128  48  -116  -273  -327  -227  11  301  546  726  866  976  1089  1247  1467  1734  1999  2182  2258  2292  2359  2481  2632  2769  2872  2960  3039  3061  2936  2624  2188  1745  1344  901  331  -299  -798  -1042  -1081  -1052  -1064  -1174  -1371  -1580  -1728  -1790  -1795  -1779  -1767  -1778  -1830  -1920  -2010  -2071  -2110  -2143  -2164  -2158  -2112  -2006  -1841  -1665  -1545  -1496  -1489  -1505  -1555  -1647  -1752  -1819  -1810  -1711  -1555  -1414  -1345  -1364  -1464  -1606  -1700  -1625  -1321  -903  -600  -501  -514  -528  -495  -434  -381  -357  -370  -411  -453  -486  -511  -526  -513  -453  -341  -200  -78  -16  -39  -155  -333  -504  -638  -746  -823  -854  -858  -879  -938  -992  -973  -881  -788  -744  -730  -708  -662  -608  -565  -546  -558  -618  -729  -852  -934  -963  -947  -881  -758  -611  -495  -442  -423  -367  -227  -34  126  189  129  -41  -261  -436  -503  -470  -393  -327  -296  -301  -355  -488  -705  -952  -1159  -1311  -1423  -1483  -1470  -1437  -1544  -1888  -2238  -2064  -892  1327  4225  7232  9749  11220  11263  9812  7099  3659  347  -1981  -2969  -2839  -2083  -1221  -617  -330  -234  -214  -214  -215  -210  -193  -140  11  299  633  857  925  906  869  848  875  993  1228  1521  1745  1825  1777  1655  1521  1446  1502  1722  2026  2260  2368  2415  2472  2551  2644  2789  3011  3257  3463  3642  3808  3933  4013  4070  4090  4032  3895  3735  3569  3293  2839  2324  1916  1630  1355  995  552  122  -202  -403  -493  -510  -536  -654  -882  -1147  -1333  -1390  -1357  -1301  -1264  -1246  -1229  -1205  -1187  -1182  -1189  -1201  -1217  -1241  -1273  -1314  -1391  -1513  -1605  -1585  -1498  -1449  -1450  -1424  -1315  -1154  -1035  -1003  -1030  -1070  -1093  -1097  -1102  -1131  -1186  -1242  -1280  -1313  -1350  -1357  -1301  -1220  -1179  -1199  -1249  -1291  -1318  -1339  -1337  -1283  -1184  -1081  -1003  -955  -937  -973  -1099  -1315  -1541  -1682  -1725  -1719  -1695  -1661  -1634  -1634  -1674  -1747  -1823  -1872  -1888  -1880  -1859  -1843  -1868  -1968  -2129  -2262  -2303  -2280  -2247  -2222  -2216  -2272  -2436  -2660  -2823  -2869  -2837  -2788  -2757  -2752  -2761  -2768  -2745  -2676  -2580  -2510  -2485  -2483  -2487  -2506  -2538  -2516  -2373  -2154  -1950  -1770  -1583  -1382  -1184  -1004  -824  -612  -385  -209  -133  -139  -154  -77  160  495  761  877  883  806  629  400  240  221  310  427  507  541  557  542  454  354  523  1381  3224  5949  9075  11963  13868  14120  12502  9404  5652  2293  197  -442  -107  566  1124  1397  1490  1595  1761  1903  1979  2043  2136  2221  2251  2244  2261  2339  2442  2506  2515  2502  2491  2493  2514  2549  2562  2532  2499  2528  2641  2768  2819  2820  2842  2864  2845  2797  2759  2787  2895  3038  3168  3292  3447  3630  3791  3901  3967  4006  4028  4033  4002  3913  3788  3659  3480  3123  2500  1705  957  389  2  -266  -514  -812  -1133  -1383  -1499  -1513  -1487  -1462  -1464  -1535  -1693  -1885  -2018  -2058  -2044  -2027  -2027  -2039  -2054  -2092  -2182  -2308  -2393  -2372  -2268  -2149  -2035  -1905  -1771  -1678  -1645  -1648  -1680  -1747  -1829  -1871  -1847  -1786  -1737  -1718  -1724  -1747  -1790  -1848  -1906  -1942  -1949  -1934  -1911  -1891  -1883  -1887  -1900  -1917  -1931  -1922  -1875  -1804  -1738  -1687  -1659  -1678  -1755  -1859  -1956  -2043  -2112  -2138  -2100  -2012  -1914  -1836  -1762  -1687  -1642  -1654  -1711  -1778  -1817  -1805  -1741  -1619  -1461  -1319  -1213  -1126  -1051  -988  -928  -855  -754  -608  -422  -226  -58  46  89  99  94  70  -18  -222  -501  -749  -905  -976  -977  -952  -971  -1051  -1150  -1231  -1284  -1313  -1317  -1303  -1278  -1267  -1373  -1734  -2333  -2885  -2947  -2128  -322  2181  4875  7294  9039  9698  8979  6910  3844  453  -2330  -3839  -4121  -3671  -3023  -2552  -2318  -2163  -1986  -1821  -1730  -1721  -1765  -1829  -1878  -1864  -1732  -1484  -1225  -1072  -1043  -1079  -1123  -1150  -1159  -1163  -1171  -1182  -1190  -1187  -1128  -922  -543  -110  210  369  431  462  507  616  812  1063  1357  1732  2137  2429  2580  2700  2865  3047  3173  3224  3244  3265  3270  3228  3118  2891  2486  1954  1456  1067  723  352  -8  -265  -407  -515  -635  -733  -785  -818  -855  -898  -943  -976  -991  -995  -993  -985  -963  -909  -824  -750  -753  -849  -987  -1085  -1091  -1026  -963  -935  -930  -926  -917  -895  -852  -799  -758  -726  -668  -573  -468  -387  -341  -319  -311  -311  -327  -375  -445  -503  -534  -547  -554  -543  -482  -374  -275  -229  -229  -255  -287  -314  -328  -330  -331  -349  -391  -428  -422  -373  -308  -230  -142  -72  -62  -149  -341  -564  -712  -758  -751  -739  -736  -739  -747  -763  -795  -843  -865  -841  -816  -790  -718  -635  -595  -590  -591  -584  -578  -593  -654  -753  -856  -937  -1014  -1109  -1215  -1295  -1329  -1329  -1316  -1308  -1329  -1399  -1501  -1579  -1585  -1491  -1348  -1335  -1581  -1900  -1868  -1134  423  2711  5481  8361  10760  11859  11022  8354  4679  1103  -1389  -2439  -2422  -1909  -1333  -931  -683  -487  -329  -222  -159  -111  -44  32  87  122  175  290  462  630  755  849  923  986  1046  1113  1185  1248  1300  1360  1431  1486  1506  1488  1429  1350  1315  1397  1635  1983  2314  2521  2624  2719  2836  2936  3018  3161  3436  3774  4024  4113  4049  3833  3492  3117  2807  2596  2386  2004  1365  587  -87  -515  -754  -931  -1118  -1309  -1459  -1540  -1563  -1557  -1535  -1498  -1458  -1455  -1509  -1594  -1701  -1844  -1984  -2040  -1981  -1858  -1727  -1573  -1355  -1103  -890  -752  -692  -687  -698  -690  -647  -570  -483  -424  -429  -497  -593  -696  -788  -821  -723  -478  -203  -52  -53  -108  -143  -152  -144  -118  -70  -15  20  10  -61  -187  -330  -442  -480  -429  -329  -242  -205  -220  -277  -349  -402  -429  -456  -496  -523  -490  -400  -318  -287  -296  -309  -306  -293  -280  -266  -245  -215  -175  -145  -156  -197  -206  -136  -10  106  179  214  226  228  227  234  269  346  445  518  543  550  607  771  1021  1260  1389  1386  1285  1154  1063  1035  1043  1060  1070  1046  958  810  667  581  528  458  367  288  222  104  -132  -436  -598  -291  864  3046  5970  8986  11368  12510  12061  10063  6889  3204  -69  -2191  -2967  -2654  -1835  -1181  -988  -1087  -1228  -1330  -1401  -1445  -1472  -1493  -1504  -1488  -1445  -1407  -1407  -1427  -1410  -1312  -1164  -1051  -1017  -1028  -1039  -1031  -1019  -1016  -1019  -1021  -1026  -1021  -962  -780  -455  -91  172  291  324  377  544  837  1184  1495  1728  1891  2009  2114  2247  2402  2525  2569  2533  2453  2373  2304  2194  1931  1431  760  112  -380  -710  -909  -1018  -1110  -1252  -1424  -1551  -1613  -1642  -1657  -1664  -1671  -1677  -1658  -1577  -1434  -1277  -1163  -1110  -1111  -1164  -1267  -1396  -1519  -1594  -1596  -1543  -1484  -1439  -1395  -1348  -1315  -1300  -1293  -1295  -1331  -1417  -1508  -1518  -1438  -1380  -1428  -1527  -1576  -1535  -1417  -1278  -1184  -1145  -1125  -1096  -1081  -1144  -1335  -1594  -1773  -1746  -1496  -1152  -909  -829  -815  -775  -721  -723  -791  -872  -934  -982  -1032  -1108  -1225  -1350  -1419  -1402  -1317  -1215  -1148  -1127  -1132  -1145  -1169  -1214  -1273  -1297  -1259  -1221  -1263  -1371  -1475  -1533  -1550  -1515  -1379  -1114  -794  -541  -404  -351  -333  -322  -321  -367  -495  -669  -798  -841  -815  -745  -666  -645  -733  -917  -1129  -1300  -1389  -1414  -1433  -1490  -1595  -1766  -2021  -2261  -2188  -1498  -99  1915  4323  6836  9123  10654  10816  9348  6494  2905  -475  -2808  -3858  -3885  -3293  -2572  -2094  -1861  -1704  -1524  -1324  -1163  -1060  -977  -890  -809  -746  -689  -609  -482  -312  -146  -26  44  89  142  244  422  636  815  954  1093  1245  1398  1538  1646  1715  1772  1866  2041  2305  2587  2790  2889  2959  3064  3194  3309  3405  3514  3657  3809  3924  3984  3995  3926  3734  3448  3092  2572  1863  1181  713  407  128  -162  -445  -714  -957  -1134  -1227  -1259  -1252  -1226  -1247  -1392  -1637  -1855  -1965  -1992  -1994  -2009  -2053  -2114  -2146  -2116  -2058  -2016  -2004  -2020  -2036  -1991  -1832  -1589  -1375  -1273  -1267  -1286  -1268  -1184  -1066  -970  -911  -860  -796  -747  -790  -945  -1138  -1290  -1382  -1424  -1438  -1443  -1440  -1420  -1388  -1359  -1340  -1328  -1311  -1285  -1247  -1202  -1173  -1174  -1188  -1193  -1179  -1148  -1103  -1050  -1001  -957  -905  -842  -779  -705  -605  -501  -424  -364  -254  -22  312  636  843  901  828  678  514  366  252  211  265  372  460  507  531  537  488  335  101  -111  -235  -293  -325  -328  -299  -306  -435  -617  -571  54  1488  3641  6168  8635  10548  11406  10796  8671  5482  1962  -996  -2604  -2709  -1833  -745  -46  139  80  54  150  300  410  451  435  361  248  156  126  161  247  341  399  418  433  467  501  513  501  475  449  462  574  809  1081  1254  1287  1259  1292  1474  1770  2034  2164  2202  2249  2348  2472  2591  2727  2924  3187  3488  3745  3853  3783  3546  3130  2585  2043  1591  1206  820  409  18  -317  -627  -953  -1247  -1423  -1487  -1522  -1572  -1620  -1643  -1645  -1632  -1598  -1544  -1488  -1446  -1433  -1486  -1640  -1851  -2015  -2083  -2074  -2021  -1960  -1923  -1918  -1923  -1914  -1875  -1813  -1757  -1720  -1697  -1679  -1670  -1683  -1727  -1794  -1855  -1894  -1911  -1916  -1913  -1897  -1862  -1827  -1818  -1824  -1827  -1836  -1858  -1874  -1865  -1803  -1674  -1515  -1389  -1340  -1357  -1401  -1460  -1549  -1653  -1724  -1741  -1726  -1706  -1691  -1663  -1596  -1469  -1289  -1105  -972  -896  -832  -727  -566  -385  -218  -87  -16  -30  -132  -274  -382  -430  -442  -442  -448  -471  -513  -572  -654  -769  -892  -978  -1031  -1088  -1144  -1167  -1195  -1370  -1759  -2113  -1948  -890  1133  3839  6686  9094  10522  10563  9234  6909  3993  1053  -1177  -2401  -2788  -2536  -1958  -1460  -1186  -1069  -1050  -1095  -1158  -1187  -1152  -1070  -986  -917  -807  -579  -269  -19  86  81  23  -43  -91  -114  -114  -62  82  304  512  634  678  693  743  885  1110  1342  1554  1805  2122  2421  2611  2703  2766  2839  2927  3038  3178  3339  3494  3628  3733  3807  3862  3875  3735  3306  2595  1814  1206  847  630  419  146  -198  -573  -905  -1127  -1193  -1113  -965  -844  -798  -837  -965  -1143  -1263  -1206  -924  -534  -247  -150  -181  -267  -376  -483  -574  -669  -811  -996  -1154  -1238  -1237  -1151  -1008  -870  -782  -740  -725  -737  -767  -793  -805  -820  -865  -952  -1053  -1121  -1141  -1135  -1122  -1117  -1138  -1201  -1288  -1354  -1371  -1336  -1260  -1176  -1125  -1118  -1137  -1139  -1068  -895  -693  -601  -686  -871  -1023  -1088  -1091  -1053  -967  -844  -716  -600  -492  -355  -107  273  654  867  858  673  432  262  197  180  170  153  73  -145  -455  -699  -795  -795  -771  -750  -732  -716  -730  -814  -992  -1266  -1606  -1902  -1933  -1438  -246  1606  3891  6296  8527  10239  10941  10177  7807  4223  449  -2323  -3519  -3364  -2529  -1753  -1456  -1558  -1768  -1945  -2064  -2094  -2016  -1862  -1689  -1548  -1468  -1445  -1457  -1474  -1447  -1323  -1108  -884  -730  -667  -672  -714  -768  -804  -794  -717  -586  -436  -302  -200  -121  -38  79  261  501  738  918  1068  1237  1423  1605  1822  2122  2445  2670  2755  2759  2734  2678  2558  2351  2033  1601  1137  759  456  120  -279  -665  -964  -1171  -1328  -1496  -1689  -1857  -1961  -2015  -2033  -1998  -1890  -1738  -1600  -1489  -1392  -1329  -1308  -1311  -1317  -1320  -1325  -1333  -1348  -1364  -1344  -1221  -980  -721  -602  -697  -954  -1250  -1469  -1541  -1461  -1295  -1133  -1012  -895  -744  -586  -450  -310  -147  1  98  137  108  3  -141  -259  -313  -316  -296  -264  -224  -196  -211  -286  -394  -471  -464  -344  -109  212  531  728  742  601  400  255  246  397  669  938  1097  1143  1140  1135  1135  1126  1086  1015  945  906  876  777  539  206  -94  -298  -428  -507  -545  -555  -554  -556  -566  -619  -767  -927  -791  -2  1543  3603  5836  8008  9890  11060  10944  9184  5973  2118  -1172  -3004  -3388  -2896  -2165  -1681  -1519  -1474  -1434  -1392  -1339  -1288  -1272  -1288  -1272  -1160  -981  -820  -727  -689  -648  -544  -396  -292  -286  -351  -398  -350  -221  -90  -6  47  105  170  229  299  471  812  1218  1497  1585  1571  1577  1676  1882  2164  2484  2822  3164  3458  3636  3702  3686  3567  3312  2978  2667  2376  1992  1453  831  252  -194  -482  -642  -742  -849  -990  -1138  -1241  -1284  -1297  -1320  -1369  -1459  -1619  -1820  -1972  -2024  -1987  -1868  -1689  -1525  -1442  -1431  -1445  -1441  -1395  -1323  -1273  -1304  -1448  -1652  -1798  -1805  -1679  -1496  -1357  -1299  -1295  -1306  -1319  -1329  -1312  -1236  -1099  -954  -872  -901  -1068  -1321  -1535  -1616  -1572  -1475  -1394  -1354  -1343  -1360  -1428  -1556  -1701  -1802  -1854  -1885  -1898  -1878  -1832  -1785  -1737  -1636  -1444  -1201  -975  -804  -701  -656  -658  -737  -932  -1183  -1362  -1420  -1407  -1375  -1348  -1350  -1418  -1568  -1764  -1942  -2065  -2142  -2196  -2243  -2302  -2395  -2487  -2378  -1758  -453  1502  3926  6443  8516  9615  9333  7468  4297  720  -2135  -3604  -3758  -3154  -2433  -1985  -1766  -1521  -1187  -917  -805  -799  -842  -927  -1024  -1039  -890  -602  -288  -35  153  319  475  610  737  874  1008  1138  1286  1442  1574  1681  1772  1838  1884  1927  1966  2001  2069  2253  2630  3135  3566  3777  3811  3805  3849  3939  4023  4070  4088  4091  4079  4028  3909  3733  3557  3396  3178  2808  2292  1701  1069  450  -51  -376  -539  -597  -660  -822  -1054  -1238  -1322  -1348  -1360  -1374  -1387  -1366  -1264  -1099  -970  -945  -980  -1000  -994  -1014  -1131  -1355  -1595  -1739  -1752  -1662  -1530  -1415  -1336  -1284  -1252  -1229  -1206  -1195  -1216  -1268  -1311  -1322  -1317  -1297  -1244  -1169  -1123  -1176  -1365  -1608  -1766  -1795  -1757  -1715  -1677  -1591  -1406  -1166  -987  -915  -908  -913  -875  -743  -537  -340  -187  -49  107  303  508  643  670  618  546  497  474  456  431  393  321  206  85  -2  -62  -132  -231  -343  -454  -571  -696  -809  -903  -1011  -1149  -1176  -786  242  1884  4030  6545  9076  10936  11342  9856  6723  2865  -480  -2431  -2976  -2717  -2223  -1786  -1512  -1410  -1431  -1499  -1518  -1412  -1219  -1058  -982  -945  -887  -788  -673  -591  -561  -574  -610  -653  -681  -690  -692  -699  -704  -674  -578  -446  -350  -309  -265  -169  -19  175  430  731  989  1130  1180  1205  1246  1327  1472  1689  1952  2204  2390  2470  2436  2326  2191  2060  1931  1758  1498  1133  668  169  -261  -614  -938  -1230  -1472  -1674  -1827  -1910  -1924  -1903  -1874  -1857  -1869  -1922  -1999  -2052  -2023  -1883  -1689  -1541  -1483  -1486  -1513  -1531  -1507  -1426  -1305  -1188  -1118  -1108  -1129  -1140  -1137  -1140  -1142  -1099  -970  -789  -640  -559  -526  -516  -532  -595  -718  -880  -1022  -1080  -1046  -960  -841  -703  -575  -477  -406  -361  -346  -371  -451  -590  -745  -847  -881  -884  -877  -841  -752  -649  -601  -599  -572  -473  -301  -64  195  395  490  530  580  643  683  692  697  722  741  723  674  616  560  510  446  344  196  13  -167  -300  -362  -378  -411  -513  -690  -909  -1087  -988  -216  1496  3985  6772  9356  11245  11962  11228  9134  6082  2745  2  -1539  -1969  -1766  -1366  -1105  -1080  -1083  -960  -787  -665  -599  -548  -493  -452  -437  -441  -448  -450  -447  -445  -446  -444  -428  -390  -312  -179  -14  123  200  231  244  274  371  572  826  1018  1106  1149  1207  1282  1357  1462  1679  2013  2350  2594  2783  2959  3084  3131  3132  3131  3123  3035  2778  2375  1985  1724  1538  1287  857  230  -447  -961  -1233  -1356  -1429  -1480  -1518  -1563  -1625  -1689  -1728  -1734  -1720  -1697  -1671  -1654  -1649  -1650  -1652  -1653  -1653  -1653  -1653  -1656  -1668  -1690  -1720  -1756  -1784  -1772  -1673  -1459  -1194  -1022  -1064  -1346  -1733  -2018  -2128  -2151  -2195  -2319  -2494  -2626  -2646  -2537  -2337  -2139  -2028  -2023  -2091  -2184  -2255  -2283  -2283  -2271  -2251  -2238  -2264  -2356  -2481  -2557  -2554  -2527  -2531  -2556  -2567  -2545  -2462  -2305  -2125  -2007  -1983  -2031  -2116  -2196  -2241  -2250  -2244  -2241  -2245  -2254  -2270  -2291  -2300  -2246  -2089  -1863  -1674  -1592  -1585  -1570  -1488  -1354  -1206  -1054  -902  -744  -598  -560  -663  -815  -927  -973  -968  -961  -977  -998  -1015  -1072  -1222  -1428  -1584  -1641  -1633  -1604  -1592  -1645  -1741  -1596  -719  1161  3853  6889  9742  11883  12853  12339  10267  6955  3178  -35  -1908  -2323  -1732  -754  97  521  516  322  156  72  40  35  86  249  515  803  1047  1226  1338  1397  1421  1420  1396  1368  1354  1357  1378  1419  1501  1657  1880  2091  2218  2267  2311  2420  2596  2774  2931  3128  3399  3694  3964  4185  4361  4515  4678  4867  5073  5254  5367  5416  5427  5380  5229  4988  4699  4334  3840  3239  2615  2083  1736  1571  1497  1398  1222  1005  778  525  257  55  -13  36  134  211  238  210  123  -3  -115  -192  -253  -294  -282  -242  -259  -358  -473  -542  -565  -584  -613  -615  -552  -466  -437  -472  -532  -590  -646  -724  -850  -1001  -1118  -1151  -1107  -1049  -1030  -1053  -1094  -1134  -1167  -1200  -1220  -1209  -1173  -1136  -1115  -1134  -1226  -1398  -1588  -1713  -1746  -1726  -1696  -1652  -1579  -1499  -1491  -1585  -1677  -1678  -1638  -1623  -1624  -1614  -1599  -1611  -1660  -1722  -1772  -1793  -1747  -1590  -1353  -1147  -1048  -1033  -1044  -1051  -1047  -1034  -1013  -986  -965  -995  -1121  -1323  -1529  -1698  -1839  -1952  -2012  -1992  -1883  -1723  -1611  -1664  -1945  -2358  -2642  -2488  -1691  -209  1907  4453  6930  8705  9238  8245  5905  2795  -344  -2767  -4041  -4277  -3844  -3163  -2654  -2407  -2197  -1950  -1818  -1863  -2003  -2130  -2202  -2226  -2207  -2128  -1989  -1818  -1647  -1502  -1407  -1356  -1313  -1244  -1160  -1107  -1104  -1121  -1124  -1095  -1032  -926  -760  -548  -344  -191  -91  -30  34  188  490  886  1276  1637  1981  2263  2446  2566  2655  2711  2735  2744  2752  2749  2701  2576  2395  2209  2009  1683  1142  489  -38  -311  -405  -447  -484  -519  -560  -611  -654  -701  -788  -912  -1023  -1094  -1130  -1137  -1116  -1079  -1050  -1039  -1042  -1061  -1103  -1157  -1195  -1203  -1191  -1182  -1219  -1332  -1473  -1521  -1399  -1176  -985  -874  -805  -742  -679  -632  -626  -662  -730  -834  -960  -1045  -1024  -879  -671  -492  -377  -312  -282  -253  -164  24  254  401  402  303  188  113  80  70  78  142  296  497  645  707  732  757  767  751  757  837  973  1115  1246  1365  1456  1487  1420  1262  1086  976  959  1011  1104  1211  1288  1284  1179  1000  806  647  541  473  415  334  209  60  -65  -157  -284  -486  -558  -66  1269  3324  5768  8255  10336  11478  11253  9572  6750  3390  338  -1616  -2341  -2186  -1496  -701  -226  -122  -166  -192  -178  -170  -204  -265  -313  -332  -331  -320  -296  -266  -244  -240  -252  -267  -251  -148  62  327  542  618  538  387  269  223  237  311  451  635  846  1110  1425  1711  1891  1975  2046  2192  2423  2652  2804  2903  3004  3118  3214  3261  3195  2921  2444  1923  1488  1121  783  503  283  58  -231  -593  -974  -1269  -1416  -1450  -1452  -1481  -1561  -1702  -1903  -2118  -2271  -2333  -2335  -2320  -2311  -2313  -2336  -2380  -2437  -2495  -2546  -2585  -2606  -2615  -2619  -2621  -2614  -2574  -2473  -2326  -2204  -2166  -2227  -2356  -2472  -2520  -2510  -2477  -2450  -2448  -2462  -2473  -2486  -2509  -2535  -2551  -2560  -2556  -2508  -2378  -2184  -2007  -1903  -1858  -1854  -1926  -2112  -2353  -2517  -2534  -2448  -2362  -2329  -2315  -2291  -2281  -2313  -2377  -2424  -2388  -2242  -1997  -1707  -1467  -1325  -1251  -1200  -1149  -1083  -987  -873  -783  -755  -813  -968  -1166  -1308  -1354  -1346  -1325  -1308  -1312  -1361  -1436  -1443  -1309  -1091  -924  -858  -834  -799  -805  -1002  -1437  -1852  -1752  -697  1387  4170  7131  9705  11342  11631  10373  7672  4162  909  -1183  -1955  -1840  -1351  -854  -538  -401  -351  -328  -311  -279  -219  -116  24  146  205  229  275  381  540  670  680  587  499  494  573  697  848  1047  1270  1427  1476  1457  1419  1395  1433  1583  1831  2085  2256  2326  2356  2439  2628  2927  3301  3670  3971  4206  4382  4453  4393  4261  4152  4104  4055  3878  3487  2893  2190  1527  1048  758  524  236  -98  -391  -571  -667  -779  -955  -1154  -1295  -1356  -1362  -1344  -1326  -1313  -1299  -1283  -1274  -1279  -1302  -1350  -1428  -1528  -1617  -1674  -1697  -1688  -1657  -1621  -1590  -1555  -1522  -1508  -1540  -1637  -1762  -1836  -1805  -1681  -1542  -1471  -1470  -1499  -1561  -1680  -1852  -2029  -2144  -2154  -2092  -2027  -1995  -1988  -1987  -1990  -2005  -2033  -2058  -2063  -2041  -2006  -1975  -1955  -1950  -1966  -2002  -2040  -2063  -2072  -2072  -2043  -1963  -1870  -1841  -1903  -1971  -1931  -1783  -1641  -1581  -1587  -1605  -1573  -1459  -1301  -1184  -1132  -1099  -1042  -961  -881  -827  -802  -789  -782  -781  -783  -786  -781  -762  -727  -686  -663  -713  -896  -1176  -1408  -1485  -1436  -1353  -1291  -1281  -1373  -1610  -1894  -1949  -1486  -366  1406  3709  6272  8737  10673  11554  10930  8763  5484  1882  -1058  -2692  -3105  -2754  -2028  -1253  -710  -475  -416  -401  -409  -451  -499  -507  -483  -460  -435  -396  -361  -338  -293  -186  -31  122  255  370  453  492  498  500  515  542  570  594  614  647  751  980  1292  1559  1720  1821  1924  2028  2129  2312  2660  3098  3441  3614  3676  3694  3662  3532  3300  3049  2869  2750  2581  2271  1849  1402  984  612  270  -66  -370  -572  -655  -663  -650  -658  -723  -857  -1036  -1194  -1241  -1132  -942  -798  -747  -750  -773  -811  -847  -814  -667  -467  -319  -270  -302  -372  -453  -549  -677  -839  -999  -1111  -1152  -1114  -991  -825  -708  -701  -803  -952  -1061  -1058  -915  -673  -446  -323  -298  -314  -333  -340  -334  -322  -312  -302  -278  -244  -231  -264  -316  -345  -349  -343  -337  -326  -300  -246  -164  -54  114  365  663  935  1129  1245  1318  1356  1341  1255  1119  981  884  849  872  922  964  982  971  914  809  699  637  637  671  695  676  619  549  487  433  355  240]
