reading_id,reading_time,wire_id,result_classification,heart_rate,heart_rate_alert,firmware_version,device_app_version,hardware_version,waveform_samples
4fe0a140-520c-11ed-8080-808080808080,Sat Oct 22 13:20:35 UTC 2022,0101e39b1d39,NSR,81,NONE,20001.171.50,2.10.0,Charge 5,[0  135  301  455  568  684  830  950  1001  999  989  1019  1121  1260  1355  1378  1380  1452  1688  2091  2503  2740  2787  2801  2952  3267  3604  3824  3922  3987  4088  4217  4327  4405  4464  4503  4488  4380  4235  4169  4181  4179  4152  4130  4089  3946  3669  3353  3137  3054  3056  3117  3217  3305  3319  3253  3104  2799  2351  2054  2384  3640  5630  7831  9925  11905  13677  14867  14975  13573  10701  7140  4066  2275  1748  1994  2575  3137  3419  3425  3338  3276  3254  3262  3308  3398  3517  3657  3835  4078  4392  4707  4899  4889  4692  4423  4230  4167  4183  4228  4282  4340  4388  4400  4338  4180  3969  3797  3713  3677  3646  3645  3741  3969  4256  4454  4506  4479  4454  4466  4510  4560  4599  4626  4637  4631  4592  4471  4236  3937  3674  3501  3366  3177  2940  2750  2664  2659  2681  2660  2500  2116  1550  941  356  -216  -784  -1361  -1922  -2382  -2709  -2953  -3169  -3345  -3445  -3496  -3623  -3922  -4313  -4597  -4689  -4664  -4610  -4569  -4529  -4392  -4043  -3532  -3090  -2881  -2871  -2961  -3108  -3320  -3589  -3838  -3999  -4091  -4144  -4163  -4169  -4186  -4205  -4154  -3902  -3362  -2663  -2142  -2027  -2219  -2491  -2729  -2928  -3099  -3256  -3450  -3766  -4185  -4540  -4708  -4708  -4601  -4455  -4351  -4342  -4405  -4458  -4442  -4359  -4216  -4012  -3808  -3707  -3634  -3209  -1980  112  2624  5062  7131  8425  8420  6808  3643  -371  -3825  -5551  -5528  -4558  -3635  -3385  -3618  -3827  -3849  -3727  -3432  -2878  -2117  -1420  -1035  -1002  -1298  -1874  -2520  -2974  -3164  -3160  -3060  -3025  -3191  -3502  -3799  -4032  -4220  -4262  -4097  -3922  -3958  -4144  -4268  -4233  -4082  -3909  -3783  -3699  -3612  -3523  -3458  -3409  -3388  -3417  -3491  -3600  -3730  -3840  -3922  -4005  -4085  -4132  -4156  -4223  -4471  -5006  -5712  -6295  -6594  -6706  -6805  -6969  -7186  -7434  -7672  -7870  -8067  -8317  -8606  -8884  -9087  -9178  -9220  -9397  -9887  -10683  -11601  -12441  -13063  -13371  -13257  -12559  -11298  -9884  -8814  -8266  -7986  -7483  -6443  -4980  -3393  -1932  -846  -297  -194  -274  -262  68  760  1567  2157  2443  2599  2813  3133  3489  3788  4024  4286  4645  5048  5354  5484  5490  5466  5455  5438  5382  5277  5144  5000  4845  4701  4593  4491  4326  4094  3852  3615  3398  3254  3202  3199  3208  3227  3286  3411  3565  3676  3722  3714  3637  3449  3227  3275  3925  5298  7325  9784  12316  14394  15358  14772  12631  9314  5656  2720  1117  739  1064  1606  2132  2536  2745  2782  2744  2690  2635  2590  2551  2501  2453  2444  2502  2597  2626  2526  2380  2292  2272  2272  2256  2215  2162  2119  2110  2125  2103  1949  1639  1293  1079  1053  1173  1367  1566  1731  1868  2004  2115  2156  2185  2281  2392  2392  2228  1971  1760  1665  1668  1757  1941  2167  2328  2317  2053  1571  1083  798  703  628  430  63  -397  -805  -1087  -1290  -1443  -1524  -1549  -1597  -1740  -1946  -2100  -2119  -2006  -1820  -1642  -1514  -1427  -1363  -1319  -1292  -1283  -1293  -1311  -1309  -1279  -1236  -1189  -1146  -1114  -1059  -941  -789  -687  -661  -672  -684  -688  -688  -686  -683  -681  -689  -715  -761  -847  -1002  -1202  -1360  -1423  -1376  -1215  -987  -773  -601  -471  -398  -378  -375  -365  -367  -454  -701  -1094  -1506  -1806  -1959  -2009  -2024  -2059  -2117  -2165  -2190  -2206  -2228  -2268  -2331  -2413  -2509  -2642  -2825  -2999  -3092  -3047  -2775  -2186  -1200  311  2413  4936  7454  9394  10208  9497  7237  3934  467  -2244  -3633  -3725  -3020  -2151  -1604  -1480  -1522  -1496  -1365  -1156  -930  -793  -780  -840  -936  -1055  -1161  -1204  -1161  -1061  -958  -879  -810  -733  -645  -534  -386  -185  93  428  740  968  1095  1138  1128  1086  1028  962  882  779  668  592  589  688  876  1082  1237  1338  1422  1502  1547  1562  1620  1748  1877  1965  2014  1977  1761  1376  990  775  741  795  828  725  400  -86  -523  -749  -787  -763  -753  -762  -773  -776  -775  -780  -800  -817  -792  -710  -606  -502  -393  -295  -243  -275  -397  -548  -647  -677  -671  -655  -632  -607  -597  -606  -608  -584  -547  -526  -530  -544  -571  -655  -822  -1021  -1168  -1232  -1212  -1123  -1016  -913  -803  -726  -718  -741  -755  -769  -811  -885  -957  -1001  -1027  -1038  -976  -754  -383  11  314  496  574  562  450  236  -25  -236  -351  -421  -496  -580  -667  -755  -826  -862  -875  -885  -883  -849  -805  -800  -867  -997  -1148  -1332  -1617  -1904  -1779  -809  1057  3474  6019  8384  10320  11488  11418  9768  6687  2957  -283  -2233  -2863  -2658  -2107  -1517  -1082  -872  -804  -772  -743  -723  -714  -694  -623  -485  -326  -222  -218  -325  -514  -704  -812  -809  -705  -536  -356  -215  -126  -47  67  196  281  306  301  293  286  273  262  276  317  360  417  542  742  966  1177  1350  1468  1562  1691  1877  2079  2247  2346  2345  2242  2074  1871  1651  1430  1240  1093  914  619  254  -55  -278  -481  -705  -908  -1041  -1115  -1164  -1226  -1330  -1435  -1448  -1323  -1131  -988  -942  -959  -1000  -1042  -1068  -1075  -1071  -1067  -1072  -1090  -1116  -1137  -1138  -1115  -1065  -1000  -946  -932  -955  -980  -986  -984  -1000  -1053  -1121  -1146  -1097  -1005  -939  -927  -945  -964  -976  -982  -983  -982  -988  -1008  -1060  -1164  -1297  -1402  -1461  -1502  -1534  -1546  -1525  -1470  -1393  -1309  -1220  -1135  -1067  -1011  -957  -898  -798  -604  -338  -112  -4  -7  -85  -199  -296  -344  -350  -342  -342  -349  -351  -341  -332  -356  -449  -601  -753  -863  -950  -1069  -1220  -1339  -1381  -1364  -1353  -1377  -1405  -1437  -1409  -980  289  2482  5223  7992  10244  11383  11062  9340  6476  2975  -251  -2345  -3068  -2742  -1957  -1291  -1001  -978  -1003  -971  -895  -817  -763  -740  -753  -791  -823  -820  -785  -751  -751  -777  -788  -763  -701  -595  -451  -294  -125  63  263  438  547  586  602  642  708  778  856  948  1030  1086  1133  1181  1216  1247  1350  1606  1957  2229  2332  2314  2264  2248  2299  2393  2481  2511  2417  2150  1797  1538  1428  1369  1276  1085  718  227  -170  -339  -344  -313  -328  -416  -549  -662  -722  -743  -753  -762  -769  -775  -789  -815  -829  -814  -777  -726  -658  -586  -540  -525  -526  -531  -544  -568  -588  -575  -529  -475  -427  -394  -375  -360  -340  -317  -295  -289  -304  -332  -363  -399  -452  -542  -654  -734  -759  -749  -733  -721  -703  -665  -596  -501  -423  -425  -516  -636  -717  -720  -663  -589  -513  -428  -361  -368  -452  -549  -610  -633  -637  -637  -636  -625  -585  -496  -360  -223  -121  -29  85  204  290  341  371  383  371  333  281  215  94  -117  -370  -564  -651  -664  -674  -719  -773  -794  -767  -721  -732  -844  -1015  -1199  -1402  -1563  -1520  -1045  120  2000  4309  6795  9228  11091  11783  10952  8577  5107  1484  -1253  -2627  -2885  -2512  -1900  -1342  -964  -737  -621  -594  -649  -790  -969  -1073  -1025  -851  -647  -503  -443  -434  -438  -438  -436  -441  -445  -412  -306  -152  -26  23  6  -58  -142  -198  -179  -74  67  167  206  233  295  391  506  625  747  887  1033  1133  1164  1151  1138  1169  1273  1426  1549  1582  1533  1433  1310  1192  1078  926  734  553  392  176  -161  -579  -952  -1205  -1362  -1471  -1545  -1580  -1588  -1584  -1577  -1572  -1578  -1598  -1630  -1670  -1719  -1767  -1784  -1770  -1742  -1688  -1603  -1534  -1525  -1578  -1653  -1707  -1729  -1736  -1733  -1689  -1581  -1452  -1385  -1399  -1438  -1448  -1417  -1364  -1321  -1303  -1309  -1331  -1359  -1379  -1375  -1344  -1301  -1268  -1257  -1271  -1305  -1347  -1368  -1356  -1321  -1291  -1282  -1290  -1297  -1287  -1255  -1207  -1159  -1134  -1135  -1138  -1100  -989  -831  -682  -553  -403  -239  -124  -89  -98  -112  -117  -123  -153  -222  -323  -440  -547  -616  -639  -639  -672  -783  -938  -1055  -1098  -1098  -1090  -1085  -1071  -1047  -1059  -1177  -1307  -1111  -265  1307  3475  5985  8437  10363  11362  11090  9379  6443  2931  -189  -2123  -2700  -2277  -1425  -685  -351  -372  -488  -529  -518  -517  -527  -522  -487  -407  -276  -110  39  126  148  143  131  113  88  56  24  0  0  60  205  393  552  660  727  758  760  750  749  785  879  999  1080  1109  1157  1299  1521  1747  1922  2038  2111  2165  2217  2267  2300  2313  2316  2302  2256  2174  2067  1913  1655  1274  829  413  110  -62  -160  -243  -319  -378  -442  -551  -684  -773  -791  -771  -755  -758  -768  -774  -781  -798  -818  -812  -748  -646  -574  -582  -661  -768  -861  -935  -995  -1033  -1047  -1045  -1025  -979  -921  -890  -903  -934  -964  -999  -1038  -1067  -1063  -1014  -944  -893  -874  -868  -866  -897  -992  -1127  -1229  -1265  -1261  -1254  -1264  -1291  -1305  -1269  -1193  -1126  -1089  -1058  -1002  -911  -806  -690  -535  -344  -175  -71  -2  79  180  260  295  291  250  168  60  -33  -78  -80  -81  -116  -189  -282  -385  -489  -573  -642  -735  -860  -967  -1020  -1038  -1076  -1173  -1297  -1344  -1201  -701  392  2181  4481  6979  9328  10999  11419  10331  7848  4437  1055  -1286  -2280  -2310  -1888  -1383  -1024  -889  -910  -955  -947  -881  -812  -791  -803  -791  -729  -606  -444  -316  -267  -264  -262  -254  -257  -272  -286  -294  -292  -259  -176  -45  95  201  291  425  589  710  765  793  832  890  969  1061  1148  1218  1281  1366  1489  1625  1730  1806  1904  2043  2184  2277  2301  2281  2268  2261  2185  1945  1511  995  584  378  315  255  94  -178  -499  -775  -933  -974  -961  -944  -933  -922  -925  -968  -1046  -1112  -1135  -1133  -1135  -1159  -1197  -1234  -1275  -1338  -1425  -1510  -1540  -1492  -1402  -1326  -1272  -1214  -1149  -1103  -1088  -1107  -1159  -1229  -1289  -1321  -1334  -1330  -1280  -1166  -1040  -992  -1035  -1098  -1134  -1145  -1148  -1148  -1138  -1116  -1100  -1106  -1142  -1192  -1228  -1242  -1244  -1244  -1243  -1230  -1192  -1129  -1069  -1037  -1031  -1027  -1006  -974  -940  -899  -846  -795  -738  -642  -507  -376  -296  -294  -351  -407  -432  -451  -493  -543  -565  -559  -538  -500  -478  -525  -633  -753  -852  -927  -982  -1011  -1012  -1001  -1011  -1082  -1232  -1432  -1590  -1580  -1309  -650  656  2742  5329  7922  10071  11292  11127  9501  6732  3369  254  -1821  -2673  -2603  -2020  -1333  -868  -703  -712  -757  -786  -799  -797  -781  -758  -739  -734  -741  -761  -773  -725  -568  -347  -188  -152  -182  -214  -238  -256  -244  -158  6  188  320  388  413  414  407  405  429  496  615  779  968  1155  1333  1475  1547  1548  1526  1557  1708  1963  2224  2408  2500  2518  2485  2382  2164  1839  1487  1190  965  758  509  228  -33  -260  -455  -600  -681  -715  -746  -798  -872  -963  -1058  -1127  -1155  -1156  -1156  -1165  -1167  -1128  -1036  -923  -834  -787  -771  -774  -793  -832  -885  -925  -929  -899  -859  -830  -815  -811  -815  -828  -847  -853  -797  -659  -523  -540  -729  -952  -1089  -1126  -1105  -1051  -961  -841  -733  -689  -742  -873  -1024  -1144  -1211  -1230  -1213  -1162  -1080  -988  -918  -895  -918  -963  -1000  -1020  -1023  -996  -924  -830  -764  -741  -724  -666  -553  -401  -226  -24  168  273  251  157  89  78  56  -8  -82  -133  -164  -199  -277  -407  -543  -630  -658  -672  -739  -893  -1088  -1228  -1279  -1282  -1280  -1274  -1246  -1194  -1031  -437  936  3130  5871  8669  10880  11893  11366  9387  6398  3045  104  -1870  -2844  -3013  -2564  -1825  -1180  -803  -651  -610  -599  -602  -634  -690  -720  -660  -494  -295  -165  -135  -150  -155  -141  -121  -88  -18  77  159  211  249  282  313  345  377  413  451  483  506  533  582  686  865  1075  1242  1334  1372  1397  1433  1467  1481  1504  1603  1811  2081  2303  2376  2291  2094  1850  1635  1509  1442  1350  1174  897  545  184  -117  -327  -453  -529  -613  -759  -939  -1041  -1006  -894  -804  -775  -785  -798  -780  -714  -617  -537  -507  -536  -626  -755  -868  -920  -911  -871  -828  -803  -817  -867  -934  -999  -1053  -1091  -1112  -1123  -1127  -1127  -1125  -1127  -1128  -1112  -1072  -1026  -1010  -1028  -1051  -1061  -1075  -1113  -1167  -1208  -1222  -1220  -1216  -1214  -1214  -1214  -1215  -1215  -1215  -1213  -1215  -1227  -1251  -1255  -1176  -1022  -882  -799  -722  -598  -438  -289  -186  -137  -143  -196  -276  -350  -400  -436  -474  -519  -558  -587  -606  -619  -658  -762  -913  -1034  -1083  -1082  -1068  -1060  -1077  -1148  -1285  -1367  -1068  -62  1701  4043  6615  8947  10626  11276  10550  8376  5109  1588  -1129  -2492  -2719  -2329  -1815  -1497  -1324  -1087  -801  -608  -539  -539  -557  -576  -593  -599  -583  -545  -517  -535  -585  -623  -627  -612  -596  -578  -527  -421  -298  -196  -119  -51  11  49  58  82  136  189  213  214  233  339  552  794  959  1039  1115  1262  1480  1701  1850  1912  1941  2002  2101  2176  2156  2013  1793  1575  1369  1127  845  542  223  -68  -252  -317  -338  -391  -498  -639  -772  -860  -897  -902  -900  -915  -954  -1004  -1039  -1049  -1045  -1043  -1057  -1083  -1091  -1054  -1005  -998  -1007  -968  -886  -810  -765  -749  -746  -740  -720  -700  -727  -810  -883  -885  -827  -781  -780  -787  -789  -802  -806  -779  -740  -712  -713  -719  -689  -635  -598  -597  -636  -719  -841  -972  -1068  -1113  -1118  -1091  -1038  -974  -913  -852  -793  -751  -708  -630  -531  -458  -409  -312  -114  132  303  323  206  22  -131  -202  -210  -187  -148  -103  -75  -85  -150  -288  -483  -664  -761  -760  -690  -596  -536  -560  -694  -909  -1144  -1323  -1276  -737  511  2464  4854  7332  9590  11223  11686  10654  8251  4933  1491  -1131  -2438  -2574  -1961  -1078  -412  -245  -466  -740  -877  -899  -867  -789  -657  -506  -386  -319  -287  -260  -232  -210  -183  -134  -70  -24  -11  -15  -14  3  30  50  56  62  108  249  500  785  990  1063  1039  981  940  952  1041  1214  1411  1539  1576  1592  1672  1829  1991  2091  2139  2161  2166  2153  2114  2052  1970  1843  1600  1180  663  236  -30  -230  -426  -575  -640  -653  -656  -672  -729  -858  -1036  -1180  -1229  -1204  -1149  -1083  -1005  -926  -869  -832  -794  -753  -720  -697  -688  -696  -705  -706  -721  -773  -847  -898  -909  -900  -889  -869  -827  -765  -698  -648  -631  -638  -656  -684  -735  -827  -938  -1019  -1049  -1053  -1047  -1018  -943  -840  -765  -757  -813  -894  -951  -959  -924  -871  -833  -827  -837  -846  -852  -861  -867  -837  -734  -577  -429  -323  -244  -181  -135  -116  -126  -142  -144  -141  -169  -254  -374  -471  -516  -540  -596  -717  -885  -1053  -1179  -1242  -1246  -1217  -1177  -1151  -1157  -1207  -1297  -1432  -1607  -1718  -1556  -927  257  1989  4193  6677  9027  10613  10821  9380  6550  3074  -70  -2118  -2913  -2838  -2412  -1956  -1581  -1346  -1261  -1266  -1332  -1484  -1701  -1892  -1993  -2017  -2006  -1992  -1992  -2003  -2010  -1996  -1947  -1876  -1817  -1788  -1768  -1707  -1577  -1421  -1315  -1285  -1296  -1315  -1339  -1374  -1405  -1379  -1260  -1068  -855  -659  -483  -316  -166  -59  13  93  196  310  424  524  604  712  907  1152  1320  1318  1132  834  524  258  55  -79  -200  -392  -674  -970  -1203  -1364  -1499  -1615  -1668  -1658  -1644  -1668  -1705  -1683  -1569  -1408  -1271  -1197  -1179  -1169  -1131  -1074  -1030  -1006  -990  -982  -989  -1001  -1009  -998  -970  -962  -992  -1029  -1037  -1001  -931  -835  -713  -577  -463  -382  -310  -246  -221  -245  -283  -298  -296  -306  -331  -356  -374  -384  -364  -271  -103  73  183  217  221  248  299  302  192  12  -135  -207  -221  -209  -185  -163  -144  -86  55  245  380  425  453  538  682  814  883  898  901  921  958  1000  1037  1052  1018  927  809  709  649  615  580  535  500  493  491  445  336  234  216  242  215  94  -99  -285  -346  -194  356  1579  3557  6098  8872  11365  12953  13133  11633  8631  4909  1517  -701  -1517  -1389  -945  -533  -233  -20  126  206  234  245  258  266  270  302  356  401  449  514  563  558  498  436  437  501  568  598  596  592  626  704  769  774  768  830  960  1088  1183  1280  1410  1548  1650  1710  1755  1813  1876  1923  1960  2037  2178  2338  2452  2520  2583  2651  2681  2646  2566  2476  2358  2143  1787  1356  991  754  590  397  126  -173  -407  -532  -607  -704  -799  -805  -716  -624  -587  -593  -610  -621  -626  -629  -630  -625  -612  -596  -593  -605  -624  -630  -603  -537  -450  -374  -333  -338  -401  -518  -645  -721  -729  -689  -634  -594  -579  -585  -616  -681  -780  -886  -957  -980  -977  -971  -975  -993  -1024  -1050  -1061  -1050  -1020  -993  -990  -1006  -1038  -1084  -1137  -1178  -1212  -1255  -1301  -1349  -1409  -1467  -1498  -1511  -1524  -1528  -1467  -1279  -985  -697  -509  -424  -398  -402  -432  -485  -532  -549  -549  -546  -559  -642  -848  -1124  -1348  -1464  -1506  -1532  -1565  -1597  -1621  -1660  -1724  -1800  -1881  -2001  -2197  -2346  -2156  -1351  183  2332  4809  7331  9563  11008  11129  9625  6651  2858  -717  -3121  -4050  -3793  -2921  -2101  -1728  -1706  -1709  -1579  -1401  -1277  -1205  -1151  -1110  -1104  -1132  -1169  -1194  -1201  -1184  -1139  -1083  -1036  -1004  -974  -931  -871  -818  -798  -800  -769  -642  -432  -218  -55  53  120  162  200  218  182  131  162  281  386  434  518  741  1055  1302  1416  1462  1517  1603  1692  1750  1764  1707  1531  1211  831  545  406  319  177  -21  -210  -362  -531  -773  -1070  -1335  -1491  -1531  -1503  -1453  -1395  -1310  -1181  -1028  -901  -819  -781  -791  -834  -873  -881  -862  -833  -812  -806  -806  -806  -804  -810  -830  -853  -853  -822  -783  -776  -810  -859  -900  -934  -966  -1001  -1047  -1108  -1185  -1252  -1268  -1224  -1151  -1059  -959  -891  -893  -973  -1094  -1198  -1253  -1265  -1251  -1224  -1210  -1238  -1320  -1427  -1511  -1550  -1552  -1515  -1419  -1268  -1102  -935  -742  -542  -403  -352  -374  -465  -610  -749  -830  -844  -825  -833  -910  -1045  -1189  -1292  -1352  -1404  -1457  -1479  -1463  -1434  -1414  -1406  -1427  -1507  -1637  -1694  -1379  -405  1172  3085  5158  7247  9099  10321  10402  8974  6168  2687  -412  -2299  -2874  -2571  -1956  -1514  -1367  -1303  -1147  -918  -722  -647  -694  -778  -819  -791  -706  -608  -520  -431  -343  -275  -226  -193  -167  -130  -82  -40  -28  -40  -26  34  104  154  202  261  326  405  537  729  918  1046  1129  1205  1282  1377  1519  1684  1803  1851  1880  1951  2078  2219  2319  2351  2297  2136  1915  1740  1637  1513  1279  956  651  439  304  163  -48  -302  -512  -636  -686  -685  -649  -596  -575  -621  -710  -794  -855  -891  -896  -859  -772  -651  -534  -447  -404  -419  -492  -594  -669  -698  -700  -692  -668  -613  -543  -490  -457  -413  -352  -302  -284  -294  -319  -360  -407  -439  -446  -433  -411  -396  -416  -490  -600  -694  -741  -753  -749  -743  -740  -743  -750  -757  -759  -759  -758  -771  -823  -915  -1011  -1071  -1093  -1097  -1074  -982  -789  -520  -268  -128  -118  -170  -211  -216  -215  -237  -298  -406  -534  -626  -657  -655  -662  -718  -852  -1040  -1204  -1285  -1293  -1265  -1230  -1201  -1187  -1195  -1246  -1334  -1353  -1079  -258  1226  3280  5682  8098  10077  11138  10852  9074  6111  2672  -283  -2024  -2503  -2128  -1369  -689  -381  -390  -496  -569  -594  -593  -587  -581  -577  -582  -603  -636  -669  -701  -723  -712  -657  -566  -459  -347  -221  -90  10  72  137  236  350  435  474  486  492  486  459  434  463  588  796  998  1121  1196  1317  1529  1768  1934  2011  2054  2102  2144  2169  2177  2177  2179  2163  2064  1836  1517  1192  864  470  34  -303  -454  -469  -460  -524  -715  -987  -1209  -1307  -1311  -1271  -1205  -1117  -1015  -922  -862  -841  -836  -838  -860  -925  -1020  -1088  -1074  -957  -781  -626  -522  -457  -422  -414  -416  -409  -387  -360  -364  -423  -519  -603  -649  -666  -671  -663  -627  -572  -539  -569  -660  -769  -846  -871  -851  -799  -751  -737  -749  -766  -785  -812  -847  -878  -894  -892  -885  -882  -884  -885  -884  -888  -902  -922  -930  -923  -913  -904  -889  -845  -731  -537  -337  -217  -191  -221  -278  -340  -390  -425  -451  -472  -490  -527  -631  -826  -1059  -1239  -1328  -1349  -1345  -1334  -1312  -1292  -1300  -1340  -1398  -1490  -1643  -1756  -1543  -686  951  3236  5816  8249  10123  11050  10700  8958  6053  2604  -469  -2447  -3216  -3042  -2325  -1575  -1160  -1064  -1084  -1098  -1089  -1049  -962  -849  -767  -740  -747  -760  -762  -736  -668  -569  -476  -426  -420  -436  -453  -457  -434  -371  -272  -169  -74  28  144  250  329  400  470  518  548  604  719  878  1033  1158  1286  1468  1693  1894  2031  2134  2235  2322  2366  2372  2368  2355  2285  2109  1865  1647  1462  1199  808  392  81  -94  -200  -315  -469  -639  -793  -906  -965  -979  -970  -951  -926  -904  -896  -906  -910  -887  -851  -844  -888  -943  -951  -894  -786  -672  -598  -574  -579  -596  -628  -666  -688  -682  -666  -675  -734  -821  -890  -915  -896  -834  -744  -649  -564  -497  -473  -500  -541  -559  -561  -583  -652  -749  -819  -827  -784  -734  -718  -739  -768  -784  -778  -755  -729  -709  -690  -667  -646  -636  -642  -662  -686  -715  -748  -761  -721  -627  -504  -377  -263  -162  -56  45  102  91  43  5  0  8  4  -34  -115  -214  -300  -396  -553  -748  -898  -967  -993  -1019  -1056  -1092  -1116  -1142  -1194  -1277  -1388  -1508  -1545  -1315  -576  875  3045  5669  8305  10439  11561  11274  9478  6493  2957  -290  -2445  -3218  -2946  -2207  -1504  -1138  -1087  -1133  -1127  -1064  -989  -938  -915  -890  -840  -769  -689  -610  -542  -491  -449  -385  -287  -173  -67  8  44  49  37  28  38  57  65  59  55  84  182  362  582  778  903  956  979  1050  1214  1452  1698  1896  2027  2099  2127  2136  2166  2236  2293  2275  2180  2044  1892  1713  1509  1310  1134  972  812  623  361  25  -294  -509  -633  -743  -880  -1019  -1110  -1137  -1129  -1105  -1074  -1049  -1049  -1071  -1093  -1092  -1072  -1060  -1077  -1111  -1148  -1184  -1211  -1221  -1199  -1130  -1026  -921  -820  -719  -632  -580  -559  -556  -589  -699  -900  -1135  -1314  -1383  -1358  -1305  -1269  -1250  -1237  -1227  -1235  -1283  -1369  -1456  -1505  -1505  -1461  -1391  -1321  -1273  -1254  -1254  -1260  -1266  -1273  -1281  -1280  -1266  -1254  -1265  -1294  -1313  -1296  -1236  -1150  -1069  -1015  -985  -954  -896  -789  -641  -503  -422  -390  -374  -370  -403  -486  -592  -692  -802  -940  -1085  -1205  -1299  -1377  -1437  -1474  -1485  -1464  -1420  -1374  -1343  -1325  -1318  -1319  -1305  -1138  -548  656  2452  4698  7100  9221  10617  10842  9555  6868  3435  203  -1967  -2789  -2621  -2022  -1421  -1056  -932  -898  -850  -789  -742  -714  -697  -676  -640  -580  -492  -393  -317  -269  -229  -185  -137  -99  -87  -90  -69  -7  77  158  236  332  433  503  531  536  541  580  684  844  999  1103  1183  1296  1461  1635  1768  1876  2014  2176  2298  2342  2335  2318  2308  2307  2315  2336  2353  2299  2090  1746  1406  1164  980  784  556  325  146  45  -13  -68  -117  -141  -145  -141  -141  -148  -153  -138  -100  -49  15  94  169  217  214  112  -109  -370  -545  -602  -592  -543  -448  -325  -231  -192  -178  -167  -166  -188  -233  -267  -275  -281  -280  -266  -286  -378  -512  -623  -664  -646  -595  -542  -560  -663  -770  -821  -807  -741  -648  -558  -507  -545  -709  -949  -1142  -1213  -1191  -1140  -1105  -1096  -1101  -1105  -1102  -1084  -1056  -1029  -1013  -1009  -1000  -933  -761  -526  -345  -271  -261  -268  -270  -270  -297  -374  -482  -581  -640  -667  -684  -700  -716  -733  -765  -834  -947  -1077  -1178  -1226  -1225  -1200  -1190  -1259  -1469  -1812  -2158  -2174  -1447  196  2574  5250  7739  9693  10805  10719  9243  6505  3057  -129  -2144  -2797  -2572  -2053  -1636  -1438  -1348  -1279  -1241  -1236  -1242  -1250  -1256  -1246  -1191  -1082  -964  -894  -876  -871  -842  -780  -705  -654  -635  -622  -584  -512  -416  -317  -238  -176  -98  34  235  449  589  607  525  399  315  374  636  1017  1325  1465  1512  1579  1711  1874  2020  2148  2269  2372  2444  2465  2403  2250  2031  1782  1522  1251  1001  801  619  417  210  10  -204  -429  -609  -695  -704  -692  -707  -777  -901  -1044  -1155  -1201  -1174  -1078  -953  -864  -838  -847  -859  -847  -799  -729  -680  -689  -764  -872  -954  -988  -991  -985  -979  -974  -963  -945  -934  -939  -941  -927  -899  -856  -813  -789  -787  -797  -808  -815  -819  -818  -822  -858  -944  -1051  -1125  -1147  -1139  -1121  -1105  -1090  -1060  -997  -917  -853  -821  -816  -840  -903  -995  -1083  -1134  -1135  -1096  -1046  -1005  -977  -952  -913  -870  -845  -845  -860  -874  -854  -746  -519  -227  4  108  112  61  -29  -144  -246  -304  -339  -403  -505  -597  -643  -664  -705  -782  -865  -924  -976  -1062  -1172  -1266  -1348  -1451  -1562  -1653  -1739  -1834  -1808  -1373  -263  1561  3883  6320  8507  10171  10952  10443  8523  5458  1884  -1199  -2964  -3327  -2787  -1976  -1379  -1107  -961  -773  -599  -569  -675  -792  -846  -848  -815  -745  -657  -594  -566  -546  -522  -502  -489  -470  -427  -350  -245  -137  -45  43  173  371  585  735  807  841  869  909  975  1069  1197  1369  1563  1720  1807  1841  1863  1902  1986  2145  2371  2600  2774  2888  2952  2971  2946  2855  2659  2381  2122  1941  1761  1455  1027  630  391  292  223  92  -93  -249  -330  -375  -430  -495  -555  -608  -663  -725  -786  -828  -830  -792  -732  -658  -575  -500  -453  -442  -461  -497  -529  -542  -544  -556  -587  -624  -650  -655  -642  -617  -592  -575  -565  -559  -564  -590  -638  -669  -631  -527  -434  -418  -484  -580  -654  -706  -751  -789  -811  -829  -862  -906  -928  -907  -859  -818  -795  -786  -785  -809  -874  -966  -1042  -1074  -1064  -1011  -910  -765  -599  -469  -434  -479  -564  -670  -754  -753  -652  -496  -350  -250  -179  -114  -44  44  150  243  294  313  315  282  174  -1  -185  -347  -504  -679  -880  -1079  -1215  -1269  -1276  -1262  -1213  -1120  -1057  -1137  -1358  -1584  -1658  -1431  -774  433  2255  4531  6929  9136  10742  11187  10135  7700  4345  896  -1673  -2918  -3099  -2711  -2167  -1714  -1406  -1194  -1051  -975  -948  -932  -911  -896  -882  -844  -757  -636  -539  -531  -579  -584  -513  -418  -335  -256  -173  -106  -74  -80  -118  -170  -209  -214  -167  -60  98  262  374  427  464  522  617  739  863  967  1062  1176  1319  1471  1609  1733  1857  1972  2044  2062  2042  1983  1870  1682  1404  1085  819  604  354  49  -233  -436  -566  -646  -706  -797  -940  -1105  -1262  -1391  -1476  -1516  -1515  -1460  -1333  -1172  -1061  -1049  -1125  -1233  -1307  -1311  -1251  -1168  -1110  -1091  -1095  -1102  -1106  -1109  -1112  -1114  -1111  -1090  -1047  -1006  -993  -991  -967  -932  -926  -969  -1040  -1094  -1119  -1138  -1144  -1113  -1054  -996  -962  -958  -973  -992  -1008  -1024  -1042  -1078  -1158  -1275  -1377  -1431  -1439  -1399  -1295  -1161  -1073  -1064  -1102  -1141  -1161  -1147  -1077  -947  -790  -654  -565  -523  -493  -431  -342  -277  -281  -351  -446  -515  -549  -576  -613  -665  -739  -833  -935  -1050  -1177  -1287  -1354  -1370  -1350  -1336  -1365  -1452  -1611  -1813  -1962  -1886  -1301  40  2118  4628  7139  9209  10381  10281  8845  6328  3234  323  -1706  -2665  -2748  -2296  -1780  -1503  -1375  -1215  -1012  -863  -809  -805  -809  -807  -793  -763  -715  -650  -579  -520  -470  -415  -371  -359  -358  -326  -260  -194  -142  -88  -24  39  114  229  380  520  620  703  796  895  971  1011  1025  1046  1123  1270  1441  1574  1665  1783  1982  2219  2393  2467  2479  2479  2492  2505  2461  2287  1987  1658  1385  1168  953  683  374  101  -91  -218  -306  -362  -385  -392  -402  -420  -434  -436  -430  -433  -469  -556  -668  -748  -761  -713  -634  -547  -459  -386  -347  -344  -366  -409  -485  -593  -693  -750  -751  -695  -584  -457  -360  -311  -299  -304  -309  -318  -354  -427  -515  -572  -570  -522  -465  -417  -382  -368  -403  -512  -660  -768  -799  -771  -719  -669  -635  -621  -621  -627  -636  -649  -666  -683  -690  -666  -596  -503  -434  -404  -390  -375  -355  -307  -200  -53  71  149  200  231  233  195  123  35  -48  -130  -219  -309  -376  -406  -410  -421  -481  -609  -766  -893  -979  -1032  -1038  -1010  -1026  -1138  -1248  -1209  -935  -312  863  2715  5098  7665  9927  11260  11160  9577  6859  3569  499  -1591  -2508  -2543  -2063  -1464  -1074  -927  -896  -897  -902  -905  -903  -901  -906  -917  -920  -893  -819  -706  -588  -494  -448  -448  -469  -488  -497  -496  -480  -435  -363  -284  -224  -196  -193  -199  -191  -142  -42  101  292  517  730  898  1026  1129  1216  1287  1343  1402  1502  1672  1909  2167  2373  2474  2446  2276  2004  1745  1603  1575  1571  1464  1162  691  201  -155  -360  -495  -625  -744  -828  -867  -871  -862  -863  -889  -950  -1038  -1124  -1169  -1159  -1120  -1085  -1064  -1048  -1026  -993  -941  -867  -779  -701  -658  -656  -680  -708  -729  -744  -770  -808  -836  -837  -820  -804  -799  -800  -797  -790  -801  -848  -912  -944  -919  -866  -832  -829  -834  -833  -834  -864  -946  -1053  -1107  -1068  -979  -925  -951  -1040  -1149  -1242  -1301  -1336  -1358  -1350  -1292  -1203  -1130  -1096  -1089  -1084  -1073  -1055  -1024  -976  -913  -835  -740  -615  -444  -259  -136  -113  -164  -238  -294  -319  -325  -325  -330  -363  -454  -595  -746  -885  -1013  -1121  -1192  -1235  -1273  -1300  -1311  -1335  -1386  -1457  -1562  -1698  -1697  -1252  -145  1629  3928  6467  8824  10532  11151  10400  8316  5222  1776  -1063  -2641  -2962  -2440  -1658  -1067  -779  -711  -745  -787  -809  -820  -811  -771  -716  -681  -672  -663  -632  -581  -534  -503  -481  -461  -425  -353  -246  -137  -63  -20  21  74  120  152  214  361  565  727  790  781  767  808  946  1180  1450  1673  1821  1927  2025  2117  2194  2253  2297  2335  2380  2432  2471  2487  2490  2476  2410  2231  1923  1549  1177  832  526  246  -31  -282  -454  -550  -616  -677  -719  -727  -707  -670  -635  -622  -638  -678  -720  -749  -763  -766  -750  -716  -677  -651  -641  -638  -635  -630  -623  -614  -602  -576  -525  -444  -360  -317  -321  -345  -372  -399  -432  -477  -553  -675  -818  -938  -1027  -1088  -1103  -1063  -994  -956  -980  -1025  -1037  -1004  -953  -916  -905  -908  -908  -902  -894  -897  -920  -952  -964  -945  -916  -918  -956  -988  -962  -876  -776  -684  -570  -423  -265  -110  27  111  120  68  -3  -65  -128  -212  -310  -394  -459  -514  -587  -705  -853  -966  -1014  -1024  -1035  -1060  -1085  -1097  -1122  -1236  -1480  -1726  -1692  -1122  118  2010  4354  6856  9187  10890  11413  10397  7900  4430  910  -1673  -2898  -3022  -2541  -1932  -1504  -1268  -1111  -983  -884  -826  -811  -820  -830  -820  -777  -707  -640  -602  -600  -618  -625  -601  -552  -496  -447  -420  -413  -411  -392  -345  -258  -121  41  175  248  278  306  362  448  538  603  642  700  821  981  1104  1163  1204  1295  1464  1662  1815  1904  1965  2030  2101  2151  2101  1859  1445  1022  748  640  601  481  179  -216  -509  -640  -708  -802  -924  -1024  -1072  -1077  -1066  -1050  -1033  -1021  -1014  -1012  -1015  -1020  -1029  -1041  -1055  -1074  -1098  -1121  -1131  -1108  -1025  -895  -766  -684  -677  -730  -792  -832  -851  -858  -860  -869  -887  -886  -835  -758  -740  -831  -972  -1067  -1087  -1060  -1017  -962  -879  -782  -728  -761  -866  -984  -1075  -1136  -1168  -1173  -1177  -1189  -1182  -1136  -1068  -1014  -987  -971  -948  -920  -899  -887  -869  -809  -669  -477  -312  -208  -139  -76  -22  1  -14  -62  -141  -257  -410  -578  -713  -794  -841  -877  -910  -934  -950  -979  -1039  -1109  -1168  -1227  -1281  -1324  -1372  -1397  -1232  -563  892  3122  5754  8257  10124  10906  10302  8372  5508  2278  -545  -2275  -2840  -2636  -2066  -1481  -1128  -995  -946  -916  -900  -898  -906  -914  -907  -865  -779  -675  -604  -581  -585  -584  -558  -500  -414  -305  -194  -114  -75  -64  -74  -91  -90  -56  10  118  275  453  606  715  778  797  794  819  930  1133  1380  1594  1720  1779  1844  1973  2163  2360  2490  2523  2475  2371  2260  2192  2136  1975  1620  1126  653  314  112  -10  -112  -219  -324  -411  -475  -530  -580  -614  -626  -626  -634  -665  -717  -772  -824  -882  -938  -970  -948  -862  -743  -649  -595  -556  -512  -464  -420  -394  -384  -387  -404  -429  -448  -454  -451  -447  -448  -464  -503  -564  -636  -701  -754  -795  -836  -881  -915  -918  -893  -855  -823  -812  -824  -855  -890  -914  -926  -934  -949  -969  -982  -984  -990  -1011  -1034  -1048  -1054  -1052  -1016  -920  -783  -662  -584  -515  -427  -337  -268  -224  -203  -203  -218  -237  -244  -238  -240  -267  -320  -396  -484  -567  -663  -791  -913  -983  -1000  -997  -992  -1001  -1045  -1124  -1220  -1324  -1405  -1404  -1207  -563  787  2859  5422  8101  10339  11495  11129  9246  6259  2862  -51  -1837  -2515  -2479  -2091  -1627  -1290  -1127  -1063  -1022  -986  -961  -946  -927  -879  -788  -680  -602  -578  -594  -636  -684  -708  -693  -653  -597  -520  -430  -361  -322  -295  -276  -268  -272  -275  -254  -161  41  310  549  705  787  825  865  948  1061  1152  1211  1295  1446  1651  1863  2046  2192  2299  2361  2389  2402  2400  2338  2153  1827  1426  1050  734  447  194  17  -103  -242  -420  -580  -669  -698  -713  -749  -823  -908  -949  -926  -879  -839  -790  -725  -675  -669  -710  -776  -831  -845  -790  -670  -560  -539  -577  -600  -593  -582  -584  -589  -585  -567  -544  -544  -605  -714  -808  -849  -848  -841  -852  -872  -872  -849  -823  -821  -846  -879  -904  -921  -928  -920  -895  -861  -834  -824  -840  -893  -974  -1044  -1072  -1059  -1033  -1022  -1031  -1054  -1072  -1071  -1060  -1045  -1025  -1002  -985  -980  -978  -962  -885  -692  -416  -179  -65  -52  -98  -196  -341  -482  -565  -586  -578  -566  -556  -551  -569  -634  -772  -982  -1212  -1370  -1422  -1405  -1370  -1341  -1336  -1409  -1626  -1916  -2000  -1549  -352  1569  3968  6566  9067  10990  11774  11045  8750  5303  1659  -1128  -2576  -2865  -2473  -1913  -1528  -1356  -1262  -1162  -1074  -1033  -1043  -1073  -1088  -1074  -1015  -908  -782  -679  -615  -582  -566  -554  -539  -524  -512  -479  -394  -273  -174  -123  -96  -51  32  130  195  224  265  355  474  577  656  746  887  1088  1312  1505  1647  1770  1892  1991  2065  2151  2279  2421  2525  2576  2581  2515  2342  2097  1844  1570  1261  975  745  531  302  70  -144  -329  -485  -611  -700  -750  -765  -751  -721  -701  -700  -704  -682  -624  -563  -552  -585  -614  -610  -570  -515  -456  -401  -365  -356  -360  -371  -397  -445  -498  -532  -541  -539  -537  -539  -541  -535  -526  -532  -554  -569  -568  -580  -643  -740  -812  -847  -885  -942  -990  -1010  -1007  -985  -937  -874  -830  -827  -862  -903  -918  -896  -853  -813  -792  -789  -792  -797  -824  -884  -942  -937  -840  -680  -527  -424  -373  -344  -305  -236  -129  -10  72  106  110  82  -6  -159  -338  -491  -588  -647  -715  -802  -877  -916  -935  -959  -989  -1010  -1024  -1049  -1101  -1190  -1335  -1480  -1445  -994  67  1798  4050  6562  9011  10970  11936  11446  9346  5997  2242  -848  -2570  -2976  -2566  -1858  -1248  -935  -876  -894  -882  -831  -733  -568  -368  -206  -124  -108  -130  -164  -183  -173  -152  -137  -130  -126  -124  -123  -115  -90  -51  -13  13  42  100  201  319  407  451  487  552  658  792  934  1078  1225  1357  1439  1479  1529  1616  1758  1980  2244  2442  2516  2487  2379  2214  2042  1906  1798  1641  1342  911  481  185  32  -50  -121  -226  -406  -661  -918  -1082  -1114  -1044  -948  -885  -866  -869  -876  -879  -881  -888  -901  -912  -914  -914  -927  -953  -969  -956  -922  -882  -845  -820  -813  -816  -823  -830  -823  -783  -707  -638  -622  -646  -676  -709  -749  -801  -869  -943  -994  -1008  -1006  -1015  -1049  -1095  -1125  -1134  -1147  -1192  -1265  -1333  -1373  -1376  -1337  -1267  -1187  -1122  -1086  -1085  -1110  -1143  -1170  -1181  -1174  -1139  -1065  -956  -837  -739  -663  -592  -526  -481  -457  -454  -483  -556  -651  -720  -750  -763  -782  -828  -942  -1133  -1328  -1443  -1471  -1464  -1455  -1448  -1433  -1409  -1375  -1336  -1335  -1438  -1584  -1509  -877  520  2625  5129  7602  9552  10467  9958  8003  5000  1660  -1181  -2911  -3447  -3139  -2458  -1806  -1418  -1279  -1235  -1183  -1103  -1035  -1011  -1016  -1000  -938  -858  -800  -777  -775  -778  -763  -711  -625  -539  -470  -392  -294  -206  -152  -119  -68  21  144  303  478  610  672  687  689  723  829  979  1099  1160  1210  1305  1445  1606  1781  1961  2106  2184  2210  2214  2204  2187  2183  2190  2151  1967  1597  1139  753  519  375  230  58  -119  -288  -424  -502  -520  -501  -467  -421  -360  -306  -281  -281  -301  -361  -457  -541  -578  -581  -583  -602  -635  -674  -713  -737  -725  -659  -526  -351  -203  -130  -120  -148  -207  -281  -334  -358  -366  -374  -382  -403  -445  -498  -535  -551  -558  -564  -558  -529  -487  -453  -439  -433  -428  -437  -487  -586  -705  -793  -817  -779  -698  -626  -604  -615  -619  -614  -612  -604  -555  -446  -304  -185  -115  -74  -35  9  47  60  41  0  -46  -96  -161  -244  -330  -399  -441  -475  -552  -717  -930  -1090  -1149  -1142  -1117  -1106  -1135  -1239  -1429  -1662  -1839  -1814  -1382  -380  1224  3388  5919  8355  10141  10820  10087  7902  4681  1259  -1475  -3001  -3295  -2731  -1891  -1293  -1131  -1266  -1461  -1585  -1626  -1589  -1474  -1320  -1203  -1158  -1158  -1166  -1158  -1121  -1061  -1008  -981  -976  -976  -974  -971  -966  -957  -938  -901  -850  -805  -785  -773  -724  -610  -450  -312  -248  -233  -200  -114  9  137  265  397  521  617  694  799  984  1268  1593  1841  1932  1878  1736  1567  1418  1304  1214  1109  914  543  26  -444  -709  -791  -795  -781  -760  -754  -808  -958  -1157  -1301  -1330  -1256  -1122  -991  -909  -875  -868  -871  -874  -862  -824  -771  -730  -715  -723  -745  -774  -793  -781  -724  -639  -565  -521  -498  -486  -478  -465  -443  -413  -382  -365  -405  -533  -716  -866  -939  -949  -896  -754  -567  -446  -450  -530  -599  -601  -564  -557  -603  -659  -697  -718  -731  -754  -806  -878  -930  -933  -905  -862  -782  -643  -473  -333  -257  -227  -213  -202  -181  -117  15  189  330  390  355  217  14  -160  -254  -295  -322  -346  -385  -459  -559  -654  -728  -781  -814  -831  -847  -883  -946  -1034  -1161  -1312  -1341  -1001  -108  1416  3540  6002  8395  10341  11417  11180  9513  6714  3317  143  -1945  -2717  -2566  -1976  -1363  -983  -837  -812  -828  -850  -852  -799  -661  -478  -335  -271  -255  -259  -297  -365  -412  -392  -324  -251  -201  -170  -139  -88  0  116  221  282  313  347  393  436  459  478  555  743  1009  1255  1413  1482  1495  1496  1517  1584  1724  1927  2146  2338  2490  2599  2661  2681  2668  2614  2498  2339  2159  1913  1549  1147  853  664  436  111  -202  -384  -435  -429  -434  -486  -583  -696  -789  -838  -854  -863  -869  -863  -845  -804  -718  -583  -442  -359  -349  -373  -398  -425  -455  -477  -483  -472  -453  -447  -468  -508  -543  -556  -545  -526  -515  -520  -538  -549  -538  -518  -508  -509  -507  -500  -502  -551  -674  -837  -956  -999  -999  -986  -948  -866  -762  -689  -671  -691  -725  -754  -769  -761  -725  -675  -633  -599  -567  -555  -566  -550  -463  -315  -140  10  78  49  -35  -119  -175  -205  -220  -226  -220  -203  -196  -228  -295  -384  -520  -721  -935  -1093  -1173  -1180  -1142  -1099  -1076  -1089  -1185  -1402  -1653  -1694  -1264  -172  1591  3793  6153  8438  10271  11120  10542  8395  5016  1324  -1507  -2844  -2956  -2497  -1989  -1711  -1664  -1683  -1662  -1587  -1482  -1393  -1351  -1358  -1389  -1415  -1416  -1375  -1278  -1148  -1032  -943  -874  -830  -806  -776  -730  -680  -633  -594  -573  -565  -538  -442  -244  22  260  391  418  397  379  401  489  627  765  890  1036  1218  1410  1566  1664  1738  1829  1935  2033  2113  2174  2212  2200  2062  1743  1304  900  622  407  169  -78  -261  -351  -386  -414  -433  -437  -452  -505  -588  -662  -688  -697  -737  -774  -762  -721  -685  -664  -654  -651  -650  -661  -691  -733  -765  -768  -737  -671  -587  -522  -495  -500  -518  -544  -582  -619  -634  -615  -561  -499  -463  -455  -438  -379  -294  -238  -252  -339  -488  -696  -931  -1102  -1137  -1073  -990  -926  -882  -862  -873  -900  -922  -931  -926  -909  -880  -844  -810  -784  -767  -750  -716  -626  -457  -252  -98  -41  -95  -258  -490  -700  -816  -837  -810  -780  -764  -756  -771  -842  -984  -1155  -1294  -1365  -1389  -1415  -1469  -1525  -1572  -1630  -1691  -1639  -1210  -137  1623  3897  6393  8701  10335  10834  9916  7633  4449  1176  -1340  -2670  -2904  -2435  -1777  -1325  -1125  -1034  -970  -926  -902  -884  -851  -800  -737  -658  -563  -479  -434  -426  -434  -447  -461  -474  -481  -471  -431  -357  -262  -165  -89  -28  37  92  102  76  54  74  173  352  539  652  681  673  679  747  909  1123  1289  1374  1430  1499  1584  1679  1774  1844  1876  1867  1786  1607  1360  1094  819  552  338  185  55  -88  -258  -439  -596  -713  -806  -882  -942  -979  -968  -919  -889  -929  -1045  -1141  -1112  -1011  -945  -933  -941  -935  -893  -816  -748  -738  -776  -804  -801  -797  -830  -910  -1003  -1069  -1102  -1126  -1143  -1135  -1087  -1002  -896  -815  -798  -818  -827  -823  -818  -816  -816  -818  -820  -822  -833  -884  -1001  -1147  -1236  -1244  -1218  -1200  -1190  -1166  -1112  -1043  -998  -994  -1005  -989  -910  -779  -637  -503  -378  -274  -212  -192  -192  -187  -170  -141  -111  -110  -165  -261  -357  -430  -473  -491  -516  -603  -772  -960  -1076  -1101  -1078  -1046  -1028  -1057  -1179  -1390  -1546  -1374  -611  833  2810  4997  7107  8881  9954  9946  8634  6123  3017  246  -1492  -2166  -2175  -1906  -1622  -1396  -1164  -948  -823  -768  -731  -710  -719  -749  -749  -675  -547  -434  -388  -421  -496  -556  -578  -581  -586  -589  -557  -456  -308  -175  -91  -48  -28  -14  29  149  350  569  734  825  861  878  905  943  987  1060  1199  1384  1542  1628  1654  1652  1658  1715  1842  2000  2125  2189  2198  2115  1839  1333  739  249  -66  -240  -336  -418  -505  -572  -614  -656  -717  -794  -870  -933  -979  -1008  -1018  -1023  -1046  -1095  -1144  -1157  -1123  -1062  -1000  -929  -839  -758  -716  -712  -726  -749  -791  -853  -908  -915  -859  -778  -723  -707  -709  -710  -703  -692  -680  -674  -695  -754  -831  -887  -908  -907  -904  -902  -904  -914  -938  -983  -1051  -1128  -1184  -1207  -1212  -1212  -1196  -1139  -1047  -960  -914  -904  -909  -918  -920  -894  -793  -586  -313  -78  51  94  98  89  77  68  64  65  72  78  71  29  -58  -193  -361  -530  -666  -759  -815  -835  -818  -784  -764  -780  -853  -1002  -1177  -1198  -861  -28  1365  3239  5382  7604  9606  10806  10667  9103  6404  3145  200  -1664  -2318  -2145  -1623  -1119  -840  -785  -814  -801  -716  -589  -462  -364  -317  -325  -372  -421  -441  -441  -446  -450  -419  -340  -254  -228  -279  -346  -371  -351  -315  -256  -132  66  271  400  457  512  610  726  815  878  930  970  1001  1048  1156  1366  1647  1887  2016  2068  2116  2207  2337  2444  2447  2348  2220  2106  1989  1810  1527  1181  855  588  378  195  4  -195  -370  -489  -552  -583  -614  -668  -746  -826  -879  -901  -900  -885  -868  -857  -857  -865  -874  -879  -886  -910  -950  -986  -997  -975  -920  -846  -780  -742  -731  -734  -741  -754  -775  -798  -822  -844  -862  -880  -916  -975  -1034  -1056  -1026  -943  -823  -740  -766  -895  -1065  -1205  -1277  -1299  -1303  -1287  -1223  -1103  -972  -890  -871  -899  -972  -1093  -1232  -1329  -1357  -1321  -1231  -1113  -999  -910  -855  -834  -830  -799  -694  -526  -363  -259  -220  -229  -274  -345  -422  -482  -509  -514  -538  -619  -733  -815  -837  -824  -826  -892  -1039  -1207  -1319  -1351  -1328  -1263  -1165  -1069  -1067  -1223  -1353  -1060  -56  1715  4062  6570  8809  10429  11038  10272  8106  4939  1524  -1190  -2575  -2719  -2183  -1533  -1111  -983  -999  -1014  -1004  -983  -953  -915  -876  -837  -802  -766  -720  -666  -623  -598  -585  -580  -577  -561  -521  -463  -399  -344  -306  -275  -226  -146  -49  42  140  256  378  497  615  726  804  838  874  955  1061  1152  1242  1365  1515  1652  1758  1838  1893  1919  1923  1922  1931  1955  1965  1876  1615  1244  915  642  303  -133  -552  -846  -1004  -1077  -1119  -1153  -1178  -1187  -1177  -1149  -1133  -1160  -1231  -1313  -1390  -1453  -1473  -1425  -1322  -1214  -1146  -1123  -1123  -1128  -1139  -1164  -1193  -1198  -1157  -1052  -892  -730  -604  -484  -353  -226  -121  -66  -90  -201  -352  -459  -491  -482  -475  -497  -552  -620  -682  -727  -760  -783  -793  -780  -741  -690  -660  -682  -764  -904  -1065  -1178  -1211  -1190  -1152  -1113  -1079  -1058  -1058  -1067  -1050  -963  -798  -613  -474  -391  -299  -128  93  273  361  374  340  283  226  181  142  93  25  -55  -126  -162  -173  -210  -339  -586  -890  -1134  -1247  -1245  -1174  -1075  -989  -959  -1066  -1365  -1687  -1624  -828  756  2884  5174  7321  9140  10345  10513  9416  7139  4015  790  -1651  -2927  -3115  -2500  -1618  -1001  -777  -758  -792  -877  -1015  -1138  -1197  -1201  -1147  -1021  -859  -736  -686  -682  -690  -689  -666  -628  -613  -630  -623  -557  -476  -436  -425  -382  -290  -177  -45  105  247  375  491  573  601  601  637  752  923  1095  1253  1390  1483  1533  1562  1606  1701  1833  1951  2039  2109  2153  2144  2044  1790  1371  918  608  468  397  315  193  10  -245  -543  -793  -934  -976  -961  -907  -827  -751  -707  -698  -706  -722  -738  -732  -678  -570  -441  -336  -281  -261  -256  -254  -256  -266  -296  -349  -397  -390  -325  -253  -202  -160  -122  -90  -67  -58  -64  -85  -119  -171  -258  -369  -452  -465  -386  -230  -69  4  -33  -125  -194  -216  -220  -238  -271  -296  -292  -257  -208  -168  -133  -83  -26  11  20  14]
