reading_id,reading_time,wire_id,result_classification,heart_rate,heart_rate_alert,firmware_version,device_app_version,hardware_version,waveform_samples
99eaa750-5800-11ed-8080-808080808080,Sun Oct 30 03:11:52 UTC 2022,0101e39b1d39,UNCLASSIFIABLE,101,NONE,20001.171.50,2.10.0,Charge 5,[-200  -529  -812  -962  -912  -705  -443  -208  -45  80  270  591  1028  1587  2327  3176  3903  4371  4632  4775  4843  4846  4805  4756  4704  4647  4616  4689  4926  5269  5576  5777  5916  6035  6120  6145  6131  6114  6113  6137  6196  6291  6390  6457  6483  6470  6396  6237  6011  5737  5351  4760  4052  3467  3111  2879  2661  2464  2343  2307  2315  2346  2407  2485  2506  2390  2148  1870  1644  1514  1460  1453  1481  1540  1620  1707  1783  1811  1727  1501  1220  1028  976  995  997  934  811  691  624  608  613  628  662  699  685  598  500  457  471  516  547  479  245  -74  -271  -221  5  273  500  649  715  736  750  763  770  770  743  620  329  -54  -343  -476  -525  -520  -445  -353  -335  -428  -584  -738  -880  -1028  -1125  -1054  -739  -146  809  2186  3919  5751  7097  7273  5973  3390  208  -2506  -3977  -4191  -3632  -2908  -2466  -2371  -2425  -2405  -2223  -1955  -1737  -1634  -1637  -1715  -1837  -1963  -2065  -2126  -2127  -2052  -1909  -1735  -1598  -1539  -1545  -1563  -1530  -1400  -1204  -1024  -903  -820  -724  -576  -405  -281  -236  -239  -229  -141  35  243  438  657  914  1138  1274  1356  1449  1562  1640  1650  1607  1508  1229  611  -223  -899  -1229  -1341  -1450  -1677  -1970  -2181  -2256  -2252  -2234  -2228  -2228  -2226  -2236  -2266  -2302  -2327  -2337  -2339  -2337  -2334  -2326  -2314  -2297  -2271  -2228  -2175  -2136  -2123  -2124  -2118  -2091  -2058  -2041  -2034  -1987  -1856  -1674  -1546  -1569  -1760  -2027  -2225  -2295  -2274  -2192  -2064  -1937  -1866  -1849  -1841  -1802  -1738  -1658  -1534  -1348  -1163  -1053  -1021  -1032  -1070  -1133  -1207  -1277  -1358  -1457  -1546  -1603  -1651  -1731  -1853  -1999  -2149  -2272  -2332  -2329  -2302  -2258  -2211  -2281  -2569  -2854  -2572  -1312  754  3103  5274  6929  7808  7710  6464  4066  1002  -1721  -3180  -3184  -2264  -1207  -606  -559  -752  -890  -919  -888  -828  -745  -650  -575  -541  -544  -559  -569  -570  -568  -568  -573  -577  -552  -449  -241  45  329  518  593  607  613  623  642  699  826  998  1147  1252  1353  1499  1684  1862  2000  2124  2302  2585  2912  3132  3132  2912  2582  2287  2078  1903  1697  1392  973  547  241  61  -60  -159  -242  -309  -361  -401  -436  -457  -459  -454  -470  -527  -614  -680  -670  -553  -349  -122  75  210  235  106  -151  -417  -574  -601  -539  -425  -290  -160  -55  3  17  11  9  21  43  66  75  47  -36  -152  -228  -215  -115  22  155  285  418  531  619  713  809  870  888  888  889  892  885  843  738  565  374  237  179  171  176  159  82  -76  -270  -410  -460  -443  -358  -136  349  1239  2617  4371  6217  7849  8867  8850  7654  5435  2601  -124  -1986  -2615  -2105  -909  265  873  927  781  669  604  546  503  513  589  664  652  565  496  502  570  642  670  658  637  641  679  740  823  915  990  1051  1117  1180  1222  1268  1387  1597  1827  2002  2102  2158  2248  2455  2757  3028  3185  3261  3286  3258  3204  3177  3158  3015  2611  2002  1430  1058  853  671  373  -46  -439  -649  -671  -612  -572  -619  -786  -1016  -1187  -1244  -1218  -1149  -1068  -1011  -992  -1005  -1044  -1100  -1155  -1194  -1216  -1237  -1277  -1336  -1384  -1373  -1290  -1169  -1060  -994  -981  -997  -1014  -1020  -1018  -1003  -977  -975  -1087  -1381  -1761  -2024  -2057  -1894  -1660  -1490  -1438  -1460  -1486  -1436  -1258  -1004  -823  -832  -1037  -1323  -1545  -1674  -1778  -1885  -1957  -1957  -1899  -1856  -1883  -1967  -2090  -2277  -2519  -2722  -2806  -2741  -2536  -2305  -2242  -2383  -2450  -2030  -898  875  3033  5093  6388  6414  5029  2420  -756  -3464  -4867  -4845  -3903  -2781  -2077  -1917  -2023  -2124  -2146  -2116  -2069  -2031  -2006  -1995  -2001  -2006  -1974  -1887  -1778  -1709  -1697  -1695  -1657  -1592  -1527  -1447  -1311  -1124  -933  -753  -577  -398  -184  75  323  512  651  777  915  1064  1215  1383  1579  1783  1975  2159  2345  2520  2666  2781  2854  2816  2554  2041  1439  957  665  511  412  288  84  -169  -375  -486  -543  -598  -648  -663  -633  -582  -544  -527  -520  -519  -551  -643  -777  -882  -897  -783  -550  -291  -136  -154  -334  -574  -752  -849  -927  -987  -973  -889  -802  -767  -777  -794  -790  -773  -762  -777  -821  -888  -960  -1017  -1052  -1062  -1020  -888  -691  -500  -354  -240  -124  -9  43  -4  -92  -141  -140  -110  -70  -34  -3  19  3  -112  -351  -623  -803  -853  -833  -801  -769  -734  -744  -880  -1119  -1276  -1142  -582  458  2007  4037  6229  7875  8227  6988  4537  1678  -772  -2195  -2437  -1946  -1275  -662  -243  -118  -186  -272  -317  -335  -341  -341  -319  -257  -170  -106  -91  -116  -164  -203  -174  -8  288  587  757  792  761  716  668  616  582  630  832  1167  1508  1742  1841  1849  1821  1791  1797  1907  2159  2475  2723  2863  2918  2895  2800  2673  2548  2427  2288  2110  1901  1665  1347  913  432  31  -197  -268  -269  -278  -342  -467  -611  -729  -802  -837  -849  -856  -855  -835  -796  -749  -711  -688  -681  -678  -675  -671  -674  -699  -751  -822  -903  -990  -1058  -1085  -1066  -1000  -894  -762  -638  -575  -579  -615  -669  -764  -901  -1039  -1129  -1166  -1162  -1126  -1058  -969  -885  -834  -820  -834  -852  -854  -820  -749  -667  -607  -565  -485  -332  -148  -2  64  46  -38  -147  -243  -326  -419  -528  -630  -708  -763  -797  -823  -885  -1029  -1226  -1396  -1537  -1684  -1752  -1651  -1482  -1336  -1001  -73  1611  3781  5909  7347  7529  6343  4169  1582  -789  -2396  -3067  -2997  -2480  -1822  -1311  -1045  -941  -908  -905  -909  -916  -946  -1014  -1079  -1078  -1008  -932  -892  -885  -878  -819  -673  -481  -332  -266  -234  -174  -85  -11  44  132  277  442  595  751  919  1074  1173  1200  1183  1184  1278  1510  1852  2195  2423  2519  2539  2534  2507  2445  2351  2239  2099  1890  1561  1097  593  198  -21  -135  -235  -336  -413  -457  -482  -518  -589  -671  -704  -651  -529  -399  -337  -372  -448  -512  -556  -586  -601  -602  -597  -593  -602  -633  -681  -726  -754  -765  -766  -763  -762  -764  -772  -784  -786  -763  -719  -687  -686  -684  -640  -574  -536  -551  -608  -674  -732  -783  -813  -798  -721  -606  -509  -474  -516  -636  -786  -890  -907  -851  -757  -648  -520  -387  -294  -246  -209  -165  -145  -194  -332  -506  -621  -622  -515  -360  -245  -238  -364  -598  -879  -1161  -1410  -1546  -1550  -1526  -1561  -1634  -1724  -1888  -2133  -2190  -1600  -161  1818  3845  5648  7046  7677  7162  5351  2482  -583  -2684  -3283  -2798  -2052  -1641  -1577  -1496  -1265  -1056  -946  -856  -744  -646  -596  -572  -525  -435  -352  -349  -434  -549  -639  -676  -607  -388  -84  153  262  302  343  401  456  503  578  713  876  999  1054  1065  1084  1185  1420  1750  2049  2220  2283  2334  2440  2592  2735  2819  2824  2738  2524  2183  1803  1479  1233  1017  752  419  95  -128  -227  -213  -95  96  277  351  280  112  -54  -147  -164  -145  -132  -172  -289  -410  -418  -307  -181  -107  -67  -35  -11  -48  -205  -440  -630  -718  -743  -751  -759  -772  -782  -750  -630  -440  -265  -170  -150  -167  -199  -243  -299  -357  -405  -435  -450  -458  -464  -478  -513  -557  -586  -587  -582  -619  -728  -868  -936  -877  -741  -613  -525  -487  -510  -559  -565  -515  -448  -399  -361  -304  -230  -207  -325  -600  -908  -1108  -1217  -1356  -1541  -1662  -1654  -1576  -1497  -1384  -1173  -956  -915  -991  -753  321  2433  5168  7653  9099  9126  7693  5033  1737  -1279  -3192  -3687  -2997  -1819  -992  -777  -785  -714  -614  -578  -608  -666  -717  -735  -684  -530  -324  -174  -127  -141  -166  -163  -96  48  222  359  447  519  584  644  716  780  803  790  779  824  964  1157  1313  1427  1573  1777  1978  2108  2155  2165  2201  2307  2475  2665  2833  2923  2875  2668  2335  1939  1484  933  354  -83  -301  -358  -358  -373  -445  -593  -811  -1032  -1139  -1068  -872  -656  -491  -408  -421  -522  -651  -722  -720  -713  -740  -775  -790  -788  -782  -783  -802  -831  -826  -737  -571  -437  -452  -589  -708  -718  -632  -544  -553  -654  -755  -799  -801  -800  -844  -957  -1070  -1054  -899  -746  -716  -815  -951  -998  -871  -595  -348  -340  -538  -687  -641  -518  -476  -508  -506  -417  -278  -148  -35  67  142  167  119  -19  -216  -430  -693  -1017  -1313  -1507  -1613  -1657  -1626  -1495  -1285  -1102  -1054  -1130  -1181  -926  -32  1615  3759  5930  7611  8279  7487  5155  1790  -1557  -3739  -4260  -3509  -2315  -1460  -1272  -1498  -1719  -1752  -1625  -1446  -1320  -1275  -1282  -1321  -1396  -1480  -1518  -1487  -1412  -1301  -1121  -877  -649  -481  -351  -249  -195  -185  -195  -208  -219  -209  -141  8  221  426  549  601  671  820  1046  1318  1593  1826  2021  2227  2430  2544  2512  2349  2137  1969  1860  1748  1575  1311  936  501  140  -82  -238  -422  -653  -894  -1102  -1259  -1378  -1469  -1529  -1553  -1526  -1435  -1301  -1180  -1101  -1053  -1024  -1010  -1007  -1004  -992  -976  -985  -1048  -1163  -1290  -1383  -1419  -1417  -1408  -1393  -1356  -1288  -1198  -1100  -1021  -989  -1001  -1014  -968  -845  -718  -675  -741  -862  -977  -1082  -1189  -1283  -1326  -1252  -995  -621  -318  -190  -170  -132  -14  156  312  388  348  234  138  103  98  86  68  62  70  39  -102  -365  -657  -864  -942  -920  -847  -772  -733  -758  -886  -1053  -1030  -528  667  2491  4512  6316  7656  8196  7557  5640  2762  -344  -2660  -3477  -2973  -1910  -959  -423  -261  -250  -231  -169  -75  36  119  143  138  156  210  296  403  504  576  625  667  696  709  716  723  727  725  729  770  873  1005  1109  1181  1273  1399  1562  1788  2040  2225  2357  2556  2826  3053  3190  3280  3335  3324  3209  3001  2789  2671  2666  2678  2500  1971  1244  681  419  289  120  -99  -303  -458  -581  -680  -742  -764  -759  -751  -765  -802  -850  -903  -959  -1006  -1036  -1055  -1073  -1091  -1091  -1012  -794  -498  -285  -263  -410  -618  -763  -805  -797  -795  -820  -852  -867  -866  -860  -846  -811  -763  -724  -697  -647  -530  -370  -254  -264  -413  -628  -797  -855  -780  -547  -195  139  335  380  319  195  66  -16  -56  -98  -157  -245  -420  -714  -1026  -1220  -1271  -1240  -1171  -1091  -1042  -1082  -1242  -1450  -1557  -1471  -1083  -121  1554  3646  5612  6843  6869  5648  3476  810  -1651  -3200  -3597  -3092  -2132  -1229  -755  -692  -776  -830  -842  -831  -789  -723  -658  -610  -579  -541  -468  -371  -286  -222  -169  -135  -121  -100  -44  49  149  236  336  473  645  846  1050  1196  1255  1267  1314  1450  1655  1848  1983  2099  2251  2447  2631  2761  2863  2966  3040  3024  2888  2681  2498  2325  2021  1542  1019  553  141  -203  -448  -600  -685  -719  -722  -718  -737  -805  -902  -971  -975  -915  -828  -768  -760  -797  -855  -927  -1029  -1153  -1244  -1248  -1142  -953  -769  -694  -792  -1055  -1366  -1581  -1661  -1653  -1572  -1398  -1174  -1000  -939  -998  -1160  -1359  -1491  -1491  -1368  -1193  -1048  -952  -885  -846  -821  -764  -625  -404  -197  -131  -214  -327  -389  -420  -483  -625  -829  -1039  -1214  -1357  -1477  -1553  -1580  -1574  -1541  -1482  -1439  -1465  -1543  -1618  -1571  -1160  -199  1253  2999  4689  5817  6014  5180  3377  893  -1664  -3520  -4118  -3456  -2096  -834  -182  -151  -439  -721  -857  -867  -815  -784  -828  -922  -1003  -1045  -1055  -1001  -834  -575  -315  -119  3  58  65  51  43  73  162  283  373  406  402  398  433  547  761  1051  1360  1623  1787  1874  1998  2234  2531  2768  2875  2837  2642  2319  1979  1713  1519  1338  1115  832  524  217  -96  -403  -663  -855  -985  -1067  -1103  -1093  -1053  -1029  -1060  -1152  -1285  -1422  -1502  -1466  -1295  -1063  -896  -840  -850  -873  -889  -884  -832  -725  -600  -517  -520  -592  -664  -703  -727  -758  -804  -867  -932  -963  -938  -880  -852  -885  -920  -884  -780  -639  -450  -228  -36  112  237  318  338  314  231  50  -185  -362  -440  -467  -486  -503  -511  -532  -608  -764  -979  -1190  -1330  -1384  -1376  -1313  -1184  -1041  -1024  -1147  -1094  -518  713  2572  4730  6522  7321  6763  4848  2078  -695  -2692  -3521  -3237  -2278  -1307  -794  -719  -801  -844  -817  -775  -749  -724  -691  -657  -623  -589  -561  -542  -529  -525  -534  -558  -561  -494  -348  -178  -57  -15  -14  25  176  422  647  758  789  852  1012  1221  1381  1451  1480  1572  1797  2088  2296  2366  2361  2343  2328  2305  2265  2210  2117  1914  1550  1074  579  143  -160  -302  -339  -364  -438  -571  -734  -886  -1000  -1076  -1127  -1157  -1165  -1162  -1158  -1157  -1160  -1171  -1179  -1150  -1046  -885  -738  -654  -634  -685  -835  -1050  -1229  -1305  -1279  -1178  -1051  -963  -933  -938  -954  -978  -1000  -1002  -979  -931  -852  -750  -659  -600  -572  -558  -537  -497  -424  -315  -193  -91  -32  -13  -14  -13  -2  3  -45  -192  -395  -545  -595  -587  -569  -562  -573  -603  -643  -676  -684  -655  -589  -547  -649  -956  -1247  -1078  -167  1490  3709  6054  7855  8448  7450  4940  1563  -1538  -3292  -3416  -2491  -1366  -615  -375  -453  -600  -705  -755  -760  -729  -653  -521  -360  -209  -105  -106  -247  -456  -598  -609  -528  -410  -275  -146  -54  5  72  177  302  413  513  640  841  1121  1392  1554  1602  1599  1594  1603  1653  1780  1992  2230  2430  2584  2716  2832  2924  2978  2942  2727  2292  1691  1048  516  169  -50  -222  -355  -448  -523  -597  -667  -736  -797  -835  -847  -843  -837  -833  -837  -856  -888  -925  -963  -1003  -1023  -993  -892  -738  -584  -480  -442  -473  -575  -713  -809  -806  -702  -557  -450  -414  -436  -498  -576  -642  -685  -701  -678  -627  -585  -575  -586  -594  -555  -442  -281  -135  -38  10  22  0  -61  -141  -203  -232  -244  -263  -295  -341  -397  -472  -580  -723  -858  -947  -1006  -1067  -1117  -1107  -1001  -838  -792  -979  -1232  -1264  -904  -49  1374  3287  5369  7089  7851  7220  5146  2136  -848  -2833  -3389  -2812  -1786  -964  -674  -796  -996  -1092  -1094  -1054  -988  -914  -850  -794  -728  -658  -617  -613  -621  -616  -585  -535  -490  -459  -420  -328  -164  20  144  187  201  244  338  486  683  893  1052  1141  1190  1247  1375  1592  1829  1995  2067  2089  2100  2118  2132  2106  2014  1871  1686  1427  1090  762  540  423  296  13  -440  -883  -1132  -1183  -1148  -1105  -1066  -1025  -999  -1054  -1264  -1591  -1875  -1999  -1985  -1923  -1861  -1763  -1576  -1325  -1097  -955  -899  -891  -897  -917  -975  -1073  -1180  -1254  -1274  -1234  -1139  -1040  -1004  -1050  -1135  -1184  -1157  -1097  -1043  -982  -910  -857  -838  -830  -802  -744  -630  -420  -156  47  154  218  274  311  315  289  250  224  221  229  225  176  60  -90  -209  -266  -278  -273  -271  -277  -292  -327  -431  -626  -796  -749  -436  108  955  2149  3632  5339  7025  8055  7775  6052  3333  418  -1778  -2755  -2697  -2060  -1280  -746  -565  -543  -529  -516  -516  -507  -461  -376  -291  -233  -172  -61  85  212  297  350  377  383  391  418  457  484  493  502  540  628  744  841  931  1077  1297  1515  1644  1673  1656  1653  1706  1852  2128  2491  2803  2958  2988  2975  2954  2909  2814  2632  2286  1731  1089  571  258  88  -45  -234  -464  -639  -714  -737  -771  -828  -882  -927  -977  -1028  -1052  -1024  -948  -901  -949  -1051  -1142  -1206  -1246  -1258  -1226  -1137  -1017  -931  -903  -912  -931  -949  -961  -961  -940  -899  -851  -820  -816  -825  -835  -855  -904  -990  -1092  -1152  -1131  -1073  -1041  -1043  -1054  -1038  -950  -752  -476  -221  -63  0  -3  -60  -161  -290  -436  -607  -797  -961  -1070  -1163  -1266  -1359  -1414  -1435  -1450  -1487  -1542  -1593  -1638  -1694  -1732  -1648  -1391  -1015  -488  375  1763  3707  5822  7290  7391  5939  3213  -68  -2798  -4082  -3818  -2565  -1142  -252  -113  -420  -745  -909  -969  -995  -983  -902  -775  -651  -532  -391  -229  -75  19  25  -6  14  114  229  308  362  416  465  501  521  533  564  647  769  895  1038  1253  1568  1923  2192  2330  2411  2492  2556  2579  2577  2572  2572  2574  2567  2526  2414  2208  1933  1654  1407  1153  845  505  187  -55  -198  -275  -361  -485  -593  -624  -586  -531  -496  -480  -462  -437  -417  -421  -451  -493  -532  -579  -655  -753  -834  -878  -884  -838  -719  -553  -409  -340  -351  -407  -467  -506  -528  -565  -668  -843  -1034  -1160  -1164  -1068  -951  -867  -819  -799  -819  -894  -993  -1036  -962  -791  -607  -473  -392  -345  -327  -357  -449  -575  -666  -680  -624  -534  -463  -471  -619  -909  -1238  -1491  -1637  -1698  -1690  -1620  -1489  -1344  -1288  -1366  -1469  -1343  -659  729  2622  4653  6427  7448  7226  5585  2762  -561  -3269  -4399  -3909  -2571  -1284  -565  -403  -478  -544  -567  -597  -637  -697  -814  -970  -1083  -1099  -1028  -927  -858  -844  -868  -889  -832  -625  -314  -52  66  85  91  138  245  386  513  601  677  759  825  866  918  1016  1156  1319  1487  1626  1725  1837  2022  2242  2396  2458  2458  2365  2086  1616  1097  685  436  299  171  -37  -353  -715  -1008  -1153  -1179  -1162  -1148  -1135  -1110  -1079  -1067  -1086  -1114  -1115  -1078  -1031  -1010  -1011  -992  -933  -856  -791  -764  -820  -973  -1156  -1265  -1262  -1172  -1008  -816  -680  -640  -663  -710  -760  -801  -818  -814  -825  -892  -980  -1001  -931  -831  -760  -742  -755  -730  -631  -498  -374  -266  -187  -142  -120  -109  -109  -119  -127  -115  -80  -51  -45  -50  -58  -77  -137  -268  -470  -702  -906  -1042  -1106  -1115  -1092  -1090  -1174  -1280  -1169  -572  595  2163  3904  5608  6897  7349  6713  4853  1962  -1052  -2987  -3353  -2588  -1432  -517  -158  -238  -461  -646  -740  -755  -733  -702  -655  -570  -441  -289  -152  -52  16  88  178  263  319  353  366  327  203  29  -105  -137  -48  158  438  702  887  1008  1119  1277  1514  1775  1959  2047  2105  2188  2293  2405  2510  2570  2504  2240  1847  1520  1370  1336  1288  1094  689  173  -255  -510  -639  -697  -706  -687  -678  -713  -792  -881  -962  -1044  -1151  -1284  -1415  -1500  -1504  -1433  -1337  -1238  -1112  -979  -888  -848  -845  -852  -854  -862  -883  -914  -970  -1076  -1204  -1291  -1322  -1326  -1323  -1300  -1221  -1076  -918  -830  -841  -906  -975  -1047  -1130  -1189  -1188  -1144  -1093  -1039  -984  -944  -911  -850  -745  -629  -556  -543  -569  -608  -654  -716  -787  -841  -876  -919  -999  -1117  -1250  -1372  -1468  -1543  -1626  -1729  -1829  -1912  -2011  -2132  -2179  -2022  -1551  -592  1018  3168  5350  6863  7212  6308  4412  1982  -506  -2571  -3745  -3839  -3054  -1844  -764  -229  -227  -415  -540  -587  -617  -622  -576  -514  -506  -581  -670  -686  -641  -608  -609  -612  -562  -397  -110  238  544  721  767  756  750  758  782  845  973  1157  1359  1535  1674  1812  1978  2156  2342  2554  2780  2978  3142  3285  3390  3440  3460  3458  3344  2981  2410  1886  1579  1418  1253  1021  770  587  494  432  353  270  212  177  158  165  205  253  276  267  252  248  248  228  176  115  83  79  75  74  119  255  443  595  678  718  731  714  683  665  671  679  636  499  310  183  188  284  359  367  395  498  614  682  706  715  734  765  794  809  819  842  881  903  882  839  804  781  770  774  773  714  551  319  137  64  71  111  158  193  194  126  -53  -370  -756  -972  -653  494  2448  4827  7084  8660  9074  8136  6009  3044  -114  -2478  -3353  -2861  -1623  -415  114  -35  -347  -483  -468  -394  -288  -160  -62  -66  -159  -250  -290  -295  -293  -278  -231  -154  -73  -12  25  67  139  239  331  380  387  384  408  472  566  712  963  1288  1562  1718  1808  1913  2061  2210  2315  2371  2385  2356  2291  2210  2132  2023  1813  1491  1137  820  551  327  103  -180  -495  -733  -856  -921  -972  -1014  -1076  -1196  -1352  -1466  -1508  -1505  -1484  -1438  -1365  -1292  -1255  -1264  -1295  -1320  -1330  -1334  -1335  -1330  -1314  -1305  -1361  -1537  -1784  -1962  -1976  -1833  -1625  -1482  -1491  -1660  -1901  -2085  -2160  -2164  -2151  -2146  -2148  -2153  -2162  -2175  -2159  -2059  -1840  -1521  -1185  -945  -864  -946  -1167  -1449  -1662  -1735  -1688  -1583  -1484  -1428  -1436  -1540  -1749  -1999  -2195  -2292  -2314  -2302  -2292  -2315  -2381  -2454  -2470  -2443  -2389  -2072  -1126  477  2452  4433  5855  6042  4735  2253  -785  -3567  -5283  -5622  -4890  -3656  -2499  -1843  -1724  -1843  -1948  -1997  -2022  -2021  -1956  -1795  -1579  -1405  -1324  -1284  -1202  -1066  -939  -878  -877  -902  -935  -973  -995  -939  -746  -465  -235  -120  -68  -32  5  124  419  820  1145  1363  1575  1790  1924  1961  1978  2054  2211  2398  2531  2554  2460  2286  2081  1883  1706  1545  1391  1233  1012  661  224  -136  -330  -396  -423  -482  -579  -668  -709  -714  -710  -707  -703  -694  -683  -674  -655  -610  -543  -480  -438  -403  -355  -295  -246  -241  -302  -428  -583  -714  -783  -798  -791  -781  -770  -757  -748  -751  -768  -775  -711  -535  -319  -207  -234  -304  -340  -341  -333  -340  -371  -414  -446  -465  -486  -514  -535  -537  -529  -530  -574  -685  -849  -1013  -1127  -1190  -1224  -1236  -1228  -1226  -1280  -1419  -1562  -1563  -1355  -973  -337  782  2442  4415  6346  7693  7841  6576  4217  1387  -1081  -2423  -2474  -1753  -931  -378  -137  -85  -91  -130  -254  -477  -712  -856  -899  -871  -761  -544  -277  -75  10  7  -37  -70  -54  0  62  107  131  142  152  165  192  277  465  708  881  934  948  1062  1372  1790  2095  2199  2192  2171  2163  2167  2194  2249  2303  2320  2307  2271  2137  1810  1368  1024  851  727  546  294  -11  -302  -487  -562  -586  -585  -552  -500  -472  -492  -529  -538  -521  -502  -492  -492  -521  -590  -662  -685  -660  -636  -640  -653  -650  -620  -560  -485  -419  -365  -318  -288  -293  -342  -428  -555  -732  -884  -872  -679  -448  -301  -253  -253  -244  -207  -153  -102  -73  -81  -149  -297  -488  -622  -627  -509  -339  -209  -152  -160  -249  -447  -722  -983  -1164  -1263  -1309  -1319  -1285  -1199  -1119  -1155  -1326  -1443  -1142  -98  1725  4017  6194  7579  7662  6296  3746  702  -1909  -3372  -3539  -2795  -1767  -1002  -701  -708  -777  -792  -752  -696  -659  -653  -662  -669  -681  -719  -778  -826  -820  -751  -651  -573  -531  -491  -411  -282  -137  -21  40  78  148  251  331  353  338  338  407  550  709  838  988  1238  1556  1832  2025  2192  2351  2394  2221  1900  1618  1470  1388  1263  1032  670  216  -194  -445  -539  -552  -535  -528  -604  -828  -1136  -1368  -1446  -1409  -1310  -1194  -1116  -1094  -1105  -1121  -1122  -1077  -957  -779  -605  -480  -413  -385  -382  -415  -512  -661  -788  -826  -762  -606  -382  -170  -73  -135  -295  -406  -388  -315  -278  -287  -319  -355  -384  -406  -425  -403  -249  99  553  900  1024  964  798  590  400  265  185  128  42  -95  -255  -411  -567  -710  -787  -762  -703  -675  -646  -631  -697  -802  -833  -613  213  1907  4273  6722  8435  8626  7034  4073  657  -2063  -3285  -3043  -1999  -963  -463  -494  -739  -943  -1031  -1035  -1003  -956  -892  -816  -750  -708  -669  -589  -457  -315  -215  -166  -148  -116  -33  91  203  256  259  247  259  321  420  521  639  833  1078  1267  1361  1421  1510  1637  1768  1885  2018  2184  2351  2480  2544  2533  2446  2267  1988  1639  1294  1017  795  552  280  44  -145  -349  -579  -771  -871  -891  -881  -872  -865  -850  -827  -809  -806  -810  -806  -782  -751  -740  -757  -781  -797  -795  -786  -816  -861  -829  -709  -584  -534  -589  -717  -825  -861  -854  -846  -852  -854  -812  -701  -580  -558  -658  -781  -799  -658  -434  -228  -62  76  162  182  159  125  101  96  99  86  22  -149  -450  -788  -1021  -1111  -1122  -1099  -1033  -935  -860  -880  -1023  -1201  -1308  -1425  -1646  -1709  -1128  389  2767  5501  7666  8329  7159  4590  1490  -1255  -2990  -3503  -3116  -2407  -1847  -1615  -1604  -1618  -1561  -1460  -1374  -1313  -1225  -1072  -879  -721  -638  -597  -563  -535  -523  -536  -581  -645  -684  -641  -475  -196  112  348  471  531  591  686  828  986  1099  1148  1180  1250  1374  1536  1712  1893  2070  2211  2293  2359  2477  2625  2682  2552  2273  1956  1662  1361  995  602  312  175  110  32  -93  -283  -515  -738  -916  -1026  -1050  -971  -820  -697  -664  -684  -705  -731  -785  -860  -920  -943  -937  -920  -901  -892  -903  -893  -821  -731  -684  -673  -661  -637  -617  -619  -646  -688  -732  -783  -842  -881  -849  -714  -518  -333  -165  12  174  253  236  164  79  0  -51  -65  -54  -31  -18  -58  -191  -395  -602  -788  -942  -1035  -1055  -1027  -968  -874  -753  -671  -705  -859  -1000  -829  -38  1414  3309  5303  6904  7533  6793  4655  1577  -1528  -3664  -4322  -3751  -2631  -1553  -823  -491  -421  -449  -503  -592  -701  -780  -810  -810  -799  -765  -694  -599  -517  -473  -456  -448  -429  -366  -216  27  297  487  563  573  572  585  616  640  637  627  639  673  724  826  1027  1356  1772  2149  2377  2471  2505  2510  2476  2403  2302  2135  1825  1393  958  585  253  -35  -243  -363  -421  -454  -518  -668  -879  -1057  -1139  -1134  -1077  -997  -928  -910  -960  -1035  -1055  -1002  -923  -861  -825  -807  -804  -811  -817  -815  -806  -791  -772  -760  -782  -860  -974  -1054  -1029  -870  -636  -427  -284  -193  -151  -163  -218  -276  -302  -302  -294  -259  -169  -45  48  79  61  1  -96  -205  -273  -287  -294  -367  -566  -868  -1148  -1296  -1323  -1297  -1254  -1195  -1133  -1072  -1003  -885  -591  20  1043  2538  4322  5839  6452  5788  3889  1251  -1334  -3130  -3775  -3370  -2410  -1525  -1058  -920  -896  -889  -880  -864  -837  -793  -727  -656  -619  -625  -632  -564  -366  -94  114  191  164  75  -32  -103  -92  4  135  226  262  306  426  614  820  1042  1324  1658  1956  2149  2262  2343  2399  2422  2417  2410  2425  2458  2469  2432  2366  2314  2264  2116  1777  1311  902  652  496  321  97  -124  -285  -373  -407  -410  -402  -393  -386  -381  -384  -402  -431  -454  -462  -463  -474  -511  -574  -650  -719  -724  -629  -492  -406  -407  -469  -533  -558  -564  -587  -609  -583  -510  -436  -401  -406  -418  -384  -262  -81  67  122  102  65  42  26  0  -23  -7  59  141  180  154  81  -40  -255  -593  -987  -1308  -1463  -1423  -1201  -894  -678  -681  -875  -1073  -947  -203  1169  2903  4628  5889  6215  5378  3521  1115  -1162  -2712  -3284  -2996  -2193  -1316  -730  -518  -504  -517  -512  -497  -484  -482  -482  -477  -463  -450  -446  -440  -412  -367  -324  -290  -268  -243  -185  -82  33  118  172  252  387  534  630  685  759  897  1082  1253  1362  1419  1471  1539  1600  1641  1690  1768  1863  1947  1996  2002  1947  1800  1550  1208  799  396  102  -55  -145  -221  -303  -404  -517  -603  -633  -614  -574  -543  -540  -572  -634  -704  -763  -802  -818  -815  -799  -789  -798  -827  -872  -926  -972  -989  -964  -902  -823  -773  -779  -815  -840  -848  -847  -832  -791  -731  -662  -576  -470  -372  -303  -258  -223  -188  -139  -74  -22  -10  -26  -35  -23  -10  -63  -286  -712  -1194  -1521  -1630  -1595  -1494  -1375  -1286  -1264  -1353  -1564  -1788  -1842  -1627  -1153  -460  459  1687  3287  5058  6410  6685  5564  3188  250  -2147  -3216  -3033  -2254  -1482  -985  -773  -764  -836  -913  -1009  -1146  -1297  -1395  -1367  -1168  -844  -521  -339  -362  -515  -607  -520  -307  -102  12  35  3  -33  -47  -40  -5  90  254  447  609  691  716  778  941  1175  1411  1588  1684  1746  1850  2000  2124  2187  2215  2242  2273  2259  2097  1732  1283  931  715  534  314  82  -94  -206  -290  -353  -384  -382  -359  -324  -288  -257  -230  -203  -175  -146  -96  0  135  254  322  326  248  93  -81  -202  -246  -247  -244  -243  -224  -160  -63  8  -1  -101  -238  -347  -416  -469  -510  -526  -520  -502  -482  -461  -445  -435  -406  -298  -58  257  506  600  522  271  -87  -403  -586  -689  -784  -887  -987  -1079  -1163  -1248  -1331  -1389  -1410  -1377  -1270  -1155  -1230  -1568  -1911  -1869  -1189  165  2055  4170  5989  6939  6633  4973  2224  -822  -3095  -3942  -3499  -2431  -1477  -1039  -1031  -1156  -1230  -1241  -1226  -1200  -1142  -1045  -949  -920  -981  -1085  -1163  -1196  -1201  -1172  -1077  -913  -734  -592  -516  -521  -548  -472  -267  -35  131  217  251  263  263  250  249  316  496  753  1008  1218  1390  1545  1685  1779  1803  1779  1738  1680  1595  1500  1400  1211  845  381  -12  -298  -514  -657  -730  -778  -821  -845  -824  -737  -605  -478  -376  -296  -255  -288  -414  -586  -709  -742  -710  -662  -630  -628  -657  -707  -758  -792  -808  -805  -768  -684  -571  -479  -447  -474  -524  -553  -540  -494  -440  -394  -367  -372  -420  -501  -580  -622  -627  -618  -622  -657  -723  -795  -828  -747  -490  -127  162  284  293  262  209  120  -15  -196  -385  -534  -661  -815  -984  -1105  -1136  -1088  -1014  -955  -895  -838  -866  -1036  -1227  -1181  -671  393  1925  3722  5566  7121  7829  7196  5168  2194  -842  -2910  -3542  -3131  -2321  -1527  -964  -687  -615  -658  -772  -912  -1005  -992  -865  -685  -538  -438  -344  -249  -173  -108  -26  105  323  588  785  852  801  653  471  382  489  791  1186  1537  1741  1799  1782  1748  1725  1763  1927  2216  2542  2806  2969  3036  3024  2953  2857  2766  2689  2611  2516  2399  2213  1895  1488  1130  875  669  480  300  109  -75  -192  -223  -225  -261  -345  -442  -517  -566  -613  -679  -742  -743  -660  -531  -405  -307  -221  -133  -60  -15  0  -18  -63  -132  -216  -319  -464  -667  -899  -1107  -1250  -1347  -1464  -1605  -1711  -1751  -1770  -1828  -1929  -2014  -2025  -1964  -1886  -1844  -1839  -1824  -1770  -1708  -1674  -1616  -1409  -1020  -604  -364  -376  -587  -844  -977  -951  -880  -880  -986  -1144  -1259  -1298  -1293  -1279  -1267  -1257  -1270  -1341  -1480  -1630  -1695  -1612  -1402  -1105  -620  269  1699  3611  5702  7373  7898  6773  4071  582  -2510  -4281  -4490  -3618  -2473  -1611  -1172  -1073  -1137  -1204  -1231  -1228  -1190  -1097  -974  -877  -827  -807  -804  -807  -788  -701  -541  -369  -252  -200  -182  -153  -85  0  94  214  337  415  447  471  505  558  634  731  841  977  1144  1325  1522  1730  1915  2059  2174  2263  2322  2337  2256  2006  1614  1200  822  494  274  174  73  -171  -548  -885  -1058  -1098  -1103  -1140  -1210  -1287  -1367  -1447  -1500  -1503  -1463  -1410  -1367  -1311  -1196  -1030  -884  -807  -788  -783  -749  -675  -596  -552  -547  -566  -594  -625  -652  -668  -663  -627  -560  -477  -397  -333  -294  -274  -258  -241  -229  -241  -280  -302  -278  -239  -230  -241  -227  -152  -30  91  187  265  338  395  423  420  403  395  402  401  366  282  165  62  9  -18  -82  -204  -358  -515  -663  -805  -926  -963  -905  -804  -545  108  1282  3019  5219  7355  8602  8307  6367  3310  66  -2368  -3385  -3113  -2161  -1130  -429  -205  -321  -501  -576  -542  -464  -388  -319  -242  -165  -114  -100  -109  -124  -135  -127  -83  -4  86  191  342  519  650  699  695  677  662  665  724  873  1083  1267  1392  1511  1670  1828  1915  1961  2053  2180  2270  2307  2351  2451  2565  2593  2516  2385  2199  1874  1353  728  204  -103  -248  -325  -364  -365  -351  -373  -483  -672  -826  -849  -789  -740  -725  -726  -738  -770  -825  -892  -961  -1032  -1088  -1088  -1037  -980  -947  -928  -904  -878  -859  -854  -858  -868  -873  -848  -772  -669  -593  -565  -560  -555  -568  -656  -839  -1036  -1133  -1119  -1076  -1053  -1015  -905  -722  -520  -348  -232  -174  -146  -122  -98  -75  -56  -44  -39  -51  -114  -238  -400  -566  -709  -809  -861  -896  -967  -1080  -1194  -1287  -1383  -1526  -1680  -1687  -1439  -940  -105  1204  2917  4822  6605  7684  7496  5927  3295  284  -2139  -3308  -3299  -2612  -1748  -1070  -680  -488  -411  -425  -516  -644  -748  -792  -789  -761  -722  -685  -660  -643  -606  -534  -446  -370  -318  -288  -254  -185  -59  121  319  471  541  547  531  535  599  750  958  1140  1249  1304  1343  1406  1529  1707  1885  2036  2191  2385  2592  2719  2643  2281  1733  1267  1032  911  690  303  -113  -416  -601  -694  -675  -572  -490  -500  -584  -699  -823  -943  -1017  -1007  -905  -761  -656  -645  -738  -899  -1049  -1131  -1150  -1143  -1122  -1072  -986  -909  -896  -941  -985  -999  -996  -1003  -1037  -1086  -1112  -1087  -1014  -928  -870  -842  -797  -741  -744  -816  -886  -902  -876  -834  -766  -624  -385  -106  123  243  239  131  -35  -181  -253  -261  -241  -219  -225  -311  -505  -746  -932  -1020  -1041  -1043  -1052  -1055  -1025  -1018  -1135  -1294  -1204  -566  796  2801  5027  6925  8016  7840  6135  3235  16  -2520  -3673  -3360  -2143  -861  -176  -242  -695  -1061  -1159  -1062  -885  -682  -463  -270  -160  -134  -146  -157  -155  -139  -121  -110  -102  -70  6  117  234  335  411  455  475  498  560  671  804  912  971  996  1025  1099  1244  1449  1698  2000  2302  2496  2553  2535  2498  2452  2378  2231  1974  1651  1365  1149  959  755  520  221  -128  -434  -616  -682  -689  -672  -654  -655  -677  -701  -714  -736  -793  -875  -943  -971  -969  -955  -925  -859  -774  -727  -761  -861  -984  -1087  -1150  -1167  -1128  -1018  -866  -748  -712  -749  -837  -950  -1067  -1188  -1302  -1360  -1338  -1266  -1198  -1167  -1160  -1109  -946  -687  -427  -241  -135  -110  -186  -357  -552  -680  -718  -705  -677  -647  -613  -593  -630  -777  -1019  -1252  -1381  -1409  -1391  -1393  -1500  -1773  -2129  -2331  -2164  -1600  -725  469  2085  4095  6132  7433  7193  5191  1998  -1242  -3340  -3827  -3141  -2103  -1402  -1241  -1364  -1471  -1485  -1461  -1427  -1365  -1268  -1166  -1088  -1028  -982  -983  -1068  -1204  -1311  -1355  -1360  -1316  -1151  -829  -456  -187  -75  -53  -53  -48  -32  -1  50  128  209  270  319  384  487  647  870  1138  1413  1656  1833  1928  1954  1933  1877  1801  1724  1638  1492  1194  687  88  -370  -613  -745  -852  -929  -962  -971  -970  -943  -868  -764  -679  -633  -588  -493  -361  -268  -281  -413  -597  -736  -790  -776  -712  -618  -528  -448  -360  -248  -129  -48  -20  -18  -23  -47  -108  -187  -239  -255  -278  -353  -465  -552  -576  -531  -422  -257  -41  208  428  554  583  567  549  544  539  505  425  325  248  184  82  -66  -227  -388  -535  -631  -668  -675  -671  -648  -590  -509  -469  -523  -548  -199  848  2634  4836  6854  7974  7597  5526  2226  -1217  -3617  -4382  -3790  -2626  -1600  -1033  -872  -900  -958  -1000  -1025  -1015  -937  -779  -578  -396  -269  -199  -184  -218  -255  -206  -13  259  467  540  513  433  339  270  241  251  320  481  743  1045  1275  1385  1446  1571  1807  2089  2310  2436  2519  2598  2665  2703  2717  2722  2704  2618  2429  2184  1965  1756  1474  1135  841  636  488  377  281  160  13  -121  -228  -314  -382  -422  -448  -489  -542  -561  -495  -349  -180  -40  54  103  119  113  79  1  -106  -194  -224  -202  -165  -152  -162  -158  -119  -75  -55  -59  -65  -55  -18  34  81  125  205  345  521  675  771  824  872  934  1001  1041  1007  854  581  268  33  -90  -144  -170  -182  -187  -189  -188  -182  -169  -165  -192  -227  -187  38  601  1665  3236  5067  6719  7633  7362  5839  3342  465  -1937  -3201  -3250  -2429  -1205  -94  512  616  519  450  440  450  458  450  423  383  343  318  311  322  340  358  398  523  784  1108  1332  1361  1221  1013  872  917  1183  1562  1867  2020  2083  2133  2192  2244  2289  2365  2502  2677  2860  3033  3164  3228  3243  3247  3249  3205  3064  2831  2575  2344  2091  1726  1275  880  592  283  -204  -829  -1338  -1569  -1597  -1563  -1530  -1495  -1450  -1407  -1382  -1369  -1361  -1366  -1417  -1538  -1697  -1837  -1955  -2087  -2221  -2304  -2302  -2227  -2127  -2059  -2039  -2029  -1992  -1936  -1893  -1876  -1874  -1877  -1895  -1944  -2029  -2126  -2188  -2172  -2056  -1874  -1702  -1586  -1533  -1546  -1609  -1670  -1691  -1666  -1628  -1625  -1710  -1950  -2344  -2763  -3064  -3212  -3262  -3261  -3189  -2981  -2646  -2375  -2431  -2863  -3389  -3477  -2641  -815  1590  3917  5393  5371  3693  848  -2228  -4579  -5682  -5609  -4824  -3886  -3128  -2596  -2299  -2268  -2446  -2694  -2866  -2891  -2780  -2596  -2435  -2369  -2398  -2468  -2514  -2488  -2362  -2144  -1893  -1683  -1553  -1483  -1446  -1422  -1404  -1389  -1380  -1370  -1329  -1230  -1099  -977  -856  -707  -541  -381  -210  18  299  574  801  982  1134  1259  1344  1374  1319  1120  778  392  61  -213  -463  -663  -780  -847  -927  -1027  -1088  -1059  -969  -929  -996  -1093  -1133  -1128  -1122  -1130  -1129  -1091  -1012  -921  -870  -877  -891  -841  -711  -563  -483  -488  -500  -451  -371  -339  -384  -466  -540  -601  -661  -689  -593  -294  114  425  557  599  651  767  946  1117  1186  1104  913  719  605  561  525  461  387  339  314  273  175  18  -150  -268  -321  -343  -372  -458  -618  -740  -646  -246  449  1433  2763  4454  6256  7597  7786  6380  3633  593  -1580  -2393  -2040  -1075  -142  366  467  379  267  185  145  137  138  128  112  120  157  204  278  428  627  774  820  808  791  809  876  962  1016  1036  1096  1267  1512  1719  1827  1864  1877  1887  1901  1930  1982  2065  2177  2308  2456  2626  2786  2890  2929  2927  2896  2833  2740  2617  2436  2159  1826  1549  1343  1102  788  496  301  173  55  -56  -134  -165  -169  -167  -152  -109  -40  23  56  67  68  68  67  64  48  4  -64  -126  -157  -162  -158  -154  -150  -147  -150  -161  -165  -153  -141  -170  -279  -456  -618  -695  -676  -580  -425  -238  -51  103  212  273  266  166  -2  -160  -247  -275  -299  -352  -434  -531  -625  -705  -786  -876  -950  -1003  -1107  -1316  -1513  -1483  -1194  -851  -577  -179  709  2341  4560  6657  7659  6928  4531  1267  -1646  -3265  -3438  -2716  -1864  -1362  -1218  -1241  -1286  -1271  -1184  -1070  -978  -915  -852  -776  -696  -625  -595  -627  -702  -781  -819  -786  -712  -646  -604  -580  -558  -511  -404  -217  13  214  354  470  603  755  905  1029  1118  1170  1168  1102  1032  1032  1101  1195  1275  1319  1337  1331  1275  1132  915  672  417  107  -276  -648  -902  -1059  -1220  -1391  -1480  -1464  -1449  -1521  -1642  -1745  -1806  -1821  -1810  -1803  -1789  -1736  -1644  -1543  -1457  -1410  -1423  -1511  -1651  -1778  -1837  -1799  -1650  -1443  -1282  -1218  -1210  -1203  -1188  -1204  -1267  -1330  -1351  -1338  -1317  -1299  -1273  -1204  -1071  -900  -743  -599  -413  -153  131  342  436  451  438  410  355  264  124  -92  -375  -637  -793  -870  -962  -1073  -1113  -1052  -987  -1004  -1045  -1020  -1004  -1191  -1498  -1396  -438  1297  3447  5580  7170  7755  7114  5192  2254  -861  -3100  -3904  -3440  -2304  -1180  -488  -220  -184  -225  -275  -320  -351  -357  -339  -307  -264  -203  -126  -71  -85  -170  -265  -302  -257  -149  -7  150  316  471  590  666  735  826  926  1005  1051  1072  1095  1158  1293  1512  1757  1925  1981  1969  1943  1953  2029  2147  2247  2304  2337  2326  2171  1767  1152  544  155  -5  -74  -155  -292  -486  -698  -871  -946  -915  -837  -800  -844  -938  -1017  -1046  -1006  -889  -733  -617  -570  -565  -572  -580  -584  -564  -514  -465  -461  -526  -643  -766  -855  -904  -917  -910  -901  -896  -852  -707  -495  -335  -301  -366  -463  -535  -557  -523  -423  -285  -156  -51  35  92  114  119  134  177  235  271  250  152  -17  -200  -318  -350  -338  -325  -336  -385  -459  -522  -537  -509  -587  -934  -1337  -1237  -254  1483  3486  5322  6724  7373  6998  5599  3333  587  -1830  -3188  -3415  -2900  -2062  -1268  -787  -650  -683  -722  -724  -711  -702  -681  -623  -547  -478  -409  -341  -281  -236  -217  -221  -223  -196  -115  11  145  247  309  346  382  442  538  662  777  840  857  893  1034  1303  1611  1840  1960  2029  2094  2142  2160  2164  2173  2170  2106  1927  1626  1287  1028  891  798  639  378  54  -277  -565  -755  -844  -877  -895  -914  -966  -1080  -1226  -1323  -1294  -1116  -868  -688  -648  -722  -849  -957  -997  -973  -930  -919  -962  -1050  -1156  -1248  -1321  -1395  -1450  -1415  -1265  -1083  -968  -939  -946  -941  -905  -854  -830  -855  -912  -989  -1107  -1258  -1367  -1344  -1134  -791  -472  -287  -221  -214  -228  -240  -221  -145  -30  80  160  190  101  -172  -556  -877  -1062  -1162  -1222  -1250  -1256  -1245  -1213  -1179  -1224  -1359  -1338  -773  482  2216  4077  5766  7005  7438  6711  4704  1744  -1262  -3172  -3444  -2536  -1399  -769  -783  -1070  -1252  -1222  -1019  -739  -518  -434  -453  -512  -585  -670  -734  -732  -646  -509  -384  -298  -230  -156  -66  9  25  -14  -40  4  116  268  453  665  864  999  1051  1067  1156  1416  1806  2171  2402  2490  2441  2268  2043  1884  1834  1847  1867  1864  1810  1686  1510  1312  1072  773  469  230  76  -2  -29  -51  -137  -326  -571  -770  -869  -889  -860  -790  -699  -620  -563  -518  -501  -529  -582  -627  -647  -646  -637  -631  -629  -632  -642  -674  -737  -833  -939  -998  -967  -881  -796  -739  -710  -696  -695  -740  -862  -1026  -1143  -1160  -1094  -994  -895  -785  -654  -523  -402  -279  -170  -128  -185  -300  -397  -438  -439  -428  -423  -445  -521  -659  -833  -1003  -1126  -1170  -1144  -1093  -1068  -1101  -1191  -1277  -1277  -1121  -686  196  1663  3728  6100  8061  8794  7895  5559  2473  -394  -2235  -2787  -2296  -1320  -481  -124  -194  -430  -616  -651  -531  -341  -202  -157  -167  -189  -210  -224  -224  -194  -127  -44  26  80  108  88  29  -23  -41  -32  -4  54  173  369  600  778  868  916  970  1041  1138  1285  1494  1713  1868  1956  2044  2191  2373  2510  2534  2405  2106  1677  1245  954  821  721  526  252  -6  -224  -424  -584  -687  -756  -804  -835  -856  -871  -875  -851  -802  -760  -744  -744  -747  -742  -726  -703  -700  -741  -805  -857  -881  -880  -859  -824  -784  -749  -736  -779  -920  -1144  -1356  -1463  -1447  -1356  -1245  -1147  -1061  -980  -915  -878  -869  -876  -877  -865  -855  -861  -879  -866  -748  -496  -197  24  135  174  163  108  20  -71  -133  -165  -207  -305  -465  -630  -727  -749  -730  -705  -709  -798  -995  -1201  -1256  -1100  -729  5  1318  3256  5572  7682  8795  8354  6371  3329  36  -2528  -3770  -3778  -3017  -2080  -1461  -1257  -1260  -1282  -1261  -1213  -1146  -1041  -914  -817  -782  -798  -852  -921  -978  -1002  -974  -866  -682  -474  -294  -155  -41  59  146  216  256  275  302  351  407  464  573  797  1091  1342  1520  1690  1869  1999  2052  2057  2039  2005  1963  1911  1839  1750  1668  1621  1580  1453  1168  768  371  59  -143  -252  -331  -457  -638  -811  -918  -931  -843  -689  -543  -461  -444  -451  -441  -387  -305  -246  -254  -332  -447  -553  -640  -731  -817  -885  -954  -1054  -1171  -1248  -1212  -1033  -780  -594  -550  -641  -817  -990  -1062  -993  -830  -669  -588  -627  -796  -1029  -1200  -1214  -1054  -763  -423  -123  62  117  65  -61  -215  -338  -418  -496  -594  -683  -732  -755  -790  -846  -912  -985  -1059  -1110  -1109  -1023  -878  -805  -881  -1019  -1049  -634  668  2884  5415  7449  8312  7565  5207  1926  -1179  -3262  -4000  -3562  -2518  -1530  -980  -840  -842  -810  -760  -743  -745  -730  -673  -568  -451  -374  -350  -346  -338  -325  -310  -293  -280  -272  -255  -208  -125  -34  18  22  24  96  280  547  840  1104  1303  1450  1591  1732  1842  1909  1955  1998  2056  2142  2244  2327  2380  2404  2373  2253  2031  1765  1562  1435  1241  833  250  -311  -691  -881  -956  -980  -986  -992  -1000  -1009  -1023  -1059  -1116  -1175  -1224  -1257  -1267  -1225  -1104  -947  -849  -854  -915  -967  -993  -1009  -1032  -1059  -1081  -1094  -1103  -1117  -1133  -1125  -1036  -844  -628  -526  -596  -755  -881  -936  -969  -995  -987  -935  -837  -665  -416  -120  202  501  680  696  594  437  288  202  164  71  -173  -528  -831  -983  -1018  -1006  -957  -847  -704  -622  -683  -895  -1226  -1598  -1771  -1346  -101  1725  3623  5174  6155  6439  5853  4238  1718  -1116  -3315  -4138  -3619  -2449  -1433  -976  -877  -788  -661  -591  -574  -549  -499  -483  -571  -731  -846  -857  -811  -769  -721  -607  -425  -253  -145  -70  20  137  259  353  407  441  478  520  582  693  867  1067  1251  1419  1580  1714  1809  1886  1984  2129  2291  2402  2439  2443  2447  2427  2322  2095  1793  1510  1240  859  339  -138  -405  -482  -492  -532  -605  -666  -692  -695  -685  -652  -588  -515  -468  -451  -447  -449  -477  -565  -721  -901  -1045  -1130  -1172  -1190  -1200  -1207  -1184  -1080  -888  -694  -611  -674  -806  -909  -949  -954  -951  -942  -919  -884  -823  -697  -504  -302  -162  -101  -90  -95  -95  -76  -25  38  69  36  -40  -116  -180  -267  -391  -509  -578  -612  -649  -704  -773  -852  -921  -960  -1019  -1207  -1524  -1740  -1582  -942  151  1582  3164  4709  5920  6337  5589  3649  964  -1619  -3224  -3512  -2887  -2052  -1460  -1186  -1094  -1040  -982  -938  -915  -908  -912  -920  -914  -870  -774  -638  -493  -378  -293  -211  -127  -59  -1  77  180  253  242  151  62  73  191  342  459  541  623  744  922  1141  1357  1544  1712  1869  2011  2116  2165  2162  2127  2064  1955  1790  1587  1380  1184  998  805  611  453  337  234  126  -12  -207  -454  -702  -882  -969  -1003  -1028  -1052  -1056  -1013  -908  -776  -654  -527  -370  -188  0]
