reading_id,reading_time,wire_id,result_classification,heart_rate,heart_rate_alert,firmware_version,device_app_version,hardware_version,waveform_samples
a4bdcd00-617a-11ed-8080-808080808080,Fri Nov 11 04:38:09 UTC 2022,2101e3b12739,NSR,70,NONE,20001.171.50,2.10.0,Charge 5,[-4926  -5562  -6323  -7257  -8323  -9336  -10069  -10473  -10702  -10967  -11392  -11936  -12467  -12892  -13176  -13349  -13530  -13849  -14268  -14612  -14788  -14831  -14779  -14678  -14592  -14546  -14526  -14521  -14541  -14622  -14779  -14945  -15008  -14948  -14834  -14704  -14574  -14481  -14431  -14366  -14224  -14011  -13786  -13588  -13418  -13282  -13169  -13050  -12908  -12739  -12568  -12419  -12250  -11990  -11673  -11426  -11294  -11195  -11059  -10884  -10677  -10403  -10052  -9686  -9385  -9170  -9005  -8856  -8707  -8556  -8420  -8278  -8038  -7621  -7035  -6376  -5839  -5572  -5526  -5564  -5610  -5656  -5670  -5566  -5292  -4939  -4684  -4599  -4605  -4548  -4313  -3952  -3634  -3423  -3220  -2930  -2575  -2235  -1979  -1813  -1681  -1521  -1320  -1096  -862  -618  -308  161  789  1524  2342  3138  3702  3840  3446  2512  1218  11  -623  -544  15  694  1206  1472  1606  1751  1942  2129  2284  2450  2721  3118  3513  3745  3799  3778  3789  3891  4062  4214  4270  4232  4175  4180  4291  4510  4763  4942  5028  5106  5263  5502  5753  5955  6117  6269  6429  6593  6713  6738  6710  6725  6837  7067  7374  7640  7779  7808  7785  7756  7716  7612  7426  7206  7012  6851  6680  6444  6145  5867  5692  5615  5572  5496  5345  5145  4965  4816  4670  4533  4423  4348  4310  4293  4247  4136  4023  4028  4159  4299  4353  4324  4270  4230  4201  4165  4112  4046  3987  3954  3949  3955  3951  3919  3852  3762  3673  3621  3637  3730  3860  3964  4009  3983  3851  3602  3318  3123  3062  3099  3186  3274  3321  3301  3209  3083  2979  2903  2816  2697  2556  2425  2334  2301  2314  2323  2282  2196  2119  2083  2080  2093  2121  2161  2188  2158  2041  1873  1742  1695  1714  1771  1840  1898  1926  1917  1863  1747  1582  1425  1338  1337  1401  1490  1549  1519  1375  1173  1021  985  1064  1224  1389  1460  1392  1227  1053  928  865  873  945  1054  1161  1230  1261  1279  1292  1264  1160  1005  873  804  763  665  445  157  -63  -158  -155  -54  164  435  630  702  680  572  374  129  -89  -233  -289  -250  -132  8  187  530  1096  1825  2601  3253  3589  3430  2634  1229  -436  -1795  -2406  -2226  -1612  -1066  -832  -777  -689  -541  -410  -328  -279  -249  -246  -274  -299  -262  -140  8  102  118  91  70  96  195  345  482  563  594  598  579  527  465  455  557  760  984  1165  1286  1349  1375  1407  1468  1543  1606  1643  1672  1726  1825  1944  2027  2047  2025  1993  1972  1958  1936  1886  1789  1618  1350  1004  639  312  53  -138  -288  -409  -501  -575  -649  -747  -870  -965  -995  -989  -1006  -1078  -1198  -1334  -1462  -1573  -1629  -1565  -1339  -1030  -802  -726  -755  -831  -914  -968  -983  -977  -969  -974  -1002  -1051  -1100  -1125  -1107  -1044  -956  -874  -826  -827  -868  -924  -974  -1000  -986  -922  -827  -746  -701  -695  -740  -862  -1042  -1205  -1286  -1266  -1159  -1019  -917  -880  -892  -949  -1064  -1228  -1384  -1457  -1426  -1343  -1268  -1210  -1145  -1067  -995  -954  -947  -952  -937  -883  -813  -781  -817  -905  -1007  -1091  -1145  -1161  -1124  -1039  -936  -852  -801  -783  -789  -810  -829  -836  -839  -847  -863  -881  -899  -904  -845  -672  -427  -231  -148  -154  -234  -402  -620  -793  -871  -877  -854  -834  -828  -826  -824  -814  -780  -714  -657  -643  -642  -625  -599  -574  -547  -517  -482  -429  -332  -96  395  1104  1841  2421  2645  2321  1427  193  -1014  -1840  -2050  -1694  -1162  -866  -857  -916  -884  -750  -575  -441  -378  -359  -352  -335  -290  -226  -176  -158  -159  -159  -147  -111  -55  -20  -41  -107  -197  -296  -357  -299  -64  285  593  770  826  819  806  830  904  1007  1097  1155  1203  1267  1345  1399  1417  1456  1559  1685  1776  1824  1853  1878  1886  1825  1643  1381  1150  989  809  526  192  -66  -216  -319  -418  -526  -662  -817  -943  -1009  -1027  -1028  -1025  -1010  -954  -852  -753  -714  -732  -769  -797  -806  -805  -804  -808  -811  -811  -808  -803  -800  -801  -811  -833  -861  -880  -892  -901  -906  -909  -915  -921  -897  -803  -676  -610  -633  -704  -795  -867  -866  -783  -670  -597  -577  -557  -492  -393  -301  -243  -222  -253  -359  -513  -649  -729  -758  -762  -760  -754  -726  -664  -587  -530  -500  -480  -455  -428  -432  -483  -541  -568  -568  -562  -563  -569  -565  -528  -456  -376  -326  -312  -314  -320  -329  -345  -356  -342  -307  -277  -272  -289  -318  -364  -429  -483  -497  -485  -471  -460  -434  -381  -326  -306  -308  -301  -296  -309  -332  -340  -307  -246  -205  -202  -219  -234  -237  -236  -239  -236  -220  -202  -191  -187  -195  -230  -296  -370  -425  -439  -378  -206  51  328  686  1246  2009  2849  3434  3363  2566  1261  -199  -1282  -1630  -1415  -1038  -772  -706  -716  -622  -452  -331  -252  -151  -32  51  79  61  11  -49  -95  -111  -99  -57  7  76  146  232  334  410  430  410  382  376  402  460  554  679  813  937  1037  1095  1114  1120  1160  1278  1454  1624  1759  1869  1962  2046  2138  2229  2304  2349  2326  2209  2025  1807  1584  1397  1270  1186  1111  1017  860  600  293  64  -64  -175  -297  -364  -338  -276  -257  -281  -298  -309  -353  -429  -504  -563  -593  -591  -582  -585  -593  -598  -611  -652  -711  -757  -759  -706  -609  -498  -399  -319  -274  -277  -331  -418  -505  -574  -629  -661  -641  -544  -392  -256  -183  -175  -213  -287  -385  -480  -539  -555  -548  -533  -520  -522  -543  -576  -600  -608  -604  -594  -584  -586  -606  -635  -667  -714  -777  -807  -768  -716  -708  -727  -731  -711  -685  -681  -682  -667  -663  -697  -738  -756  -755  -750  -746  -743  -742  -745  -754  -768  -774  -764  -743  -722  -709  -692  -659  -618  -581  -524  -409  -273  -207  -232  -283  -305  -291  -256  -210  -160  -137  -175  -269  -375  -454  -495  -514  -523  -524  -512  -497  -496  -519  -562  -614  -660  -694  -715  -713  -664  -564  -467  -433  -398  -226  76  347  483  583  934  1736  2754  3494  3598  2955  1752  392  -691  -1233  -1316  -1195  -1007  -814  -663  -544  -444  -373  -327  -298  -276  -245  -200  -139  -56  40  146  270  392  470  484  441  376  326  300  288  293  334  435  591  755  894  1002  1082  1135  1168  1191  1227  1310  1465  1680  1892  2034  2111  2170  2231  2286  2333  2376  2428  2496  2569  2606  2584  2510  2394  2227  2026  1839  1678  1497  1249  929  601  357  203  71  -55  -138  -176  -208  -275  -391  -527  -632  -695  -734  -743  -696  -605  -515  -461  -455  -491  -561  -644  -697  -678  -607  -547  -512  -475  -423  -394  -424  -510  -604  -664  -686  -691  -699  -710  -717  -713  -696  -669  -638  -616  -608  -618  -645  -681  -707  -717  -718  -719  -720  -708  -672  -620  -577  -556  -549  -550  -564  -598  -646  -688  -709  -715  -713  -698  -658  -600  -555  -543  -561  -591  -619  -646  -697  -797  -907  -920  -768  -527  -353  -306  -328  -365  -413  -473  -509  -492  -427  -352  -303  -291  -299  -298  -264  -201  -145  -124  -119  -115  -126  -168  -236  -304  -345  -355  -370  -428  -522  -600  -636  -643  -636  -624  -611  -601  -594  -587  -583  -582  -582  -579  -572  -570  -575  -564  -489  -316  -24  376  843  1392  2031  2656  3107  3220  2848  1929  582  -789  -1660  -1832  -1496  -960  -532  -391  -465  -564  -570  -462  -282  -107  20  109  175  213  211  161  75  -12  -71  -95  -99  -90  -58  27  183  362  495  573  622  653  675  714  778  849  908  968  1069  1221  1376  1479  1522  1531  1538  1562  1615  1704  1828  1985  2149  2261  2296  2273  2205  2086  1929  1782  1654  1505  1337  1202  1061  804  445  130  -63  -184  -287  -371  -430  -473  -507  -548  -612  -702  -791  -837  -809  -720  -618  -559  -563  -613  -667  -689  -695  -710  -714  -680  -627  -587  -575  -575  -577  -579  -587  -596  -594  -563  -489  -404  -384  -439  -511  -554  -551  -510  -465  -438  -428  -424  -417  -414  -421  -437  -451  -458  -460  -462  -472  -498  -541  -586  -622  -649  -651  -624  -593  -576  -574  -594  -645  -722  -793  -822  -772  -631  -453  -325  -282  -290  -318  -355  -385  -387  -378  -402  -485  -611  -741  -842  -906  -926  -895  -827  -746  -661  -558  -433  -310  -235  -237  -313  -417  -489  -499  -456  -396  -352  -333  -328  -334  -357  -382  -378  -339  -297  -274  -266  -256  -217  -128  -12  75  107  86  19  -82  -202  -337  -475  -579  -612  -577  -512  -463  -447  -454  -472  -495  -522  -558  -600  -630  -641  -642  -640  -630  -581  -449  -276  -163  -55  258  870  1686  2558  3246  3409  2902  1860  506  -801  -1589  -1681  -1348  -913  -523  -300  -293  -371  -399  -359  -272  -149  -17  96  183  239  268  291  310  322  337  364  377  342  277  249  298  411  538  640  721  793  845  868  878  905  967  1049  1113  1170  1276  1460  1684  1873  1977  2009  2023  2068  2156  2261  2356  2418  2424  2356  2218  2052  1909  1819  1773  1724  1605  1390  1119  846  581  343  172  61  -44  -170  -312  -443  -529  -562  -568  -568  -571  -584  -609  -643  -677  -704  -721  -730  -736  -742  -741  -728  -700  -665  -636  -625  -624  -633  -668  -728  -779  -788  -745  -656  -536  -424  -379  -442  -592  -750  -832  -771  -532  -204  28  47  -129  -378  -555  -610  -593  -553  -501  -442  -405  -405  -427  -448  -462  -493  -565  -673  -776  -847  -871  -814  -640  -404  -235  -187  -212  -254  -302  -370  -464  -558  -610  -613  -595  -569  -521  -446  -374  -343  -355  -378  -391  -410  -469  -565  -660  -736  -794  -820  -764  -580  -329  -141  -73  -87  -156  -284  -445  -572  -621  -604  -555  -485  -392  -295  -231  -207  -209  -244  -323  -411  -439  -390  -316  -248  -171  -80  1  64  105  100  42  -60  -196  -349  -489  -591  -651  -668  -641  -593  -553  -534  -529  -529  -530  -528  -516  -486  -446  -417  -417  -449  -485  -470  -405  -334  -196  87  489  996  1639  2414  3177  3521  3099  1984  502  -859  -1594  -1632  -1322  -972  -709  -597  -613  -646  -599  -461  -291  -163  -105  -93  -99  -105  -105  -94  -72  -39  1  53  121  201  268  297  291  281  313  422  574  690  735  738  739  767  841  952  1054  1119  1186  1327  1546  1759  1895  1951  1957  1944  1951  2010  2104  2183  2224  2235  2227  2200  2149  2067  1956  1790  1528  1181  823  517  283  133  53  2  -63  -164  -274  -357  -427  -536  -678  -793  -843  -822  -735  -614  -521  -493  -521  -580  -649  -725  -805  -873  -913  -929  -936  -936  -897  -790  -653  -561  -536  -543  -559  -588  -633  -675  -676  -605  -460  -295  -194  -215  -367  -581  -739  -768  -663  -465  -260  -134  -108  -163  -273  -394  -481  -527  -552  -574  -590  -581  -521  -411  -300  -253  -301  -423  -557  -646  -679  -678  -654  -605  -542  -495  -477  -476  -478  -478  -476  -483  -504  -537  -567  -579  -549  -459  -336  -238  -187  -155  -130  -125  -151  -200  -250  -268  -243  -222  -258  -349  -443  -497  -506  -490  -441  -331  -185  -71  -17  2  9  8  8  18  47  85  100  66  -3  -67  -98  -119  -176  -288  -409  -480  -493  -481  -474  -471  -451  -399  -321  -238  -170  -146  -193  -305  -436  -536  -588  -563  -398  -50  475  1159  1932  2608  3004  2972  2423  1490  411  -576  -1212  -1386  -1187  -793  -458  -337  -334  -314  -276  -249  -229  -207  -186  -178  -184  -183  -129  14  206  343  367  299  198  125  117  183  308  449  557  607  605  586  583  602  627  650  688  768  887  1013  1116  1188  1250  1313  1358  1389  1463  1629  1837  1981  2025  2014  1989  1960  1930  1908  1898  1880  1798  1590  1262  923  691  560  450  332  225  139  56  -59  -226  -415  -572  -665  -701  -702  -682  -653  -632  -633  -640  -628  -586  -525  -469  -432  -410  -392  -392  -447  -586  -754  -844  -800  -674  -557  -491  -470  -470  -458  -415  -351  -297  -268  -255  -249  -248  -248  -249  -254  -264  -269  -263  -252  -245  -249  -264  -303  -378  -462  -513  -534  -529  -481  -404  -327  -265  -234  -236  -250  -259  -289  -368  -470  -520  -477  -388  -321  -296  -296  -306  -325  -359  -421  -496  -540  -532  -490  -447  -416  -380  -317  -238  -193  -212  -272  -326  -350  -354  -361  -381  -396  -396  -385  -368  -328  -251  -156  -85  -65  -86  -119  -164  -248  -363  -460  -509  -519  -513  -498  -473  -440  -414  -395  -371  -345  -326  -320  -322  -332  -347  -350  -331  -312  -317  -283  -81  269  661  1170  1839  2468  2809  2668  1983  911  -205  -996  -1300  -1197  -898  -666  -576  -504  -413  -356  -343  -350  -362  -368  -343  -256  -120  9  86  100  84  78  96  128  159  183  203  219  231  246  275  331  398  447  490  571  690  789  833  847  866  896  944  1054  1272  1545  1760  1864  1885  1875  1863  1856  1853  1854  1862  1872  1870  1839  1758  1577  1265  911  668  580  559  518  424  269  46  -197  -368  -426  -411  -371  -333  -323  -358  -439  -539  -634  -714  -781  -830  -850  -813  -692  -516  -366  -288  -269  -290  -343  -418  -503  -598  -696  -770  -777  -673  -490  -331  -278  -329  -429  -526  -593  -627  -635  -608  -532  -428  -343  -302  -293  -303  -326  -359  -390  -415  -436  -453  -474  -521  -596  -637  -579  -450  -327  -258  -242  -272  -346  -439  -513  -554  -580  -591  -578  -545  -515  -507  -516  -525  -530  -536  -545  -551  -530  -457  -354  -278  -253  -261  -281  -299  -303  -284  -254  -232  -224  -212  -180  -131  -95  -95  -137  -216  -315  -404  -476  -535  -573  -586  -583  -570  -548  -532  -543  -578  -609  -620  -621  -625  -640  -659  -665  -632  -562  -475  -338  -44  476  1174  1932  2588  2872  2567  1765  743  -237  -892  -1064  -937  -759  -586  -442  -388  -407  -431  -439  -452  -494  -550  -558  -463  -277  -77  56  106  106  97  97  104  111  117  125  140  168  232  359  541  734  892  983  1011  1005  993  982  984  1031  1153  1333  1501  1597  1620  1615  1632  1699  1792  1862  1905  1965  2057  2148  2204  2210  2161  2045  1844  1578  1284  979  688  449  275  128  -32  -188  -286  -316  -317  -327  -372  -452  -539  -612  -668  -705  -727  -722  -683  -651  -665  -687  -679  -650  -604  -544  -487  -450  -439  -460  -512  -578  -632  -653  -635  -582  -510  -445  -408  -399  -414  -458  -533  -596  -584  -491  -386  -327  -314  -319  -331  -359  -407  -477  -549  -582  -547  -462  -373  -317  -296  -275  -233  -205  -246  -378  -561  -716  -792  -803  -787  -768  -743  -703  -649  -593  -541  -481  -412  -359  -339  -355  -416  -514  -608  -656  -625  -507  -348  -233  -201  -230  -284  -337  -373  -381  -355  -281  -150  -5  73  55  -14  -74  -102  -115  -132  -164  -200  -221  -224  -237  -296  -405  -518  -578  -565  -498  -412  -347  -325  -345  -391  -452  -521  -583  -588  -483  -319  -145  150  654  1291  1990  2710  3304  3535  3267  2501  1288  -60  -996  -1287  -1177  -985  -877  -849  -760  -485  -103  175  274  268  214  100  -68  -227  -316  -324  -243  -57  188  380  459  462  446  433  423  414  418  464  588  806  1067  1279  1408  1485  1530  1539  1522  1515  1560  1667  1795  1908  2035  2207  2382  2488  2521  2519  2502  2450  2351  2242  2182  2183  2210  2219  2174  2033  1793  1528  1290  1047  758  476  290  205  154  89  -8  -115  -208  -314  -469  -651  -805  -900  -931  -874  -691  -423  -196  -89  -83  -129  -204  -310  -438  -535  -569  -549  -493  -446  -446  -467  -484  -516  -558  -580  -561  -498  -406  -314  -221  -131  -81  -121  -255  -418  -515  -515  -445  -332  -210  -126  -105  -134  -179  -209  -217  -218  -231  -272  -339  -416  -489  -551  -601  -626  -602  -512  -390  -298  -262  -255  -263  -288  -330  -370  -409  -477  -573  -638  -607  -502  -411  -398  -461  -553  -618  -639  -639  -643  -655  -651  -598  -510  -451  -455  -483  -487  -460  -412  -344  -264  -193  -142  -120  -154  -268  -432  -571  -655  -723  -804  -875  -910  -906  -883  -876  -908  -981  -1071  -1142  -1174  -1185  -1196  -1217  -1261  -1351  -1506  -1649  -1555  -1152  -740  -535  -364  -38  494  1235  2020  2486  2334  1589  471  -794  -1864  -2398  -2423  -2251  -2053  -1817  -1609  -1521  -1517  -1523  -1518  -1509  -1502  -1500  -1499  -1495  -1491  -1493  -1510  -1556  -1643  -1769  -1901  -1977  -1934  -1738  -1449  -1202  -1087  -1119  -1257  -1417  -1516  -1538  -1523  -1510  -1508  -1504  -1492  -1473  -1438  -1370  -1231  -998  -733  -537  -444  -415  -410  -408  -405  -417  -468  -568  -700  -858  -1031  -1183  -1295  -1429  -1685  -2071  -2489  -2851  -3119  -3310  -3495  -3688  -3832  -3906  -3964  -4059  -4210  -4406  -4598  -4723  -4769  -4772  -4772  -4792  -4836  -4888  -4925  -4959  -5021  -5107  -5179  -5218  -5243  -5246  -5134  -4783  -4213  -3612  -3131  -2758  -2429  -2116  -1825  -1577  -1333  -1014  -638  -345  -214  -181  -173  -193  -257  -302  -246  -67  205  512  762  906  980  1029  1066  1117  1223  1399  1660  2102  2821  3650  4249  4519  4632  4773  5091  5675  6443  7183  7742  8122  8424  8719  8977  9187  9468  9930  10417  10551  10136  9370  8596  8098  7981  8031  7840  7119  5961  4775  3886  3429  3410  3608  3730  3636  3382  3137  3036  3140  3505  4116  4789  5279  5487  5490  5395  5263  5161  5242  5713  6590  7564  8282  8632  8691  8575  8400  8239  8078  7871  7604  7245  6738  6126  5580  5218  5029  4953  4946  5003  5139  5316  5445  5489  5479  5447  5403  5360  5336  5341  5355  5342  5316  5307  5168  4439  2664  -4  -2669  -4408  -5050  -5075  -4972  -4924  -4921  -4921  -4909  -4891  -4879  -4875  -4880  -4896  -4923  -4957  -4990  -5015  -5027  -5000  -4897  -4725  -4552  -4438  -4390  -4380  -4373  -4345  -4296  -4227  -4133  -4024  -3902  -3759  -3611  -3480  -3354  -3210  -3046  -2886  -2765  -2698  -2654  -2560  -2362  -2097  -1869  -1745  -1689  -1626  -1527  -1427  -1361  -1332  -1328  -1328  -1322  -1318  -1340  -1423  -1585  -1791  -1969  -2101  -2209  -2302  -2393  -2512  -2663  -2798  -2901  -3012  -3156  -3304  -3410  -3449  -3394  -3225  -3000  -2828  -2742  -2694  -2652  -2634  -2654  -2688  -2706  -2701  -2676  -2636  -2587  -2521  -2438  -2363  -2318  -2280  -2214  -2117  -2023  -1958  -1918  -1893  -1880  -1876  -1869  -1842  -1778  -1680  -1575  -1493  -1444  -1431  -1464  -1559  -1691  -1790  -1794  -1684  -1502  -1339  -1257  -1244  -1255  -1263  -1265  -1266  -1269  -1270  -1251  -1193  -1099  -994  -895  -810  -755  -738  -756  -787  -810  -817  -812  -804  -797  -784  -762  -735  -703  -660  -605  -539  -464  -401  -379  -412  -485  -556  -587  -575  -529  -471  -428  -405  -382  -328  -238  -139  -67  -52  -83  -107  -109  -124  -159  -193  -219  -234  -240  -239  -235  -233  -231  -230  -228  -228  -234  -250  -267  -275  -265  -235  -214  -226  -260  -275  -169  181  779  1518  2321  3121  3796  4116  3864  3021  1728  319  -718  -1135  -1079  -851  -656  -509  -341  -134  77  243  337  381  415  448  469  485  505  519  528  540  551  553  553  557  573  598  626  666  738  837  927  990  1022  1030  1029  1051  1133  1280  1455  1631  1797  1944  2058  2129  2160  2175  2212  2280  2358  2450  2585  2736  2810  2750  2591  2409  2260  2174  2138  2080  1904  1588  1236  950  707  463  258  123  36  -31  -97  -175  -253  -309  -334  -327  -287  -233  -206  -241  -351  -508  -649  -723  -726  -690  -631  -548  -450  -367  -323  -313  -324  -355  -406  -474  -543  -593  -618  -625  -625  -617  -587  -528  -456  -407  -396  -401  -391  -349  -289  -243  -225  -221  -222  -240  -300  -402  -501  -546  -534  -506  -491  -488  -480  -461  -444  -433  -417  -401  -401  -427  -471  -507  -517  -514  -511  -501  -477  -437  -392  -361  -360  -396  -465  -540  -592  -609  -581  -501  -387  -286  -220  -181  -153  -125  -92  -66  -53  -49  -43  -37  -51  -99  -160  -217  -280  -342  -390  -433  -475  -510  -540  -569  -588  -594  -594  -598  -611  -633  -655  -664  -652  -624  -598  -573  -530  -475  -456  -455  -328  78  824  1827  2794  3380  3422  2896  1893  650  -504  -1279  -1554  -1411  -1044  -652  -421  -415  -522  -615  -656  -643  -553  -356  -98  99  175  165  121  69  26  9  33  107  215  323  403  445  443  401  335  275  243  241  273  375  591  911  1239  1467  1553  1531  1463  1424  1477  1624  1805  1949  2041  2112  2169  2192  2175  2140  2106  2055  1960  1845  1769  1729  1627  1371  1029  784  698  666  585  457  329  183  -33  -283  -454  -500  -458  -376  -298  -259  -276  -341  -438  -538  -618  -682  -748  -816  -869  -880  -816  -667  -466  -275  -162  -141  -164  -194  -234  -296  -365  -409  -423  -423  -416  -383  -306  -196  -96  -39  -20  -19  -42  -119  -250  -379  -452  -460  -424  -348  -218  -65  10  -56  -203  -315  -339  -282  -178  -68  3  26  9  -49  -147  -262  -356  -399  -395  -379  -374  -381  -389  -388  -378  -357  -320  -268  -213  -179  -171  -182  -197  -206  -208  -207  -208  -215  -223  -210  -172  -149  -187  -272  -356  -405  -420  -414  -389  -331  -245  -156  -87  -44  -26  -27  -35  -38  -27  -8  3  -8  -58  -177  -357  -514  -576  -535  -429  -318  -252  -237  -242  -243  -236  -234  -245  -257  -260  -257  -249  -201  -87  23  62  153  502  1169  2051  2843  3122  2693  1698  443  -647  -1188  -1177  -928  -696  -547  -466  -416  -382  -369  -378  -406  -457  -515  -556  -576  -584  -586  -569  -499  -357  -184  -57  -8  -7  -24  -42  -57  -70  -79  -80  -73  -58  -33  -4  11  21  83  243  456  612  663  645  622  632  689  779  876  955  1010  1048  1071  1075  1055  1015  971  937  897  833  724  550  306  20  -250  -455  -603  -750  -943  -1173  -1371  -1457  -1411  -1294  -1195  -1158  -1213  -1382  -1613  -1795  -1872  -1878  -1861  -1837  -1814  -1797  -1792  -1793  -1794  -1783  -1745  -1667  -1550  -1419  -1301  -1210  -1138  -1062  -983  -930  -914  -923  -943  -964  -981  -995  -1001  -984  -939  -884  -843  -829  -839  -869  -908  -929  -900  -795  -612  -373  -126  59  157  191  198  200  208  213  200  169  138  122  135  189  277  375  448  489  526  595  688  761  789  786  769  738  692  660  670  704  728  739  745  751  753  740  709  670  632  603  584  576  575  571  558  524  465  399  351  328  319  313  308  301  299  329  416  536  624  636  583  500  425  363  290  193  77  -42  -143  -213  -247  -250  -228  -187  -137  -81  -4  88  165  196  181  144  115  101  72  -11  -149  -267  -309  -221  139  755  1378  1921  2450  2900  3114  2968  2390  1442  426  -227  -324  -2  458  807  944  937  890  812  609  223  -223  -543  -705  -812  -914  -991  -1047  -1122  -1241  -1398  -1576  -1734  -1822  -1834  -1814  -1793  -1749  -1638  -1472  -1308  -1171  -1053  -959  -882  -809  -739  -668  -563  -392  -175  26  191  348  522  709  904  1110  1308  1467  1578  1647  1674  1651  1575  1479  1418  1394  1338  1181  943  705  530  425  364  308  246  183  116  41  9  110  375  710  962  1061  1038  945  836  762  738  739  746  766  817  888  937  944  925  903  880  870  936  1140  1429  1645  1676  1506  1206  921  773  751  750  674  513  327  146  -70  -331  -576  -769  -919  -1028  -1101  -1161  -1215  -1242  -1195  -1028  -768  -503  -283  -120  -37  -80  -286  -607  -892  -1026  -983  -788  -529  -325  -221  -190  -208  -277  -403  -562  -692  -759  -770  -735  -656  -553  -472  -444  -467  -518  -564  -587  -591  -588  -578  -559  -547  -581  -703  -915  -1145  -1295  -1324  -1250  -1111  -965  -864  -790  -652  -385  -31  308  552  668  687  672  673  702  757  848  989  1153  1279  1298  1130  706  98  -468  -795  -875  -789  -553  -141  390  874  1137  1111  829  425  67  -189  -415  -685  -1002  -1290  -1438  -1321  -866  -229  260  446  424  320  187  59  -42  -121  -180  -213  -207  -147  47  540  1386  2302  2884  2989  2691  2092  1341  655  209  64  269  874  1682  2293  2507  2367  1924  1305  747  370  111  -95  -244  -341  -438  -555  -644  -665  -625  -552  -477  -418  -375  -366  -406  -462  -471  -396  -250  -81  68  163  179  100  -45  -143  -48  243  588  886  1151  1400  1582  1570  1290  797  172  -485  -1042  -1455  -1742  -1821  -1614  -1230  -865  -621  -502  -482  -561  -776  -1160  -1681  -2239  -2690  -2943  -3024  -3017  -2958  -2839  -2684  -2552  -2478  -2456  -2477  -2551  -2682  -2875  -3137  -3411  -3558  -3532  -3437  -3387  -3403  -3438  -3437  -3352  -3148  -2841  -2507  -2241  -2096  -2059  -2075  -2122  -2206  -2300  -2346  -2330  -2299  -2306  -2370  -2465  -2542  -2588  -2611  -2602  -2542  -2440  -2322  -2190  -2050  -1936  -1882  -1920  -2093  -2386  -2688  -2905  -3030  -3094  -3138  -3205  -3299  -3384  -3427  -3428  -3417  -3429  -3442  -3317  -2856  -2018  -1088  -445  -186  -140  -128  -93  -43  10  63  96  101  87  61  57  172  496  985  1511  2020  2493  2847  3018  3042  2993  2908  2788  2620  2368  2035  1898  2492  4068  6276  8458  10014  10715  10937  11252  11825  12337  12215  11030  9048  7220  6271  6068  6046  5737  4951  3997  3419  3441  4098  5446  7256  9010  10313  11084  11441  11564  11522  11202  10477  9493  8641  8182  8054  8066  8089  8076  8037  8014  7940  7449  6103  4050  2100  928  539  558  671  747  756  702  623  568  555  566  559  467  239  -62  -287  -341  -201  130  598  1071  1392  1378  753  -609  -2349  -3816  -4648  -4929  -4936  -4876  -4799  -4672  -4486  -4270  -4011  -3625  -3113  -2653  -2425  -2469  -2732  -3081  -3355  -3514  -3614  -3688  -3748  -3811  -3874  -3874  -3674  -3187  -2570  -2118  -1947  -1954  -2031  -2157  -2320  -2470  -2559  -2580  -2534  -2417  -2269  -2165  -2145  -2195  -2275  -2351  -2403  -2425  -2419  -2402  -2409  -2496  -2706  -3014  -3300  -3405  -3291  -3041  -2678  -2141  -1484  -923  -636  -745  -1385  -2481  -3604  -4378  -4822  -5112  -5303  -5389  -5420  -5538  -5888  -6401  -6820  -6991  -6977  -6904  -6845  -6755  -6444  -5776  -4925  -4243  -3889  -3764  -3723  -3682  -3619  -3521  -3392  -3266  -3182  -3152  -3172  -3237  -3366  -3602  -3953  -4319  -4549  -4544  -4261  -3760  -3263  -2987  -2941  -2986  -2966  -2727  -2191  -1502  -933  -622  -525  -542  -597  -631  -542  -224  271  735  1030  1210  1433  1836  2417  3001  3397  3576  3621  3593  3504  3357  3136  2847  2565  2365  2235  2121  2017  1946  1906  1873  1827  1731  1537  1260  990  775  581  394  274  288  450  694  905  1043  1167  1323  1478  1574  1596  1556  1465  1355  1278  1255  1268  1287  1278  1200  1037  841  698  680  806  1011  1176  1226  1171  1076  1006  963  891  735  499  262  97  8  -50  -113  -186  -271  -378  -492  -566  -548  -411  -192  18  157  222  230  178  47  -140  -317  -441  -533  -602  -609  -515  -296  85  647  1294  1822  2115  2229  2210  1920  1216  314  -318  -429  -99  429  882  1109  1174  1287  1629  2162  2667  2993  3167  3310  3513  3744  3894  3889  3724  3466  3239  3135  3215  3520  3931  4159  4108  3974  3923  4087  4676  5613  6491  6971  6855  6078  4872  3679  2898  2713  3011  3501  3856  3877  3683  3542  3549  3646  3787  3986  4312  4772  5219  5487  5564  5533  5421  5186  4809  4377  4040  3845  3660  3299  2688  1918  1190  679  388  176  -54  -257  -350  -349  -308  -211  -11  270  533  683  680  494  132  -263  -509  -531  -378  -151  43  171  261  331  377  395  376  276  -19  -614  -1401  -2107  -2550  -2729  -2746  -2706  -2659  -2617  -2588  -2577  -2574  -2576  -2588  -2622  -2677  -2722  -2677  -2458  -2088  -1732  -1535  -1512  -1630  -1869  -2185  -2499  -2746  -2920  -3047  -3118  -3084  -2889  -2566  -2256  -2083  -2085  -2286  -2696  -3244  -3769  -4108  -4192  -4043  -3727  -3321  -2841  -2238  -1478  -604  212  658  442  -417  -1588  -2674  -3382  -3618  -3529  -3325  -3140  -3057  -3106  -3252  -3429  -3568  -3662  -3754  -3850  -3906  -3889  -3837  -3823  -3868  -3947  -4085  -4338  -4685  -5020  -5236  -5307  -5283  -5181  -4955  -4617  -4303  -4143  -4147  -4259  -4409  -4535  -4622  -4679  -4674  -4519  -4119  -3444  -2630  -1962  -1636  -1615  -1748  -1913  -2015  -1977  -1757  -1420  -1127  -994  -1080  -1443  -2061  -2734  -3218  -3429  -3410  -3172  -2703  -2110  -1607  -1345  -1319  -1464  -1750  -2152  -2573  -2898  -3121  -3318  -3535  -3758  -3952  -4148  -4443  -4856  -5248  -5467  -5487  -5380  -5237  -5127  -5065  -5038  -5024  -4937  -4631  -4014  -3176  -2405  -1956  -1804  -1589  -805  804  3001  5263  7084  8134  8461  8422  8329  8290  8285  8279  8268  8282  8341  8378  8207  7671  6910  6293  6000  5912  5844  5676  5382  5030  4708  4399  3970  3301  2429  1590  1010  687  508  483  742  1315  1986  2456  2632  2648  2660  2721  2807  2903  3030  3203  3386  3531  3626  3683  3707  3721  3738  3713  3515  3066  2517  2156  2155  2490  2967  3337  3513  3603  3730  3937  4170  4341  4417  4420  4359  4229  4065  3940  3905  3969  4124  4336  4544  4692  4741  4655  4436  4143  3840  3577  3409  3347  3338  3340  3348  3327  3121  2544  1651  781  244  72  137  331  575  796  969  1093  1148  1160  1242  1526  1998  2472  2777  2902  2943  2965  2924  2671  2124  1460  990  817  818  860  897  910  854  672  377  94  -58  -81  -46  -1  47  63  -83  -531  -1245  -1995  -2549  -2844  -3024  -3289  -3663  -4014  -4283  -4526  -4766  -4945  -5008  -4962  -4855  -4724  -4581  -4432  -4315  -4297  -4385  -4438  -4358  -4248  -4127  -3792  -3147  -2293  -1408  -868  -1067  -2004  -3343  -4647  -5522  -5835  -5821  -5798  -5789  -5576  -5056  -4352  -3689  -3249  -3035  -2884  -2640  -2271  -1846  -1487  -1275  -1187  -1180  -1262  -1459  -1719  -1912  -1909  -1611  -1013  -267  393  823  1026  1085  1068  995  868  696  480  182  -230  -670  -955  -970  -711  -278  141  428  606  719  769  781  830  973  1172  1329  1403  1406  1352  1255  1141  1027  909  780  659  583  557  538  485  383  254  128  41  69  285  651  1025  1279  1322  1123  784  489  325  241  180  134  111  105  98  78  53  43  55  65  40  -33  -159  -363  -696  -1117  -1467  -1635  -1664  -1653  -1638  -1561  -1317  -847  -209  419  837  999  1025  1028  1034  1043  1069  1122  1185  1241  1280  1278  1185  986  756  600  544  542  552  562  571  573  538  429  241  10  -225  -445  -632  -777  -880  -953  -1031  -1139  -1269  -1394  -1476  -1491  -1446  -1368  -1274  -1188  -1135  -1149  -1265  -1477  -1698  -1823  -1802  -1644  -1430  -1259  -1152  -1066  -990  -940  -910  -864  -788  -706  -631  -552  -466  -385  -330  -312  -320  -333  -345  -362  -386  -388  -323  -169  27  162  138  -80  -413  -692  -816  -797  -674  -494  -313  -146  45  249  411  581  865  1279  1760  2280  2778  3035  2829  2150  1131  -9  -942  -1408  -1468  -1362  -1176  -881  -545  -278  -83  110  351  610  801  869  805  619  360  103  -139  -409  -663  -801  -793  -698  -588  -501  -445  -411  -374  -329  -293  -278  -281  -279  -219  -64  149  358  571  815  1048  1217  1333  1453  1630  1848  2027  2116  2127  2083  1985  1848  1706  1593  1533  1544  1635  1784  1924  1990  1940  1750  1425  984  460  -56  -450  -693  -833  -913  -950  -960  -958  -957  -970  -1001  -1047  -1074  -999  -745  -361  -10  202  284  290  274  265  266  273  277  261  208  134  77  51  37  23  42  160  389  638  807  880  887  851  807  787  788  777  698  520  308  163  115  120  141  166  185  173  109  10  -104  -264  -523  -868  -1189  -1364  -1365  -1235  -1051  -884  -759  -697  -715  -773  -806  -798  -765  -738  -754  -841  -1003  -1201  -1354  -1404  -1354  -1259  -1188  -1173  -1202  -1265  -1359  -1472  -1573  -1628  -1600  -1475  -1297  -1152  -1082  -1075  -1101  -1129  -1098  -938  -658  -372  -189  -118  -89  -42  34  149  307  466  539  460  236  -59  -345  -570  -717  -813  -906  -1025  -1151  -1239  -1257  -1166  -924  -553  -145  224  510  681  756  790  808  787  702  624  695  970  1392  1934  2619  3382  4046  4384  4149  3202  1788  489  -229  -322  -59  247  414  402  286  181  139  139  151  152  115  -19  -295  -642  -903  -1006  -1013  -999  -971  -883  -695  -423  -135  114  325  492  584  595  566  552  578  633  706  814  963  1153  1397  1669  1899  2052  2170  2332  2580  2846  3013  3040  2951  2794  2634  2515  2403  2216  1920  1533  1094  692  419  270  168  61  -45  -151  -302  -549  -848  -1087  -1212  -1245  -1223  -1183  -1152  -1138  -1150  -1199  -1295  -1415  -1498  -1487  -1364  -1166  -950  -731  -524  -371  -281  -220  -159  -90  28  249  552  846  1072  1294  1616  2003  2293  2407  2419  2414  2399  2320  2141  1918  1745  1646  1586  1539  1492  1433  1329  1160  971  840  807  898  1134  1439  1649  1642  1409  1053  700  378  75  -165  -312  -403  -502  -639  -836  -1132  -1475  -1719  -1828  -1930  -2143  -2451  -2749  -2944  -3021  -3033  -3042  -3064  -3070  -3007  -2827  -2513  -2101  -1668  -1291  -1020  -857  -775  -752  -775  -831  -883  -894  -853  -768  -659  -556  -466  -379  -297  -228  -179  -141  -104  -55  23  148  309  483  638  729  721  619  480  380  349  358  362  320  207  56  -59  -103  -103  -98  -110  -163  -264  -382  -478  -536  -560  -555  -525  -482  -446  -445  -485  -482  -314  5  351  690  1107  1689  2472  3335  3897  3762  2896  1569  136  -1007  -1595  -1721  -1665  -1552  -1413  -1338  -1369  -1437  -1482  -1513  -1569  -1667  -1775  -1855  -1907  -1957  -2019  -2078  -2114  -2122  -2119  -2124  -2146  -2168  -2163  -2118  -2037  -1930  -1810  -1698  -1615  -1561  -1518  -1468  -1402  -1327  -1250  -1165  -1079  -1010  -948  -883  -833  -818  -818  -756  -555  -254  31  273  532  845  1190  1485  1649  1683  1633  1522  1339  1085  782  445  88  -269  -620  -921  -1086  -1053  -828  -524  -308  -259  -335  -454  -562  -646  -722  -790  -821  -794  -728  -647  -554  -432  -263  -65  91  146  69  -135  -383  -555  -614  -623  -649  -713  -787  -819  -752  -537  -194  180  465  599  614  589  560  495  350  157  14  -19  36  140  250  318  305  219  127  93  137  247  391  538  688  884  1128  1332  1435  1467  1487  1524  1570  1607  1636  1663  1683  1677  1621  1508  1361  1214  1100  1044  1044  1065  1076  1082  1100  1118  1087  965  784  632  549  507  475  445  413  376  341  318  311  322  366  465  612  728  728  628  526  472  427  354  269  203  151  88  17  -14  24  117  223  325  412  462  446  350  201  57  -41  -84  -83  -68  -87  -202  -437  -739  -976  -931  -436  364  1075  1452  1553  1643  1988  2604  3239  3526  3193  2312  1186  124  -555  -673  -446  -289  -414  -757  -1112  -1324  -1407  -1437  -1443  -1416  -1369  -1310  -1202  -997  -727  -480  -280  -56  215  455  594  614  511  308  86  -77  -153  -141  -61  37  107  132  127  106  86  114  202  309  437  640  914  1159  1310  1396  1475  1562  1641  1682  1682  1671  1710  1846  2053  2237  2346  2374  2270  1943  1432  938  605  412  277  167  93  71  100  146  165  137  73  -3  -98  -206  -297  -365  -463  -627  -800  -887  -860  -778  -714  -679  -636  -563  -459  -310  -93  155  342  417  418  400  391  397  420  451  472  479  476  473  477  495  522  547  557  531  450  336  243  180  70  -187  -590  -1001  -1289  -1428  -1477  -1495  -1462  -1289  -947  -567  -323  -242  -235  -237  -234  -247  -298  -392  -506  -611  -685  -726  -745  -752  -743  -738  -777  -868  -960  -1022  -1084  -1188  -1321  -1424  -1469  -1467  -1410  -1259  -1006  -731  -543  -468  -452  -447  -443  -454  -481  -505  -496  -456  -412  -371  -324  -286  -305  -464  -837  -1431  -2129  -2724  -3065  -3150  -3075  -2945  -2825  -2743  -2717  -2782  -2956  -3184  -3361  -3431  -3403  -3301  -3137  -2944  -2793  -2765  -2847  -2882  -2709  -2345  -1881  -1373  -886  -527  -424  -657  -1209  -1991  -2820  -3433  -3654  -3470  -2966  -2313  -1738  -1383  -1225  -1166  -1134  -1120  -1131  -1156  -1171  -1151  -1066  -924  -780  -680  -635  -631  -649  -672  -690  -698  -681  -609  -445  -191  90  312  433  470  465  453  450  464  499  565  647  669  563  378  237  230  376  600  791  918  1033  1168  1293  1400  1541  1758  2005  2202  2365  2611  3015  3514  3964  4270  4442  4538  4597  4635  4657  4654  4610  4516  4391  4277  4195  4096  3874  3484  3003  2562  2251  2081  2019  2036  2116  2225  2307  2290  2121  1810  1433  1047  699  472  393  402  444  507  591  688  773  823  830  794  712  593  470  389  364  377  412  460  509  546  569  579  587  594  600  617  662  732  800  846  870  879  872  830  744  641  564  517  481  466  481  493  464  408  373  397  473  579  690  785  843  864  858  832  790  761  808  994  1289  1569  1765  1925  2107  2296  2440  2527  2579  2596  2492  2094  1318  372  -410  -897  -1169  -1340  -1464  -1556  -1645  -1747  -1832  -1874  -1883  -1885  -1899  -1924  -1953  -1982  -2005  -2013  -2013  -2004  -1962  -1876  -1758  -1604  -1395  -1172  -1056  -1088  -1081  -792  -188  537  1186  1694  2008  2013  1693  1077  107  -1096  -2115  -2621  -2605  -2268  -1840  -1507  -1388  -1457  -1562  -1610  -1612  -1606  -1611  -1624  -1623  -1584  -1494  -1382  -1304  -1295  -1351  -1436  -1495  -1473  -1335  -1121  -922  -797  -725  -672  -645  -662  -724  -837  -1002  -1166  -1264  -1282  -1247  -1196  -1149  -1102  -1019  -842  -554  -210  110  376  607  830  1039  1202  1294  1306  1223  1031  804  702  830  1130  1424  1578  1607  1597  1606  1633  1650  1650  1639  1601  1507  1380  1288  1257  1256  1256  1243  1175  953  555  129  -146  -265  -328  -426  -631  -946  -1271  -1504  -1627  -1677  -1690  -1683  -1654  -1599  -1529  -1453  -1376  -1299  -1230  -1176  -1141  -1120  -1109  -1101  -1097  -1099  -1100  -1079  -1014  -904  -775  -634  -475  -324  -230  -203  -216  -255  -311  -365  -399  -414  -420  -410  -354  -232  -83  23  61  49  14  -35  -91  -128  -136  -134  -146  -182  -226  -252  -272  -314  -365  -402  -430  -446  -430  -367  -288  -246  -251  -269  -269  -254  -224  -151  4  244  499  672  740  759  782  812  819  774  690  600  513  423  337  272  227  172  72  -71  -214  -302  -329  -310  -259  -190  -133  -125  -183  -281  -366  -397  -338  -157  87  267  303  203  37  -75  -21  224  631  1184  1912  2798  3671  4250  4286  3642  2378  816  -535  -1289  -1464  -1375  -1290  -1277  -1270  -1204  -1107  -1032  -975  -924  -885  -858  -822  -773  -720  -672  -637  -625  -641  -666  -679  -692  -733  -795  -841  -860  -876  -925  -1017  -1127  -1216  -1255  -1236  -1158  -1016  -800  -519  -212  75  312  478  581  673  810  971  1062  1036  961  937  1005  1182  1511  1981  2428  2663  2665  2493  2169  1791  1445  1078  689  368  95  -218  -532  -739  -826  -864  -900  -916  -850  -652  -377  -162  -77  -81  -114  -143  -163  -180  -213  -284  -389  -488  -545  -563  -563  -561  -561  -558  -556  -582  -655  -745  -807  -825  -819  -812  -814  -822  -822  -804  -762  -703  -645  -609  -598  -602  -607  -609  -601  -578  -543  -518  -530  -595  -696  -785  -835  -846  -821  -735  -561  -343  -172  -82  -28  21  57  81  115  155  166  121  46  -10  -55  -141  -279  -411  -478  -475  -415  -305  -165  -41  26  28  -17  -87  -148  -180  -172  -98  70  325  588  779  885  939  963  968  967  967  955  903  789  619  444  333  301  309  321  325  333  379  497  670  834  949  1024  1073  1088  1029  857  625  453  394  401  404  349  219  54  -63  -63  100  407  724  911  954  929  896  891  954  1126  1347  1385  985  200  -545  -794  -402  458  1526  2591  3421  3696  3231  2119  622  -838  -1799  -2125  -2050  -1818  -1499  -1156  -925  -858  -885  -924  -947  -962  -981  -990  -972  -933  -896  -882  -887  -877  -809  -675  -531  -442  -424  -443  -451  -397  -250  -36  195  420  606  709  729  708  679  655  647  694  848  1127  1459  1703  1796  1793  1772  1771  1790  1815  1842  1902  2015  2150  2248  2282  2268  2207  2052  1793  1506  1261  1021  700  291  -110  -407  -591  -701  -760  -779  -767  -717  -627  -528  -468  -463  -492  -520  -525  -510  -495  -484  -462  -405  -289  -112  90  261  361  398  393  340  228  87  -37  -141  -233  -296  -321  -311  -261  -162  -37  85  222  370  474  479  382  225  65  -68  -182  -292  -393  -418  -262  94  503  757  760  554  275  76  5  8  34  58  37  -97  -366  -663  -853  -914  -916  -912  -910  -896  -855  -780  -686  -608  -571  -568  -593  -652  -731  -787  -786  -723  -621  -497  -345  -187  -102  -128  -217  -307  -386  -465  -536  -598  -655  -701  -726  -739  -750  -757  -754  -745  -745  -765  -814  -881  -924  -864  -642  -320  -65  36  37  14  -6  -25  -48  -76  -88  -63  0  69  91  26  -125  -326  -526  -685  -815  -940  -1043  -1080  -1049  -1010  -1018  -1089  -1224  -1401  -1564  -1667  -1684  -1572  -1327  -995  -598  -90  561  1311  2012  2448  2452  1965  992  -308  -1505  -2172  -2227  -1857  -1350  -935  -692  -595  -568  -534  -476  -425  -401  -391  -373  -331  -256  -143  -1  149  294  430  551  662  771  847  842  762  675  618  584  560  541  522  496  468  460  502  610  771  933  1061  1160  1246  1352  1526  1776  2043  2245  2354  2396  2413  2429  2451  2465  2461  2439  2379  2204  1853  1410  1062  877  758  584  338  112  -17  -76  -133  -219  -325  -426  -497  -533  -548  -565  -614  -706  -789  -781  -676  -556  -483  -448  -434  -454  -505  -554  -582  -609  -651  -689  -695  -679  -670  -669  -654  -605  -535  -485  -488  -548  -635  -702  -730  -735  -732  -714  -663  -591  -541  -553  -639  -761  -852  -882  -862  -805  -736  -692  -699  -753  -831  -904  -948  -965  -962  -927  -830  -640  -356  -56  153  234  226  160  46  -93  -219  -290  -284  -222  -166  -172  -267  -429  -609  -762  -854  -865  -810  -728  -657  -617  -608  -616  -633  -653  -670  -673  -669  -669  -681  -716  -780  -868  -960  -1018  -986  -860  -713  -610  -494  -267  35  257  310  234  116  25  -14  -23  -21  -23  -41  -79  -138  -250  -469  -777  -1060  -1245  -1370  -1495  -1630  -1750  -1815  -1777  -1621  -1418  -1268  -1175  -1017  -655  -103  481  949  1207  1303  1449  1845  2482  3052  3170  2699  1701  425  -582  -907  -688  -297  -8  49  10  102  308  462  512  502  459  379  259  131  38  -5  -15  1  54  136  225  311  391  449  476  475  462  450  452  485  542  605  676  763  878  1047  1309  1682  2102  2454  2672  2775  2823  2858  2883  2884  2849  2769  2662  2565  2511  2498  2495  2474  2428  2372  2323  2295  2284  2277  2255  2194  2092  1977  1855  1716  1591  1525  1545  1650  1796  1900  1887  1729  1484  1269  1157  1128  1134  1134  1096  1010  890  704  374  -58  -425  -633  -738  -797  -820  -808  -788  -780  -792  -842  -990  -1293  -1682  -1979  -2098  -2103  -2075  -2039  -1990  -1936  -1894  -1866  -1850  -1835  -1777  -1598  -1265  -857  -522  -340  -273  -248  -226  -197  -152  -99  -58  -41  -58  -120  -231  -357  -442  -472  -462  -420  -339  -243  -173  -149  -177  -276  -442  -637  -809  -930  -1037  -1208  -1448  -1665  -1789  -1838  -1859  -1869  -1872  -1874  -1875  -1863  -1824  -1770  -1730  -1715  -1713  -1716  -1728  -1751  -1764  -1751  -1721  -1677  -1604  -1490  -1357  -1242  -1149  -1055  -971  -939  -979  -1089  -1265  -1475  -1638  -1697  -1657  -1571  -1496  -1462  -1460  -1474  -1488  -1478  -1401  -1245  -1045  -852  -693  -588  -550  -545  -496  -380  -276  -214  -86  247  811  1521  2241  2762  2890  2628  2079  1270  341  -357  -609  -461  -52  424  775  954  1042  1109  1194  1323  1471  1568  1554  1410  1185  972  835  760  684  563  420  317  273  265  276  307  374  480  597  695  761  800  820  824  815  821  920  1202  1618  1982  2168  2221  2230  2225  2202  2162  2126  2098  2070  2058  2083  2138  2199  2264  2332  2396  2450  2489  2441  2169  1608  867  156  -375  -728  -981  -1174  -1311  -1401  -1469  -1518  -1504  -1378  -1177  -1005  -924  -923  -985  -1107  -1262  -1389  -1455  -1474  -1475  -1459  -1417  -1346  -1244  -1106  -921  -674  -364  -55  159  248  253  231  204  181  172  186  219  258  288  307  315  316  314  312  313  316  305  262  174  37  -142  -322  -449  -518  -563  -598  -611  -603  -584  -552  -534  -564  -626  -674  -666  -565  -351  -33  312  536  475  49  -601  -1159  -1442  -1544  -1602  -1645  -1659  -1663  -1693  -1764  -1856  -1931  -1961  -1901  -1699  -1391  -1109  -934  -851  -820  -820  -839  -867  -921  -1029  -1164  -1258  -1284  -1273  -1260  -1251  -1236  -1213  -1214  -1280  -1420  -1616  -1831  -1999  -2074  -2048  -1956  -1888  -1896  -1924  -1923  -1906  -1896  -1897  -1898  -1893  -1898  -1926  -1967  -1999  -2019  -2035  -2059  -2064  -1995  -1864  -1786  -1801  -1727  -1292  -356  965  2251  2964  2856  2069  922  -184  -894  -1094  -913  -568  -274  -151  -175  -260  -344  -401  -430  -441  -440  -426  -383  -283  -87  229  667  1170  1659  2096  2444  2656  2739  2714  2504  2005  1242  406  -264  -623  -637  -256  510  1385  1995  2289  2483  2713  2944  3109  3191  3211  3167  3046  2884  2746  2639  2521  2382  2241  2104  1960  1793  1571  1314  1099  938  738  421  59  -198  -295  -276  -155  101  462  801  1008  1085  1093  1077  1051  1024  1007  1002  996  974  920  834  735  640  524  315  0]
