reading_id,reading_time,wire_id,result_classification,heart_rate,heart_rate_alert,firmware_version,device_app_version,hardware_version,waveform_samples
69561640-6301-11ed-8080-808080808080,Sun Nov 13 03:15:23 UTC 2022,2101e3b12739,NSR,55,NONE,20001.171.50,2.10.0,Charge 5,[8092  8152  8238  8343  8414  8375  8171  7809  7396  7078  6881  6685  6392  6039  5739  5530  5351  5137  4869  4567  4295  4112  4017  3973  3941  3892  3769  3479  3025  2591  2358  2305  2270  2121  1870  1648  1515  1345  977  474  84  -80  -109  -97  -76  -86  -185  -369  -563  -746  -982  -1274  -1524  -1658  -1686  -1658  -1623  -1608  -1613  -1622  -1617  -1579  -1511  -1455  -1484  -1659  -1922  -2123  -2186  -2156  -2111  -2128  -2253  -2434  -2569  -2636  -2694  -2776  -2861  -2926  -2949  -2904  -2798  -2678  -2599  -2586  -2632  -2742  -2913  -3083  -3179  -3171  -3073  -2931  -2809  -2738  -2714  -2727  -2744  -2727  -2667  -2574  -2458  -2347  -2254  -2167  -2094  -2083  -2158  -2276  -2360  -2365  -2339  -2367  -2472  -2609  -2718  -2772  -2808  -2871  -2947  -2986  -2974  -2904  -2775  -2638  -2554  -2541  -2606  -2703  -2749  -2726  -2680  -2647  -2626  -2569  -2411  -2144  -1811  -1416  -953  -515  -226  -118  -148  -313  -714  -1469  -2481  -3383  -3866  -3968  -3919  -3859  -3789  -3676  -3532  -3387  -3245  -3070  -2861  -2682  -2583  -2561  -2620  -2716  -2761  -2748  -2728  -2739  -2773  -2794  -2776  -2739  -2702  -2660  -2615  -2576  -2547  -2536  -2543  -2543  -2489  -2347  -2152  -1965  -1801  -1641  -1490  -1385  -1331  -1302  -1264  -1164  -960  -672  -346  -9  321  593  750  810  828  825  809  816  890  1035  1216  1388  1531  1652  1756  1842  1906  1950  1967  1879  1591  1158  787  597  494  324  55  -220  -426  -546  -572  -505  -405  -365  -417  -499  -540  -533  -511  -491  -475  -445  -372  -255  -142  -81  -67  -52  13  150  327  473  532  509  445  363  272  190  138  111  96  87  94  123  167  242  376  543  665  708  704  681  632  550  430  248  24  -140  -165  -60  96  216  251  187  29  -153  -276  -314  -304  -309  -392  -559  -736  -844  -874  -858  -837  -838  -889  -997  -1126  -1225  -1274  -1286  -1284  -1276  -1263  -1241  -1225  -1242  -1320  -1440  -1527  -1509  -1374  -1158  -941  -802  -761  -805  -926  -1094  -1245  -1338  -1382  -1389  -1350  -1260  -1137  -1009  -905  -850  -834  -806  -732  -657  -674  -820  -1042  -1263  -1411  -1465  -1471  -1474  -1450  -1345  -1182  -1035  -937  -879  -847  -837  -857  -919  -1019  -1125  -1206  -1247  -1259  -1264  -1268  -1243  -1150  -981  -762  -517  -287  -123  -41  -14  -37  -134  -284  -413  -470  -474  -459  -441  -422  -386  -306  -168  -4  97  98  77  100  164  249  320  352  358  356  341  288  160  -53  -292  -460  -522  -511  -457  -388  -335  -311  -316  -351  -427  -536  -632  -677  -671  -628  -551  -444  -332  -247  -183  -47  247  622  893  1060  1313  1798  2583  3547  4225  4195  3393  2021  466  -845  -1598  -1709  -1420  -1033  -626  -240  4  94  140  223  343  461  549  595  603  565  469  338  236  200  219  269  325  364  383  410  483  612  754  862  920  916  844  734  643  606  648  796  1021  1223  1332  1378  1431  1510  1605  1748  1988  2275  2481  2566  2602  2655  2731  2827  2973  3192  3424  3573  3620  3632  3660  3691  3697  3693  3685  3579  3243  2687  2132  1799  1706  1732  1754  1668  1411  1056  755  548  381  253  196  195  209  191  108  -18  -120  -150  -130  -137  -233  -403  -562  -639  -621  -542  -438  -311  -158  -8  104  166  150  26  -166  -348  -478  -533  -503  -421  -350  -368  -468  -505  -392  -234  -155  -153  -174  -179  -137  -43  61  131  156  134  23  -229  -558  -794  -848  -767  -645  -558  -523  -513  -503  -477  -435  -383  -306  -223  -227  -338  -452  -496  -490  -495  -552  -632  -631  -499  -312  -146  -12  68  52  -91  -338  -617  -853  -995  -1022  -952  -840  -757  -741  -787  -876  -993  -1123  -1233  -1293  -1304  -1272  -1191  -1057  -908  -807  -770  -756  -735  -713  -708  -729  -764  -805  -852  -898  -942  -999  -1062  -1126  -1201  -1257  -1268  -1266  -1285  -1316  -1331  -1332  -1370  -1458  -1530  -1529  -1468  -1373  -1248  -1108  -1009  -1000  -1066  -1132  -1165  -1196  -1210  -1153  -1041  -928  -852  -835  -864  -900  -907  -871  -819  -774  -707  -623  -569  -565  -603  -678  -788  -909  -1005  -1057  -1068  -1049  -1018  -994  -986  -996  -1031  -1096  -1173  -1236  -1263  -1245  -1187  -1098  -998  -906  -811  -737  -737  -679  -340  288  1087  1933  2686  3257  3636  3804  3586  2785  1453  -147  -1618  -2529  -2710  -2379  -1836  -1232  -733  -475  -383  -316  -227  -132  -58  -10  0  -26  -58  -65  -49  -27  -9  29  122  250  349  395  414  424  427  422  415  422  485  636  837  1003  1093  1135  1153  1150  1136  1148  1251  1489  1795  2043  2188  2287  2382  2469  2543  2654  2872  3162  3386  3478  3479  3440  3442  3548  3703  3800  3778  3617  3368  3122  2905  2683  2423  2128  1844  1626  1464  1277  1017  714  389  18  -378  -734  -996  -1129  -1147  -1119  -1103  -1113  -1128  -1135  -1136  -1136  -1132  -1112  -1075  -1037  -1006  -971  -938  -920  -896  -813  -643  -447  -345  -382  -477  -557  -609  -633  -628  -619  -621  -620  -579  -466  -315  -205  -164  -145  -110  -75  -81  -137  -203  -242  -251  -249  -247  -245  -229  -179  -101  -60  -115  -237  -335  -365  -356  -343  -338  -340  -352  -363  -367  -413  -571  -796  -980  -1059  -1036  -958  -878  -802  -684  -504  -303  -131  -9  63  91  58  -76  -314  -558  -696  -689  -566  -400  -281  -243  -256  -273  -258  -180  -53  67  131  112  -8  -212  -419  -559  -636  -681  -723  -777  -815  -794  -712  -598  -480  -376  -297  -244  -221  -227  -248  -262  -255  -228  -189  -150  -120  -108  -111  -119  -111  -60  48  204  379  552  696  783  815  818  802  754  663  572  533  547  570  559  485  348  151  -103  -358  -524  -575  -536  -412  -222  -29  102  160  176  179  153  50  -117  -240  -222  12  505  1101  1627  2164  2784  3383  3852  3991  3467  2154  367  -1286  -2279  -2436  -1944  -1244  -747  -557  -512  -442  -332  -255  -253  -314  -393  -439  -458  -518  -664  -809  -793  -599  -382  -270  -252  -264  -275  -293  -333  -378  -394  -375  -351  -344  -350  -350  -315  -241  -156  -43  145  350  458  470  511  704  1029  1329  1487  1543  1599  1690  1789  1883  2004  2186  2401  2581  2691  2742  2740  2693  2636  2597  2575  2574  2598  2604  2477  2122  1627  1211  970  801  572  257  -81  -368  -554  -641  -664  -657  -649  -681  -782  -925  -1040  -1098  -1119  -1131  -1141  -1139  -1108  -1043  -968  -917  -887  -847  -779  -690  -589  -493  -437  -437  -467  -497  -518  -538  -564  -586  -580  -532  -472  -439  -404  -334  -255  -204  -177  -155  -122  -78  -33  -3  -23  -150  -392  -652  -815  -863  -850  -821  -783  -740  -704  -687  -688  -697  -692  -648  -558  -459  -397  -391  -431  -494  -548  -566  -548  -514  -503  -553  -671  -824  -965  -1053  -1042  -915  -708  -507  -394  -390  -446  -481  -446  -364  -299  -289  -324  -362  -377  -373  -358  -347  -377  -496  -699  -904  -1030  -1074  -1077  -1063  -1033  -996  -969  -954  -941  -923  -906  -888  -856  -802  -724  -634  -560  -522  -516  -523  -529  -526  -505  -466  -420  -371  -292  -156  -11  54  52  55  73  79  76  72  66  55  43  38  45  54  55  46  36  30  26  14  -4  -4  41  115  152  112  -35  -321  -650  -852  -829  -591  -275  -60  9  -2  -46  -89  -101  -70  -4  69  124  153  165  169  188  238  269  219  239  567  1150  1811  2510  3174  3673  3969  4003  3632  2859  1825  657  -404  -1126  -1543  -1755  -1754  -1591  -1392  -1221  -1046  -812  -555  -377  -310  -298  -297  -296  -290  -279  -280  -308  -343  -314  -168  34  169  185  136  97  111  192  338  526  704  815  864  907  968  1032  1094  1158  1217  1266  1325  1421  1561  1730  1907  2058  2144  2161  2141  2109  2071  2038  2030  2074  2183  2315  2402  2412  2366  2297  2185  1997  1785  1635  1542  1425  1201  853  480  215  77  -25  -149  -275  -366  -435  -526  -658  -801  -910  -965  -993  -1067  -1263  -1555  -1806  -1918  -1896  -1786  -1650  -1558  -1530  -1533  -1532  -1526  -1540  -1585  -1614  -1575  -1488  -1410  -1370  -1361  -1354  -1312  -1217  -1096  -1009  -970  -937  -887  -843  -826  -834  -847  -853  -844  -830  -841  -887  -950  -992  -979  -914  -803  -626  -413  -261  -234  -317  -454  -578  -647  -662  -632  -554  -447  -354  -299  -268  -240  -216  -205  -206  -222  -265  -328  -400  -491  -583  -636  -643  -626  -603  -588  -582  -587  -608  -643  -666  -616  -445  -202  -29  -43  -256  -555  -771  -834  -791  -697  -565  -383  -187  -59  -28  -46  -69  -91  -117  -149  -183  -218  -251  -278  -292  -293  -279  -251  -213  -177  -163  -171  -174  -153  -127  -125  -154  -197  -230  -238  -227  -209  -194  -168  -112  -64  -113  -305  -549  -679  -647  -553  -485  -457  -418  -285  -45  197  328  336  278  204  129  51  -7  0  132  393  688  898  992  982  814  440  -25  -364  -492  -485  -435  -375  -313  -268  -267  -307  -358  -382  -375  -363  -366  -380  -403  -452  -495  -357  135  879  1555  2034  2455  2908  3327  3641  3710  3347  2508  1253  -303  -1848  -2919  -3173  -2649  -1747  -929  -453  -291  -260  -245  -226  -186  -99  11  96  139  161  179  197  224  275  347  417  468  492  501  522  582  672  753  801  799  735  630  521  437  395  404  466  585  750  953  1174  1382  1546  1651  1697  1711  1758  1908  2149  2394  2577  2683  2734  2759  2771  2776  2780  2785  2777  2727  2624  2524  2493  2517  2522  2448  2280  2057  1814  1534  1200  850  543  304  89  -168  -442  -620  -662  -635  -630  -721  -935  -1208  -1428  -1526  -1514  -1432  -1321  -1202  -1074  -951  -870  -839  -819  -769  -695  -634  -613  -632  -680  -738  -779  -782  -721  -587  -447  -387  -402  -450  -518  -586  -637  -664  -651  -611  -585  -576  -563  -549  -540  -534  -530  -546  -605  -703  -796  -842  -820  -727  -596  -481  -400  -330  -267  -234  -235  -248  -268  -310  -368  -416  -436  -434  -428  -451  -527  -634  -719  -753  -730  -635  -476  -315  -218  -197  -209  -211  -202  -202  -221  -278  -385  -521  -659  -810  -967  -1077  -1115  -1113  -1099  -1075  -1038  -1017  -1035  -1090  -1210  -1440  -1730  -1933  -1937  -1750  -1488  -1300  -1238  -1254  -1301  -1358  -1411  -1448  -1464  -1443  -1338  -1117  -843  -649  -586  -606  -663  -746  -841  -921  -976  -1014  -1032  -1011  -943  -861  -801  -764  -725  -656  -528  -363  -232  -161  -120  -85  -65  -69  -89  -112  -132  -136  -78  79  291  450  514  522  527  559  619  672  644  453  105  -251  -461  -510  -467  -378  -280  -215  -199  -210  -213  -173  -81  29  106  134  123  56  -101  -275  -229  145  706  1284  1763  2184  2739  3407  3901  3996  3598  2637  1239  -198  -1305  -1855  -1805  -1356  -785  -284  28  138  159  183  231  312  433  590  743  833  868  912  962  984  988  1002  1031  1046  1028  1001  1009  1089  1238  1416  1571  1660  1694  1725  1782  1853  1920  1988  2071  2169  2274  2372  2462  2541  2580  2552  2492  2447  2437  2451  2469  2506  2592  2700  2769  2782  2775  2795  2873  2983  3057  3018  2815  2483  2153  1921  1763  1619  1475  1360  1293  1244  1120  800  242  -393  -846  -1020  -1031  -1029  -1084  -1177  -1274  -1390  -1556  -1744  -1886  -1953  -1952  -1863  -1674  -1446  -1281  -1215  -1205  -1197  -1178  -1166  -1177  -1221  -1285  -1342  -1364  -1319  -1178  -980  -822  -766  -815  -958  -1143  -1287  -1349  -1335  -1255  -1121  -950  -771  -632  -548  -483  -416  -371  -379  -433  -487  -522  -590  -716  -855  -966  -1067  -1164  -1212  -1182  -1109  -1018  -894  -762  -678  -650  -622  -549  -466  -449  -517  -637  -777  -889  -931  -901  -822  -731  -642  -530  -371  -185  -29  57  94  119  160  224  276  255  137  -34  -193  -317  -424  -510  -568  -598  -609  -593  -524  -403  -280  -225  -253  -326  -404  -475  -519  -470  -294  -67  89  126  55  -109  -327  -519  -634  -684  -704  -714  -708  -655  -530  -370  -251  -200  -186  -189  -235  -361  -532  -656  -697  -696  -698  -718  -734  -681  -476  -129  221  436  492  438  322  190  93  59  55  -9  -215  -542  -852  -1014  -1012  -928  -869  -859  -825  -743  -690  -730  -860  -994  -1062  -1089  -1128  -1153  -1098  -942  -744  -601  -514  -345  -6  480  1090  1749  2310  2620  2498  1824  744  -439  -1502  -2203  -2384  -2241  -2037  -1816  -1573  -1321  -1057  -813  -623  -481  -367  -278  -217  -176  -160  -165  -142  -81  -34  -32  -47  -52  -51  -76  -156  -267  -344  -347  -287  -204  -147  -133  -147  -144  -58  152  414  580  584  490  393  360  483  846  1336  1697  1824  1834  1856  1910  1962  2058  2306  2702  3070  3231  3171  3005  2842  2716  2626  2579  2576  2595  2593  2499  2262  1946  1662  1397  1072  691  338  70  -109  -224  -272  -226  -119  -79  -158  -269  -344  -382  -400  -416  -439  -465  -473  -444  -382  -315  -273  -258  -258  -264  -283  -320  -362  -383  -378  -369  -369  -361  -329  -284  -244  -223  -218  -217  -213  -204  -208  -257  -377  -554  -727  -799  -736  -630  -581  -587  -579  -494  -336  -181  -97  -81  -86  -96  -145  -285  -520  -768  -916  -923  -818  -612  -316  -17  167  204  128  -29  -231  -406  -487  -470  -406  -343  -309  -306  -322  -341  -356  -374  -389  -383  -346  -296  -273  -316  -442  -607  -732  -780  -771  -712  -588  -428  -319  -334  -492  -727  -926  -1035  -1073  -1058  -969  -781  -522  -262  -52  111  235  296  268  135  -53  -201  -239  -173  -53  67  157  203  193  122  5  -115  -210  -283  -339  -376  -392  -387  -358  -312  -268  -244  -261  -334  -454  -560  -586  -544  -493  -407  -173  207  536  701  919  1429  2148  2852  3373  3531  3195  2431  1380  152  -1018  -1862  -2319  -2441  -2269  -1909  -1527  -1205  -900  -596  -386  -327  -371  -448  -508  -539  -544  -527  -498  -469  -430  -365  -257  -120  -6  58  96  131  153  147  117  86  71  68  73  114  252  516  831  1050  1120  1103  1063  1045  1113  1325  1628  1878  2000  2045  2088  2166  2279  2424  2578  2698  2773  2837  2921  3013  3077  3086  3010  2838  2603  2358  2133  1946  1813  1716  1623  1498  1277  905  473  169  57  51  71  94  98  15  -225  -578  -900  -1122  -1266  -1354  -1397  -1409  -1411  -1416  -1418  -1394  -1324  -1208  -1080  -987  -935  -904  -881  -872  -878  -888  -894  -895  -880  -821  -692  -532  -416  -368  -355  -360  -401  -468  -522  -541  -540  -537  -534  -525  -503  -472  -443  -424  -416  -407  -371  -290  -179  -89  -75  -160  -319  -491  -606  -645  -642  -628  -606  -557  -483  -400  -328  -279  -257  -254  -259  -268  -287  -321  -376  -445  -507  -552  -619  -757  -929  -1009  -881  -555  -190  41  119  113  70  -3  -101  -191  -245  -271  -279  -229  -82  61  30  -144  -290  -366  -421  -455  -449  -405  -363  -357  -374  -386  -390  -402  -426  -442  -422  -354  -245  -125  -39  -7  -15  -45  -92  -144  -180  -194  -205  -253  -373  -539  -674  -736  -739  -703  -631  -546  -496  -509  -580  -684  -786  -867  -942  -1017  -1085  -1138  -1152  -1052  -790  -491  -324  -182  254  1194  2504  3679  4210  3991  3225  2098  692  -846  -2229  -3112  -3179  -2381  -1211  -348  -54  -139  -303  -386  -395  -383  -378  -388  -405  -402  -321  -127  117  297  377  403  414  422  427  429  411  358  287  245  263  339  446  581  779  1028  1233  1327  1330  1276  1169  1016  882  856  950  1144  1484  1960  2391  2617  2655  2605  2525  2435  2366  2381  2579  2986  3449  3739  3746  3504  3144  2821  2590  2414  2283  2212  2167  2036  1717  1251  800  481  301  219  183  130  -8  -241  -480  -627  -669  -662  -678  -775  -958  -1154  -1279  -1315  -1299  -1268  -1232  -1199  -1186  -1169  -1111  -1036  -976  -924  -884  -872  -878  -881  -854  -772  -633  -477  -368  -327  -316  -299  -278  -272  -283  -288  -267  -237  -230  -254  -301  -358  -419  -495  -597  -695  -718  -620  -450  -313  -259  -262  -283  -318  -370  -419  -442  -444  -450  -483  -536  -584  -617  -644  -663  -663  -635  -578  -509  -452  -431  -439  -451  -440  -403  -381  -406  -450  -470  -471  -489  -553  -635  -661  -585  -455  -366  -364  -417  -491  -586  -688  -738  -691  -568  -422  -303  -237  -217  -221  -242  -294  -383  -483  -557  -599  -620  -632  -647  -664  -668  -620  -504  -371  -304  -312  -351  -393  -413  -396  -358  -321  -294  -282  -286  -297  -288  -215  -45  176  330  310  100  -195  -410  -449  -331  -126  82  230  300  314  294  232  110  -48  -180  -271  -381  -534  -671  -737  -745  -736  -724  -699  -653  -602  -574  -571  -555  -522  -500  -487  -470  -470  -474  -409  -159  368  1142  1986  2703  3238  3572  3537  2965  1858  351  -1217  -2307  -2652  -2499  -2174  -1803  -1431  -1106  -882  -755  -642  -492  -348  -269  -251  -253  -252  -252  -273  -325  -371  -348  -236  -77  67  147  150  117  79  35  -19  -69  -88  -61  31  240  586  970  1246  1367  1390  1380  1357  1315  1264  1262  1390  1658  1955  2158  2266  2347  2432  2515  2582  2631  2675  2734  2808  2865  2887  2884  2883  2888  2867  2775  2601  2378  2142  1878  1549  1159  779  474  248  91  8  0  20  -30  -226  -525  -818  -1016  -1079  -1036  -971  -952  -962  -923  -804  -689  -671  -728  -776  -771  -725  -660  -574  -476  -400  -364  -355  -352  -348  -344  -349  -364  -357  -313  -318  -460  -648  -746  -746  -705  -662  -612  -530  -433  -369  -348  -346  -356  -404  -501  -593  -609  -589  -618  -684  -728  -737  -730  -726  -731  -729  -704  -674  -684  -755  -852  -906  -862  -750  -654  -608  -578  -532  -483  -465  -476  -507  -584  -718  -864  -959  -972  -917  -810  -642  -442  -303  -282  -358  -467  -546  -581  -593  -599  -604  -610  -616  -617  -605  -576  -536  -497  -478  -512  -595  -663  -668  -620  -561  -510  -455  -406  -389  -409  -446  -455  -398  -289  -183  -139  -178  -265  -347  -403  -436  -442  -395  -273  -109  16  55  18  -82  -268  -509  -703  -774  -721  -591  -454  -372  -357  -361  -326  -235  -131  -40  45  97  108  124  165  227  309  391  443  454  434  383  302  208  128  60  0  -14  30  46  -68  -274  -436  -495  -495  -493  -510  -543  -559  -512  -426  -398  -468  -602  -734  -770  -691  -575  -456  -262  132  775  1525  2192  2706  3095  3366  3386  2994  2165  963  -400  -1527  -2114  -2162  -1829  -1327  -924  -784  -838  -900  -881  -809  -705  -572  -393  -158  71  218  275  291  293  243  70  -220  -504  -649  -634  -515  -319  -21  336  614  713  671  581  511  473  452  442  442  457  516  680  1008  1481  1962  2298  2454  2492  2446  2321  2158  2043  2041  2162  2361  2571  2773  3029  3368  3693  3882  3895  3748  3478  3156  2834  2532  2266  2047  1877  1769  1707  1618  1411  1078  720  442  276  196  149  94  45  26  25  8  -45  -117  -165  -173  -165  -185  -268  -390  -474  -483  -450  -426  -435  -481  -546  -594  -589  -521  -410  -297  -215  -176  -171  -175  -158  -118  -82  -41  30  112  152  117  16  -82  -145  -218  -285  -273  -184  -65  50  128  160  171  177  154  65  -96  -277  -408  -464  -458  -410  -340  -268  -214  -197  -229  -300  -371  -412  -423  -422  -413  -385  -335  -285  -269  -350  -596  -965  -1297  -1475  -1524  -1522  -1514  -1490  -1417  -1290  -1151  -1058  -1073  -1216  -1397  -1505  -1529  -1517  -1499  -1480  -1459  -1436  -1413  -1392  -1376  -1365  -1371  -1400  -1432  -1450  -1457  -1467  -1474  -1457  -1390  -1279  -1167  -1103  -1127  -1225  -1294  -1266  -1200  -1162  -1118  -1020  -913  -895  -976  -1089  -1199  -1295  -1343  -1316  -1212  -1017  -724  -418  -254  -303  -483  -672  -822  -942  -1033  -1082  -1081  -1008  -837  -631  -502  -476  -493  -508  -513  -507  -482  -442  -403  -384  -386  -400  -405  -390  -355  -287  -163  -18  58  30  -61  -162  -251  -331  -403  -456  -492  -520  -555  -619  -713  -809  -875  -890  -867  -856  -906  -1014  -1123  -1138  -980  -713  -473  -264  12  346  669  1042  1584  2318  3153  3827  3953  3444  2547  1428  153  -1066  -1935  -2333  -2303  -1866  -1190  -632  -349  -251  -237  -247  -253  -255  -256  -244  -193  -81  64  189  257  275  270  272  300  360  459  611  776  859  829  739  651  599  596  661  797  972  1137  1258  1336  1422  1579  1801  2031  2216  2333  2387  2396  2386  2400  2460  2544  2630  2767  3036  3398  3700  3841  3818  3675  3483  3320  3231  3207  3214  3228  3229  3210  3169  3050  2727  2153  1466  808  241  -160  -347  -371  -310  -191  -59  -27  -196  -545  -941  -1250  -1411  -1447  -1398  -1284  -1142  -1037  -999  -1019  -1098  -1236  -1357  -1345  -1199  -1042  -964  -950  -954  -954  -948  -934  -910  -884  -872  -855  -771  -597  -393  -261  -278  -409  -553  -664  -749  -806  -832  -833  -795  -691  -551  -453  -437  -477  -502  -471  -414  -384  -399  -454  -522  -580  -598  -528  -382  -244  -167  -150  -198  -326  -506  -667  -756  -784  -769  -696  -554  -392  -279  -263  -327  -373  -333  -289  -336  -460  -588  -669  -702  -713  -714  -706  -690  -675  -661  -647  -638  -636  -639  -642  -639  -622  -587  -547  -521  -513  -509  -489  -454  -428  -432  -462  -486  -482  -472  -481  -485  -465  -437  -425  -435  -464  -510  -561  -595  -605  -600  -594  -588  -576  -557  -538  -535  -563  -608  -622  -555  -398  -218  -116  -103  -116  -134  -171  -240  -346  -482  -602  -635  -541  -369  -203  -92  -40  -31  -57  -122  -206  -252  -206  -62  114  234  268  246  211  200  235  285  279  171  10  -104  -148  -190  -296  -445  -565  -647  -718  -755  -731  -697  -701  -715  -704  -683  -687  -725  -772  -755  -583  -240  186  569  850  1183  1766  2564  3358  3904  3963  3383  2256  847  -602  -1822  -2527  -2677  -2455  -2024  -1504  -1046  -744  -588  -514  -416  -245  -87  -20  -19  -35  -48  -64  -85  -103  -105  -73  -2  91  196  340  537  738  880  953  981  984  963  910  836  782  789  866  974  1049  1082  1151  1339  1618  1855  1971  2018  2070  2141  2222  2329  2489  2697  2917  3105  3239  3320  3367  3406  3455  3522  3594  3624  3576  3477  3390  3323  3154  2724  2078  1494  1158  1014  922  819  707  573  393  183  -6  -180  -381  -621  -844  -981  -1024  -1019  -1011  -1010  -997  -950  -878  -831  -840  -877  -895  -868  -804  -737  -672  -583  -490  -449  -498  -640  -808  -905  -907  -843  -740  -637  -540  -418  -285  -186  -150  -191  -276  -369  -468  -549  -584  -591  -585  -563  -521  -487  -550  -770  -1055  -1243  -1284  -1240  -1179  -1121  -1061  -1002  -958  -933  -900  -824  -716  -630  -591  -589  -633  -747  -902  -1018  -1055  -1053  -1065  -1110  -1144  -1095  -949  -773  -642  -587  -588  -607  -621  -620  -573  -447  -290  -244  -400  -676  -899  -998  -1016  -993  -914  -766  -598  -486  -467  -510  -559  -595  -634  -702  -798  -898  -958  -946  -824  -556  -195  104  231  155  -126  -527  -864  -1029  -1057  -1018  -958  -881  -780  -637  -408  -93  218  428  505  465  332  121  -119  -301  -366  -336  -265  -189  -123  -101  -211  -520  -928  -1227  -1349  -1390  -1429  -1469  -1489  -1470  -1398  -1277  -1136  -1005  -889  -750  -564  -360  -119  237  724  1328  1964  2491  2885  3123  3095  2722  1963  787  -669  -1967  -2673  -2735  -2353  -1773  -1229  -875  -712  -632  -544  -427  -303  -219  -191  -194  -192  -161  -98  -13  80  174  279  411  545  624  607  492  334  222  196  232  291  344  383  409  443  534  702  930  1187  1416  1547  1571  1549  1554  1650  1860  2134  2366  2496  2563  2641  2742  2838  2933  3060  3213  3335  3399  3416  3384  3310  3224  3160  3129  3122  3107  3037  2882  2654  2366  1971  1474  953  443  -16  -339  -498  -548  -556  -562  -577  -598  -621  -642  -658  -683  -730  -786  -823  -844  -888  -966  -1004  -933  -792  -698  -725  -835  -926  -954  -947  -935  -917  -861  -741  -586  -455  -379  -352  -352  -356  -348  -318  -282  -286  -380  -534  -663  -722  -727  -704  -677  -664  -675  -710  -757  -791  -806  -830  -900  -1002  -1045  -953  -761  -539  -367  -335  -425  -553  -691  -797  -830  -811  -782  -768  -776  -792  -808  -816  -794  -706  -551  -370  -221  -144  -127  -129  -129  -137  -171  -244  -333  -401  -450  -504  -559  -604  -629  -611  -553  -495  -467  -466  -478  -490  -501  -518  -553  -629  -745  -867  -949  -969  -920  -785  -563  -335  -220  -234  -282  -291  -272  -266  -295  -347  -393  -413  -418  -454  -570  -754  -915  -955  -853  -684  -554  -505  -529  -623  -778  -946  -1078  -1150  -1135  -1053  -1018  -1099  -1120  -833  -223  563  1360  2031  2510  2854  3188  3448  3299  2460  913  -1058  -2825  -3765  -3696  -2911  -1960  -1311  -1074  -1046  -972  -751  -469  -261  -170  -162  -192  -229  -254  -266  -272  -265  -229  -171  -128  -107  -95  -89  -83  -40  63  222  416  608  749  819  847  858  852  823  791  804  912  1122  1401  1699  1955  2127  2211  2241  2266  2303  2337  2365  2409  2495  2623  2781  2957  3137  3287  3362  3365  3333  3263  3109  2884  2658  2437  2145  1760  1372  1070  829  610  450  357  253  60  -197  -454  -712  -973  -1184  -1330  -1433  -1478  -1435  -1335  -1252  -1236  -1272  -1305  -1294  -1249  -1219  -1239  -1280  -1303  -1308  -1316  -1334  -1329  -1243  -1081  -939  -890  -897  -887  -832  -755  -684  -629  -577  -522  -459  -373  -279  -219  -225  -323  -527  -787  -1000  -1105  -1135  -1153  -1160  -1052  -703  -148  371  644  638  411  29  -415  -779  -926  -843  -668  -520  -413  -339  -303  -289  -290  -322  -396  -463  -459  -402  -374  -377  -330  -210  -97  -61  -91  -144  -210  -284  -341  -337  -252  -118  4  85  122  116  56  -51  -159  -209  -194  -154  -114  -58  21  87  78  -37  -204  -330  -389  -414  -436  -460  -475  -474  -452  -417  -395  -406  -430  -448  -466  -491  -518  -533  -500  -327  61  592  1087  1485  1862  2287  2764  3213  3470  3337  2680  1477  -181  -1936  -3163  -3441  -2858  -1827  -840  -291  -195  -250  -283  -344  -436  -517  -609  -715  -772  -727  -599  -469  -400  -386  -384  -359  -310  -252  -183  -115  -77  -73  -62  -28  -1  4  53  228  519  816  1019  1099  1082  1019  965  974  1066  1206  1355  1488  1583  1648  1727  1859  2059  2297  2512  2666  2758  2801  2823  2839  2847  2837  2799  2734  2664  2603  2538  2410  2160  1822  1507  1250  997  745  556  452  368  191  -156  -611  -988  -1161  -1148  -1025  -874  -768  -732  -757  -848  -1002  -1134  -1110  -922  -724  -682  -831  -1065  -1233  -1284  -1267  -1230  -1193  -1164  -1141  -1098  -1008  -882  -761  -657  -570  -524  -531  -571  -616  -660  -710  -761  -765  -683  -569  -533  -627  -799  -951  -1021  -980  -822  -621  -538  -658  -894  -1082  -1154  -1131  -1031  -854  -638  -467  -419  -489  -619  -781  -958  -1096  -1125  -992  -691  -327  -80  -41  -166  -346  -504  -671  -905  -1098  -1044  -744  -433  -272  -235  -245  -283  -366  -497  -645  -775  -838  -798  -656  -428  -168  16  69  8  -143  -369  -651  -930  -1121  -1189  -1158  -1054  -882  -671  -486  -387  -384  -463  -598  -759  -898  -953  -873  -673  -437  -244  -107  4  106  187  213  146  -17  -205  -336  -408  -475  -563  -652  -692  -661  -598  -544  -503  -486  -508  -559  -615  -649  -637  -592  -540  -485  -433  -417  -426  -326  5  553  1289  2133  2871  3371  3669  3752  3489  2740  1517  3  -1405  -2216  -2268  -1869  -1451  -1236  -1172  -1102  -959  -796  -678  -598  -534  -503  -515  -534  -503  -396  -250  -150  -140  -178  -204  -200  -174  -149  -136  -131  -116  -58  88  344  648  877  968  947  859  747  670  693  858  1135  1440  1693  1856  1934  1965  2006  2102  2236  2354  2439  2506  2551  2571  2611  2742  3008  3339  3587  3672  3591  3355  3046  2804  2687  2632  2532  2319  2016  1731  1518  1333  1121  887  653  422  188  -43  -248  -406  -527  -645  -761  -825  -825  -802  -796  -807  -814  -816  -845  -917  -990  -1023  -1010  -966  -901  -819  -723  -642  -599  -583  -569  -537  -491  -450  -423  -406  -389  -362  -341  -367  -466  -603  -700  -721  -695  -660  -638  -631  -633  -639  -653  -665  -653  -598  -520  -460  -430  -416  -418  -447  -501  -558  -589  -561  -456  -270  -21  209  307  221  1  -254  -489  -699  -875  -986  -1004  -890  -621  -294  -70  0  -13  -46  -96  -177  -265  -321  -343  -357  -377  -410  -461  -529  -580  -533  -359  -151  -16  23  8  -30  -90  -162  -225  -267  -270  -221  -164  -154  -202  -278  -355  -439  -539  -640  -716  -750  -748  -731  -720  -720  -725  -730  -742  -768  -805  -838  -858  -868  -872  -876  -883  -898  -924  -953  -959  -918  -824  -707  -603  -520  -467  -473  -529  -583  -607  -613  -615  -612  -587  -532  -467  -420  -376  -284  -146  -33  -8  -55  -116  -158  -183  -199  -208  -210  -190  -132  -53  32  135  223  256  256  257  253  189  27  -185  -349  -433  -476  -507  -532  -568  -610  -637  -650  -689  -794  -954  -1122  -1267  -1386  -1392  -1088  -422  359  952  1243  1376  1650  2265  3035  3437  3105  2031  410  -1257  -2363  -2772  -2660  -2095  -1314  -796  -693  -752  -756  -690  -622  -594  -597  -605  -591  -541  -465  -390  -315  -230  -123  -2  98  134  90  24  8  53  114  150  164  179  215  284  400  586  840  1096  1264  1331  1354  1396  1475  1559  1648  1777  1920  2014  2054  2089  2164  2293  2471  2675  2865  2993  3046  3053  3063  3110  3186  3240  3245  3224  3203  3169  3101  2988  2784  2437  2009  1644  1357  1044  709  472  367  302  155  -127  -430  -562  -519  -430  -369  -360  -406  -472  -535  -603  -688  -776  -814  -780  -721  -695  -721  -775  -817  -825  -805  -771  -737  -711  -683  -657  -630  -586  -530  -485  -462  -439  -394  -334  -287  -266  -261  -261  -262  -272  -307  -354  -381  -376  -373  -446  -643  -881  -1011  -984  -866  -741  -657  -605  -572  -560  -566  -580  -593  -602  -613  -630  -659  -694  -717  -698  -618  -505  -418  -388  -413  -492  -608  -715  -774  -786  -778  -773  -778  -774  -735  -670  -627  -633  -692  -804  -939  -1033  -1063  -1063  -1063  -1064  -1036  -953  -827  -706  -617  -553  -517  -505  -484  -441  -418  -455  -531  -592  -614  -613  -608  -619  -663  -731  -782  -792  -784  -813  -913  -1053  -1162  -1197  -1153  -994  -692  -325  -44  83  110  99  68  5  -88  -206  -340  -457  -513  -512  -483  -433  -357  -277  -223  -202  -203  -221  -266  -330  -386  -415  -421  -406  -350  -234  -94  -1  27  53  134  250  329  343  327  314  309  304  297  297  313  348  387  399  324  108  -189  -427  -539  -557  -541  -537  -548  -537  -489  -462  -548  -744  -931  -983  -840  -540  -196  78  254  431  722  1116  1600  2226  2906  3413  3554  3234  2467  1336  4  -1215  -2017  -2357  -2350  -2099  -1693  -1186  -642  -210  12  80  87  84  84  85  85  84  84  84  83  79  68  55  42  31  25  50  138  290  461  593  659  664  638  604  560  498  446  444  511  688  1030  1497  1933  2204  2300  2294  2247  2169  2057  1940  1873  1883  1942  2009  2084  2246  2602  3127  3633  3947  4028  3928  3745  3557  3384  3212  3030  2835  2653  2521  2395  2172  1832  1435  1000  522  81  -246  -511  -774  -989  -1108  -1150  -1150  -1112  -1026  -918  -843  -818  -810  -795  -784  -788  -799  -812  -834  -849  -788  -600  -409  -432  -674  -917  -1027  -1048  -1050  -1042  -975  -797  -545  -326  -203  -174  -234  -378  -539  -576  -450  -325  -329  -400  -436  -414  -366  -334  -345  -401  -463  -488  -486  -519  -632  -781  -886  -923  -926  -916  -883  -797  -649  -485  -373  -359  -443  -568  -666  -714  -728  -727  -715  -689  -655  -629  -606  -576  -543  -512  -477  -445  -429  -426  -429  -436  -448  -454  -449  -433  -423  -445  -511  -584  -617  -592  -527  -486  -515  -596  -692  -777  -833  -883  -977  -1112  -1222  -1255  -1179  -999  -809  -704  -665  -637  -626  -655  -729  -838  -956  -1055  -1119  -1157  -1185  -1202  -1199  -1182  -1168  -1152  -1090  -952  -779  -657  -615  -619  -639  -679  -747  -812  -835  -823  -810  -804  -779  -700  -573  -447  -333  -211  -91  -11  -7  -102  -288  -499  -644  -697  -706  -710  -709  -691  -651  -607  -589  -612  -677  -754  -807  -829  -830  -823  -803  -749  -658  -559  -507  -580  -759  -769  -351  323  879  1267  1735  2414  3227  3998  4420  4181  3290  1993  448  -1128  -2272  -2650  -2371  -1787  -1223  -845  -661  -581  -493  -367  -239  -132  -56  -7  33  55  37  -1  -37  -63  -82  -89  -57  41  203  374  484  512  491  459  439  430  429  443  485  547  608  658  700  729  751  800  920  1133  1416  1693  1879  1966  2008  2057  2152  2312  2502  2660  2775  2863  2927  2992  3089  3204  3287  3309  3277  3208  3099  2948  2786  2666  2567  2337  1869  1296  867  645  494  293  58  -115  -195  -232  -300  -433  -599  -743  -861  -978  -1087  -1157  -1185  -1174  -1106  -966  -795  -671  -626  -639  -666  -665  -618  -554  -517  -523  -531  -505  -485  -532  -634  -726  -757  -710  -584  -425  -310  -272  -292  -343  -405  -452  -478  -481  -443  -357  -277  -297  -415  -526  -560  -544  -533  -548  -587  -632  -667  -681  -657  -583  -482  -410  -400  -445  -510  -556  -572  -568  -547  -508  -464  -453  -497  -565  -601  -572  -501  -460  -498  -567  -604  -602  -591  -577  -517  -358  -150  -28  -62  -185  -286  -323  -322  -305  -271  -222  -174  -149  -151  -171  -211  -276  -351  -406  -427  -429  -423  -408  -379  -343  -316  -303  -297  -286  -269  -259  -286  -362  -468  -568  -632  -644  -601  -522  -450  -417  -406  -406  -455  -558  -643  -673  -685  -732  -820  -912  -959  -921  -765  -534  -341  -258  -256  -275  -285  -286  -298  -343  -421  -486  -490  -443  -414  -438  -466  -438  -363  -303  -289  -310  -349  -401  -461  -521  -576  -633  -694  -744  -769  -768  -751  -734  -724  -719  -727  -742  -692  -495  -167  222  616  1020  1530  2210  2948  3464  3462  2818  1642  201  -1184  -2180  -2607  -2552  -2215  -1810  -1487  -1241  -1017  -832  -741  -729  -725  -686  -625  -596  -629  -687  -710  -685  -623  -504  -287  -14  182  238  188  83  -28  -76  -5  174  383  540  609  591  510  416  342  285  269  412  837  1458  1979  2218  2243  2200  2154  2105  2062  2075  2216  2502  2821  3035  3130  3191  3273  3370  3443  3472  3452  3364  3195  2993  2825  2705  2601  2472  2289  2049  1784  1536  1284  976  646  400  281  234  187  85  -104  -339  -522  -624  -686  -750  -838  -939  -1006  -1010  -957  -844  -666  -470  -340  -305  -350  -457  -589  -686  -722  -700  -616  -477  -322  -196  -120  -85  -69  -53  -34  -20  -15  -16  -19  -18  -10  5  20  13  -32  -104  -162  -200  -261  -379  -527  -642  -698  -710  -695  -661  -609  -551  -511  -505  -516  -526  -530  -532  -532  -528  -516  -499  -485  -477  -475  -488  -523  -572  -610  -647  -725  -859  -994  -1068  -1049  -940  -793  -690  -667  -704  -760  -806  -834  -842  -803  -685  -519  -391  -339  -327  -321  -302  -264  -224  -218  -257  -311  -339  -337  -321  -291  -231  -156  -124  -167  -252  -319  -345  -345  -329  -293  -257  -289  -450  -698  -906  -987  -955  -862  -747  -645  -593  -609  -695  -839  -993  -1090  -1102  -1040  -928  -811  -717  -632  -562  -540  -561  -587  -590  -559  -472  -310  -113  27  74  66  46  22  -6  -22  -22  -36  -62  -69  -66  -96  -185  -346  -566  -771  -887  -921  -917  -878  -766  -589  -427  -349  -341  -355  -361  -341  -282  -203  -162  -220  -368  -493  -518  -432  -93  612  1515  2430  3339  4083  4290  3797  2728  1213  -468  -1772  -2359  -2348  -1991  -1526  -1219  -1118  -1039  -910  -801  -737  -694  -646  -596  -555  -493  -349  -138  25  52  -23  -84  -57  41  159  254  313  339  344  337  333  352  423  556  714  831  884  887  859  832  844  930  1098  1299  1464  1580  1671  1767  1932  2220  2583  2903  3102  3175  3168  3137  3149  3277  3539  3831  4016  4040  3915  3690  3446  3230  2995  2705  2397  2111  1849  1596  1341  1081  804  476  74  -340  -640  -736  -633  -408  -180  -49  -65  -260  -605  -962  -1208  -1343  -1412  -1415  -1310  -1064  -751  -517  -418  -407  -425  -436  -416  -362  -309  -293  -307  -341  -406  -500  -583  -625  -632  -629  -626  -620  -604  -579  -562  -585  -666  -776  -860  -901  -917  -910  -859  -754  -624  -531  -498  -495  -491  -500  -550  -609  -609  -560  -528  -551  -608  -649  -660  -661  -649  -617  -575  -512  -423  -363  -397  -487  -525  -476  -408  -374  -375  -417  -513  -637  -737  -806  -861  -873  -819  -778  -841  -996  -1160  -1256  -1211  -967  -597  -286  -153  -171  -274  -402  -501  -566  -608  -589  -470  -308  -200  -172  -181  -181  -152  -111  -89  -101  -135  -174  -217  -260  -295  -338  -408  -472  -467  -379  -264  -185  -161  -169  -175  -158  -124  -106  -126  -142  -101  -29  -6  -103  -334  -606  -768  -755  -620  -458  -343  -294  -275  -243  -190  -130  -74  -32  -11  -11  -16  -8  32  103  173  208  173  42  -151  -336  -488  -625  -732  -793  -836  -896  -970  -1044  -1109  -1153  -1166  -1155  -1141  -1139  -1143  -1127  -1087  -1030  -951  -829  -641  -332  180  902  1733  2505  3050  3330  3347  2984  2182  1039  -320  -1653  -2564  -2834  -2534  -1847  -1050  -509  -378  -463  -539  -557  -553  -532  -453  -290  -97  18  43  82  221  424  589  656  630  530  375  232  190  228  266  285  309  344  406  506  634  760  843  867  850  822  834  967  1248  1571  1789  1875  1902  1940  2056  2292  2609  2919  3161  3300  3329  3314  3330  3373  3415  3465  3527  3580  3599  3559  3418  3162  2860  2617  2447  2258  1962  1560  1146  819  606  479  392  290  121  -104  -323  -482  -580  -647  -704  -755  -804  -830  -820  -837  -910  -1009  -1104  -1142  -1101  -1034  -995  -992  -1008  -1028  -1048  -1066  -1066  -1031  -944  -832  -756  -740  -750  -721  -611  -455  -341  -321  -377  -460  -527  -571  -607  -640  -672  -698  -707  -703  -690  -651  -581  -507  -456  -425  -387  -333  -305  -330  -361  -354  -333  -346  -404  -477  -540  -582  -575  -504  -400  -342  -443  -693  -927  -1034  -1049  -1051  -1069  -1090  -1104  -1107  -1091  -1040  -960  -873  -800  -775  -815  -874  -886  -828  -724  -636  -606  -609  -610  -600  -581  -554  -526  -500  -478  -460  -442  -427  -412  -385  -355  -345  -369  -423  -488  -534  -526  -431  -256  -75  28  23  -89  -281  -486  -637  -691  -640  -522  -404  -337  -327  -347  -369  -388  -416  -452  -473  -445  -362  -258  -165  -77  -11  2  -15  -21  7  62  124  190  257  303  322  325  313  276  215  159  114  39  -89  -234  -348  -425  -479  -517  -546  -578  -602  -592  -554  -546  -617  -752  -881  -949  -924  -778  -528  -266  -72  46  115  279  790  1700  2729  3557  3992  3901  3272  2273  1062  -250  -1450  -2242  -2448  -2152  -1652  -1235  -1031  -988  -929  -769  -570  -361  -135  54  153  162  128  94  75  72  103  188  310  414  470  467  395  277  166  97  57  43  108  330  696  1053  1233  1202  1043  865  744  688  686  793  1099  1585  2095  2491  2741  2862  2887  2870  2840  2801  2756  2727  2760  2899  3140  3386  3532  3561  3521  3453  3390  3331  3196  2889  2454  2081  1898  1863  1852  1774  1557  1114  420  -330  -858  -1087  -1141  -1129  -1045  -837  -550  -313  -190  -159  -228  -439  -756  -1057  -1252  -1333  -1311  -1186  -988  -800  -687  -645  -639  -645  -661  -694  -749  -808  -847  -864  -876  -877  -815  -641  -410  -263  -264  -347  -416  -447  -488  -593  -780  -995  -1129  -1137  -1086  -1057  -1048  -998  -880  -777  -825  -1024  -1231  -1339  -1341  -1281  -1197  -1117  -1084  -1109  -1126  -1082  -993  -884  -753  -617  -532  -556  -707  -923  -1088  -1123  -1004  -749  -461  -282  -282  -446  -685  -885  -995  -1034  -1040  -1037  -1028  -997  -940  -892  -895  -935  -963  -929  -803  -616  -443  -320  -240  -201  -205  -246  -309  -374  -430  -482  -532  -581  -635  -695  -744  -767  -755  -711  -648  -584  -537  -527  -552  -592  -615  -563  -406  -213  -96  -91  -150  -230  -337  -466  -562  -566  -470  -332  -227  -166  -113  -60  -38  -63  -102  -104  -55  13  56  66  53  -18  -208  -476  -688  -772  -759  -687  -580  -480  -434  -457  -524  -600  -660  -692  -678  -591  -437  -282  -195  -182  -201  -201  -155  -75  75  407  919  1502  2147  2864  3467  3694  3346  2287  624  -1142  -2398  -2844  -2669  -2320  -2061  -1828  -1533  -1240  -1017  -863  -765  -713  -692  -694  -707  -713  -677  -566  -399  -250  -178  -174  -201  -232  -258  -278  -279  -213  -31  242  508  674  718  671  585  505  452  431  480  660  953  1229  1376  1412  1441  1555  1765  1993  2169  2316  2491  2714  2978  3261  3510  3664  3718  3722  3716  3701  3648  3544  3405  3263  3142  3041  2918  2722  2456  2173  1910  1671  1432  1158  856  572  356  228  173  147  84  -79  -323  -533  -625  -616  -567  -538  -554  -594  -630  -652  -662  -659  -645  -631  -627  -638  -657  -663  -641  -597  -545  -493  -448  -412  -384  -354  -320  -291  -270  -258  -250  -238  -223  -203  -177  -142  -98  -65  -74  -123  -180  -221  -242  -247  -239  -218  -189  -160  -140  -138  -176  -267  -376  -441  -451  -435  -414  -398  -403  -430  -464  -473  -447  -413  -394  -412  -493  -608  -704  -760  -746  -665  -556  -441  -364  -355  -389  -443  -493  -514  -506  -481  -457  -445  -444  -453  -472  -501  -529  -552  -560  -546  -517  -492  -482  -486  -486  -452  -377  -316  -335  -401  -441  -455  -466  -468  -452  -432  -434  -463  -488  -488  -481  -498  -539  -584  -616  -635  -650  -649  -615  -544  -471  -446  -460  -483  -523  -573  -602  -594  -558  -500  -409  -278  -128  0  79  107  95  59  28  47  139  268  371  410  358  198  -13  -165  -215  -207  -188  -179  -189  -226  -283  -333  -353  -339  -301  -255  -227  -258  -394  -612  -813  -924  -951  -910  -779  -548  -258  2  91  19  33  269  678  1281  2019  2686  3171  3376  3132  2403  1245  -248  -1743  -2785  -3167  -2997  -2497  -1866  -1269  -804  -470  -242  -123  -98  -130  -181  -227  -262  -273  -211  -27  224  412  480  475  458  445  428  393  345  307  292  306  351  421  498  578  654  711  741  770  826  894  936  964  1043  1213  1429  1602  1687  1712  1759  1925  2245  2619  2873  2948  2924  2892  2907  2997  3148  3316  3460  3526  3485  3375  3250  3097  2855  2542  2262  2045  1801  1454  1032  632  316  75  -127  -306  -442  -534  -603  -656  -706  -769  -831  -874  -913  -958  -999  -1027  -1044  -1045  -1015  -934  -796  -648  -556  -528  -516  -482  -444  -448  -518  -645  -806  -968  -1101  -1185  -1206  -1158  -1049  -926  -817  -697  -554  -433  -367  -345  -338  -325  -319  -380  -564  -819  -1012  -1082  -1076  -1057  -1052  -1060  -1070  -1077  -1079  -1064  -1023  -957  -875  -763  -612  -449  -325  -271  -276  -298  -308  -306  -304  -311  -326  -340  -356  -400  -486  -564  -559  -474  -391  -368  -393  -429  -456  -468  -461  -444  -432  -431  -441  -453  -447  -400  -295  -159  -64  -72  -188  -350  -474  -534  -566  -579  -539  -450  -389  -419  -511  -603  -664  -691  -688  -657  -600  -528  -479  -510  -646  -836  -996  -1087  -1094  -1013  -869  -719  -615  -587  -637  -722  -790  -822  -827  -805  -741  -643  -544  -474  -456  -480  -476  -411  -323  -256  -231  -265  -361  -498  -639  -744  -791  -760  -624  -396  -151  39  146  170  145  111  85  63  23  -48  -130  -175  -162  -59  187  527  786  826  629  295  -56  -387  -699  -938  -1033  -975  -841  -726  -674  -674  -721  -841  -1033  -1231  -1336  -1259  -994  -681  -501  -435  -271  136  728  1360  2037  2789  3444  3785  3621  2824  1553  186  -968  -1732  -2045  -2049  -1907  -1593  -1110  -664  -402  -276  -196  -120  -70  -82  -128  -147  -101  -1  99  176  252  327  384  429  466  485  476  437  369  289  231  225  291  450  717  1053  1321  1423  1414  1387  1369  1351  1360  1463  1704  2025  2308  2481  2549  2554  2535  2501  2452  2429  2557  2950  3491  3887  3975  3823  3584  3385  3278  3250  3261  3257  3192  3074  2935  2737  2412  1987  1591  1313  1124  934  652  235  -231  -576  -719  -726  -694  -674  -687  -743  -825  -899  -959  -1017  -1057  -1039  -961  -854  -755  -684  -631  -575  -513  -461  -429  -419  -431  -469  -531  -603  -627  -535  -370  -255  -233  -262  -301  -326  -327  -316  -305  -292  -274  -275  -329  -425  -512  -555  -556  -520  -417  -222  -6  92  16  -148  -277  -331  -354  -382  -412  -446  -496  -557  -606  -636  -660  -674  -654  -574  -448  -331  -260  -235  -235  -244  -256  -276  -299  -316  -324  -331  -341  -351  -359  -371  -399  -449  -513  -572  -608  -625  -630  -610  -564  -508  -461  -463  -524  -598  -652  -692  -708  -653  -488  -270  -118  -67  -65  -71  -105  -199  -313  -375  -386  -380  -369  -355  -349  -387  -507  -690  -848  -915  -913  -870  -781  -671  -590  -558  -562  -579  -581  -527  -405  -305  -361  -560  -747  -831  -842  -812  -718  -539  -317  -146  -92  -151  -235  -244  -149  0]
