reading_id,reading_time,wire_id,result_classification,heart_rate,heart_rate_alert,firmware_version,device_app_version,hardware_version,waveform_samples
eb77b7d0-6628-11ed-8080-808080808080,Thu Nov 17 03:35:45 UTC 2022,2101e3b12739,NSR,94,NONE,20001.171.50,2.10.0,Charge 5,[-546  -573  -535  -378  -130  110  295  468  665  845  961  1027  1091  1217  1478  1860  2238  2503  2621  2592  2423  2171  1944  1840  1955  2377  3010  3579  3952  4208  4391  4425  4284  4073  3928  3891  3928  3988  4036  4113  4294  4555  4790  4941  5038  5120  5190  5265  5409  5661  5961  6197  6318  6334  6257  6122  6027  6081  6292  6552  6742  6830  6850  6803  6637  6334  5988  5828  6069  6655  7358  8094  8962  10160  11814  13696  15205  15747  15079  13303  10913  8802  7628  7351  7588  7939  8043  7741  7216  6792  6593  6538  6577  6783  7232  7836  8361  8627  8613  8397  8107  7876  7755  7702  7697  7804  8128  8648  9165  9496  9604  9504  9206  8820  8548  8484  8567  8689  8771  8800  8802  8796  8794  8817  8868  8882  8719  8220  7304  6064  4841  4025  3662  3507  3401  3363  3422  3518  3570  3558  3418  2872  1590  -345  -2299  -3630  -4231  -4427  -4533  -4626  -4652  -4628  -4654  -4770  -4926  -5074  -5207  -5337  -5495  -5717  -5955  -6146  -6410  -6973  -7799  -8562  -9029  -9231  -9268  -9168  -8911  -8496  -7968  -7443  -7051  -6837  -6787  -6966  -7466  -8135  -8628  -8777  -8679  -8466  -8211  -7943  -7648  -7314  -6971  -6673  -6430  -6202  -5952  -5710  -5551  -5488  -5486  -5541  -5682  -5886  -6065  -6170  -6218  -6227  -6182  -6068  -5881  -5617  -5294  -4992  -4794  -4700  -4641  -4576  -4515  -4496  -4597  -4934  -5494  -5966  -5981  -5492  -4595  -3314  -1715  157  2242  4097  5032  4609  2799  -5  -2922  -4934  -5555  -5011  -3875  -2695  -1874  -1557  -1574  -1662  -1694  -1649  -1530  -1339  -1080  -769  -433  -71  305  616  776  797  753  700  665  647  650  700  832  1043  1280  1531  1894  2455  3099  3592  3841  3915  3901  3856  3799  3690  3481  3186  2870  2561  2229  1886  1606  1414  1273  1160  1088  1032  899  600  123  -492  -1163  -1762  -2202  -2472  -2595  -2615  -2555  -2398  -2141  -1856  -1639  -1505  -1387  -1249  -1129  -1050  -992  -945  -920  -975  -1189  -1562  -2004  -2423  -2769  -3020  -3174  -3241  -3254  -3249  -3238  -3209  -3148  -3070  -3021  -3066  -3261  -3579  -3949  -4330  -4677  -4916  -5031  -5066  -5072  -5081  -5085  -5026  -4848  -4601  -4408  -4324  -4332  -4453  -4727  -5073  -5307  -5283  -4987  -4557  -4181  -3919  -3736  -3627  -3594  -3606  -3627  -3619  -3541  -3373  -3184  -3080  -3090  -3171  -3276  -3362  -3394  -3310  -3052  -2689  -2400  -2285  -2332  -2536  -2883  -3271  -3494  -3318  -2587  -1221  777  3177  5477  6975  7023  5532  3013  220  -2055  -3326  -3666  -3437  -3006  -2610  -2289  -2011  -1773  -1591  -1484  -1443  -1421  -1351  -1163  -870  -598  -460  -479  -620  -811  -949  -950  -782  -473  -107  239  501  628  631  592  625  844  1248  1684  2003  2178  2249  2283  2365  2555  2857  3221  3551  3758  3800  3610  3136  2539  2122  1996  2036  2089  2060  1897  1641  1417  1310  1306  1353  1403  1361  1076  514  -105  -478  -485  -199  180  450  564  615  652  708  961  1609  2485  3135  3333  3190  2851  2401  1962  1706  1764  2153  2696  3087  3139  2856  2386  1963  1754  1766  1941  2197  2426  2561  2565  2345  1829  1189  758  727  1046  1500  1884  2242  2818  3669  4501  4967  4949  4527  3926  3440  3209  3210  3476  4128  5185  6412  7403  7875  7824  7404  6865  6496  6426  6584  6838  7108  7403  7732  8077  8549  9305  10201  10821  10940  10679  10296  9990  9780  9664  9809  10261  10731  11029  11370  12191  13958  16765  20010  22651  23718  22768  20114  16648  13496  11513  10874  11315  12498  13918  14966  15409  15511  15613  15791  15965  16181  16576  17080  17441  17546  17491  17400  17331  17291  17265  17209  17068  16864  16700  16630  16630  16659  16695  16712  16647  16405  15952  15386  14866  14484  14205  13898  13388  12567  11429  9992  8318  6571  4884  3325  2007  947  9  -874  -1670  -2327  -2776  -3094  -3550  -4306  -5253  -6129  -6717  -6996  -7114  -7255  -7561  -8011  -8436  -8724  -8909  -9069  -9245  -9439  -9652  -9927  -10304  -10713  -10989  -11068  -11010  -10910  -10930  -11370  -12432  -13923  -15403  -16533  -17157  -17336  -17285  -17158  -16982  -16729  -16398  -16075  -15888  -15862  -15926  -16014  -16098  -16150  -16150  -16104  -16059  -16157  -16574  -17322  -18190  -18899  -19280  -19357  -19270  -19109  -18901  -18704  -18611  -18653  -18752  -18790  -18704  -18522  -18246  -17823  -17309  -16893  -16676  -16592  -16549  -16520  -16509  -16525  -16574  -16622  -16519  -16069  -15266  -14389  -13758  -13483  -13458  -13518  -13552  -13477  -13186  -12620  -11839  -10904  -9830  -8688  -7585  -6661  -5914  -4937  -3293  -1136  756  1325  -65  -2910  -5736  -7110  -6523  -4592  -2603  -1640  -1797  -2393  -2909  -3265  -3502  -3616  -3593  -3441  -3199  -2911  -2589  -2150  -1505  -750  -159  110  143  103  62  15  -26  8  153  347  542  739  958  1274  1736  2240  2634  2886  3070  3246  3414  3567  3725  3910  4096  4235  4315  4371  4381  4203  3705  3018  2478  2242  2211  2244  2282  2314  2302  2156  1789  1213  590  137  -42  14  235  513  730  857  937  979  954  858  753  714  735  774  829  889  917  900  853  798  726  607  459  309  162  54  20  27  5  -84  -212  -306  -344  -359  -336  -143  343  990  1472  1624  1484  1100  524  -86  -533  -700  -512  80  871  1432  1525  1243  846  549  351  133  -65  -99  -5  43  48  208  652  1243  1701  1870  1735  1295  659  94  -199  -258  -215  -136  -30  53  1  -211  -370  -241  131  654  1569  3169  5307  7420  8736  8581  6887  4308  1776  -27  -862  -820  -254  336  628  641  575  591  754  1030  1339  1655  1985  2281  2472  2546  2534  2418  2150  1793  1540  1545  1819  2218  2550  2740  2836  2878  2874  2817  2708  2580  2481  2438  2499  2727  3114  3571  4011  4372  4588  4631  4551  4420  4287  4186  4115  4028  3867  3594  3267  2986  2777  2616  2506  2454  2399  2143  1497  622  -15  -158  92  488  800  925  880  709  490  338  337  497  741  945  1063  1172  1359  1609  1856  2078  2264  2397  2485  2533  2493  2333  2114  1931  1826  1781  1774  1820  1965  2234  2587  2915  3114  3175  3166  3125  3036  2897  2761  2692  2697  2735  2756  2739  2683  2565  2344  2074  1888  1810  1674  1298  745  272  33  14  158  396  635  819  903  837  652  457  307  185  80  35  115  293  486  801  1436  2413  3690  5233  6758  7634  7325  5866  3708  1363  -640  -1923  -2449  -2366  -1850  -1170  -612  -279  -145  -189  -392  -664  -872  -972  -1016  -1001  -781  -218  548  1159  1418  1431  1375  1337  1326  1333  1351  1373  1390  1399  1397  1386  1400  1539  1903  2448  3000  3425  3712  3889  3959  3905  3720  3481  3314  3253  3214  3095  2836  2447  2018  1681  1483  1366  1250  1095  928  809  765  747  600  118  -686  -1473  -1923  -2051  -2049  -2036  -2029  -2013  -1982  -1929  -1855  -1790  -1809  -2026  -2484  -3033  -3443  -3633  -3679  -3652  -3537  -3297  -2923  -2457  -2027  -1787  -1840  -2212  -2776  -3273  -3543  -3626  -3610  -3480  -3166  -2703  -2278  -2047  -1978  -1947  -1903  -1848  -1723  -1432  -1019  -668  -492  -479  -612  -904  -1272  -1570  -1771  -1979  -2263  -2565  -2751  -2708  -2392  -1907  -1481  -1297  -1462  -2023  -2789  -3388  -3632  -3564  -3234  -2711  -2179  -1821  -1673  -1654  -1641  -1554  -1398  -1120  -554  446  1883  3562  5041  5754  5351  3832  1516  -975  -2965  -4064  -4250  -3765  -2996  -2320  -1969  -1921  -1954  -1945  -1947  -1998  -2086  -2191  -2279  -2306  -2202  -1916  -1543  -1286  -1226  -1261  -1216  -948  -463  92  568  891  1066  1148  1162  1083  895  660  485  476  741  1317  2025  2575  2832  2869  2794  2605  2260  1851  1573  1524  1659  1875  2037  1975  1527  742  -31  -457  -506  -341  -126  23  57  -60  -348  -733  -1051  -1205  -1236  -1229  -1221  -1202  -1162  -1109  -1066  -1047  -1064  -1128  -1217  -1258  -1162  -906  -592  -390  -443  -800  -1329  -1776  -1996  -1959  -1582  -831  24  587  709  466  -15  -526  -843  -896  -750  -498  -238  -43  91  236  423  599  703  738  723  629  397  23  -378  -637  -684  -579  -416  -262  -125  -3  80  106  79  9  -76  -141  -200  -301  -423  -483  -450  -403  -430  -542  -712  -896  -1036  -1063  -856  -289  653  1896  3359  4943  6344  7050  6737  5521  3790  2034  658  -263  -898  -1341  -1541  -1478  -1191  -756  -308  1  100  7  -214  -461  -599  -464  45  756  1262  1283  832  190  -267  -361  -147  225  597  870  1031  1093  1017  720  198  -370  -754  -816  -456  371  1443  2320  2729  2663  2199  1487  800  347  139  75  74  102  146  187  169  -9  -410  -937  -1385  -1626  -1679  -1587  -1347  -1021  -781  -822  -1257  -1979  -2657  -3033  -3130  -3084  -2950  -2693  -2280  -1753  -1253  -912  -738  -632  -524  -429  -369  -336  -320  -316  -321  -336  -358  -383  -410  -418  -339  -106  227  504  616  528  239  -143  -418  -478  -354  -135  66  168  126  -60  -318  -515  -564  -438  -145  212  492  628  631  503  226  -174  -598  -923  -1086  -1110  -1051  -941  -806  -676  -578  -516  -498  -516  -538  -539  -520  -494  -489  -507  -532  -586  -739  -1014  -1227  -1081  -564  -14  318  557  1092  2360  4455  6747  8218  8245  6862  4546  2085  254  -715  -1027  -851  -413  -90  -49  -202  -425  -619  -719  -731  -694  -634  -567  -521  -523  -564  -606  -624  -622  -599  -548  -481  -420  -367  -309  -254  -202  -100  125  439  710  879  1018  1219  1532  1938  2326  2565  2639  2636  2618  2562  2424  2227  2069  2005  1993  1971  1926  1866  1772  1619  1399  1125  814  420  -161  -971  -1816  -2358  -2455  -2238  -1937  -1731  -1663  -1674  -1704  -1731  -1735  -1672  -1497  -1249  -1054  -991  -1022  -1067  -1089  -1094  -1091  -1065  -1006  -934  -884  -835  -729  -588  -500  -478  -429  -268  -19  202  298  233  1  -356  -713  -945  -1025  -1012  -956  -866  -729  -540  -340  -189  -116  -123  -195  -297  -389  -442  -446  -411  -360  -317  -299  -328  -437  -615  -786  -881  -891  -849  -782  -715  -644  -537  -371  -106  320  833  1193  1197  781  89  -542  -866  -915  -857  -809  -806  -774  -528  72  1066  2467  4209  6036  7500  8072  7381  5472  2811  114  -1920  -2974  -3191  -2869  -2281  -1697  -1323  -1208  -1249  -1315  -1354  -1367  -1340  -1266  -1170  -1093  -1050  -1026  -1022  -1086  -1268  -1526  -1728  -1765  -1574  -1142  -561  -6  391  621  762  888  1027  1193  1390  1571  1680  1712  1691  1633  1557  1508  1542  1694  1908  2062  2071  1936  1733  1555  1431  1331  1241  1184  1173  1204  1254  1238  993  439  -227  -693  -883  -940  -968  -987  -996  -978  -864  -569  -123  288  494  423  84  -380  -734  -869  -867  -840  -827  -806  -746  -652  -568  -527  -515  -492  -426  -305  -143  22  152  216  158  -80  -446  -759  -881  -827  -698  -577  -489  -428  -381  -347  -340  -377  -471  -632  -842  -1050  -1219  -1340  -1401  -1375  -1226  -898  -406  77  352  328  5  -515  -1050  -1479  -1832  -2179  -2492  -2687  -2723  -2570  -2212  -1777  -1470  -1330  -1222  -1068  -912  -793  -683  -517  -241  107  399  475  160  -585  -1445  -1907  -1686  -826  562  2422  4554  6485  7566  7250  5448  2716  68  -1585  -1968  -1443  -658  -172  -125  -265  -333  -271  -127  58  273  495  670  755  747  676  589  525  490  471  466  476  497  523  569  672  850  1074  1290  1476  1653  1834  1996  2115  2201  2263  2258  2152  2000  1930  2013  2186  2339  2434  2491  2515  2486  2379  2175  1875  1539  1264  1102  1034  1002  938  774  478  54  -426  -841  -1113  -1244  -1287  -1300  -1328  -1386  -1451  -1488  -1499  -1538  -1660  -1833  -1977  -2059  -2094  -2088  -2052  -2021  -2047  -2177  -2387  -2595  -2739  -2817  -2860  -2898  -2932  -2965  -3002  -3025  -2991  -2863  -2648  -2415  -2255  -2207  -2289  -2525  -2867  -3182  -3376  -3446  -3404  -3249  -3007  -2746  -2509  -2289  -2069  -1873  -1742  -1693  -1696  -1717  -1746  -1792  -1843  -1877  -1887  -1888  -1888  -1882  -1851  -1769  -1621  -1439  -1323  -1414  -1787  -2301  -2681  -2810  -2764  -2626  -2434  -2231  -2061  -1952  -1927  -1988  -2169  -2517  -2966  -3316  -3359  -2962  -2154  -1037  501  2593  4873  6584  7105  6236  4255  1907  104  -681  -659  -276  196  630  937  1121  1285  1493  1746  2084  2608  3323  4056  4591  4871  5009  5161  5453  5951  6571  7091  7317  7191  6730  5912  4697  3305  2227  1744  1863  2653  4153  6038  7675  8598  8902  8982  9039  9105  9326  9939  10915  11870  12458  12585  12112  10797  8774  6652  4898  3581  2664  2057  1477  634  -431  -1394  -2041  -2425  -2664  -2829  -2960  -3121  -3369  -3657  -3867  -3958  -3995  -4090  -4356  -4817  -5322  -5673  -5816  -5839  -5841  -5847  -5838  -5810  -5801  -5813  -5772  -5627  -5425  -5256  -5188  -5227  -5316  -5399  -5455  -5483  -5496  -5509  -5514  -5456  -5283  -5043  -4844  -4716  -4615  -4546  -4584  -4821  -5253  -5728  -6079  -6251  -6291  -6277  -6262  -6266  -6290  -6334  -6385  -6423  -6433  -6413  -6382  -6393  -6539  -6870  -7285  -7601  -7719  -7620  -7316  -6926  -6626  -6416  -6150  -5815  -5528  -5239  -4700  -3873  -3100  -2691  -2579  -2520  -2413  -2300  -2205  -2098  -1985  -1914  -1878  -1723  -1184  -121  1427  3493  6041  8562  10212  10403  9132  6857  4292  2197  919  298  177  595  1452  2435  3238  3716  3923  4037  4184  4359  4506  4603  4659  4682  4673  4639  4615  4677  4922  5395  6060  6896  7895  8868  9550  9958  10314  10697  11043  11348  11661  11954  12145  12276  12516  12948  13460  13893  14179  14317  14319  14180  13907  13609  13431  13341  13031  12086  10365  8202  6171  4694  3806  3194  2462  1312  -280  -1990  -3451  -4543  -5332  -5968  -6624  -7333  -7963  -8375  -8558  -8604  -8617  -8658  -8740  -8850  -8982  -9172  -9445  -9732  -9922  -9990  -9985  -9937  -9833  -9677  -9529  -9457  -9446  -9397  -9205  -8871  -8517  -8251  -7989  -7484  -6571  -5337  -4081  -3059  -2220  -1364  -556  -27  211  375  660  1165  1942  2957  3973  4693  5058  5219  5322  5444  5606  5776  5903  5981  6048  6128  6205  6247  6245  6215  6182  6158  6160  6241  6460  6770  7026  7161  7253  7452  7841  8338  8781  9081  9245  9280  9024  8054  6092  3671  1836  1113  1359  2298  3527  4468  4664  3790  1690  -1204  -3950  -5776  -6535  -6568  -6264  -5823  -5385  -5090  -4966  -4925  -4886  -4840  -4784  -4688  -4542  -4405  -4326  -4254  -4107  -3904  -3738  -3601  -3312  -2705  -1911  -1251  -848  -590  -391  -246  -145  -64  14  89  175  307  471  598  654  667  664  663  680  709  737  756  767  770  746  663  512  293  4  -299  -529  -677  -839  -1079  -1353  -1578  -1725  -1823  -1903  -1962  -2003  -2054  -2128  -2237  -2401  -2578  -2671  -2635  -2534  -2458  -2435  -2424  -2375  -2278  -2177  -2131  -2158  -2209  -2238  -2243  -2245  -2252  -2258  -2247  -2208  -2156  -2116  -2080  -2015  -1922  -1844  -1810  -1813  -1829  -1837  -1799  -1687  -1517  -1338  -1166  -1015  -955  -1068  -1360  -1708  -1952  -2038  -2006  -1891  -1729  -1585  -1508  -1493  -1525  -1606  -1720  -1822  -1874  -1879  -1862  -1850  -1867  -1967  -2193  -2489  -2722  -2807  -2714  -2428  -2053  -1780  -1697  -1749  -1847  -1942  -2074  -2233  -2141  -1417  64  2074  4120  5571  5931  5173  3644  1713  -197  -1588  -2181  -2057  -1570  -1146  -1032  -1205  -1449  -1554  -1452  -1183  -865  -633  -536  -541  -594  -641  -658  -660  -667  -677  -685  -684  -659  -604  -537  -484  -455  -444  -427  -335  -92  285  676  943  1050  1055  1030  1016  1035  1103  1234  1400  1534  1598  1587  1476  1229  900  642  553  576  588  495  242  -113  -412  -562  -617  -688  -833  -1019  -1147  -1129  -940  -642  -348  -109  96  297  510  744  1003  1311  1687  2057  2280  2273  2057  1754  1546  1572  1854  2249  2535  2595  2457  2217  1994  1883  1930  2136  2413  2615  2663  2575  2406  2215  2052  1936  1853  1775  1721  1850  2388  3307  4204  4710  4845  4814  4675  4322  3708  2989  2376  1882  1351  712  81  -375  -583  -570  -413  -204  -67  -123  -423  -854  -1189  -1326  -1343  -1344  -1362  -1392  -1455  -1604  -1782  -1743  -1356  -808  -252  486  1695  3396  5121  6079  5740  4156  1845  -352  -1702  -2142  -2155  -2147  -2192  -2211  -2156  -2067  -1999  -1949  -1900  -1839  -1755  -1661  -1594  -1573  -1587  -1624  -1672  -1714  -1740  -1751  -1756  -1778  -1859  -2027  -2247  -2404  -2334  -1904  -1190  -524  -176  -129  -223  -347  -444  -430  -166  420  1154  1719  1960  1981  1951  1948  1938  1811  1481  1008  566  236  -12  -216  -380  -536  -726  -935  -1099  -1219  -1381  -1625  -1890  -2125  -2370  -2626  -2802  -2813  -2648  -2353  -1992  -1614  -1282  -1052  -871  -646  -393  -223  -187  -255  -375  -488  -559  -595  -611  -599  -554  -507  -516  -598  -700  -760  -771  -761  -752  -749  -764  -810  -866  -852  -671  -326  36  249  210  -133  -707  -1257  -1564  -1624  -1521  -1291  -982  -683  -451  -323  -354  -549  -829  -1089  -1260  -1331  -1334  -1287  -1197  -1087  -994  -961  -1031  -1229  -1487  -1675  -1743  -1739  -1722  -1713  -1713  -1722  -1759  -1852  -1975  -2041  -1958  -1612  -843  447  2200  4100  5610  6249  5806  4340  2210  74  -1463  -2278  -2572  -2536  -2314  -2037  -1795  -1629  -1507  -1352  -1160  -1007  -938  -932  -965  -1066  -1280  -1562  -1799  -1918  -1907  -1785  -1588  -1355  -1110  -862  -638  -468  -346  -270  -229  -153  31  330  685  1053  1459  1900  2308  2626  2847  2985  3084  3240  3563  4046  4535  4870  5010  5013  4933  4792  4620  4466  4363  4312  4294  4289  4239  4012  3526  2933  2503  2302  2145  1855  1459  1145  1070  1265  1687  2212  2649  2888  2960  2891  2655  2282  1907  1660  1560  1569  1700  1984  2337  2579  2568  2258  1742  1217  807  490  180  -153  -442  -599  -630  -604  -572  -539  -494  -455  -481  -623  -873  -1206  -1597  -1956  -2168  -2192  -2043  -1763  -1443  -1190  -1049  -1003  -1028  -1128  -1303  -1517  -1707  -1819  -1844  -1804  -1711  -1568  -1412  -1314  -1333  -1480  -1685  -1830  -1852  -1775  -1652  -1528  -1441  -1358  -1066  -278  1099  2901  4742  5983  6020  4795  2696  242  -1830  -2850  -2782  -2038  -1003  -33  652  1183  1754  2279  2557  2513  2196  1775  1476  1403  1511  1715  1943  2160  2384  2642  2896  3063  3110  3055  2907  2681  2440  2247  2088  1935  1820  1768  1758  1759  1763  1791  1895  2130  2468  2771  2917  2922  2880  2841  2782  2674  2510  2285  1980  1604  1164  601  -90  -749  -1212  -1495  -1706  -1905  -2071  -2164  -2183  -2171  -2176  -2226  -2309  -2394  -2466  -2574  -2824  -3269  -3773  -4114  -4213  -4093  -3781  -3390  -3111  -3014  -3029  -3096  -3208  -3336  -3418  -3416  -3349  -3267  -3202  -3176  -3225  -3327  -3400  -3415  -3409  -3397  -3382  -3386  -3446  -3569  -3711  -3810  -3814  -3666  -3341  -2902  -2478  -2177  -2021  -1956  -1904  -1802  -1642  -1476  -1371  -1336  -1336  -1361  -1434  -1562  -1719  -1868  -1980  -2033  -2001  -1874  -1701  -1577  -1557  -1628  -1740  -1819  -1785  -1581  -1260  -1030  -1132  -1577  -1970  -1813  -931  591  2573  4582  5961  6222  5298  3483  1355  -419  -1498  -1980  -2152  -2244  -2349  -2431  -2411  -2262  -2018  -1770  -1604  -1539  -1524  -1490  -1420  -1354  -1326  -1326  -1332  -1321  -1265  -1138  -949  -743  -561  -410  -244  19  404  809  1121  1351  1572  1777  1903  1937  1923  1898  1883  1912  2026  2187  2278  2217  2043  1831  1583  1251  864  510  208  -79  -331  -485  -564  -718  -1075  -1597  -2110  -2493  -2747  -2905  -2958  -2800  -2307  -1588  -989  -702  -605  -508  -341  -75  312  781  1243  1615  1836  1907  1872  1760  1615  1516  1545  1749  2088  2445  2744  2960  3067  3036  2872  2656  2506  2451  2390  2170  1750  1290  1005  936  983  1060  1138  1207  1252  1259  1214  1109  972  847  753  646  428  67  -319  -579  -659  -601  -477  -348  -240  -163  -114  -80  -14  219  782  1626  2425  2887  3019  2931  2604  2123  1884  2163  2813  3688  4809  6109  7434  8562  9171  9055  8254  6921  5255  3547  2075  959  231  -75  -38  135  286  365  327  93  -338  -795  -1058  -1022  -710  -288  7  57  -87  -301  -471  -590  -730  -934  -1230  -1650  -2149  -2581  -2845  -2959  -2989  -2964  -2873  -2704  -2476  -2237  -2047  -1936  -1890  -1880  -1878  -1872  -1859  -1832  -1806  -1851  -2076  -2503  -2981  -3318  -3446  -3459  -3518  -3727  -4036  -4303  -4468  -4582  -4712  -4853  -4953  -5000  -5008  -4878  -4415  -3574  -2566  -1681  -1114  -874  -833  -854  -871  -873  -879  -909  -963  -1021  -1062  -1075  -1029  -897  -714  -575  -528  -531  -491  -333  -52  313  742  1170  1435  1308  612  -506  -1557  -2172  -2361  -2286  -2020  -1595  -1098  -673  -429  -364  -359  -234  181  876  1569  1969  2061  2015  1955  1928  1988  2204  2567  2969  3304  3537  3689  3794  3878  3976  4128  4348  4600  4829  5011  5151  5250  5304  5286  5132  4799  4325  3821  3391  3079  2956  3051  3226  3370  3628  4296  5626  7612  9798  11379  11648  10304  7525  4125  1243  -407  -776  -277  436  813  658  128  -460  -912  -1257  -1595  -2019  -2593  -3205  -3613  -3743  -3729  -3704  -3720  -3797  -3925  -4052  -4121  -4132  -4114  -4106  -4146  -4259  -4419  -4553  -4557  -4289  -3674  -2875  -2204  -1807  -1567  -1316  -1034  -809  -674  -563  -418  -249  -67  123  285  378  406  386  300  112  -175  -511  -807  -981  -1016  -1013  -1174  -1692  -2588  -3655  -4554  -5046  -5169  -5128  -5079  -5073  -5109  -5165  -5213  -5229  -5181  -5027  -4759  -4439  -4174  -4026  -3990  -4081  -4335  -4685  -4941  -4940  -4634  -4119  -3603  -3232  -2975  -2723  -2456  -2240  -2086  -1935  -1772  -1674  -1785  -2206  -2802  -3239  -3263  -2838  -2120  -1374  -786  -375  -25  423  1005  1613  2141  2524  2751  2906  3098  3329  3519  3632  3682  3678  3587  3384  3120  2893  2752  2682  2646  2602  2526  2405  2263  2166  2161  2242  2361  2464  2545  2608  2617  2523  2338  2127  1940  1794  1713  1741  1927  2272  2726  3231  3746  4252  4773  5433  6465  7960  9588  10726  10788  9482  7122  4635  2988  2562  3079  3990  4789  5204  5324  5423  5635  5880  6028  6011  5839  5604  5431  5364  5364  5408  5514  5678  5820  5808  5550  5113  4679  4380  4243  4222  4238  4224  4143  4019  3913  3859  3842  3828  3759  3583  3312  3043  2874  2828  2852  2870  2856  2842  2805  2602  2089  1284  343  -561  -1350  -2052  -2708  -3327  -3921  -4454  -4830  -5017  -5075  -5089  -5093  -5060  -4987  -4916  -4841  -4682  -4385  -3992  -3616  -3384  -3329  -3374  -3443  -3534  -3667  -3814  -3933  -4027  -4121  -4216  -4293  -4346  -4386  -4411  -4420  -4414  -4402  -4411  -4525  -4821  -5231  -5563  -5695  -5625  -5385  -5073  -4844  -4761  -4764  -4780  -4776  -4732  -4603  -4317  -3871  -3385  -2970  -2619  -2327  -2150  -2103  -2153  -2279  -2451  -2609  -2700  -2691  -2574  -2373  -2127  -1857  -1528  -1091  -622  -302  -232  -403  -751  -1125  -1355  -1378  -1248  -1057  -895  -797  -744  -693  -593  -436  -283  -210  -260  -438  -711  -1016  -1307  -1592  -1907  -2270  -2682  -3097  -3367  -3328  -2939  -2232  -1273  -105  1279  2879  4536  5706  5672  4239  1935  -370  -1924  -2460  -2236  -1788  -1572  -1627  -1728  -1783  -1794  -1727  -1586  -1435  -1316  -1222  -1109  -956  -785  -609  -412  -218  -89  -32  17  120  254  346  382  424  533  701  874  1009  1103  1156  1159  1129  1111  1139  1216  1351  1592  1981  2456  2884  3174  3328  3406  3446  3410  3243  2959  2644  2371  2138  1916  1706  1514  1314  1103  920  796  702  593  449  275  106  -2  -39  -63  -130  -233  -322  -374  -384  -307  -91  199  412  483  475  456  438  405  316  128  -129  -358  -510  -628  -736  -762  -621  -336  -37  167  269  301  282  205  47  -167  -357  -445  -429  -363  -279  -157  30  274  528  746  896  943  890  812  780  788  800  791  740  620  426  222  82  10  -48  -124  -245  -454  -734  -991  -1157  -1222  -1168  -973  -701  -499  -478  -667  -1051  -1574  -2112  -2499  -2594  -2303  -1735  -1261  -1193  -1439  -1490  -804  761  2841  4697  5577  5141  3548  1291  -952  -2601  -3549  -4093  -4410  -4435  -4184  -3844  -3584  -3456  -3453  -3585  -3856  -4181  -4423  -4529  -4545  -4521  -4424  -4142  -3596  -2880  -2171  -1559  -1062  -713  -536  -493  -508  -532  -551  -553  -494  -319  -18  349  727  1119  1534  1951  2367  2775  3140  3425  3616  3737  3818  3868  3913  3990  4081  4101  3960  3623  3169  2773  2549  2456  2377  2221  2013  1821  1607  1284  910  644  540  529  543  567  618  708  819  931  1084  1350  1708  2017  2144  2049  1758  1344  898  503  217  52  -19  -31  18  155  370  653  1047  1520  1912  2103  2120  2057  1988  1909  1684  1171  451  -236  -736  -1009  -1063  -963  -760  -461  -120  180  401  538  617  679  743  798  826  792  638  328  -130  -695  -1236  -1584  -1713  -1746  -1800  -1922  -2092  -2233  -2259  -2148  -1972  -1836  -1772  -1739  -1700  -1631  -1482  -1209  -847  -464  -100  260  793  1736  3192  5045  6880  8085  8195  7041  4785  1974  -676  -2611  -3562  -3583  -3032  -2389  -2093  -2278  -2628  -2842  -2956  -3094  -3271  -3467  -3658  -3778  -3671  -3166  -2306  -1384  -677  -232  103  470  856  1189  1430  1591  1740  1954  2270  2637  2946  3105  3100  2978  2823  2714  2662  2605  2483  2284  2044  1817  1643  1502  1349  1178  1035  965  972  1033  1084  951  435  -396  -1157  -1554  -1653  -1668  -1734  -1903  -2130  -2303  -2379  -2412  -2460  -2535  -2651  -2832  -3081  -3355  -3585  -3712  -3700  -3549  -3317  -3073  -2818  -2462  -1962  -1386  -841  -416  -152  -6  92  195  307  387  400  362  324  313  342  466  749  1119  1390  1484  1472  1423  1341  1192  964  722  564  506  491  485  531  713  1075  1569  2048  2347  2424  2354  2198  1958  1617  1225  894  665  454  170  -132  -296  -242  -59  107  212  308  431  539  595  615  631  635  533  217  -189  -306  117  1045  2385  3998  5636  6992  7666  7263  5687  3335  979  -684  -1452  -1554  -1294  -922  -678  -687  -831  -947  -993  -955  -768  -412  -19  249  407  587  843  1091  1233  1269  1262  1252  1247  1238  1237  1289  1438  1686  2003  2350  2643  2801  2838  2828  2822  2815  2756  2600  2355  2101  1932  1881  1909  1961  2016  2045  1951  1612  1071  582  344  292  205  -95  -652  -1325  -1907  -2306  -2549  -2691  -2760  -2775  -2768  -2775  -2793  -2800  -2791  -2792  -2860  -3060  -3377  -3683  -3854  -3865  -3746  -3527  -3223  -2861  -2492  -2167  -1907  -1728  -1664  -1745  -1972  -2313  -2728  -3134  -3390  -3367  -3006  -2404  -1809  -1427  -1260  -1175  -1073  -966  -895  -811  -548  -2  649  1078  1145  946  670  482  437  491  580  647  615  399  8  -397  -662  -793  -909  -1090  -1306  -1473  -1553  -1572  -1561  -1525  -1463  -1399  -1381  -1476  -1816  -2532  -3487  -4303  -4788  -5064  -5274  -5434  -5539  -5614  -5654  -5565  -5218  -4666  -4213  -4151  -4445  -4680  -4295  -2852  -342  2573  4831  5564  4513  2178  -435  -2390  -3273  -3255  -2860  -2560  -2438  -2318  -2100  -1835  -1610  -1457  -1341  -1210  -1038  -839  -654  -533  -491  -478  -381  -84  370  777  986  1018  922  702  413  195  188  491  1084  1760  2288  2600  2742  2832  3046  3529  4235  4913  5310  5405  5338  5197  4969  4635  4277  3970  3596  2968  2143  1420  1024  907  909  951  1023  1106  1186  1255  1250  1014  436  -316  -901  -1170  -1244  -1262  -1264  -1244  -1219  -1213  -1198  -1062  -696  -189  208  352  262  9  -301  -549  -698  -811  -938  -1075  -1200  -1277  -1245  -1035  -668  -288  -16  135  202  240  304  369  419  510  640  778  965  1233  1506  1680  1768  1890  2145  2534  2928  3127  3027  2703  2300  1934  1670  1473  1211  797  280  -225  -638  -915  -1047  -1076  -1082  -1146  -1293  -1478  -1625  -1707  -1743  -1749  -1728  -1698  -1678  -1666  -1658  -1658  -1681  -1748  -1888  -2136  -2531  -3111  -3833  -4438  -4576  -4104  -3131  -1837  -351  1296  3097  4928  6484  7238  6701  4898  2433  72  -1576  -2274  -2248  -1936  -1724  -1836  -2197  -2519  -2603  -2426  -2071  -1699  -1455  -1343  -1251  -1028  -558  78  671  1126  1451  1626  1646  1557  1409  1234  1070  961  920  924  946  959  908  745  517  353  349  508  736  897  910  780  571  334  63  -240  -490  -615  -624  -552  -401  -175  60  193  163  10  -185  -343  -392  -291  -48  268  545  699  733  695  622  542  494  513  617  766  873  849  659  367  98  -58  -83  39  357  912  1633  2304  2719  2819  2576  1951  1147  591  563  1032  1703  2206  2416  2481  2550  2626  2622  2494  2258  1903  1435  975  670  558  588  698  832  921  926  855  749  667  636  641  656  656  642  647  678  685  639  567  514  501  530  604  739  907  1031  1074  1052  976  830  634  443  282  94  -203  -617  -1039  -1341  -1488  -1507  -1372  -1038  -638  -447  -560  -759  -699  -107  1177  3118  5288  7004  7720  7198  5531  3236  1104  -309  -922  -898  -502  -15  403  690  824  810  643  328  -34  -314  -470  -544  -583  -584  -494  -267  36  266  339  313  313  438  717  1140  1681  2252  2709  2990  3192  3453  3806  4206  4620  5005  5288  5427  5439  5375  5271  5120  4949  4827  4796  4830  4879  4842  4573  4018  3294  2535  1800  1195  872  888  1183  1599  1933  2079  2030  1732  1128  330  -377  -774  -878  -851  -815  -802  -797  -786  -778  -819  -945  -1117  -1265  -1403  -1593  -1814  -1991  -2115  -2203  -2256  -2351  -2744  -3686  -5020  -6217  -7001  -7622  -8382  -9221  -9847  -10122  -10159  -10118  -10024  -9836  -9604  -9456  -9407  -9293  -8957  -8470  -8039  -7716  -7388  -7034  -6752  -6561  -6333  -5948  -5380  -4594  -3567  -2472  -1643  -1255  -1191  -1229  -1257  -1306  -1473  -1797  -2173  -2427  -2514  -2534  -2589  -2689  -2775  -2823  -2864  -2927  -2999  -3056  -3085  -3056  -2914  -2644  -2328  -2080  -1983  -2131  -2608  -3309  -3977  -4526  -4951  -4930  -4009  -2056  670  3596  5956  7107  6827  5295  3011  807  -517  -677  141  1444  2578  3155  3265  3155  2932  2628  2342  2185  2159  2181  2168  2081  1950  1845  1807  1852  1985  2164  2306  2367  2330  2152  1821  1439  1148  1001  947  887  736  498  277  162  162  240  345  428  467  470  443  378  303  279  346  464  554  589  588  551  454  292  50  -334  -856  -1349  -1637  -1675  -1452  -966  -344  190  540  759  910  1025  1137  1265  1372  1385  1284  1095  863  654  549  638  968  1421  1760  1862  1748  1476  1159  953  968  1211  1574  1875  2011  1955  1659  1101  436  -89  -394  -566  -662  -666  -604  -566  -605  -681  -714  -693  -630  -393  260  1326  2376  2969  3030  2697  2137  1573  1189  993  861  627  185  -353  -725  -777  -524  -96  306  523  490  174  -387  -1030  -1568  -1949  -2270  -2602  -2894  -3125  -3384  -3679  -3893  -3966  -3959  -3940  -3923  -3896  -3854  -3787  -3671  -3533  -3443  -3399  -3233  -2700  -1738  -564  537  1494  2415  3441  4838  6942  9723  12543  14475  14698  12746  9070  5085  2041  391  75  601  1294  1842  2214  2376  2347  2211  2040  1901  1818  1717  1489  1128  764  563  658  1107  1762  2303  2528  2416  1986  1378  874  632  591  688  954  1380  1826  2182  2462  2699  2940  3367  4139  5050  5684  5871  5666  5103  4248  3330  2599  2129  1806  1514  1265  1099  971  752  253  -628  -1661  -2433  -2798  -2936  -3127  -3595  -4373  -5288  -6110  -6682  -6965  -7040  -7038  -7030  -7010  -6915  -6672  -6254  -5722  -5212  -4830  -4532  -4193  -3807  -3478  -3200  -2857  -2435  -2005  -1548  -1073  -709  -512  -396  -276  -140  -22  24  -9  -75  -103  -54  69  246  446  615  710  751  778  779  733  669  645  692  822  1022  1228  1357  1388  1362  1314  1248  1173  1138  1183  1253  1254  1150  982  821  703  628  607  642  705  784  901  1076  1284  1499  1734  1971  2112  2011  1579  963  484  296  276  247  109  -192  -646  -1105  -1338  -1132  -409  671  1861  3109  4510  5999  7195  7515  6632  4745  2410  362  -918  -1629  -2186  -2610  -2680  -2419  -2132  -2051  -2233  -2660  -3169  -3527  -3696  -3792  -3832  -3735  -3429  -2846  -2023  -1231  -778  -776  -1191  -1869  -2501  -2842  -2891  -2754  -2494  -2170  -1873  -1669  -1538  -1429  -1302  -1134  -950  -814  -730  -619  -403  -89  204  371  414  378  280  152  43  -24  -67  -90  -63  54  221  328  333  259  114  -110  -376  -604  -787  -1017  -1353  -1713  -1968  -2048  -1869  -1332  -566  70  370  436  459  527  603  613  556  495  472  480  494  480  406  250  -9  -386  -788  -1052  -1058  -757  -208  369  755  882  723  212  -540  -1206  -1564  -1674  -1738  -1925  -2311  -2874  -3457  -3832  -3899  -3729  -3467  -3249  -3140  -3121  -3152  -3219  -3321  -3459  -3615  -3761  -3876  -3957  -4013  -4049  -4027  -3900  -3681  -3394  -3000  -2492  -2011  -1719  -1616  -1599  -1609  -1646  -1695  -1714  -1642  -1465  -1259  -1118  -1018  -837  -535  -270  -182  -145  119  874  2277  4173  6056  7284  7338  6081  3759  885  -1783  -3533  -4089  -3648  -2766  -2096  -1997  -2395  -2964  -3370  -3399  -2879  -1803  -597  175  389  302  134  -24  -119  -100  53  307  613  993  1449  1877  2191  2434  2704  3009  3300  3611  3983  4333  4534  4540  4366  4071  3778  3624  3724  4132  4701  5101  5069  4569  3850  3265  2938  2776  2708  2709  2719  2629  2348  1898  1367  831  397  169  160  318  570  797  898  866  773  697  670  703  807  951  1055  1031  840  533  222  -17  -159  -184  -101  22  120  180  224  256  266  229  117  -66  -264  -400  -453  -449  -404  -317  -192  -51  78  164  196  191  180  197  286  476  723  916  992  987  978  1036  1196  1407  1573  1646  1646  1590  1473  1309  1163  1117  1208  1392  1575  1694  1737  1731  1709  1694  1677  1642  1593  1569  1608  1714  1858  2033  2224  2286  1992  1359  869  1223  2767  5142  7602  9517  10496  10348  9114  6998  4399  1957  317  -225  102  800  1551  2220  2652  2799  2789  2754  2737  2722  2675  2553  2285  1849  1374  1045  907  879  913  1003  1118  1215  1303  1409  1494  1471  1289  1007  758  638  664  817  1038  1244  1393  1471  1410  1103  565  26  -281  -348  -318  -334  -482  -806  -1273  -1785  -2250  -2654  -3109  -3747  -4466  -4983  -5182  -5150  -4944  -4550  -4016  -3506  -3171  -3028  -3057  -3377  -4138  -5247  -6363  -7230  -7884  -8529  -9355  -10416  -11526  -12387  -12881  -13101  -13207  -13293  -13370  -13472  -13657  -13901  -14106  -14204  -14103  -13613  -12553  -10915  -8906  -6953  -5482  -4536  -3881  -3361  -2945  -2656  -2499  -2397  -2253  -2067  -1918  -1865  -1950  -2218  -2597  -2857  -2728  -2096  -1222  -583  -379  -463  -668  -943  -1267  -1607  -1925  -2166  -2291  -2327  -2306  -2190  -1927  -1582  -1320  -1210  -1169  -1061  -799  -444  -154  21  149  272  394  537  751  1049  1359  1553  1591  1601  1789  2432  3864  6183  9005  11565  12968  12620  10626  7791  5249  3788  3439  3718  4072  4238  4404  4797  5280  5667  6025  6410  6701  6820  6827  6808  6811  6839  6877  6910  6942  6982  7025  7080  7220  7516  7900  8183  8232  8015  7547  6904  6262  5859  5849  6264  6976  7688  8153  8355  8423  8442  8423  8367  8294  8221  8157  8116  8125  8228  8455  8787  9138  9381  9396  9059  8310  7308  6404  5857  5649  5615  5637  5662  5653  5561  5338  4955  4441  3929  3582  3440  3412  3402  3382  3381  3431  3525  3630  3711  3754  3764  3761  3752  3736  3713  3694  3678  3649  3606  3598  3636  3487  2703  1050  -1193  -3475  -5370  -6730  -7625  -8237  -8696  -9042  -9291  -9468  -9613  -9773  -9967  -10171  -10315  -10345  -10300  -10263  -10262  -10336  -10588  -11066  -11630  -12053  -12242  -12279  -12268  -12243  -12215  -12233  -12385  -12748  -13254  -13726  -14062  -14268  -14362  -14362  -14304  -14226  -14164  -14037  -13500  -12235  -10579  -9347  -8904  -8999  -9335  -9754  -10110  -10252  -10021  -9312  -8270  -7199  -6342  -5815  -5484  -4936  -3710  -1502  1490  4394  6177  6311  4895  2530  109  -1624  -2389  -2267  -1597  -879  -467  -363  -365  -308  -171  -23  88  165  204  171  36  -159  -299  -264  0  402  754  979  1153  1335  1520  1715  1950  2210  2429  2598  2810  3149  3618  4152  4606  4845  4876  4791  4667  4556  4509  4599  4886  5284  5614  5823  5967  6064  6109  6117  6055  5829  5424  4998  4728  4649  4710  4878  5099  5270  5295  5094  4661  4168  3849  3757  3779  3808  3814  3809  3823  3877  3960  4033  4057  3993  3809  3550  3304  3088  2870  2681  2581  2572  2586  2585  2582  2596  2625  2639  2613  2549  2481  2434  2405  2366  2314  2309  2405  2555  2669  2723  2747  2755  2702  2520  2226  1923  1669  1454  1273  1144  1056  989  948  906  728  274  -379  -945  -1215  -1229  -1134  -1037  -989  -995  -1036  -1077  -1093  -1099  -1118  -1128  -1121  -1177  -1384  -1695  -1976  -2214  -2518  -2938  -3367  -3655  -3769  -3780  -3761  -3739  -3714  -3701  -3749  -3911  -4153  -4356  -4441  -4400  -4249  -4063  -3985  -4053  -4023  -3467  -2176  -352  1575  3030  3411  2505  634  -1604  -3508  -4476  -4442  -3838  -3063  -2334  -1777  -1377  -1073  -864  -738  -654  -570  -417  -122  283  698  1033  1253  1363  1421  1575  1963  2511  2951  3135  3161  3204  3350  3605  3918  4194  4362  4427  4393  4253  4080  4023  4182  4502  4835  5090  5295  5499  5688  5808  5812  5649  5274  4716  4141  3747  3551  3356  2956  2318  1525  651  -181  -826  -1302  -1686  -1945  -2052  -2065  -2052  -2026  -1969  -1888  -1857  -1995  -2358  -2831  -3198  -3355  -3380  -3383  -3406  -3397  -3247  -2903  -2490  -2213  -2117  -2074  -1977  -1871  -1877  -1995  -2092  -2075  -1983  -1903  -1867  -1848  -1827  -1809  -1800  -1800  -1810  -1830  -1852  -1878  -1945  -2109  -2372  -2651  -2843  -2920  -2936  -2943  -2949  -2942  -2931  -2940  -2984  -3060  -3181  -3346  -3502  -3599  -3656  -3705  -3745  -3744  -3669  -3521  -3361  -3260  -3272  -3447  -3781  -4171  -4507  -4764  -4956  -5083  -5152  -5173  -5152  -5092  -5000  -4904  -4827  -4738  -4576  -4345  -4115  -3926  -3719  -3358  -2751  -1919  -986  -194  242  348  296  191  61  -52  -93  4  313  861  1579  2276  2751  2857  2353  920  -1443  -4168  -6442  -7837  -8502  -8784  -8888  -8863  -8698  -8429  -8134  -7793  -7211  -6248  -5136  -4323  -3984  -3943  -3991  -4043  -4085  -4101  -4076  -4003  -3905  -3824  -3852  -4126  -4689  -5347  -5818  -5993  -5920  -5658  -5306  -5016  -4867  -4877  -5119  -5659  -6342  -6875  -7127  -7201  -7258  -7382  -7459  -7128  -6054  -4259  -2040  242  2304  4065  5535  6489  6477  5262  3041  118  -3171  -6278  -8690  -10243  -11194  -12012  -12857  -13499  -13751  -13408  -12071  -9647  -6684  -3883  -1653  -41  1199  2329  3361  4163  4692  4996  5125  5135  5070  4942  4781  4778  5343  6876  9351  12221  14790  16674  17934  18881  19789  20643  21206  21410  21428  21440  21506  21474  20909  19356  16917  14365  12514  11521  10850  9909  8620  7320  6310  5619  5111  4702  4414  4262  4188  4145  4196  4531  5277  6200  6841  6986  6755  6356  5971  5710  5601  5657  5950  6589  7565  8574  9227  9421  9253  8750  7976  7172  6575  6237  6080  6013  5965  5903  5815  5710  5614  5574  5657  5913  6284  6640  6914  7098  7128  6849  6174  5333  4738  4503  4455  4472  4436  4354  4652  5755  7435  8802  8912  7475  5037  2669  1398  1516  2426  3357  4018  4454  4736  4982  5313  5707  6042  6204  6053  5409  4269  2922  1659  523  -594  -1701  -2602  -3119  -3334  -3470  -3619  -3752  -3936  -4318  -4834  -5218  -5346  -5305  -5188  -4986  -4616  -4005  -3153  -2177  -1270  -593  -197  -64  -259  -915  -1910  -2800  -3303  -3558  -3841  -4256  -4744  -5233  -5641  -5882  -6032  -6383  -7176  -8353  -9643  -10729  -11359  -11501  -11276  -10761  -10032  -9217  -8442  -7846  -7536  -7509  -7713  -8124  -8728  -9475  -10202  -10703  -10878  -10692  -10114  -9335  -8732  -8439  -8287  -8178  -8189  -8343  -8570  -8925  -9546  -10309  -10860  -11047  -11010  -10887  -10736  -10641  -10650  -10520  -9675  -7739  -5105  -2658  -1010  -206  39  64  72  124  273  567  957  1320  1641  2109  2997  4325  5736  6844  7606  8186  8693  9222  9876  10689  11753  13205  14786  15899  16274  15984  15067  13698  12201  10650  9011  7453  6200  5394  4993  4613  3762  2323  671  -764  -1857  -2702  -3429  -4069  -4612  -5194  -5994  -7007  -8072  -8891  -9157  -8897  -8401  -7703  -6537  -4748  -2509  -424  550  -197  -2353  -4999  -7116  -7921  -7321  -5914  -4447  -3385  -2823  -2606  -2471  -2112  -1262  144  1780  3046  3617  3666  3489  3224  2950  2756  2660  2619  2592  2496  2203  1647  974  439  127  -4  261  1421  3581  6068  8063  9319  10026  10416  10663  10917  11270  11712  12156  12531  12829  13058  13218  13317  13338  13178  12712  11959  10995  9618  7504  4839  2399  844  211  69  -1  -175  -516  -1035  -1646  -2298  -3119  -4391  -6248  -8341  -10009  -10824  -10809  -10217  -9394  -8738  -8450  -8414  -8446  -8491  -8578  -8722  -8877  -8967  -8971  -8943  -8984  -9163  -9436  -9665  -9776  -9793  -9713  -9431  -8870  -8148  -7437  -6763  -6154  -5729  -5515  -5397  -5259  -5049  -4751  -4316  -3657  -2698  -1433  -27  1299  2441  3303  3807  4046  4226  4496  4907  5383  5761  5983  6222  6671  7237  7631  7741  7710  7729  7897  8174  8478  8826  9245  9629  9855  9935  9997  10161  10426  10669  10801  10844  10829  10713  10396  9840  9206  8754  8555  8493  8434  8240  7817  7256  6779  6540  6632  7169  8111  9117  9737  9492  7880  4915  1457  -1360  -2934  -3478  -3540  -3427  -3247  -3111  -3096  -3191  -3323  -3410  -3436  -3462  -3543  -3660  -3738  -3748  -3736  -3733  -3657  -3347  -2745  -2009  -1362  -897  -592  -409  -373  -643  -1366  -2323  -3022  -3226  -3037  -2597  -2020  -1480  -1172  -1195  -1516  -1988  -2479  -3016  -3678  -4411  -5119  -5945  -7251  -9298  -12031  -15145  -18199  -20637  -21954  -22078  -21469  -20734  -20214  -19938  -19812  -19774  -19793  -19813  -19729  -19429  -18878  -18170  -17516  -17079  -16786  -16457  -16091  -15823  -15718  -15724  -15733  -15602  -15165  -14296  -13094  -11979  -11332  -11115  -10993  -10713  -10298  -9956  -9796  -9662  -9268  -8482  -7454  -6502  -5893  -5606  -5274  -4470  -3198  -1949  -1143  -793  -709  -706  -592  -171  604  1580  2503  3164  3506  3631  3666  3683  3764  4091  4801  5697  6383  6687  6698  6449  5825  4810  3690  2857  2428  2270  2221  2189  2154  2134  2161  2255  2388  2507  2599  2673  2723  2758  2821  2928  3006  2931  2720  2720  3508  5454  8384  11591  14123  15335  15150  13769  11478  8691  5947  3796  2646  2614  3468  4694  5672  6050  5989  5819  5680  5582  5539  5585  5788  6213  6818  7424  7845  8033  8060  8034  8019  8035  8061  8035  7891  7642  7351  7033  6672  6298  5956  5670  5474  5391  5388  5389  5321  5163  4962  4774  4622  4545  4650  5032  5592  6060  6186  5741  4571  2933  1433  447  -78  -316  -309  -12  533  1104  1476  1547  1208  325  -996  -2361  -3390  -4004  -4376  -4662  -4873  -4990  -5013  -4931  -4724  -4452  -4274  -4277  -4377  -4471  -4538  -4589  -4623  -4608  -4511  -4365  -4241  -4183  -4182  -4168  -4024  -3692  -3294  -2984  -2666  -2026  -972  145  919  1308  1502  1632  1752  1893  2041  2152  2222  2276  2314  2300  2192  1995  1786  1656  1671  1895  2344  2950  3635  4311  4825  5076  5162  5245  5357  5464  5680  6184  6868  7370  7504  7382  7206  7107  7103  7089  6882  6371  5714  5230  5061  5156  5467  5935  6438  6855  7137  7306  7391  7366  7110  6485  5578  4680  3885  3036  2167  1528  1176  912  543  10  -568  -995  -1225  -1348  -1439  -1580  -1883  -2329  -2728  -2957  -3080  -3179  -3260  -3348  -3529  -3841  -4248  -4699  -5116  -5412  -5575  -5627  -5471  -4945  -4102  -3264  -2702  -2447  -2391  -2476  -2764  -3294  -3936  -4500  -4925  -5253  -5475  -5538  -5457  -5346  -5364  -5606  -6026  -6468  -6793  -6961  -6942  -6603  -5817  -4693  -3549  -2650  -2028  -1541  -1051  -536  -86  191  282  219  -47  -580  -1267  -1839  -2126  -2160  -1997  -1639  -1192  -851  -677  -580  -487  -379  -272  -185  -98  17  138  199  187  152  134  133  137  136  124  103  82  87  160  353  688  1099  1439  1625  1737  1919  2213  2518  2713  2772  2722  2568  2324  2010  1581  1006  420  71  145  663  1380  1896  1982  1672  1128  525  -16  -464  -912  -1492  -2131  -2584  -2682  -2332  -1484  -294  924  1937  2661  3190  3853  4923  6230  7287  7641  7028  5464  3222  802  -1088  -2006  -2147  -1956  -1749  -1741  -1951  -2173  -2264  -2257  -2194  -2028  -1650  -1068  -507  -183  -84  -73  -77  -87  -114  -216  -521  -1086  -1752  -2282  -2596  -2749  -2824  -2882  -2911  -2765  -2208  -1181  68  1242  2162  2759  3133  3489  3871  4112  3987  3402  2598  2015  1843  1933  2089  2183  2111  1803  1342  953  768  689  406  -480  -2055  -3806  -5057  -5622  -5820  -6021  -6323  -6606  -6789  -6931  -7043  -7037  -6888  -6677  -6436  -6022  -5233  -4165  -3231  -2683  -2417  -2230  -2005  -1725  -1440  -1207  -1057  -1005  -1135  -1555  -2179  -2709  -2962  -2985  -2852  -2569  -2208  -1917  -1747  -1616  -1460  -1255  -943  -493  0  375  540  528  483  642  1204  2041  2738  3065  3145  3149  3111  3028  2943  2908  2973  3204  3630  4128  4506  4750  4993  5260  5483  5672  5894  6184  6557  6959  7265  7445  7593  7780  8006  8368  9116  10332  11640  12543  12905  12886  12564  11837  10569  8796  6861  5221  4152  3702  3805  4330  5009  5502  5667  5563  5197  4552  3819  3301  3065  2946  2851  2822  2904  3095  3419  3951  4658  5314  5695  5724  5369  4642  3740  2968  2490  2275  2187  2127  2082  2042  1966  1824  1608  1315  1004  787  729  841  1117  1457  1709  1869  2144  2702  3402  3934  4141  3966  3298  2223  1161  435  -11  -392  -834  -1308  -1679  -1871  -1955  -2057  -2236  -2468  -2675  -2787  -2813  -2804  -2785  -2748  -2686  -2610  -2523  -2413  -2288  -2201  -2236  -2498  -3054  -3784  -4430  -4824  -4971  -4905  -4621  -4181  -3756  -3460  -3263  -3121  -3051  -3066  -3126  -3160  -3051  -2631  -1784  -575  647  1432  1621  1347  785  120  -477  -984  -1511  -2128  -2739  -3180  -3436  -3652  -3988  -4525  -5182  -5742  -6080  -6245  -6319  -6340  -6319  -6281  -6323  -6653  -7422  -8462  -9403  -10048  -10428  -10589  -10528  -10247  -9858  -9561  -9504  -9767  -10340  -11026  -11550  -11773  -11593  -10836  -9577  -8344  -7616  -7407  -7543  -8036  -8942  -10052  -11025  -11672  -11982  -12042  -11960  -11792  -11598  -11510  -11662  -12051  -12506  -12826  -12958  -12969  -12920  -12826  -12680  -12474  -12227  -11998  -11824  -11674  -11525  -11408  -11309  -11115  -10737  -10224  -9697  -9184  -8592  -7857  -7076  -6405  -5898  -5511  -5219  -5029  -4918  -4831  -4732  -4621  -4534  -4521  -4634  -4898  -5266  -5658  -6047  -6466  -6961  -7517  -8016  -8340  -8448  -8225  -7490  -6338  -5213  -4487  -4188  -4133  -4195  -4439  -4962  -5628  -6149  -6425  -6570  -6697  -6821  -6908  -6946  -6930  -6784  -6381  -5714  -4983  -4425  -4126  -4027  -4012  -3995  -3966  -3908  -3691  -3181  -2456  -1719  -966  36  1362  2688  3586  3991  4198  4529  5165  6135  7229  8120  8674  8992  9285  9807  10667  11696  12649  13379  13800  13859  13497  12695  11692  10909  10577  10647  10982  11408  11741  11932  12069  12205  12291  12275  12151  11929  11664  11475  11457  11634  11943  12245  12423  12488  12504  12483  12413  12320  12237  12151  12029  11896  11847  11996  12415  13130  14034  14841  15328  15468  15143  14051  12206  10283  9036  8534  8322  8091  7838  7482  6760  5637]
