reading_id,reading_time,wire_id,result_classification,heart_rate,heart_rate_alert,firmware_version,device_app_version,hardware_version,waveform_samples
600f2ae0-503c-11ed-8080-808080808080,Thu Oct 20 05:59:35 UTC 2022,2101e3b12739,NSR,78,NONE,20001.171.50,2.10.0,Charge 5,[-10550  -12037  -13640  -15498  -17599  -19733  -21652  -23185  -24289  -25125  -25972  -26990  -28146  -29284  -30212  -30892  -31528  -32378  -32768  -32768  -32768  -32768  -32768  -32768  -32768  -32768  -32768  -32768  -32768  -32768  -32768  -32768  -32768  -32768  -32768  -32768  -32768  -32768  -32768  -32768  -32768  -32768  -32768  -32768  -32768  -32768  -32768  -32768  -32768  -32768  -32768  -32768  -32768  -32768  -32768  -32768  -32768  -32768  -32768  -32768  -32768  -32768  -32768  -32768  -32768  -32768  -32768  -32768  -32768  -32768  -32768  -32768  -32768  -32768  -32768  -32768  -32768  -32768  -32768  -32768  -32768  -32768  -32768  -32768  -32768  -32768  -32768  -32768  -32768  -32768  -32768  -32768  -32768  -32768  -32768  -32768  -32768  -32768  -32768  -32768  -32768  -32768  -32768  -32768  -32768  -32768  -32768  -32768  -32768  -32768  -32768  -32768  -32768  -32768  -32768  -32768  -32768  -32768  -32768  -32768  -32768  -32768  -32768  -32768  -32768  -32768  -32768  -32768  -32768  -32768  -32768  -32768  -32768  -32768  -32768  -14939  32767  32767  32767  32767  32767  32767  32767  32767  32767  32767  32767  32767  32767  32767  32767  32767  32767  32767  32767  32767  32767  32767  32767  32767  32767  32767  32767  32767  32767  32767  32767  32767  32767  32767  32767  32767  32767  32767  26289  18374  10858  3888  -2326  -7854  -12994  -17979  -22774  -27157  -31074  -32768  -32768  -32768  -32768  -32768  -32768  -32768  -32768  -32768  -32768  -32768  -32768  -32768  -32768  -32768  -32768  -32768  -32768  -32768  -32768  -32768  -32768  -32768  -32768  -32768  -32768  -32768  -32768  -32768  -32768  -32768  -32768  -32768  -32768  -32768  -32768  -32768  -32768  -32768  -32768  -32768  -32768  -32768  -32768  -32768  -32768  -32768  -32768  -32768  -32768  -32768  -32768  -32768  -32768  -32768  -32768  -32768  -32768  -32768  -32768  -32768  -32768  -32768  -32768  -32768  -32768  -32768  -32768  -32768  -32768  -32768  -32768  -32768  -32768  -32768  -32768  -32768  -32768  -32768  -32768  -32768  -32768  -32768  -32768  -32768  -32768  -6557  32767  32767  32767  32767  32767  32767  32767  32767  32767  32767  32767  32767  32767  32767  32767  32767  32767  32767  32767  32767  32767  32767  32767  32767  32767  32767  32767  32767  32767  32767  32767  32767  32767  32767  32767  32767  32767  32767  32767  27966  21995  16219  10972  6311  1867  -2603  -6870  -10624  -13862  -16781  -19521  -22039  -24238  -26202  -28154  -30199  -32264  -32768  -32768  -32768  -32768  -32768  -32768  -32768  -32768  -32768  -32768  -32768  -32768  -32768  -32768  -32768  -32768  -32768  -32768  -32768  -32768  -32768  -32768  -32768  -32768  -32768  -32768  -32768  -32768  -32768  -32768  -32768  -32768  -32768  -32768  -32768  -32768  -32768  -32768  -32768  -32768  -32768  -32768  -32768  -32768  -32768  -32768  -32768  -32768  -32768  -32768  -32768  -32768  -32768  -32768  -32768  -32768  -32768  -32768  -32768  -32768  -32768  -32768  -32768  -32768  -31685  -29744  -27870  -26362  -25535  -25423  -25888  -26761  -27693  -28276  -28383  -28134  -27662  -27046  -26357  -25654  -24949  -24293  -23765  -23270  -22612  -21781  -20953  -20271  -19776  -19448  -19185  -18825  -18290  -17666  -17093  -16635  -16235  -15771  -15228  -14706  -14265  -13908  -13635  -13398  -13086  -12619  -11997  -11291  -10552  -9729  -8759  -7724  -6751  -5876  -5137  -4601  -4232  -3930  -3649  -3348  -2927  -2399  -1961  -1746  -1678  -1622  -1496  -1266  -948  -624  -377  -215  -63  160  448  694  826  853  759  505  157  -99  -127  103  515  965  1378  1802  2260  2678  3014  3307  3548  3642  3503  3150  2737  2447  2335  2325  2330  2324  2334  2373  2423  2480  2589  2820  3193  3635  4035  4328  4517  4639  4731  4838  5017  5279  5546  5727  5795  5747  5587  5367  5177  5052  4977  4939  4944  5000  5106  5264  5484  5749  6019  6252  6426  6550  6648  6715  6745  6747  6711  6609  6459  6313  6207  6115  5989  5835  5726  5701  5733  5792  5970  6492  7468  8653  9614  10114  10063  9243  7554  5484  3796  2838  2485  2466  2576  2720  2859  3003  3218  3534  3863  4110  4254  4279  4164  3947  3720  3561  3496  3512  3619  3877  4303  4838  5397  5859  6116  6177  6121  5994  5833  5695  5626  5683  5970  6507  7124  7600  7855  7954  7985  7984  7957  7916  7875  7830  7769  7693  7613  7551  7518  7482  7374  7138  6778  6392  6122  6011  5989  5969  5866  5618  5228  4753  4273  3863  3557  3332  3106  2799  2458  2224  2148  2160  2186  2205  2226  2256  2297  2355  2452  2590  2737  2861  2954  3030  3099  3131  3048  2812  2507  2235  1981  1678  1339  1010  709  455  280  191  158  130  28  -237  -676  -1130  -1405  -1453  -1328  -1089  -794  -488  -199  26  129  31  -325  -833  -1244  -1431  -1450  -1332  -1028  -564  -60  429  924  1396  1783  2052  2208  2282  2300  2258  2128  1905  1613  1280  940  654  470  381  403  695  1463  2690  4052  5137  5704  5674  4948  3537  1833  382  -567  -1095  -1386  -1573  -1693  -1750  -1771  -1773  -1732  -1620  -1466  -1353  -1311  -1310  -1308  -1283  -1225  -1139  -1033  -918  -788  -630  -425  -187  25  144  133  22  -99  -173  -196  -175  -80  149  492  836  1099  1279  1395  1453  1464  1451  1439  1440  1453  1470  1484  1505  1542  1581  1576  1483  1302  1102  968  923  938  977  1014  1026  994  907  758  558  354  200  126  113  124  136  146  143  107  37  -19  -28  -46  -164  -414  -740  -1019  -1169  -1209  -1193  -1145  -1067  -979  -911  -876  -884  -984  -1208  -1484  -1670  -1688  -1555  -1353  -1189  -1112  -1093  -1101  -1164  -1321  -1530  -1692  -1791  -1888  -2002  -2103  -2182  -2259  -2327  -2366  -2398  -2482  -2638  -2810  -2917  -2944  -2926  -2863  -2727  -2542  -2393  -2315  -2268  -2205  -2097  -1956  -1838  -1766  -1700  -1614  -1529  -1473  -1444  -1429  -1428  -1443  -1415  -1161  -438  759  2067  3049  3532  3489  2768  1279  -550  -1961  -2576  -2579  -2310  -1987  -1715  -1507  -1348  -1254  -1227  -1230  -1211  -1130  -992  -847  -722  -607  -520  -485  -472  -419  -285  -95  65  144  154  124  62  -16  -79  -104  -75  26  185  337  459  613  859  1188  1544  1858  2074  2207  2315  2428  2545  2641  2685  2683  2664  2641  2578  2423  2156  1780  1306  808  410  141  -72  -281  -461  -602  -746  -921  -1098  -1256  -1400  -1511  -1549  -1518  -1463  -1400  -1316  -1216  -1126  -1067  -1037  -1018  -988  -940  -901  -906  -951  -996  -1016  -1005  -960  -875  -761  -638  -498  -357  -276  -293  -377  -474  -562  -645  -727  -802  -864  -907  -935  -954  -949  -898  -793  -647  -505  -424  -406  -401  -361  -273  -174  -108  -101  -182  -361  -585  -774  -903  -997  -1057  -1059  -1008  -946  -902  -878  -862  -847  -845  -901  -1061  -1310  -1550  -1693  -1716  -1620  -1400  -1098  -783  -473  -100  431  1205  2207  3189  3803  3841  3248  2097  634  -704  -1514  -1726  -1560  -1288  -1087  -974  -890  -805  -711  -614  -507  -377  -251  -182  -198  -288  -397  -467  -494  -491  -407  -174  171  495  708  814  841  773  550  194  -145  -342  -401  -391  -352  -269  -91  203  571  945  1309  1683  2063  2384  2582  2649  2577  2329  1920  1498  1244  1187  1234  1299  1350  1392  1418  1382  1203  851  414  60  -96  -78  12  104  185  244  246  191  137  147  243  397  545  651  735  837  943  996  957  843  676  466  235  10  -198  -385  -534  -660  -774  -869  -961  -1071  -1180  -1260  -1337  -1475  -1678  -1865  -1960  -1943  -1834  -1684  -1566  -1510  -1502  -1515  -1527  -1513  -1459  -1368  -1259  -1153  -1047  -909  -745  -611  -541  -506  -458  -365  -222  -25  225  500  729  867  934  948  909  809  611  283  -106  -437  -646  -743  -759  -701  -554  -377  -326  -494  -802  -1045  -1015  -635  61  1027  2170  3256  3916  3810  2844  1276  -346  -1528  -2142  -2337  -2284  -2087  -1754  -1281  -767  -341  -35  169  268  263  172  19  -162  -330  -429  -404  -211  107  406  564  571  476  334  212  153  136  90  -36  -212  -340  -339  -187  71  339  547  687  783  861  930  977  989  975  959  949  953  971  999  1052  1145  1228  1212  1087  941  851  822  820  819  812  791  729  606  467  404  463  609  757  856  894  859  719  491  258  79  -60  -204  -342  -407  -373  -304  -286  -360  -510  -694  -858  -951  -942  -842  -705  -605  -566  -566  -598  -681  -806  -948  -1129  -1409  -1764  -2064  -2220  -2258  -2233  -2155  -2012  -1819  -1610  -1385  -1101  -753  -440  -263  -213  -205  -188  -143  -38  147  369  543  634  683  746  833  912  966  1030  1177  1464  1829  2112  2220  2146  1917  1625  1405  1260  1052  680  137  -521  -1161  -1614  -1826  -1840  -1732  -1623  -1567  -1425  -986  -91  1286  2898  4223  4745  4222  2720  648  -1349  -2796  -3615  -3984  -4121  -4152  -4075  -3837  -3450  -2998  -2610  -2384  -2277  -2130  -1843  -1489  -1222  -1077  -952  -749  -438  -33  463  1035  1577  1961  2165  2250  2276  2269  2234  2189  2160  2153  2157  2165  2165  2131  2032  1886  1767  1726  1742  1776  1820  1870  1907  1913  1884  1818  1703  1568  1466  1399  1306  1123  807  289  -477  -1346  -2003  -2283  -2284  -2159  -1991  -1815  -1647  -1474  -1271  -1024  -769  -569  -449  -385  -346  -310  -234  -66  212  567  915  1189  1421  1674  1918  2071  2115  2065  1915  1675  1394  1137  966  878  766  516  167  -125  -277  -324  -334  -359  -460  -709  -1097  -1483  -1738  -1858  -1903  -1920  -1948  -2004  -2060  -2069  -2027  -1979  -1947  -1907  -1819  -1664  -1479  -1333  -1261  -1241  -1247  -1286  -1363  -1459  -1548  -1617  -1645  -1570  -1342  -1015  -731  -551  -411  -271  -164  -117  -87  -1  175  405  622  793  926  1047  1187  1373  1599  1813  1966  2019  1856  1331  513  -270  -759  -958  -1001  -968  -875  -754  -681  -705  -828  -1017  -1214  -1345  -1386  -1364  -1315  -1261  -1213  -1143  -1016  -863  -743  -632  -385  187  1178  2550  4094  5344  5844  5415  4073  2113  183  -1151  -1772  -1811  -1485  -1092  -856  -782  -722  -549  -284  -63  37  42  -24  -165  -342  -480  -563  -617  -643  -630  -612  -645  -731  -818  -866  -885  -892  -859  -721  -431  -51  294  557  789  1037  1305  1609  1943  2238  2439  2559  2639  2716  2796  2854  2868  2828  2734  2611  2500  2414  2316  2155  1917  1632  1353  1110  845  459  -11  -399  -602  -687  -796  -1015  -1311  -1563  -1687  -1668  -1510  -1248  -987  -819  -735  -671  -581  -460  -335  -234  -166  -116  -72  -28  12  45  69  77  62  33  17  39  90  160  241  310  359  401  432  447  449  450  461  488  528  550  470  200  -203  -570  -837  -1077  -1309  -1471  -1539  -1561  -1583  -1626  -1695  -1791  -1895  -1966  -1969  -1904  -1795  -1672  -1522  -1289  -958  -621  -407  -334  -327  -327  -306  -209  34  409  780  1029  1150  1192  1197  1191  1181  1175  1196  1270  1388  1531  1706  1903  2069  2128  1958  1456  778  246  -51  -269  -483  -636  -684  -672  -703  -893  -1282  -1759  -2150  -2369  -2442  -2421  -2319  -2146  -1954  -1801  -1687  -1574  -1457  -1367  -1319  -1307  -1357  -1520  -1773  -1943  -1777  -1112  43  1595  3417  5246  6596  6987  6182  4232  1578  -929  -2495  -2899  -2484  -1811  -1320  -1132  -1089  -1017  -899  -808  -766  -728  -647  -542  -468  -446  -445  -430  -397  -357  -320  -286  -263  -252  -249  -252  -262  -281  -292  -245  -91  159  429  661  851  1011  1140  1262  1409  1558  1641  1634  1574  1507  1458  1436  1459  1554  1726  1934  2110  2211  2245  2206  2031  1666  1156  668  374  287  292  282  214  85  -77  -228  -321  -357  -376  -401  -426  -455  -506  -573  -627  -648  -627  -562  -468  -388  -344  -328  -324  -328  -346  -392  -469  -572  -681  -785  -895  -1008  -1089  -1117  -1105  -1068  -1015  -954  -855  -651  -353  -73  96  184  272  397  511  559  514  368  173  20  -61  -103  -125  -99  8  183  350  446  459  408  309  161  -33  -269  -524  -762  -954  -1087  -1164  -1204  -1213  -1177  -1085  -938  -745  -534  -354  -239  -176  -126  -79  -51  -60  -112  -213  -346  -474  -575  -657  -736  -813  -874  -895  -855  -758  -646  -575  -570  -619  -693  -773  -860  -944  -1000  -1016  -1013  -1008  -1006  -1006  -1003  -996  -986  -983  -996  -1034  -1094  -1153  -1183  -1176  -1144  -1124  -1158  -1243  -1333  -1393  -1414  -1411  -1420  -1448  -1419  -1221  -766  52  1307  2921  4645  6042  6564  5910  4208  1847  -583  -2416  -3351  -3533  -3193  -2554  -1899  -1454  -1271  -1257  -1276  -1255  -1203  -1145  -1036  -814  -505  -227  -49  68  165  227  243  239  256  310  370  381  331  256  185  111  31  -24  -8  101  279  486  744  1079  1433  1744  2021  2320  2691  3136  3621  4098  4505  4796  5001  5171  5289  5273  5078  4754  4403  4109  3863  3589  3246  2879  2566  2343  2175  1992  1746  1460  1207  1009  805  549  297  125  36  -23  -99  -200  -324  -480  -635  -692  -590  -394  -228  -148  -125  -121  -110  -79  -34  2  28  60  99  106  24  -160  -374  -509  -530  -467  -352  -206  -60  55  119  135  126  113  109  123  161  208  238  229  160  1  -255  -538  -741  -832  -859  -881  -928  -1027  -1206  -1457  -1704  -1855  -1890  -1854  -1791  -1714  -1626  -1538  -1464  -1410  -1383  -1385  -1408  -1428  -1415  -1353  -1211  -958  -645  -393  -258  -213  -235  -333  -510  -722  -921  -1076  -1179  -1260  -1387  -1607  -1880  -2113  -2254  -2330  -2399  -2497  -2618  -2718  -2741  -2686  -2606  -2546  -2515  -2498  -2459  -2392  -2365  -2448  -2592  -2686  -2636  -2337  -1745  -905  146  1339  2444  3169  3270  2621  1314  -320  -1784  -2638  -2833  -2600  -2147  -1643  -1249  -947  -583  -129  300  653  958  1202  1349  1400  1396  1386  1398  1438  1487  1523  1537  1519  1455  1351  1235  1143  1110  1167  1306  1472  1609  1703  1771  1833  1911  2036  2200  2351  2437  2437  2368  2275  2188  2127  2095  2084  2086  2098  2110  2082  1961  1749  1540  1428  1418  1439  1432  1383  1314  1228  1091  861  559  266  48  -86  -161  -191  -176  -150  -146  -151  -155  -183  -263  -392  -543  -682  -784  -834  -848  -857  -874  -890  -909  -947  -1018  -1114  -1212  -1281  -1309  -1305  -1276  -1223  -1164  -1124  -1109  -1106  -1112  -1145  -1211  -1264  -1253  -1188  -1128  -1111  -1135  -1199  -1350  -1615  -1910  -2098  -2110  -1956  -1695  -1410  -1168  -1006  -944  -966  -1017  -1052  -1062  -1044  -983  -875  -743  -610  -468  -303  -139  -29  5  -22  -105  -223  -328  -379  -348  -205  52  342  551  643  681  747  833  856  786  673  573  484  366  200  27  -101  -198  -300  -417  -531  -631  -719  -785  -819  -838  -865  -909  -966  -1020  -1050  -1049  -997  -878  -744  -680  -621  -361  255  1234  2438  3628  4516  4809  4342  3167  1532  -114  -1271  -1711  -1571  -1177  -828  -591  -342  8  464  935  1254  1357  1313  1204  1070  933  794  664  568  536  577  683  810  902  948  981  1016  1054  1099  1138  1154  1155  1155  1150  1122  1059  961  856  790  797  883  1013  1124  1185  1228  1321  1521  1798  2072  2308  2519  2690  2792  2818  2770  2661  2530  2420  2339  2262  2163  2049  1955  1893  1834  1742  1586  1336  1005  676  444  320  260  229  175  25  -195  -366  -434  -468  -565  -752  -979  -1178  -1328  -1458  -1600  -1738  -1832  -1881  -1912  -1945  -1982  -2015  -2026  -2002  -1949  -1872  -1760  -1615  -1465  -1335  -1217  -1104  -1027  -1012  -1078  -1233  -1435  -1602  -1688  -1698  -1655  -1596  -1568  -1591  -1648  -1712  -1788  -1896  -2017  -2105  -2143  -2156  -2164  -2133  -1993  -1714  -1380  -1126  -1005  -952  -850  -631  -335  -59  146  289  420  599  843  1108  1317  1417  1414  1329  1180  993  783  548  292  31  -230  -522  -887  -1295  -1631  -1831  -1950  -2071  -2212  -2342  -2438  -2514  -2589  -2642  -2614  -2482  -2317  -2184  -2072  -1920  -1581  -860  329  1881  3497  4734  5174  4668  3380  1700  171  -745  -989  -837  -574  -328  -74  255  625  905  1035  1059  998  833  590  336  105  -95  -220  -207  -18  300  607  786  834  784  619  330  -25  -341  -534  -594  -561  -450  -275  -67  153  393  649  884  1058  1161  1232  1332  1488  1709  1998  2295  2507  2607  2637  2645  2648  2642  2609  2535  2411  2220  1966  1706  1492  1324  1191  1080  941  691  263  -279  -738  -979  -1045  -1043  -1033  -1025  -1012  -987  -934  -822  -639  -434  -269  -131  53  292  491  578  585  583  617  679  736  770  775  736  630  451  224  10  -123  -184  -262  -466  -823  -1218  -1488  -1596  -1619  -1626  -1631  -1633  -1651  -1706  -1796  -1877  -1899  -1859  -1792  -1723  -1664  -1629  -1623  -1639  -1664  -1683  -1677  -1629  -1536  -1413  -1269  -1106  -934  -767  -616  -484  -361  -227  -64  134  333  479  574  665  771  860  921  968  999  1000  966  903  800  621  382  158  -4  -118  -192  -222  -221  -217  -246  -342  -507  -694  -853  -973  -1068  -1135  -1168  -1175  -1188  -1248  -1360  -1480  -1565  -1612  -1611  -1491  -1201  -780  -244  527  1702  3240  4768  5730  5669  4451  2372  102  -1635  -2477  -2522  -2108  -1585  -1182  -921  -659  -314  13  182  170  54  -89  -212  -284  -307  -308  -295  -231  -79  125  305  430  513  560  571  564  568  619  753  980  1246  1445  1522  1530  1581  1778  2127  2499  2747  2853  2904  2963  3026  3081  3112  3100  3060  3038  3049  3072  3068  2968  2719  2382  2099  1918  1766  1559  1263  884  476  137  -73  -185  -282  -460  -742  -1024  -1189  -1228  -1197  -1130  -1038  -949  -897  -883  -885  -885  -878  -872  -891  -954  -1040  -1102  -1123  -1123  -1125  -1126  -1112  -1101  -1144  -1257  -1383  -1444  -1423  -1372  -1342  -1338  -1326  -1273  -1170  -1055  -968  -922  -903  -884  -824  -706  -574  -504  -499  -503  -503  -510  -528  -565  -672  -911  -1237  -1506  -1663  -1778  -1906  -2022  -2098  -2140  -2161  -2166  -2156  -2140  -2116  -2085  -2059  -2053  -2064  -2052  -1958  -1753  -1490  -1233  -988  -736  -505  -323  -171  -33  69  130  187  279  402  504  533  506  474  450  432  428  431  409  337  231  137  59  -45  -182  -298  -387  -540  -839  -1237  -1590  -1817  -1928  -1883  -1593  -1065  -351  558  1670  2923  4197  5269  5790  5403  3974  1793  -470  -2132  -2865  -2770  -2176  -1449  -879  -582  -478  -450  -446  -440  -419  -370  -272  -132  9  123  190  204  177  154  193  315  481  622  707  756  801  849  906  991  1128  1311  1504  1684  1848  1990  2105  2201  2300  2428  2609  2822  2998  3101  3184  3326  3517  3667  3708  3625  3419  3129  2832  2569  2321  2082  1867  1656  1423  1163  863  548  296  144  48  -72  -269  -506  -689  -776  -808  -825  -848  -884  -931  -993  -1091  -1215  -1319  -1373  -1397  -1440  -1541  -1684  -1806  -1853  -1829  -1773  -1721  -1687  -1672  -1686  -1739  -1819  -1889  -1927  -1932  -1891  -1801  -1694  -1604  -1550  -1530  -1523  -1511  -1478  -1411  -1308  -1191  -1091  -1028  -995  -972  -945  -913  -886  -875  -882  -900  -923  -950  -977  -992  -977  -923  -854  -808  -797  -802  -801  -777  -733  -689  -664  -659  -662  -666  -668  -665  -652  -631  -609  -579  -520  -427  -331  -269  -246  -246  -268  -319  -399  -487  -571  -649  -701  -708  -690  -671  -668  -695  -728  -721  -654  -557  -486  -464  -469  -477  -474  -454  -424  -404  -413  -444  -456  -350  -5  647  1625  2859  4127  5138  5634  5411  4408  2779  883  -771  -1764  -2015  -1756  -1267  -706  -216  42  44  -102  -273  -384  -417  -411  -392  -365  -330  -311  -332  -399  -462  -443  -334  -191  -38  150  368  555  660  690  684  668  646  633  686  873  1175  1486  1744  1971  2174  2320  2416  2509  2633  2786  2934  3055  3169  3302  3414  3422  3319  3189  3066  2891  2638  2354  2034  1621  1167  811  589  428  278  155  91  97  159  243  305  322  297  243  182  138  126  135  140  110  45  -28  -106  -221  -406  -630  -817  -927  -988  -1040  -1087  -1116  -1123  -1112  -1085  -1051  -1017  -991  -972  -952  -905  -818  -718  -646  -618  -644  -748  -925  -1130  -1331  -1502  -1601  -1597  -1499  -1366  -1269  -1217  -1166  -1080  -964  -802  -560  -271  -36  84  105  66  8  -38  -78  -128  -197  -293  -411  -542  -663  -733  -724  -652  -540  -399  -255  -136  -35  75  185  231  162  8  -141  -229  -267  -285  -285  -261  -212  -167  -175  -266  -424  -622  -816  -951  -1008  -1019  -1021  -1022  -1017  -1010  -1020  -1064  -1143  -1236  -1307  -1322  -1259  -1122  -958  -837  -803  -841  -897  -883  -631  36  1149  2580  4076  5263  5735  5282  3986  2118  165  -1278  -1976  -2120  -2007  -1889  -1860  -1804  -1636  -1391  -1110  -828  -573  -323  -68  147  305  431  542  631  691  734  791  876  988  1104  1186  1217  1197  1114  971  821  723  689  696  734  802  872  910  931  1004  1174  1385  1528  1575  1575  1574  1582  1601  1631  1677  1740  1796  1802  1714  1501  1158  735  342  92  1  -36  -152  -400  -712  -963  -1077  -1070  -991  -856  -665  -441  -213  -6  154  258  331  399  458  497  531  568  594  581  509  399  298  236  210  195  147  31  -141  -309  -408  -435  -430  -436  -478  -550  -645  -780  -962  -1141  -1256  -1306  -1331  -1370  -1445  -1561  -1703  -1845  -1954  -2014  -2034  -2044  -2064  -2083  -2053  -1941  -1775  -1627  -1536  -1488  -1405  -1206  -929  -713  -634  -656  -727  -809  -864  -873  -844  -792  -742  -713  -709  -713  -672  -527  -290  -59  94  189  282  399  511  568  582  615  700  822  958  1089  1195  1253  1271  1264  1232  1147  993  798  607  429  277  191  173  168  108  -33  -222  -391  -508  -585  -672  -853  -1165  -1525  -1793  -1912  -1942  -1982  -2063  -2126  -2097  -1908  -1466  -712  384  1837  3479  4868  5498  5078  3635  1587  -318  -1468  -1775  -1586  -1328  -1225  -1188  -1008  -640  -223  109  323  433  461  410  267  74  -75  -118  -27  216  576  948  1225  1346  1294  1080  796  586  506  515  595  760  973  1142  1214  1207  1153  1084  1035  1052  1172  1380  1582  1703  1772  1878  2051  2223  2323  2350  2343  2322  2277  2201  2100  1965  1760  1477  1160  841  529  262  88  2  -36  -60  -95  -169  -293  -453  -629  -787  -892  -948  -987  -1021  -1041  -1034  -990  -916  -830  -747  -684  -657  -688  -795  -942  -1049  -1063  -980  -835  -690  -590  -544  -539  -570  -627  -683  -717  -730  -735  -742  -752  -759  -744  -697  -633  -603  -635  -710  -800  -905  -1030  -1149  -1232  -1287  -1337  -1389  -1435  -1470  -1499  -1538  -1586  -1624  -1636  -1614  -1556  -1477  -1395  -1286  -1124  -948  -833  -803  -822  -841  -801  -652  -423  -204  -46  73  196  320  418  485  530  549  550  573  668  860  1106  1295  1325  1220  1066  894  698  524  416  339  200  -61  -373  -587  -656  -645  -623  -606  -599  -624  -725  -911  -1126  -1299  -1400  -1444  -1449  -1426  -1383  -1325  -1253  -1178  -1147  -1226  -1371  -1328  -799  315  1875  3593  5096  5994  6017  5094  3319  1129  -734  -1794  -2082  -1863  -1479  -1206  -1062  -919  -745  -597  -517  -495  -498  -514  -554  -615  -655  -635  -553  -413  -220  -5  198  381  530  620  647  633  597  551  505  455  411  415  505  659  820  976  1159  1386  1669  1992  2288  2503  2640  2722  2762  2778  2789  2796  2761  2633  2415  2200  2074  2014  1907  1653  1281  927  688  564  508  463  374  220  33  -134  -269  -381  -460  -497  -509  -507  -495  -481  -478  -493  -523  -562  -598  -613  -599  -568  -541  -526  -525  -552  -627  -756  -925  -1099  -1231  -1298  -1320  -1336  -1355  -1365  -1356  -1332  -1309  -1278  -1204  -1090  -967  -859  -773  -713  -675  -642  -606  -566  -508  -420  -329  -271  -253  -260  -285  -321  -352  -365  -360  -358  -373  -404  -432  -445  -476  -594  -804  -1013  -1132  -1162  -1154  -1131  -1072  -935  -724  -520  -403  -372  -376  -393  -441  -512  -551  -513  -420  -316  -220  -122  -23  60  114  132  114  80  56  44  31  4  -51  -166  -353  -563  -730  -845  -926  -978  -1005  -1031  -1069  -1113  -1142  -1155  -1159  -1157  -1148  -1136  -1145  -1211  -1336  -1433  -1395  -1197  -845  -256  704  2100  3832  5536  6610  6559  5319  3233  938  -809  -1621  -1731  -1611  -1519  -1462  -1408  -1360  -1289  -1147  -966  -835  -792  -800  -811  -802  -764  -689  -565  -393  -202  -26  112  201  241  252  258  252  205  98  -40  -152  -193  -106  160  537  860  1054  1157  1239  1386  1652  1989  2327  2649  2939  3149  3270  3339  3388  3425  3445  3417  3299  3105  2917  2804  2761  2717  2535  2110  1544  1062  741  507  297  92  -100  -252  -339  -374  -371  -339  -298  -273  -266  -268  -273  -278  -279  -257  -203  -152  -159  -238  -352  -435  -423  -331  -241  -200  -189  -188  -202  -228  -248  -247  -212  -137  -35  48  66  15  -82  -213  -346  -452  -562  -738  -1004  -1317  -1574  -1695  -1695  -1648  -1609  -1583  -1551  -1502  -1449  -1406  -1379  -1363  -1350  -1339  -1324  -1295  -1244  -1163  -1028  -819  -550  -286  -95  18  100  165  201  198  161  109  72  68  106  176  246  275  243  159  57  -48  -180  -339  -489  -629  -778  -918  -1017  -1062  -1067  -1065  -1085  -1138  -1202  -1244  -1260  -1272  -1302  -1346  -1390  -1436  -1495  -1565  -1638  -1725  -1854  -2012  -2082  -1895  -1330  -387  831  2159  3365  4147  4220  3531  2256  672  -786  -1681  -2000  -2033  -1904  -1623  -1295  -1033  -871  -772  -681  -599  -560  -551  -513  -393  -207  -21  116  205  269  332  390  426  438  456  503  569  614  607  556  507  524  627  794  993  1168  1271  1330  1420  1557  1699  1850  2067  2362  2675  2958  3186  3325  3370  3350  3270  3127  2954  2802  2688  2582  2425  2171  1823  1425  1048  737  488  308  213  173  121  11  -165  -359  -487  -524  -513  -505  -522  -568  -634  -708  -771  -817  -860  -937  -1062  -1190  -1268  -1287  -1265  -1217  -1162  -1123  -1108  -1097  -1078  -1059  -1049  -1033  -1005  -978  -954  -914  -854  -798  -786  -811  -810  -752  -682  -639  -611  -574  -530  -502  -501  -516  -540  -580  -639  -709  -793  -886  -955  -971  -938  -897  -885  -909  -963  -1033  -1094  -1122  -1081  -923  -654  -359  -129  -5  29  22  12  6  0  0  23  94  190  261  278  260  235  216  189  123  0  -143  -245  -283  -279  -245  -169  -72  -14  -55  -215  -453  -705  -938  -1130  -1243  -1282  -1269  -1196  -1033  -796  -562  -404  -288  -64  411  1262  2565  4155  5594  6414  6323  5305  3585  1538  -316  -1537  -2061  -2083  -1859  -1635  -1489  -1341  -1169  -1045  -1007  -1036  -1099  -1160  -1199  -1210  -1183  -1100  -977  -864  -792  -743  -683  -591  -468  -325  -161  57  346  641  838  924  996  1165  1452  1805  2184  2549  2822  2970  3049  3123  3205  3278  3322  3323  3280  3205  3128  3067  3005  2902  2737  2551  2406  2285  2091  1771  1352  890  425  -4  -346  -568  -714  -858  -1009  -1105  -1108  -1050  -1007  -1030  -1119  -1253  -1417  -1571  -1656  -1638  -1519  -1356  -1242  -1220  -1269  -1339  -1387  -1403  -1403  -1392  -1367  -1327  -1292  -1270  -1237  -1153  -1014  -869  -773  -735  -717  -692  -671  -706  -824  -969  -1027  -934  -741  -563  -472  -446  -419  -342  -225  -120  -57  -11  37  61  23  -59  -138  -201  -280  -406  -552  -656  -689  -655  -563  -446  -366  -358  -409  -481  -532  -546  -538  -525  -513  -502  -499  -510  -535  -556  -553  -527  -507  -517  -541  -568  -623  -738  -919  -1123  -1301  -1450  -1567  -1603  -1520  -1363  -1228  -1173  -1223  -1385  -1603  -1767  -1826  -1815  -1775  -1709  -1610  -1499  -1422  -1401  -1429  -1503  -1620  -1719  -1661  -1342  -768  50  1183  2660  4324  5892  6993  7218  6380  4647  2440  346  -1125  -1809  -1834  -1451  -960  -645  -614  -727  -816  -838  -810  -739  -643  -559  -497  -444  -398  -369  -337  -253  -83  148  364  496  530  496  441  404  390  376  365  415  606  926  1244  1455  1577  1687  1813  1948  2116  2330  2560  2793  3046  3304  3517  3654  3715  3688  3546  3306  3049  2834  2651  2489  2350  2180  1886  1448  970  597  392  313  263  149  -51  -262  -396  -440  -440  -432  -429  -432  -436  -427  -390  -327  -267  -243  -275  -360  -460  -525  -550  -577  -663  -838  -1064  -1246  -1331  -1345  -1323  -1278  -1218  -1139  -1028  -904  -818  -797  -833  -909  -997  -1063  -1089  -1074  -1019  -939  -851  -751  -635  -524  -442  -397  -381  -378  -381  -385  -391  -428  -533  -694  -852  -982  -1092  -1177  -1208  -1175  -1109  -1050  -1007  -953  -865  -733  -582  -460  -375  -293  -179  -27  127  234  283  300  311  319  305  261  206  148  62  -55  -171  -243  -270  -289  -372  -567  -817  -995  -1056  -1052  -1040  -1040  -1075  -1190  -1410  -1668  -1851  -1920  -1923  -1927  -1968  -2017  -1928  -1517  -708  453  1872  3398  4797  5730  5877  5106  3499  1420  -469  -1598  -1859  -1504  -886  -340  -57  -2  -50  -151  -303  -463  -556  -561  -522  -486  -468  -460  -472  -537  -666  -784  -788  -683  -576  -536  -548  -576  -604  -629  -653  -657  -582  -366  -30  329  645  907  1134  1345  1529  1675  1809  1956  2094  2214  2341  2484  2600  2668  2701  2707  2666  2558  2375  2124  1829  1529  1265  1068  918  762  573  392  267  200  150  53  -136  -398  -656  -845  -950  -986  -977  -950  -938  -969  -1045  -1137  -1208  -1238  -1241  -1248  -1292  -1388  -1526  -1655  -1729  -1750  -1750  -1747  -1718  -1636  -1514  -1397  -1315  -1274  -1259  -1250  -1241  -1236  -1237  -1243  -1249  -1242  -1202  -1124  -1037  -977  -958  -970  -995  -1021  -1030  -1009  -964  -895  -782  -657  -580  -567  -586  -608  -626  -643  -650  -620  -547  -456  -381  -334  -302  -263  -215  -180  -156  -116  -59  7  100  231  366  465  546  650  762  834  836  777  678  557  430  322  254  202  113  -40  -218  -342  -379  -363  -341  -332  -323  -289  -223  -139  -57  -3  -13  -89  -143  -55  208  595  1090  1766  2678  3760  4814  5461  5302  4220  2473  608  -800  -1507  -1620  -1388  -1029  -667  -350  -101  43  74  23  -67  -152  -185  -151  -75  -2  34  34  8  -25  -52  -52  -6  85  187  247  257  246  254  310  406  496  558  606  663  726  792  885  1056  1333  1653  1906  2053  2162  2292  2446  2594  2727  2851  2951  2993  2966  2903  2832  2762  2698  2622  2455  2104  1567  971  478  178  54  -2  -124  -384  -708  -939  -1015  -1003  -978  -967  -978  -1011  -1056  -1089  -1101  -1097  -1079  -1055  -1063  -1142  -1278  -1402  -1475  -1499  -1470  -1364  -1170  -934  -729  -604  -558  -556  -567  -582  -619  -699  -818  -954  -1078  -1163  -1206  -1229  -1253  -1277  -1294  -1301  -1304  -1306  -1309  -1321  -1355  -1398  -1406  -1327  -1146  -899  -666  -526  -486  -495  -514  -541  -578  -621  -667  -724  -782  -815  -796  -714  -569  -397  -256  -171  -116  -61  5  85  174  265  340  388  417  436  438  433  430  386  225  -79  -429  -672  -758  -751  -733  -750  -825  -968  -1155  -1314  -1392  -1397  -1366  -1328  -1298  -1274  -1238  -1171  -1076  -985  -930  -893  -802  -564  -76  629  1316  1844  2388  3151  4028  4637  4564  3576  1818  -82  -1418  -1949  -1898  -1612  -1345  -1153  -971  -773  -588  -441  -348  -309  -302  -290  -251  -193  -149  -134  -141  -159  -178  -186  -154  -49  102  236  313  350  380  411  432  447  481  556  662  776  892  1021  1161  1309  1456  1613  1821  2098  2395  2649  2833  2942  2988  3015  3066  3139  3195  3213  3203  3143  2941  2523  1970  1480  1179  1039  954  842  704  569  377  31  -417  -772  -916  -881  -740  -570  -453  -419  -445  -508  -601  -699  -754  -755  -747  -765  -809  -879  -952  -1001  -1045  -1120  -1230  -1332  -1373  -1318  -1164  -964  -774  -590  -414  -295  -255  -260  -277  -297  -318  -319  -288  -250  -244  -298  -407  -536  -650  -740  -822  -911  -970  -903  -663  -365  -196  -231  -386  -539  -639  -695  -724  -738  -740  -729  -695  -628  -541  -471  -430  -407  -392  -392  -431  -505  -562  -561  -504  -429  -376  -359  -375  -418  -473  -514  -532  -533  -524  -501  -466  -436  -419  -417  -434  -497  -626  -785  -901  -941  -933  -904  -863  -814  -769  -750  -766  -807  -865  -960  -1106  -1270  -1401  -1454  -1410  -1312  -1176  -866  -220  782  2064  3496  4818  5588  5425  4258  2379  425  -946  -1516  -1515  -1317  -1170  -1118  -1044  -837  -547  -337  -302  -434  -660  -863  -944  -897  -787  -672  -535  -336  -104  67  131  121  101  138  272  457  592  636  632  629  639  653  662  702  833  1065  1347  1622  1849  1999  2078  2129  2213  2357  2521  2660  2768  2863  2946  2983  2956  2898  2825  2692  2466  2183  1897  1639  1415  1169  790  239  -355  -806  -1056  -1173  -1232  -1261  -1249  -1144  -927  -677  -516  -483  -540  -638  -743  -828  -873  -878  -864  -854  -857  -883  -942  -1021  -1081  -1084  -1025  -939  -878  -861  -871  -890  -908  -925  -943  -962  -976  -980  -976  -966  -950  -927  -894  -855  -811  -767  -745  -755  -781  -799  -804  -803  -804  -805  -800  -793  -802  -841  -903  -973  -1024  -1032  -995  -932  -859  -791  -744  -726  -737  -782  -850  -907  -933  -938  -938  -902  -779  -566  -340  -190  -126  -99  -69  -25  21  52  67  90  145  240  347  425  453  433  358  226  72  -58  -164  -272  -387  -502  -618  -742  -851  -919  -957  -998  -1065  -1154  -1229  -1260  -1248  -1211  -1186  -1217  -1331  -1504  -1667  -1756  -1754  -1674  -1525  -1290  -940  -447  266  1296  2644  4127  5334  5758  5052  3257  886  -1253  -2518  -2799  -2482  -2029  -1674  -1470  -1400  -1399  -1414  -1435  -1456  -1466  -1448  -1393  -1321  -1270  -1248  -1222  -1154  -1047  -924  -788  -644  -518  -414  -316  -226  -171  -161  -171  -162  -93  39  192  315  396  467  577  720  839  915  1009  1186  1435  1718  2056  2427  2707  2818  2811  2753  2667  2570  2497  2461  2446  2435  2420  2404  2407  2458  2550  2646  2715  2750  2762  2764  2743  2675  2557  2408  2230  2034  1853  1701  1561  1423  1308  1240  1209  1193  1180  1188  1272  1471  1749  2016  2207  2303  2310  2229  2064  1865  1717  1657  1651  1622  1485  1201  859  607  495  472  466  442  388  303  194  87  5  -43  -79  -138  -242  -376  -491  -547  -556  -556  -574  -606  -630  -642  -663  -712  -775  -815  -826  -846  -911  -1007  -1077  -1087  -1051  -1005  -977  -973  -985  -992  -961  -866  -735  -627  -550  -471  -393  -347  -336  -337  -318  -262  -188  -143  -167  -267  -441  -686  -996  -1335  -1611  -1756  -1798  -1814  -1867  -1971  -2091  -2197  -2297  -2382  -2416  -2391  -2345  -2314  -2306  -2310  -2313  -2308  -2293  -2259  -2201  -2137  -2066  -1930  -1672  -1220  -409  840  2283  3399  3698  3031  1624  -110  -1645  -2564  -2893  -2871  -2601  -2193  -1859  -1702  -1645  -1583  -1496  -1425  -1400  -1405  -1395  -1331  -1204  -1052  -932  -869  -846  -832  -814  -788  -750  -689  -586  -454  -352  -310  -306  -308  -308  -292  -223  -58  203  490  720  902  1103  1331  1532  1669  1748  1797  1869  2036  2309  2611  2861  3017  3063  3002  2878  2751  2660  2604  2519  2315  1927  1354  732  266  8  -157  -325  -502  -674  -820  -908  -924  -893  -850  -822  -821  -843  -875  -901  -917  -920  -886  -784  -613  -412  -226  -88  -13  14  30  41  27  -30  -112  -177  -212  -237  -267  -304  -350  -425  -537  -645  -688  -639  -534  -441  -396  -386  -387  -390  -390  -385  -375  -369  -376  -388  -397  -405  -414  -419  -412  -397  -383  -376  -372  -361  -349  -346  -345  -336  -315  -295  -281  -263  -242  -231  -235  -245  -250  -250  -251  -256  -257  -247  -220  -177  -125  -75  -37  -11  18  66  125  187  250  309  353  372  340  221  15  -230  -477  -685  -802  -823  -805  -818  -908  -1051  -1150  -1120  -995  -885  -841  -833  -827  -811  -789  -753  -694  -627  -579  -549  -452  -163  393  1249  2376  3594  4512  4745  4192  2960  1276  -386  -1558  -2163  -2335  -2175  -1823  -1421  -1038  -732  -546  -452  -385  -288  -102  174  440  591  626  605  565  517  467  425  400  390  394  416  467  551  655  744  792  804  809  845  967  1203  1489  1714  1844  1945  2079  2250  2415  2559  2717  2876  2946  2885  2763  2665  2588  2481  2348  2253  2209  2149  1998  1782  1582  1419  1234  994  728  489  297  143  20  -72  -134  -161  -132  -34  99  201  246  252  224  144  0  -197  -418  -614  -731  -762  -747  -724  -705  -704  -756  -885  -1047  -1159  -1195  -1191  -1178  -1160  -1131  -1093  -1060  -1046  -1048  -1057  -1064  -1070  -1068  -1037  -962  -854  -742  -639  -549  -482  -465  -528  -673  -858  -1022  -1129  -1174  -1184  -1199  -1239  -1298  -1357  -1394  -1404  -1397  -1382  -1362  -1330  -1281  -1217  -1143  -1070  -999  -931  -868  -814  -769  -732  -699  -669  -628  -541  -376  -164  20  154  252  316  339  315  240  149  87  54  -20  -201  -474  -738  -915  -1011  -1065  -1104  -1134  -1150  -1168  -1211  -1277  -1339  -1368  -1340  -1242  -1108  -1011  -976  -966  -933  -845  -692  -507  -303  7  549  1383  2536  3895  5033  5473  5025  3718  1760  -266  -1683  -2267  -2201  -1729  -1153  -767  -631  -596  -534  -431  -330  -265  -248  -271  -308  -341  -367  -393  -415  -415  -381  -309  -200  -68  54  147  209  255  298  335  373  433  510  579  640  726  850  975  1062  1145  1321  1647  2085  2520  2832  2999  3079  3123  3165  3239  3347  3428  3402  3266  3084  2884  2672  2475  2282  2022  1667  1302  1003  724  389  32  -250  -412  -472  -475  -466  -476  -515  -561  -586  -592  -598  -616  -654  -711  -770  -807  -820  -823  -825  -826  -809  -759  -695  -661  -680  -726  -762  -776  -785  -793  -790  -744  -633  -483  -359  -293  -266  -254  -260  -296  -354  -410  -443  -451  -449  -448  -446  -451  -483  -566  -686  -807  -914  -1024  -1129  -1190  -1165  -1041  -867  -725  -643  -596  -556  -508  -456  -420  -406  -400  -402  -439  -541  -679  -785  -823  -807  -748  -655  -559  -493  -466  -460  -456  -435  -382  -289  -180  -100  -63  -48  -33  -20  -18  -39  -125  -322  -589  -820  -954  -1000  -997  -987  -1007  -1077  -1180  -1281  -1356  -1404  -1434  -1457  -1474  -1490  -1511  -1544  -1584  -1635  -1662  -1574  -1331  -969  -490  144  985  2120  3568  5079  6112  6151  5036  3014  707  -1089  -1953  -2064  -1806  -1429  -1052  -757  -605  -581  -599  -587  -539  -501  -499  -516  -527  -512  -462  -368  -234  -96  -4  41  79  115  115  73  28  11  27  76  167  304  475  653  829  1015  1220  1408  1537  1649  1843  2113  2346  2495  2625  2785  2952  3074  3126  3109  3021  2877  2744  2680  2669  2626  2472  2208  1889  1554  1220  893  562  232  -51  -245  -337  -360  -368  -405  -474  -544  -579  -581  -567  -556  -555  -569  -604  -659  -721  -778  -820  -829  -803  -792  -847  -945  -1017  -1032  -998  -936  -871  -825  -786  -734  -688  -680  -700  -710  -694  -664  -640  -632  -638  -653  -667  -661  -620  -559  -511  -493  -500  -535  -595  -666  -731  -788  -839  -888  -963  -1079  -1200  -1275  -1284  -1232  -1128  -989  -847  -746  -701  -679  -649  -608  -575  -558  -549  -543  -541  -547  -567  -595  -606  -573  -492  -399  -339  -315  -280  -183  -40  66  87  54  18  -5  -21  -35  -49  -71  -128  -243  -382  -486  -556  -643  -775  -920  -1020  -1057  -1058  -1047  -1027  -1004  -988  -989  -1013  -1055  -1103  -1146  -1168  -1137  -1020  -828  -587  -265  226  1016  2182  3614  4966  5740  5566  4450  2678  719  -851  -1672  -1828  -1624  -1304  -1024  -849  -736  -643  -585  -568  -571  -582  -595  -603  -569  -453  -272  -93  29  85  82  41  -14  -52  -51  0  93  220  372  522  618  654  676  716  772  842  965  1183  1468  1734  1934  2090  2234  2363  2455  2512  2572  2661  2756  2827  2886  2948  2992  2983  2906  2764  2560  2307  2046  1797  1487  1043  553  179  -43  -186  -306  -403  -469  -533  -632  -757  -850  -877  -862  -834  -802  -768  -741  -735  -759  -809  -860  -883  -869  -845  -840  -869  -925  -976  -1000  -1001  -996  -993  -984  -944  -865  -769  -685  -622  -575  -526  -457  -373  -320  -359  -509  -707  -847  -894  -893  -887  -874  -836  -766  -687  -643  -677  -789  -931  -1028  -1029  -957  -884  -850  -836  -802  -725  -639  -619  -680  -769  -829  -837  -798  -722  -613  -497  -416  -379  -348  -286  -184  -61  51  130  168  171  130  26  -136  -313  -459  -556  -610  -654  -734  -862  -1004  -1135  -1256  -1357  -1423  -1450  -1442  -1396  -1309  -1197  -1111  -1107  -1184  -1291  -1396  -1482  -1520  -1506  -1473  -1442  -1368  -1173  -817  -284  478  1524  2791  4003  4701  4506  3361  1534  -460  -2016  -2809  -2956  -2750  -2415  -2082  -1803  -1582  -1416  -1280  -1135  -963  -773  -582  -400  -211  2  244  499  750  973  1146  1260  1327  1382  1467  1585  1697  1769  1799  1813  1837  1901  2027  2191  2320  2370  2331  2205  2036  1918  1925  2067  2271  2436  2527  2584  2647  2727  2807  2868  2901  2916  2908  2838  2648  2328  1945  1586  1312  1140  1008  844  672  553  488  435  381  350  355  375  385  382  375  362  320  231  114  17  -27  -26  -3  14  7  -31  -103  -241  -478  -769  -1005  -1123  -1148  -1144  -1154  -1177  -1196  -1204  -1220  -1262  -1327  -1389  -1424  -1432  -1424  -1403  -1372  -1340  -1312  -1280  -1231  -1164  -1072  -933  -774  -698  -776  -942  -1070  -1112  -1106  -1099  -1112  -1137  -1163  -1187  -1211  -1231  -1238  -1218  -1156  -1056  -943  -836  -747  -678  -613  -544  -485  -442  -398  -340  -270  -196  -113  -15  85  169  226  251  236  160  5  -207  -415  -555  -613  -622  -615  -614  -637  -687  -753  -819  -867  -887  -889  -911  -989  -1113  -1235  -1337  -1438  -1527  -1544  -1459  -1261  -880  -265  560  1582  2771  3954  4797  4994  4448  3225  1590  49  -987  -1454  -1495  -1298  -1028  -779  -568  -405  -313  -286  -289  -300  -316  -335  -342  -317  -247  -156  -83  -36  10  52  42  -42  -166  -285  -392  -454  -408  -266  -123  -27  43  130  263  446  667  910  1151  1361  1533  1675  1815  2001  2255  2548  2827  3040  3153  3174  3128  3023  2868  2704  2571  2462  2342  2221  2130  2053  1928  1703  1356  894  396  -12  -273  -413  -473  -483  -462  -435  -419  -411  -417  -457  -544  -662  -775  -847  -863  -842  -815  -793  -775  -761  -756  -775  -833  -913  -980  -1025  -1079  -1162  -1255  -1345  -1437  -1500  -1500  -1459  -1397  -1286  -1131  -996  -926  -903  -897  -885  -847  -788  -734  -702  -689  -697  -732  -789  -850  -888  -894  -873  -828  -774  -736  -708  -661  -587  -502  -405  -276  -132  -38  -60  -215  -435  -601  -662  -660  -645  -633  -622  -616  -642  -712  -789  -817  -756  -605  -402  -190  7  187  341  447  473  399  253  91  -49  -168  -302  -505  -777  -1034  -1197  -1258  -1261  -1240  -1212  -1181  -1150  -1129  -1121  -1121  -1122  -1130  -1147  -1165  -1172  -1144  -1055  -924  -780  -599  -321  188  1122  2505  4069  5303  5646  4885  3276  1304  -448  -1476  -1760  -1700  -1575  -1416  -1258  -1151  -1059  -947  -828  -712  -594  -481  -402  -374  -362  -310  -191  -48  50  45  -79  -265  -407  -463  -457  -388  -223  28  314  599  875  1141  1391  1584  1679  1725  1861  2180  2611  2987  3209  3294  3306  3303  3313  3330  3319  3248  3127  3009  2938  2912  2901  2878  2815  2676  2434  2112  1757  1409  1108  892  763  696  647  578  457  286  115  -5  -79  -130  -159  -178  -205  -230  -243  -248  -263  -318  -432  -576  -691  -746  -753  -743  -733  -725  -722  -724  -728  -728  -723  -720  -724  -728  -721  -699  -673  -655  -649  -656  -677  -709  -740  -760  -776  -809  -871  -945  -999  -1027  -1041  -1049  -1056  -1066  -1083  -1095  -1087  -1049  -988  -922  -870  -850  -870  -908  -947  -996  -1056  -1104  -1119  -1102  -1052  -955  -782  -543  -315  -179  -141  -147  -151  -139  -108  -44  43  117  160  193  252  342  447  546  602  585  500  375  207  -17  -250  -405  -477  -542  -647  -786  -962  -1182  -1402  -1544  -1582  -1559  -1516  -1471  -1444  -1471  -1573  -1719  -1851  -1920  -1875  -1686  -1363  -875  -119  1006  2484  4075  5364  5898  5405  3964  1977  32  -1348  -1961  -1942  -1611  -1262  -1005  -810  -647  -531  -475  -458  -453  -449  -451  -447  -406  -317  -213  -132  -88  -72  -70  -76  -104  -169  -260  -342  -393  -416  -420  -401  -324  -145  125  432  751  1094  1456  1814  2130  2347  2461  2533  2619  2728  2855  2992  3103  3156  3161  3153  3148  3143  3134  3088  2918  2551  2043  1544  1161  902  705  489  214  -108  -427  -660  -763  -779  -804  -897  -1029  -1116  -1129  -1117  -1124  -1137  -1122  -1082  -1047  -1032  -1027  -1018  -1003  -981  -953  -916  -868  -819  -786  -783  -806  -837  -869  -907  -942  -962  -970  -974  -979  -988  -1001  -1014  -1015  -1004  -1000  -1005  -1018  -1074  -1182  -1292  -1364  -1404  -1424  -1426  -1392  -1291  -1119  -931  -815  -826  -959  -1140  -1272  -1325  -1337  -1338  -1335  -1335  -1346  -1356  -1328  -1243  -1088  -842  -549  -324  -199  -84  87  273  390  425  420  400  364  303  230  163  102  21  -110  -284  -440  -524  -539  -526  -534  -582  -654  -730  -828  -975  -1141  -1256  -1294  -1287  -1268  -1252  -1278  -1415  -1688  -1977  -2066  -1884  -1555  -1141  -537  340  1503  2878  4129  4735  4397  3178  1428  -288  -1465  -1992  -2107  -2051  -1932  -1772  -1535  -1222  -933  -755  -672  -634  -625  -664  -753  -869  -996  -1114  -1179  -1146  -998  -755  -495  -312  -222  -177  -153  -154  -177  -212  -236  -231  -188  -117  -32  80  245  459  668  846  1075  1449  1899  2246  2436  2566  2711  2843  2917  2936  2897  2788  2635  2481  2307  2054  1725  1389  1101  869  655  388  32  -336  -617  -799  -944  -1098  -1273  -1455  -1624  -1762  -1855  -1895  -1893  -1873  -1855  -1852  -1860  -1854  -1818  -1769  -1745  -1753  -1769  -1775  -1771  -1763  -1758  -1764  -1788  -1816  -1824  -1792  -1711  -1584  -1444  -1327  -1247  -1206  -1208  -1251  -1318  -1384  -1439  -1478  -1478  -1440  -1402  -1386  -1379  -1361  -1331  -1305  -1294  -1293  -1295  -1298  -1301  -1304  -1301  -1277  -1219  -1143  -1085  -1054  -1032  -996  -926  -812  -675  -553  -450  -346  -221  -71  68  138  120  54  19  57  138  223  339  528  751  913  977  973  905  748  521  311  198  188  243  314  362  377  374  364  349  334  318  280  203  114  62  62  103  190  352  607  919  1260  1679  2344  3403  4711  5893  6687  7048  6916  6069  4503  2809  1704  1316  1301  1368  1413  1369  1154  776]
