reading_id,reading_time,wire_id,result_classification,heart_rate,heart_rate_alert,firmware_version,device_app_version,hardware_version,waveform_samples
65cf79e0-6238-11ed-8080-808080808080,Sat Nov 12 03:16:28 UTC 2022,2101e3b12739,UNREADABLE,0,NONE,20001.171.50,2.10.0,Charge 5,[0  -86  -177  -233  -212  -117  -22  -25  -146  -315  -448  -505  -512  -568  -755  -1029  -1302  -1601  -1987  -2377  -2626  -2706  -2669  -2522  -2242  -1850  -1440  -1141  -1012  -996  -1000  -965  -854  -651  -382  -98  163  416  656  830  929  1011  1123  1258  1415  1566  1647  1594  1375  1040  734  571  523  503  466  414  363  312  268  237  220  219  206  177  199  301  401  402  277  85  -84  -225  -418  -685  -942  -1139  -1337  -1609  -1925  -2177  -2341  -2496  -2677  -2818  -2875  -2896  -2930  -2953  -2944  -2925  -2921  -2939  -2968  -3001  -3052  -3118  -3170  -3194  -3197  -3163  -3075  -2955  -2869  -2847  -2870  -2906  -2948  -3024  -3143  -3264  -3334  -3350  -3346  -3345  -3344  -3320  -3240  -3094  -2908  -2741  -2646  -2623  -2607  -2531  -2390  -2223  -2060  -1907  -1767  -1624  -1455  -1287  -1168  -1089  -1000  -899  -824  -783  -751  -722  -703  -684  -622  -484  -301  -151  -55  19  103  207  324  417  458  460  465  507  584  661  711  737  754  782  843  956  1124  1317  1489  1616  1706  1775  1824  1839  1822  1803  1813  1858  1920  1958  1926  1843  1763  1702  1644  1592  1575  1606  1662  1712  1752  1795  1825  1813  1740  1600  1419  1253  1154  1147  1203  1261  1291  1296  1286  1275  1318  1505  1856  2238  2489  2558  2443  2096  1471  625  -240  -860  -1112  -1063  -831  -543  -332  -247  -244  -291  -395  -550  -701  -786  -787  -734  -671  -632  -626  -635  -645  -655  -666  -677  -679  -659  -603  -507  -387  -275  -191  -146  -137  -162  -220  -293  -345  -362  -361  -354  -343  -322  -287  -239  -193  -170  -168  -160  -132  -101  -67  12  177  386  550  639  691  752  870  1057  1244  1356  1392  1391  1372  1337  1296  1260  1238  1227  1214  1190  1151  1094  1009  892  777  705  685  693  705  708  706  713  741  784  819  828  817  805  799  789  768  743  728  730  755  791  821  854  921  1045  1207  1347  1414  1413  1386  1358  1328  1288  1244  1219  1253  1378  1557  1704  1772  1788  1799  1815  1826  1824  1812  1795  1782  1783  1802  1839  1891  1953  2009  2034  2003  1902  1756  1617  1524  1481  1463  1441  1405  1345  1247  1124  1006  905  817  746  693  642  552  371  94  -203  -447  -621  -748  -857  -980  -1120  -1242  -1315  -1344  -1364  -1426  -1586  -1832  -2065  -2199  -2241  -2233  -2187  -2084  -1932  -1777  -1645  -1514  -1363  -1217  -1112  -1048  -1007  -974  -951  -927  -891  -851  -826  -817  -800  -757  -704  -672  -655  -627  -579  -529  -495  -485  -492  -508  -524  -521  -482  -415  -343  -271  -200  -140  -96  -41  78  299  604  953  1336  1734  2077  2307  2436  2438  2179  1542  573  -484  -1268  -1504  -1176  -518  122  493  574  522  483  506  598  749  928  1093  1220  1331  1468  1641  1806  1909  1944  1938  1901  1828  1740  1673  1640  1624  1605  1582  1562  1552  1550  1540  1496  1403  1274  1135  1007  894  818  815  886  987  1078  1128  1106  994  824  668  568  518  495  485  482  476  460  443  437  434  413  349  242  118  -2  -116  -236  -405  -644  -911  -1159  -1361  -1508  -1625  -1744  -1856  -1954  -2046  -2131  -2197  -2239  -2253  -2231  -2176  -2106  -2040  -1988  -1958  -1950  -1939  -1889  -1800  -1702  -1610  -1515  -1415  -1325  -1271  -1257  -1267  -1276  -1251  -1167  -1045  -942  -881  -839  -783  -701  -614  -556  -526  -503  -472  -435  -395  -335  -231  -100  4  55  64  61  66  87  118  151  183  213  243  279  318  343  337  298  241  186  147  111  38  -118  -349  -573  -710  -750  -724  -655  -568  -494  -449  -429  -418  -394  -348  -277  -184  -77  34  156  284  391  448  463  480  533  617  708  783  832  858  864  825  701  488  267  133  99  114  137  153  161  158  148  144  179  280  416  513  546  538  523  508  490  450  365  224  64  -46  -87  -100  -126  -189  -310  -481  -640  -725  -737  -716  -700  -738  -861  -1032  -1162  -1211  -1209  -1188  -1153  -1112  -1088  -1110  -1179  -1218  -1103  -800  -405  -31  226  343  393  411  311  33  -461  -1246  -2186  -2884  -3101  -2884  -2388  -1829  -1424  -1226  -1142  -1096  -1055  -996  -916  -851  -825  -830  -845  -840  -782  -641  -412  -132  150  434  709  919  1064  1208  1365  1482  1531  1546  1570  1628  1714  1777  1743  1564  1286  1036  889  827  802  797  809  826  830  815  800  834  990  1283  1611  1824  1874  1815  1713  1621  1572  1559  1554  1536  1506  1475  1438  1391  1346  1319  1316  1347  1420  1522  1628  1718  1781  1802  1761  1650  1510  1412  1393  1440  1497  1483  1386  1288  1242  1229  1241  1314  1490  1731  1902  1871  1596  1187  828  594  441  328  250  183  90  -24  -122  -187  -233  -267  -275  -218  -65  160  373  501  536  508  445  350  235  142  89  56  36  56  154  351  593  775  847  848  836  831  811  727  541  279  26  -140  -212  -224  -211  -183  -147  -171  -401  -922  -1563  -2019  -2178  -2152  -2073  -2020  -2050  -2167  -2332  -2508  -2681  -2868  -3110  -3461  -3977  -4646  -5334  -5848  -6100  -6148  -6104  -6032  -5891  -5503  -4703  -3626  -2654  -1846  -734  1055  3162  4575  4551  3402  2093  1433  1575  1896  1545  133  -2042  -4183  -5629  -6334  -6656  -6989  -7494  -8000  -8337  -8561  -8760  -8923  -9031  -9101  -9148  -9184  -9230  -9295  -9362  -9412  -9446  -9453  -9298  -8769  -7824  -6617  -5326  -3998  -2557  -1060  316  1733  3476  5364  6996  8230  9141  9838  10390  10783  10976  10946  10723  10411  10137  9946  9824  9729  9513  9020  8346  7785  7495  7420  7471  7590  7728  7828  7689  6805  4637  1307  -2153  -4550  -5502  -5494  -5155  -4836  -4650  -4583  -4572  -4587  -4644  -4762  -4931  -5091  -5061  -4515  -3267  -1601  6  1388  2583  3545  4219  4662  4989  5263  5466  5564  5602  5736  6118  6692  7217  7524  7621  7583  7466  7325  7192  7068  6964  6910  6887  6826  6688  6489  6263  5994  5637  5183  4528  3374  1562  -605  -2608  -4060  -4849  -5140  -5221  -5319  -5524  -5814  -6105  -6279  -6219  -5886  -5412  -5043  -4910  -5003  -5285  -5659  -5972  -6167  -6315  -6496  -6729  -6987  -7218  -7379  -7466  -7508  -7531  -7498  -7269  -6684  -5749  -4723  -3928  -3417  -2868  -2029  -1214  -882  -896  -825  -641  -596  -904  -1821  -3451  -5379  -6963  -7875  -8070  -7616  -6772  -5936  -5394  -5203  -5224  -5168  -4552  -2792  155  3256  5257  6004  6201  6336  6444  6459  6395  6264  6040  5762  5557  5485  5515  5632  5858  6172  6458  6601  6583  6459  6291  6122  5976  5888  5920  6154  6629  7317  8098  8753  9135  9276  9233  8924  8274  7430  6590  5722  4695  3544  2484  1715  1246  987  860  775  657  521  425  375  298  118  -135  -338  -436  -631  -1245  -2270  -3262  -3831  -3959  -3733  -3167  -2445  -1923  -1771  -1898  -2161  -2430  -2579  -2507  -2183  -1735  -1373  -1161  -1024  -891  -693  -376  33  443  778  1072  1419  1831  2245  2637  2976  3189  3266  3257  3149  2897  2567  2315  2191  2117  2026  1884  1658  1332  928  511  191  23  -36  0  221  623  1024  1302  1502  1759  2234  2947  3691  4204  4288  3894  3195  2415  1689  1207  1113  1214  1169  837  328  -113  -334  -374  -373  -462  -691  -998  -1264  -1416  -1481  -1523  -1562  -1576  -1570  -1556  -1532  -1532  -1611  -1768  -1975  -2243  -2567  -2863  -3039  -3099  -3113  -3182  -3446  -4014  -4808  -5566  -6074  -6319  -6393  -6384  -6363  -6384  -6474  -6599  -6692  -6726  -6723  -6701  -6661  -6614  -6585  -6561  -6461  -6205  -5840  -5500  -5254  -5065  -4891  -4737  -4627  -4556  -4471  -4316  -4103  -3901  -3757  -3670  -3623  -3594  -3578  -3578  -3597  -3631  -3679  -3735  -3787  -3821  -3853  -3924  -4071  -4266  -4415  -4455  -4414  -4369  -4367  -4390  -4382  -4332  -4315  -4413  -4590  -4765  -4938  -5152  -5393  -5561  -5428  -4693  -3351  -1895  -826  -132  563  1486  2460  3211  3763  4344  5038  5691  6094  6202  6094  5815  5401  4987  4717  4595  4534  4471  4382  4241  3994  3613  3161  2729  2267  1649  921  302  -51  -168  -166  -138  -107  -59  12  87  161  245  296  177  -231  -875  -1524  -1998  -2310  -2562  -2826  -3161  -3608  -4126  -4590  -4884  -5010  -5072  -5171  -5311  -5301  -4710  -3144  -675  2068  4327  5709  6309  6412  6238  5955  5764  5823  6154  6667  7130  7168  6573  5603  4766  4429  4729  5618  6795  7818  8395  8507  8325  8075  7891  7784  7719  7675  7659  7689  7762  7869  8027  8242  8498  8807  9176  9474  9493  9170  8625  8067  7675  7479  7384  7321  7302  7374  7534  7695  7790  7833  7860  7888  7889  7800  7646  7645  7948  8316  8455  8546  8960  9627  10024  9532  7615  4222  267  -3007  -5062  -5992  -6088  -5781  -5484  -5438  -5693  -6085  -6311  -6023  -5007  -3597  -2523  -2175  -2515  -3508  -5057  -6730  -8029  -8831  -9301  -9590  -9821  -10083  -10384  -10689  -10917  -10988  -10944  -10760  -10041  -8419  -6376  -4935  -4520  -4835  -5518  -6325  -7047  -7563  -7887  -8103  -8271  -8387  -8398  -8264  -8035  -7832  -7741  -7742  -7745  -7685  -7556  -7382  -7136  -6738  -6217  -5764  -5506  -5387  -5303  -5203  -5051  -4800  -4470  -4165  -3974  -3892  -3856  -3819  -3763  -3682  -3581  -3466  -3308  -3067  -2782  -2566  -2484  -2503  -2563  -2645  -2768  -2913  -3009  -2980  -2729  -1963  -94  3255  7450  11185  13724  15133  15752  15949  15995  15961  15851  15666  15352  14816  14045  13231  12756  12832  13132  13105  12485  11389  10310  9885  10168  10381  9594  7579  4969  2661  1242  765  777  816  782  777  956  1504  2414  3358  3995  4303  4442  4457  4283  3897  3389  2906  2574  2395  2276  2149  2016  1878  1697  1468  1240  1024  773  451  74  -311  -705  -1196  -1901  -2779  -3595  -4191  -4611  -4959  -5278  -5562  -5801  -5974  -6060  -6080  -6074  -6060  -6041  -6026  -6039  -6096  -6179  -6249  -6280  -6243  -6108  -5898  -5695  -5582  -5604  -5737  -5891  -5983  -6004  -5989  -5975  -5992  -6071  -6226  -6416  -6575  -6661  -6663  -6540  -6261  -5871  -5448  -5035  -4659  -4359  -4148  -3967  -3692  -3240  -2693  -2257  -2047  -2009  -2076  -2267  -2593  -2942  -3162  -3189  -3027  -2699  -2230  -1659  -1058  -528  -159  -3  -38  -207  -454  -703  -861  -896  -850  -782  -728  -713  -770  -924  -1133  -1296  -1361  -1357  -1332  -1312  -1286  -1211  -1038  -776  -499  -270  -50  261  682  1089  1360  1575  1956  2615  3504  4414  5016  5207  5211  5124  4807  4224  3381  2168  654  -749  -1620  -1801  -1383  -669  -89  14  -397  -1077  -1763  -2331  -2729  -2940  -3022  -3031  -2916  -2599  -2202  -1959  -1802  -1242  85  1762  2943  3308  3142  2708  2078  1336  637  57  -451  -940  -1361  -1611  -1622  -1372  -863  -105  835  1774  2538  3113  3626  4239  4968  5623  6023  6164  6113  5886  5516  5151  4943  4899  4921  4920  4862  4756  4635  4504  4333  4112  3925  3887  3985  4101  4163  4167  4108  3967  3761  3530  3257  2894  2449  2038  1794  1735  1769  1814  1842  1850  1827  1752  1622  1479  1370  1309  1283  1265  1219  1088  832  507  241  92  18  -40  -135  -294  -479  -628  -734  -825  -917  -1016  -1128  -1233  -1304  -1348  -1393  -1443  -1480  -1497  -1502  -1503  -1507  -1517  -1538  -1579  -1660  -1777  -1895  -1979  -2026  -2042  -2018  -1942  -1838  -1757  -1726  -1742  -1820  -1970  -2142  -2270  -2345  -2395  -2424  -2429  -2426  -2424  -2391  -2292  -2167  -2090  -2074  -2084  -2092  -2092  -2091  -2099  -2123  -2153  -2177  -2203  -2251  -2318  -2373  -2391  -2354  -2205  -1884  -1425  -961  -627  -475  -456  -480  -493  -481  -441  -349  -175  49  221  268  199  53  -121  -253  -300  -304  -387  -659  -1069  -1417  -1547  -1437  -1157  -851  -660  -611  -635  -681  -742  -804  -755  -362  486  1543  2407  2929  3217  3411  3541  3528  3339  3049  2774  2598  2543  2606  2796  3066  3279  3273  2905  2123  1048  -1  -659  -723  -150  919  2048  2799  3154  3349  3508  3593  3543  3352  3051  2685  2342  2148  2221  2597  3118  3486  3518  3243  2852  2568  2471  2496  2583  2712  2854  2935  2818  2366  1577  604  -311  -919  -1151  -1193  -1286  -1519  -1812  -2048  -2183  -2236  -2255  -2300  -2407  -2567  -2732  -2860  -2961  -3070  -3184  -3248  -3223  -3144  -3082  -3059  -3014  -2864  -2607  -2350  -2189  -2118  -2080  -2023  -1921  -1769  -1578  -1369  -1178  -1042  -965  -923  -888  -851  -832  -893  -1090  -1381  -1672  -1934  -2129  -2159  -2030  -1872  -1762  -1691  -1642  -1603  -1566  -1532  -1502  -1473  -1443  -1412  -1373  -1293  -1133  -888  -623  -418  -305  -279  -347  -512  -737  -961  -1136  -1198  -1084  -785  -392  -45  168  276  352  438  552  705  868  975  1004  985  946  895  841  782  685  501  232  -33  -201  -261  -264  -240  -172  -18  290  806  1413  1864  2041  2019  1899  1721  1510  1311  1155  1018  873  745  671  640  628  637  680  753  835  901  937  918  798  575  342  224  250  344  418  445  447  439  413  347  223  42  -162  -335  -444  -498  -541  -621  -746  -861  -917  -905  -774  -432  49  418  450  36  -741  -1551  -2054  -2152  -1858  -1178  -290  469  919  1136  1265  1360  1382  1303  1179  1082  1030  1015  1032  1057  1073  1090  1111  1127  1132  1131  1133  1148  1167  1136  968  624  184  -213  -498  -687  -820  -914  -938  -826  -544  -174  145  353  473  546  579  539  368  85  -192  -366  -452  -501  -521  -507  -481  -488  -566  -705  -856  -991  -1128  -1284  -1429  -1516  -1538  -1526  -1514  -1528  -1581  -1656  -1709  -1713  -1680  -1643  -1631  -1634  -1621  -1589  -1548  -1501  -1446  -1387  -1332  -1270  -1201  -1161  -1183  -1256  -1344  -1413  -1456  -1475  -1426  -1227  -850  -343  227  777  1205  1474  1631  1700  1602  1227  639  105  -163  -155  84  482  875  1105  1166  1136  1053  910  714  567  568  681  835  997  1145  1260  1283  1123  747  137  -665  -1498  -2243  -2829  -3093  -2963  -2592  -2120  -1606  -1170  -907  -770  -634  -445  -262  -151  -81  47  294  620  966  1358  1864  2447  2954  3258  3362  3361  3335  3286  3163  2936  2676  2498  2443  2479  2558  2642  2691  2678  2596  2478  2396  2414  2554  2758  2918  2951  2806  2470  2011  1565  1220  972  795  672  570  449  314  216  195  261  462  879  1503  2131  2512  2577  2434  2227  2067  2026  2189  2631  3265  3857  4266  4515  4635  4561  4203  3619  3075  2779  2691  2667  2637  2568  2420  2180  1873  1520  1156  813  474  139  -115  -203  -75  250  634  894  987  1001  997  946  777  478  161  -51  -152  -225  -361  -595  -863  -1052  -1126  -1130  -1114  -1099  -1106  -1185  -1380  -1656  -1902  -2070  -2220  -2392  -2532  -2595  -2608  -2618  -2642  -2670  -2694  -2692  -2621  -2453  -2244  -2100  -2067  -2132  -2267  -2470  -2736  -3013  -3214  -3309  -3328  -3294  -3208  -3100  -3023  -2990  -2969  -2940  -2900  -2833  -2690  -2412  -1984  -1491  -1055  -746  -559  -438  -333  -243  -183  -154  -140  -128  -119  -133  -192  -292  -411  -553  -733  -923  -1082  -1193  -1271  -1335  -1392  -1461  -1567  -1696  -1796  -1850  -1867  -1801  -1556  -1092  -473  195  780  1151  1289  1291  1254  1210  1159  1102  1049  1010  989  978  967  946  931  984  1190  1558  1947  2197  2269  2184  1910  1406  730  77  -355  -503  -357  71  600  892  732  263  -210  -552  -773  -917  -1120  -1533  -2073  -2561  -2985  -3380  -3631  -3645  -3533  -3418  -3299  -3180  -3076  -2941  -2772  -2646  -2617  -2672  -2765  -2853  -2916  -2963  -2981  -2956  -2900  -2825  -2706  -2503  -2215  -1896  -1623  -1433  -1258  -959  -502  -17  389  736  1055  1311  1461  1526  1601  1792  2119  2451  2644  2680  2633  2571  2537  2573  2706  2890  3032  3094  3099  3077  3049  3024  3007  3007  3022  3032  3007  2926  2809  2695  2591  2495  2431  2411  2418  2436  2456  2475  2475  2416  2281  2172  2294  2775  3487  4126  4489  4545  4346  4031  3750  3493  3136  2635  2102  1698  1498  1486  1597  1755  1883  1940  1942  1925  1902  1870  1845  1894  2106  2482  2881  3155  3255  3195  2990  2710  2457  2265  2117  1998  1859  1630  1322  1017  777  611  493  378  234  71  -63  -141  -192  -283  -471  -770  -1162  -1594  -1979  -2261  -2494  -2773  -3090  -3334  -3465  -3556  -3669  -3787  -3890  -3986  -4058  -4067  -4015  -3936  -3844  -3753  -3697  -3691  -3699  -3650  -3488  -3256  -3072  -2989  -2942  -2863  -2765  -2701  -2675  -2632  -2534  -2407  -2312  -2278  -2292  -2331  -2384  -2436  -2465  -2449  -2375  -2243  -2089  -1970  -1907  -1879  -1867  -1862  -1860  -1858  -1852  -1834  -1793  -1731  -1673  -1622  -1541  -1393  -1176  -933  -719  -559  -430  -276  -87  43  58  47  84  192  497  1049  1670  2186  2487  2433  1969  1197  308  -451  -870  -909  -719  -468  -239  -104  -103  -167  -227  -324  -540  -844  -1094  -1211  -1233  -1214  -1166  -1106  -1085  -1139  -1240  -1332  -1391  -1444  -1532  -1669  -1813  -1909  -1953  -1998  -2091  -2215  -2307  -2333  -2303  -2222  -2089  -1932  -1808  -1740  -1676  -1555  -1399  -1269  -1169  -1061  -933  -739  -391  102  564  824  906  954  1077  1286  1515  1685  1803  1981  2288  2582  2611  2237  1607  1126  1118  1541  2094  2449  2416  2010  1452  1047  977  1201  1520  1715  1639  1269  762  355  144  15  -193  -517  -831  -1022  -1135  -1305  -1576  -1853  -2023  -2039  -1866  -1502  -1073  -726  -438  -121  180  383  508  613  697  731  702  614  485  348  227  126  28  -76  -172  -206  -153  -55  12  21  -19  -137  -380  -694  -923  -981  -905  -768  -640  -559  -517  -487  -448  -390  -328  -288  -278  -286  -276  -207  -54  161  387  576  701  738  684  576  478  429  456  591  833  1133  1422  1634  1751  1824  1921  2064  2211  2300  2314  2281  2236  2196  2148  2070  1944  1727  1384  1001  743  663  678  705  723  736  740  718  660  583  525  494  470  430  364  283  238  282  420  614  798  907  940  944  940  894  750  517  283  133  77  78  113  188  323  512  703  844  925  962  969  952  905  834  755  675  590  503  429  390  424  556  774  1067  1426  1792  2116  2450  2835  3177  3283  2979  2256  1301  391  -180  -264  -24  292  622  936  1145  1216  1176  1078  988  923  848  748  638  546  495  516  649  919  1246  1478  1548  1497  1380  1247  1152  1109  1099  1122  1191  1306  1455  1620  1770  1874  1911  1841  1604  1236  879  646  551  594  799  1139  1492  1758  1931  2036  2082  2107  2208  2479  2852  3138  3246  3245  3214  3157  2996  2625  2006  1237  472  -151  -534  -670  -661  -616  -596  -651  -848  -1262  -1854  -2407  -2710  -2728  -2530  -2202  -1831  -1453  -1046  -614  -237  -18  38  14  -29  -81  -152  -247  -346  -414  -431  -382  -259  -93  51  140  168  140  67  -23  -104  -150  -158  -128  -45  102  316  582  862  1099  1254  1299  1191  931  626  432  428  587  809  968  1003  928  784  611  410  189  92  254  542  692  616  450  370  449  583  501  -92  -1332  -3036  -4703  -5896  -6544  -6786  -6814  -6828  -6905  -6994  -7064  -7129  -7177  -7121  -6795  -6111  -5226  -4473  -4090  -4063  -4240  -4466  -4629  -4678  -4588  -4320  -3915  -3524  -3277  -3182  -3169  -3181  -3191  -3190  -3168  -3124  -3056  -2923  -2658  -2292  -1969  -1767  -1633  -1512  -1416  -1363  -1343  -1346  -1366  -1389  -1394  -1374  -1334  -1251  -1100  -911  -738  -586  -431  -288  -197  -165  -151  -124  -112  -162  -247  -305  -312  -279  -224  -163  -116  -113  -186  -334  -509  -649  -726  -747  -718  -615  -448  -304  -279  -372  -508  -628  -708  -748  -757  -723  -590  -324  5  268  436  596  824  1162  1636  2194  2663  2792  2373  1355  -68  -1453  -2322  -2466  -2005  -1239  -525  -191  -347  -799  -1246  -1501  -1538  -1411  -1186  -943  -745  -602  -499  -430  -391  -383  -427  -548  -707  -833  -924  -1045  -1216  -1387  -1513  -1584  -1611  -1611  -1589  -1536  -1422  -1223  -982  -784  -633  -455  -190  189  682  1201  1606  1842  1988  2198  2623  3282  3987  4499  4732  4773  4747  4721  4709  4705  4700  4656  4541  4381  4267  4258  4352  4489  4589  4604  4524  4373  4221  4134  4125  4155  4167  4071  3797  3421  3157  3190  3548  4044  4400  4506  4463  4393  4346  4318  4290  4249  4200  4160  4129  4084  4004  3843  3496  2892  2132  1454  1038  854  729  558  378  248  151  -15  -345  -784  -1173  -1415  -1532  -1596  -1669  -1761  -1837  -1874  -1880  -1867  -1852  -1851  -1879  -1947  -2069  -2245  -2424  -2535  -2552  -2502  -2418  -2325  -2238  -2173  -2133  -2101  -2061  -2011  -1979  -2009  -2137  -2329  -2502  -2626  -2726  -2811  -2841  -2740  -2432  -1950  -1448  -1039  -712  -438  -267  -259  -401  -614  -821  -980  -1064  -1058  -959  -804  -684  -755  -1168  -1878  -2580  -3004  -3158  -3203  -3244  -3293  -3309  -3222  -2986  -2670  -2433  -2333  -2309  -2299  -2276  -2213  -2122  -2061  -2066  -2087  -1945  -1407  -495  395  883  950  789  568  403  346  380  448  512  579  665  748  810  916  1180  1631  2173  2688  3092  3308  3273  2961  2453  1911  1443  1096  915  894  970  1070  1140  1164  1162  1155  1155  1165  1178  1162  1062  855  598  360  152  -25  -142  -192  -189  -103  107  382  581  624  520  349  261  364  619  942  1302  1740  2273  2761  2953  2646  1750  479  -659  -1322  -1533  -1442  -1216  -987  -728  -308  312  976  1447  1599  1426  980  421  -37  -293  -356  -275  -133  -21  30  48  49  31  -1  -38  -70  -95  -104  -99  -85  -78  -86  -113  -137  -85  146  559  979  1217  1245  1148  1024  942  924  952  1010  1087  1166  1223  1248  1255  1256  1254  1249  1226  1162  1041  845  647  727  1344  2395  3496  4329  4705  4538  3965  3299  2744  2347  2113  1952  1653  1126  473  -140  -551  -728  -810  -929  -1110  -1332  -1587  -1871  -2163  -2419  -2597  -2706  -2783  -2834  -2839  -2813  -2795  -2746  -2497  -1914  -1137  -458  -15  239  366  364  180  -251  -903  -1571  -2010  -2184  -2264  -2373  -2490  -2576  -2652  -2750  -2840  -2861  -2789  -2668  -2567  -2505  -2458  -2427  -2475  -2688  -3083  -3556  -3956  -4221  -4376  -4464  -4535  -4634  -4776  -4922  -5018  -5045  -5035  -5010  -4978  -4987  -5160  -5580  -6106  -6467  -6550  -6447  -6292  -6183  -6146  -6159  -6193  -6237  -6279  -6308  -6318  -6313  -6286  -6232  -6154  -6070  -5996  -5911  -5766  -5546  -5285  -5031  -4838  -4755  -4768  -4674  -4059  -2644  -734  902  1794  2154  2470  2999  3675  4309  4771  5025  5120  5152  5214  5364  5604  5862  6035  6084  6037  5934  5791  5612  5406  5170  4910  4681  4543  4497  4501  4521  4548  4562  4508  4326  4042  3755  3527  3367  3279  3250  3253  3274  3340  3501  3754  4039  4323  4614  4894  5133  5360  5580  5748  5872  6020  6244  6542  6833  7016  7071  7051  6994  6911  6813  6719  6635  6541  6400  6167  5824  5445  5154  5037  5141  5487  5944  6279  6397  6385  6350  6348  6396  6507  6701  6963  7228  7422  7510  7553  7720  8143  8708  9137  9289  9149  8683  7941  7160  6586  6279  6146  6089  6034  5866  5468  4903  4335  3774  3153  2506  1851  1148  398  -325  -968  -1546  -2143  -2849  -3761  -4952  -6360  -7748  -8805  -9367  -9567  -9698  -9940  -10347  -10942  -11672  -12358  -12839  -13113  -13268  -13338  -13246  -12870  -12206  -11350  -10360  -9247  -8017  -6774  -5818  -5372  -5330  -5437  -5506  -5388  -4987  -4424  -3980  -3790  -3777  -3816  -3811  -3694  -3460  -3169  -2856  -2480  -1990  -1388  -763  -285  -36  98  277  523  800  1131  1529  1933  2263  2487  2616  2680  2720  2783  2899  3070  3305  3652  4119  4526  4563  4147  3567  3179  3041  2824  2059  413  -2071  -4762  -6878  -8233  -9062  -9527  -9833  -10173  -10449  -10500  -10264  -9363  -7272  -4354  -1799  -323  277  537  832  1244  1683  2049  2274  2372  2397  2371  2341  2483  2991  3784  4483  4823  4824  4589  4158  3452  2196  172  -2332  -4652  -6289  -7177  -7584  -7855  -8191  -8611  -8995  -9215  -9263  -9207  -9104  -8999  -8935  -8916  -8917  -8919  -8929  -8955  -8925  -8616  -7831  -6749  -5870  -5472  -5412  -5455  -5486  -5405  -5034  -4268  -3199  -1996  -720  627  2002  3357  4622  5639  6264  6519  6607  6766  7112  7593  8094  8558  9015  9493  9918  10156  10124  9845  9468  9200  9128  9192  9304  9375  9284  8932  8401  7943  7733  7831  8318  9192  10155  10806  11031  11013  10926  10828  10734  10673  10632  10538  10295  9877  9302  8495  7403  6295  5541  5140  4804  4338  3728  3060  2417  1823  1205  496  -206  -752  -1154  -1484  -1732  -1840  -1712  -1247  -547  62  351  298  -63  -636  -1177  -1488  -1581  -1571  -1503  -1322  -983  -571  -251  -88  11  171  417  661  815  887  919  851  523  -121  -863  -1405  -1680  -1814  -1895  -1941  -1962  -1979  -2016  -2084  -2175  -2295  -2463  -2663  -2838  -2922  -2883  -2726  -2462  -2154  -1926  -1826  -1802  -1798  -1787  -1740  -1611  -1400  -1189  -1081  -1116  -1263  -1451  -1659  -1958  -2410  -2978  -3536  -3933  -4114  -4153  -4151  -4169  -4214  -4270  -4323  -4368  -4399  -4418  -4422  -4384  -4270  -4103  -3927  -3747  -3587  -3524  -3575  -3659  -3686  -3634  -3553  -3487  -3412  -3271  -3076  -2913  -2848  -2894  -3037  -3238  -3430  -3558  -3610  -3614  -3606  -3605  -3612  -3620  -3640  -3693  -3752  -3745  -3648  -3535  -3473  -3457  -3458  -3460  -3466  -3491  -3540  -3584  -3589  -3559  -3529  -3518  -3518  -3506  -3465  -3392  -3310  -3255  -3241  -3247  -3232  -3148  -2951  -2602  -2120  -1641  -1326  -1212  -1230  -1305  -1389  -1450  -1487  -1514  -1542  -1572  -1588  -1574  -1534  -1478  -1405  -1322  -1245  -1191  -1200  -1324  -1557  -1799  -1948  -1994  -1987  -1967  -1955  -1957  -1961  -1943  -1885  -1807  -1749  -1715  -1678  -1632  -1602  -1595  -1558  -1388  -1016  -472  122  606  880  972  967  897  736  454  62  -385  -787  -1070  -1245  -1346  -1387  -1369  -1290  -1144  -942  -708  -463  -234  -34  133  254  319  342  340  307  209  23  -223  -463  -628  -701  -722  -730  -734  -742  -769  -817  -881  -943  -975  -941  -767  -395  77  445  611  615  474  175  -188  -441  -478  -304  12  381  751  1103  1420  1746  2135  2528  2781  2780  2486  1975  1454  1097  907  830  868  1021  1227  1410  1531  1638  1933  2714  4124  5907  7530  8627  9195  9418  9449  9309  8940  8386  7829  7425  7193  7079  7044  7072  7126  7125  6902  6220  5111  4064  3563  3683  4152  4539  4488  3860  2720  1375  369  137  687  1689  2671  3286  3537  3634  3729  3851  3980  4093  4178  4220  4198  4075  3829  3519  3267  3117  2996  2832  2638  2464  2307  2064  1558  704  -335  -1218  -1723  -1920  -2011  -2091  -2137  -2139  -2137  -2159  -2194  -2229  -2252  -2237  -2132  -1912  -1621  -1330  -1075  -836  -565  -237  74  234  165  -70  -323  -476  -513  -477  -402  -321  -225  -10  414  926  1288  1402  1294  990  596  300  216  365  738  1239  1676  1889  1823  1673  1756  2057  2244  2098  1652  1013  314  -367  -1221  -2324  -3117  -2968  -1876  -293  1195  2071  2262  2191  2259  2555  3003  3484  3906  4302  4794  5464  6225  6867  7294  7570  7754  7835  7817  7744  7648  7527  7411  7363  7331  7031  6179  4984  4047  3632  3478  3262  2919  2598  2446  2461  2506  2346  1732  634  -641  -1662  -2197  -2346  -2407  -2617  -3004  -3421  -3732  -3924  -4042  -4110  -4152  -4188  -4216  -4237  -4262  -4294  -4316  -4319  -4316  -4344  -4433  -4556  -4643  -4657  -4624  -4597  -4616  -4686  -4788  -4895  -4979  -5022  -5029  -5017  -4972  -4859  -4675  -4476  -4312  -4167  -3984  -3752  -3516  -3304  -3124  -2987  -2889  -2802  -2707  -2574  -2365  -2097  -1866  -1748  -1753  -1884  -2138  -2457  -2742  -2933  -3067  -3229  -3452  -3674  -3809  -3857  -3888  -3949  -4030  -4077  -4057  -3987  -3877  -3713  -3503  -3281  -3059  -2795  -2417  -1917  -1430  -1132  -1064  -1144  -1293  -1460  -1614  -1759  -1917  -2071  -2189  -2270  -2345  -2458  -2631  -2837  -3016  -3127  -3181  -3213  -3230  -3217  -3187  -3162  -3145  -3135  -3117  -3051  -2893  -2628  -2271  -1855  -1444  -1135  -976  -942  -1012  -1219  -1556  -1905  -2095  -1967  -1455  -756  -256  -158  -373  -686  -930  -1084  -1198  -1256  -1239  -1209  -1249  -1381  -1555  -1704  -1742  -1513  -902  -87  536  780  745  574  358  177  71  8  -70  -177  -273  -325  -319  -234  -48  226  560  905  1178  1328  1381  1364  1234  951  605  370  362  584  950  1331  1642  1880  2085  2260  2372  2420  2456  2550  2739  2997  3251  3436  3522  3531  3510  3518  3641  3970  4491  5090  5666  6177  6618  6967  7155  7094  6754  6244  5761  5390  5074  4726  4254  3583  2836  2300  2079  2028  2039  2080  1994  1595  958  353  66  261  808  1380  1789  1961  1816  1334  553  -399  -1242  -1707  -1728  -1416  -946  -523  -321  -361  -504  -654  -827  -1018  -1169  -1241  -1172  -853  -232  607  1499  2292  2920  3352  3559  3593  3561  3536  3537  3567  3627  3711  3793  3854  3882  3875  3851  3844  3873  3938  4032  4150  4320  4592  4926  5186  5311  5369  5432  5509  5576  5617  5629  5605  5536  5441  5375  5391  5505  5666  5793  5852  5842  5749  5595  5450  5309  5099  4833  4630  4549  4568  4674  4891  5265  5819  6435  6892  7068  7041  6957  6887  6792  6616  6386  6145  5860  5520  5241  5116  5036  4697  3760  2120  123  -1634  -2752  -3232  -3337  -3306  -3256  -3289  -3575  -4246  -5219  -6165  -6755  -6948  -6943  -6930  -6945  -6959  -7000  -7187  -7585  -8089  -8528  -8863  -9153  -9411  -9600  -9665  -9444  -8753  -7748  -6910  -6560  -6703  -7235  -7916  -8410  -8571  -8463  -8123  -7559  -6924  -6480  -6308  -6221  -5988  -5526  -4881  -4255  -4026  -4436  -5337  -6419  -7361  -7795  -7811  -8103  -9004  -10109  -10944  -11067  -10053  -8203  -6531  -5671  -5508  -5692  -5927  -6070  -6152  -6225  -6309  -6408  -6489  -6486  -6401  -6309  -6253  -6219  -6196  -6198  -6224  -6260  -6299  -6354  -6436  -6532  -6487  -5906  -4401  -2077  357  2170  3167  3605  3807  4010  4370  4911  5498  5967  6298  6607  7042  7665  8356  8899  9221  9353  9126  8210  6535  4446  2518  1258  704  440  101  -375  -866  -1241  -1500  -1676  -1745  -1716  -1745  -2093  -2892  -3920  -4751  -5132  -5070  -4644  -4015  -3474  -3230  -3258  -3421  -3647  -3933  -4238  -4435  -4442  -4307  -4086  -3723  -3197  -2664  -2310  -2175  -2171  -2202  -2226  -2229  -2192  -2065  -1741  -998  354  2121  3785  4979  5624  5811  5691  5379  5002  4709  4527  4390  4263  4089  3767  3331  2965  2774  2728  2788  2944  3141  3279  3318  3303  3307  3422  3742  4288  4979  5627  6014  6075  5920  5713  5574  5521  5498  5473  5456  5455  5456  5439  5386  5268  5042  4682  4217  3716  3254  2862  2446  1884  1221  659  328  173  92  54  49  34  -35  -172  -357  -559  -762  -961  -1129  -1246  -1345  -1456  -1558  -1615  -1633  -1645  -1672  -1710  -1738  -1736  -1694  -1619  -1541  -1474  -1403  -1326  -1274  -1266  -1290  -1328  -1372  -1426  -1502  -1571  -1576  -1510  -1439  -1440  -1537  -1675  -1772  -1812  -1840  -1871  -1814  -1468  -720  187  811  950  728  355  12  -228  -412  -587  -745  -860  -923  -934  -868  -698  -469  -283  -174  -102  -37  31  99  129  97  43  15  22  46  71  131  339  833  1700  2792  3672  4085  4256  4461  4707  4813  4387  3019  896  -1186  -2524  -2858  -2385  -1683  -1290  -1270  -1299  -1118  -795  -532  -395  -354  -378  -446  -525  -607  -764  -1093  -1544  -1894  -1957  -1790  -1559  -1287  -889  -377  117  465  620  608  489  339  213  117  44  -9  -18  116  527  1201  1881  2284  2382  2339  2285  2260  2288  2396  2579  2827  3168  3617  4117  4593  5013  5364  5624  5774  5836  5820  5665  5318  4878  4546  4350  4050  3417  2540  1691  988  417  -24  -404  -816  -1255  -1645  -1922  -2059  -2071  -1988  -1839  -1662  -1475  -1269  -1063  -939  -989  -1242  -1594  -1863  -1974  -1978  -1914  -1775  -1582  -1404  -1294  -1231  -1125  -891  -555  -249  -82  -75  -228  -500  -772  -933  -973  -928  -782  -476  -3  501  830  886  716  413  33  -445  -994  -1441  -1625  -1522  -1182  -671  -72  523  1012  1310  1445  1528  1622  1701  1733  1738  1788  1936  2145  2356  2590  2874  3154  3372  3522  3629  3711  3730  3509  2815  1645  338  -771  -1611  -2191  -2534  -2751  -2982  -3301  -3686  -4032  -4248  -4337  -4339  -4234  -3958  -3489  -2951  -2556  -2350  -2072  -1416  -454  375  769  726  306  -409  -1190  -1768  -2066  -2217  -2341  -2432  -2455  -2433  -2415  -2436  -2494  -2553  -2582  -2605  -2710  -2985  -3420  -3859  -4122  -4166  -4062  -3896  -3730  -3578  -3430  -3281  -3067  -2666  -2096  -1497  -897  -337  -96  -509  -1589  -2894  -3850  -4254  -4326  -4339  -4367  -4389  -4418  -4461  -4488  -4452  -4329  -4155  -4006  -3905  -3824  -3721  -3486  -2854  -1575  187  1785  2686  2971  3000  2953  2874  2826  2831  2764  2392  1648  814  236  -63  -277  -507  -722  -866  -933  -950  -902  -719  -360  71  444  778  1157  1598  2084  2560  2935  3095  2760  1577  -297  -2120  -3315  -3803  -3688  -3275  -3123  -3423  -3627  -3186  -2073  -583  519  223  -1603  -3932  -5472  -5411  -3828  -1608  269  1278  1524  1566  1913  2784  4077  5418  6518  7397  8187  8844  9216  9278  9126  8861  8598  8423  8307  8178  8020  7778  7314  6627  5971  5574  5389  5220  5002  4815  4677  4520  4328  4136  3941  3674  3253  2698  2197  1942  1936  2047  2166  2231  2143  1749  1022  116  -798  -1658  -2427  -3019  -3387  -3642  -3984  -4459  -4900  -5149  -5204  -5082  -4757  -4299  -3893  -3645  -3552  -3664  -4105  -4814  -5293  -4562  -1843  2101  5280  6685  6940  6900  6864  6827  6734  6429  5741  4829  4167  4067  4495  5201  5890  6409  6779  7066  7289  7432  7476  7403  7211  6941  6618  6175  5472  4346  2742  960  -446  -1188  -1447  -1554  -1734  -2119  -2703  -3283  -3640  -3746  -3717  -3651  -3589  -3570  -3660  -3953  -4486  -5099  -5524  -5657  -5552  -5263  -4897  -4643  -4651  -4939  -5356  -5639  -5650  -5480  -5175  -4409  -2651  77  2974  5193  6419  6832  6856  6863  7002  7197  7292  7180  6710  5701  4362  3256  2684  2405  1905  1088  595  1026  2178  3211  3284  2120  85  -2014  -3353  -3870  -4209  -4681  -5020  -4982  -4543  -3806  -2985  -2403  -2407  -3127  -4409  -5950  -7397  -8446  -8983  -9078  -8770  -7986  -6802  -5545  -4576  -4081  -3955  -3952  -3976  -4205  -4853  -5771  -6523  -6882  -6955  -6923  -6880  -6860  -6886  -6998  -7189  -7380  -7489  -7480  -7351  -7138  -6938  -6831  -6807  -6810  -6810  -6813  -6786  -6581  -6041  -5269  -4602  -4246  -4130  -4114  -4134  -4200  -4340  -4527  -4673  -4734  -4732  -4676  -4527  -4228  -3801  -3391  -3158  -3166  -3384  -3703  -3963  -4080  -4096  -4082  -4050  -3965  -3821  -3688  -3629  -3584  -3336  -2635  -1475  -240  654  1180  1595  2150  2952  3866  4610  5020  5152  5163  5174  5233  5331  5430  5492  5509  5501  5485  5467  5453  5445  5453  5496  5584  5681  5742  5779  5821  5848  5858  5885  5935  5980  6008  6020  5994  5836  5445  4897  4414  4111  3925  3768  3616  3507  3509  3647  3873  4089  4206  4195  4073  3894  3716  3517  3246  2952  2750  2663  2614  2525  2400  2307  2288  2350  2508  2746  2981  3152  3282  3400  3490  3532  3520  3430  3247  3032  2891  2858  2875  2838  2658  2334  1985  1747  1674  1754  1941  2155  2305  2358  2347  2330  2366  2499  2710  2917  3058  3148  3224  3284  3293  3211  3021  2755  2488  2275  2127  2034  1968  1869  1704  1514  1366  1277  1213  1116  936  684  422  178  -55  -278  -481  -653  -784  -872  -925  -938  -905  -855  -833  -865  -941  -1025  -1105  -1178  -1230  -1248  -1225  -1157  -1057  -964  -894  -802  -607  -315  -41  116  165  167  151  104  -6  -184  -392  -578  -712  -810  -935  -1128  -1349  -1522  -1620  -1685  -1775  -1906  -2058  -2251  -2554  -2953  -3307  -3505  -3552  -3503  -3403  -3275  -3164  -3140  -3242  -3401  -3471  -3363  -3117  -2789  -2370  -1916  -1567  -1358  -1190  -990  -769  -583  -466  -399  -334  -245  -124  42  262  500  684  774  747  548  145  -378  -844  -1120  -1224  -1262  -1283  -1277  -1255  -1243  -1247  -1257  -1273  -1317  -1414  -1550  -1686  -1807  -1915  -2002  -2061  -2097  -2110  -2080  -1987  -1843  -1687  -1548  -1438  -1349  -1265  -1166  -1043  -911  -779  -625  -431  -190  110  439  697  815  788  649  463  334  343  508  772  1060  1363  1660  1861  1933  1938  1960  2044  2158  2224  2201  2114  2014  1925  1851  1798  1771  1764  1765  1756  1719  1649  1567  1492  1395  1211  948  706  572  542  558  569  542  422  152  -216  -532  -716  -829  -931  -1017  -1066  -1095  -1132  -1183  -1233  -1288  -1363  -1449  -1509  -1533  -1539  -1551  -1590  -1684  -1824  -1951  -2021  -2050  -2069  -2084  -2093  -2097  -2088  -2048  -1974  -1885  -1780  -1631  -1460  -1333  -1268  -1213  -1142  -1035  -825  -468  -48  295  502  582  561  485  419  396  406  426  443  444  409  322  196  67  -36  -102  -133  -141  -126  -18  297  849  1451  1843  1938  1804  1515  1150  812  560  378  229  98  -17  -131  -267  -431  -613  -786  -917  -988  -1009  -1006  -996  -987  -979  -971  -948  -896  -826  -776  -760  -765  -771  -757  -703  -603  -483  -369  -253  -128  -1  127  243  333  418  520  642  782  937  1080  1172  1227  1295  1372  1384  1291  1160  1085  1109  1220  1359  1477  1567  1621  1637  1634  1625  1610  1589  1575  1585  1622  1672  1714  1745  1774  1776  1662  1339  874  492  332  354  447  503  444  248  -27  -293  -485  -595  -635  -603  -475  -266  -33  162  290  346  367  395  413  296  -86  -668  -1177  -1431  -1478  -1472  -1511  -1607  -1734  -1872  -1991  -2075  -2147  -2228  -2301  -2353  -2384  -2389  -2344  -2235  -2099  -2007  -1994  -2052  -2156  -2281  -2423  -2584  -2750  -2883  -2956  -2986  -3016  -3042  -2960  -2618  -2022  -1412  -1002  -764  -555  -292  55  433  675  593  124  -534  -1026  -1165  -970  -522  11  402  553  548  513  536  654  858  1124  1491  2011  2561  2906  3043  3201  3551  4086  4583  4712  4304  3441  2341  1220  217  -556  -981  -1009  -712  -261  113  284  308  287  271  267  269  288  339  408  458  465  434  390  358  350  363  402  514  765  1144  1544  1862  2059  2149  2161  2092  1913  1670  1475  1375  1335  1316  1295  1259  1215  1179  1149  1112  1038  887  665  385  9  -446  -863  -1184  -1439  -1656  -1853  -2035  -2171  -2248  -2289  -2308  -2312  -2310  -2311  -2319  -2331  -2342  -2350  -2357  -2352  -2299  -2161  -1960  -1799  -1766  -1837  -1927  -1988  -2019  -2029  -2011  -1954  -1860  -1749  -1632  -1496  -1329  -1149  -986  -835  -663  -448  -186  109  381  558  636  644  595  500  397  320  275  252  243  243  230  186  122  69  35  0  -35  -16  66  157  298  631  1145  1672  2040  2165  2099  2018  2052  2166  2216  2090  1799  1452  1130  841  601  444  351  290  302  430  661  992  1393  1749  1986  2145  2284  2383  2398  2342  2260  2187  2124  2062  2008  1979  1977  1984  1974  1928  1843  1719  1533  1279  1001  746  528  327  136  -23  -156  -318  -555  -808  -977  -1056  -1104  -1181  -1352  -1653  -2002  -2253  -2355  -2371  -2383  -2437  -2518  -2574  -2575  -2536  -2490  -2455  -2431  -2430  -2507  -2709  -2980  -3189  -3240  -3082  -2696  -2176  -1721  -1470  -1417  -1447  -1390  -1103  -613  -127  194  369  484  588  703  848  1047  1280  1477  1589  1635  1667  1724  1848  2077  2366  2615  2805  2976  3117  3185  3163  3059  2921  2810  2756  2792  2993  3384  3841  4180  4340  4420  4567  4854  5242  5630  5930  6120  6206  6093  5524  4376  3006  2012  1618  1597  1694  1865  2160  2557  2952  3255  3434  3508  3497  3344  2956  2375  1825  1508  1492  1771  2221  2561  2635  2616  2739  3034  3294  3101  2083  354  -1416  -2555  -2867  -2627  -2403  -2649  -3225  -3607  -3522  -3090  -2561  -2137  -1869  -1662  -1405  -1090  -802  -613  -513  -441  -350  -249  -172  -88  80  328  549  665  675  591  399  124  -134  -286  -345  -404  -516  -666  -805  -904  -973  -1058  -1232  -1560  -2018  -2476  -2804  -2957  -2977  -2944  -2925  -2962  -3061  -3234  -3532  -3970  -4464  -5024  -5792  -6714  -7488  -7920  -8075  -8105  -8098  -8047  -7896  -7589  -7141  -6697  -6416  -6300  -6205  -6005  -5733  -5519  -5409  -5365  -5398  -5549  -5801  -6109  -6368  -6544  -6940  -7764  -8537  -8469  -7153  -4844  -2460  -1085  -1201  -2424  -3830  -4603  -4582  -4165  -3778  -3496  -3102  -2434  -1575  -738  -84  349  597  698  702  662  622  594  571  560  604  749  962  1143  1215  1101  713  102  -520  -970  -1200  -1260  -1228  -1152  -1026  -822  -548  -234  144  631  1195  1746  2224  2589  2808  2889  2893  2877  2859  2824  2770  2716  2652  2531  2331  2098  1921  1844  1837  1849  1856  1862  1878  1909  1961  2043  2144  2244  2371  2575  2820  2998  3052  2988  2817  2573  2314  2067  1807  1548  1365  1294  1294  1320  1361  1420  1496  1580  1630  1596  1497  1411  1381  1391  1426  1503  1652  1837  1912  1755  1457  1284  1466  2080  2941  3536  3362  2442  1280  415  113  328  763  1099  1279  1466  1815  2348  2916  3311  3461  3458  3422  3406  3412  3430  3450  3413  3207  2773  2167  1489  876  512  493  754  1111  1371  1490  1571  1703  1876  2030  2130  2124  1859  1230  452  -81  -237  -173  -60  31  93  102  -34  -407  -932  -1373  -1607  -1720  -1841  -2001  -2153  -2267  -2335  -2355  -2334  -2295  -2259  -2233  -2227  -2262  -2330  -2392  -2406  -2345  -2196  -1940  -1552  -1050  -549  -185  -8  31  25  27  47  115  270  500  706  747  660  770  1414  2569  3784  4505  4469  3810  2932  2284  2034  2042  2117  2116  1922  1576  1268  1026  691  244  -137  -363  -505  -638  -752  -836  -932  -1093  -1299  -1496  -1661  -1794  -1894  -1937  -1889  -1718  -1434  -1117  -840  -614  -441  -354  -405  -621  -925  -1136  -1091  -755  -289  44  148  115  57  12  -40  -131  -259  -390  -495  -575  -640  -703  -773  -845  -904  -921  -843  -622  -319  -89  -2  -5  -25  -34  -36  -46  -83  -152  -215  -186  25  406  772  939  889  760  746  948  1196  1146  688  40  -455  -444  185  1140  2001  2512  2652  2512  2152  1664  1223  951  836  775  669  490  275  96  19  59  186  362  558  730  824  818  723  577  426  278  126  -14  -110  -156  -182  -216  -254  -274  -279  -314  -429  -606  -756  -825  -833  -826  -822  -806  -755  -683  -647  -587  -315  144  500  648  753  971  1360  1792  1951  1616  857  41  -398  -323  78  524  778  781  661  539  424  299  164  8  -167  -327  -425  -455  -449  -447  -424  -267  108  606  1015  1248  1380  1480  1503  1362  1052  703  445  276  124  -33  -225  -569  -1163  -1944  -2687  -3142  -3236  -3058  -2724  -2341  -2000  -1697  -1360  -937  -458  -50  171  213  160  66  -46  -135  -144  -86  -35  -23  -32  -54  -118  -247  -434  -666  -909  -1098  -1199  -1248  -1285  -1306  -1302  -1277  -1233  -1152  -1031  -913  -833  -783  -748  -722  -693  -621  -459  -203  81  305  424  485  554  650  771  923  1105  1286  1415  1472  1475  1437  1370  1285  1188  1069  927  789  690  646  639  649  662  678  698  722  743  726  599  294  -157  -605  -901  -1019  -1038  -1048  -1090  -1141  -1142  -1048  -860  -613  -352  -75  249  590  890  1154  1387  1555  1694  1903  2175  2403  2581  2803  3073  3277  3357  3358  3331  3285  3208  3093  2939  2761  2627  2618  2733  2907  3112  3329  3505  3575  3421  2877  1989  1144  696  625  690  689  539  270  -68  -517  -1050  -1381  -1234  -699  -160  -30  -497  -1286  -1835  -1853  -1465  -1037  -1164  -2267  -4009  -5618  -6586  -6839  -6625  -6346  -6237  -6140  -5735  -4941  -3970  -3131  -2635  -2448  -2434  -2666  -3382  -4556  -5794  -6745  -7338  -7645  -7766  -7771  -7700  -7605  -7535  -7499  -7456  -7364  -7232  -7116  -7058  -7081  -7224  -7484  -7774  -8016  -8237  -8476  -8684  -8790  -8761  -8564  -8173  -7704  -7380  -7316  -7459  -7680  -7834  -7778  -7412  -6824  -6296  -6038  -6015  -6085  -6126  -6016  -5591  -4613  -2873  -604  1407  2553  2978  3172  3425  3894  4740  5865  6902  7663  8212  8576  8726  8685  8493  8112  7513  6860  6427  6299  6357  6473  6586  6678  6755  6790  6631  6059  5089  4086  3378  2960  2712  2596  2613  2736  2889  2990  3037  3128  3380  3832  4379  4839  5124  5284  5396  5461  5436  5301  5114  4978  4924  4904  4880  4851  4788  4609  4251  3773  3306  2938  2689  2551  2480  2360  2081  1659  1245  974  863  881  1038  1344  1723  2059  2299  2453  2563  2671  2798  2952  3121  3255  3305  3257  3146  3022  2920  2850  2810  2776  2719  2622  2488  2282  1918  1358  688  50  -390  -503  -427  -500  -788  -957  -476  1113  3652  6177  7598  7451  6141  4588  3549  3238  3390  3577  3550  3313  2971  2605  2275  2034  1914  1924  2056  2275  2520  2745  2945  3134  3303  3410  3431  3388  3315  3240  3183  3154  3143  3124  3084  3024  2957  2893  2833  2779  2743  2722  2695  2637  2548  2438  2305  2157  2045  2008  2031  2032  1865  1396  650  -148  -741  -1031  -1119  -1143  -1153  -1141  -1106  -1082  -1098  -1154  -1217  -1235  -1175  -1091  -1062  -1107  -1173  -1235  -1407  -1835  -2450  -3017  -3470  -3915  -4389  -4845  -5219  -5429  -5449  -5399  -5472  -5773  -6284  -6972  -7728  -8299  -8557  -8594  -8503  -8306  -7972  -7384  -6474  -5416  -4544  -4062  -3923  -3960  -4059  -4177  -4283  -4345  -4354  -4298  -4163  -3968  -3746  -3508  -3246  -2932  -2534  -2077  -1583  -1046  -548  -234  -140  -207  -404  -683  -946  -1125  -1252  -1466  -1920  -2568  -3133  -3413  -3433  -3292  -3062  -2830  -2685  -2663  -2761  -2962  -3191  -3350  -3410  -3432  -3481  -3557  -3637  -3741  -3935  -4241  -4572  -4801  -4903  -4918  -4798  -4396  -3694  -2947  -2463  -2329  -2534  -3124  -4054  -5099  -5961  -6424  -6464  -6217  -5870  -5580  -5409  -5313  -5217  -5056  -4803  -4484  -4193  -4019  -3962  -3967  -4009  -4103  -4239  -4361  -4429  -4450  -4451  -4459  -4477  -4496  -4499  -4472  -4396  -4266  -4117  -4012  -3980  -4013  -4107  -4244  -4348  -4274  -3873  -3186  -2482  -1976  -1627  -1310  -1011  -821  -772  -776  -732  -631  -518  -406  -252  15  418  867  1239  1483  1630  1727  1816  1926  2051  2133  2115  1990  1803  1603  1378  1105  804  529  333  236  214  249  377  634  943  1147  1161  1015  815  672  595  525  451  415  413  375  243  29  -179  -302  -308  -200  15  314  654  966  1250  1677  2490  3655  4739  5358  5563  5631  5722  5845  5968  6063  6117  6136  6143  6157  6196  6257  6311  6309  6185  5906  5515  5100  4721  4374  3975  3420  2722  2070  1651  1461  1364  1204  879  464  173  139  327  591  777  840  844  857  910  1013  1155  1296  1389  1424  1413  1351  1221  1058  945  945  1063  1240  1381  1433  1414  1360  1294  1222  1139  1020  820  558  319  153  24  -77  -80  54  357  1000  2172  3827  5596  6944  7610  7766  7713  7596  7360  6782  5645  4126  2791  2001  1648  1488  1414  1399  1395  1332  1169  941  703  444  127  -204  -443  -534  -470  -262  7  197  241  179  85  0]
