reading_id,reading_time,wire_id,result_classification,heart_rate,heart_rate_alert,firmware_version,device_app_version,hardware_version,waveform_samples
4ccce4c0-5b24-11ed-8080-808080808080,Thu Nov 03 03:04:58 UTC 2022,2101e3b12739,NSR,80,NONE,20001.171.50,2.10.0,Charge 5,[-21383  -21445  -21483  -21362  -20875  -19988  -18964  -18143  -17616  -17228  -16839  -16452  -16111  -15838  -15652  -15490  -15182  -14646  -14007  -13466  -13156  -13050  -12934  -12531  -11743  -10689  -9613  -8760  -8155  -7686  -7353  -7136  -6867  -6436  -5853  -5139  -4356  -3688  -3272  -3078  -2995  -2903  -2622  -1970  -1011  -104  482  854  1231  1635  1939  2091  2149  2200  2283  2409  2615  2941  3344  3702  3943  4145  4423  4749  4988  5084  5100  5109  5163  5310  5552  5810  6013  6179  6357  6517  6600  6599  6567  6747  7626  9561  12340  15237  17341  17971  17066  15113  12746  10585  9105  8396  8217  8331  8626  8993  9351  9683  9960  10143  10194  10091  9870  9636  9494  9508  9728  10134  10587  10939  11176  11349  11477  11577  11671  11740  11773  11795  11816  11833  11866  11944  12057  12156  12205  12203  12171  12136  12108  12085  12086  12187  12472  12915  13376  13740  13975  14085  14081  13966  13749  13466  13145  12758  12270  11720  11231  10916  10767  10630  10332  9888  9469  9168  8961  8812  8679  8509  8290  8040  7729  7301  6842  6540  6458  6524  6676  6868  7029  7119  7156  7158  7108  6963  6711  6410  6144  5961  5864  5817  5774  5729  5700  5673  5611  5490  5318  5135  4966  4787  4584  4372  4152  3937  3783  3714  3682  3631  3563  3508  3456  3374  3255  3131  3048  3020  3022  3032  3042  3052  3068  3099  3153  3206  3200  3036  2646  2142  1773  1632  1621  1641  1662  1671  1632  1501  1302  1121  1014  955  882  761  625  547  566  666  827  954  833  428  94  277  1188  2778  4749  6598  7801  8016  7121  5237  2845  692  -687  -1276  -1349  -1236  -1205  -1254  -1236  -1194  -1251  -1396  -1569  -1729  -1823  -1794  -1614  -1334  -1069  -907  -855  -870  -890  -884  -874  -891  -932  -974  -1001  -1012  -1010  -990  -944  -849  -652  -324  57  366  552  646  682  710  781  899  1013  1080  1108  1124  1158  1251  1417  1616  1792  1917  1981  1966  1836  1565  1146  620  86  -396  -848  -1273  -1627  -1895  -2108  -2278  -2382  -2414  -2410  -2404  -2406  -2406  -2403  -2401  -2404  -2409  -2412  -2416  -2434  -2473  -2526  -2572  -2574  -2485  -2283  -2038  -1864  -1803  -1810  -1844  -1909  -2019  -2138  -2223  -2269  -2302  -2348  -2407  -2450  -2457  -2425  -2363  -2273  -2140  -1985  -1872  -1847  -1902  -2015  -2186  -2405  -2611  -2736  -2772  -2757  -2714  -2648  -2577  -2532  -2513  -2492  -2458  -2439  -2448  -2456  -2432  -2388  -2351  -2315  -2233  -2047  -1774  -1514  -1363  -1348  -1420  -1517  -1667  -1926  -2233  -2443  -2503  -2472  -2419  -2373  -2340  -2315  -2303  -2324  -2391  -2501  -2616  -2671  -2627  -2498  -2324  -2137  -1977  -1881  -1850  -1857  -1827  -1655  -1272  -628  392  1850  3536  4992  5771  5678  4752  3210  1436  -217  -1626  -2724  -3329  -3328  -2890  -2335  -1895  -1649  -1565  -1583  -1644  -1677  -1634  -1516  -1364  -1217  -1092  -990  -917  -880  -876  -891  -897  -853  -716  -469  -133  200  410  465  434  385  345  322  348  479  732  1046  1354  1620  1818  1942  2036  2141  2254  2360  2475  2612  2761  2888  2922  2766  2393  1906  1475  1184  991  820  621  352  46  -181  -270  -272  -287  -427  -760  -1180  -1484  -1593  -1585  -1544  -1483  -1377  -1228  -1102  -1067  -1113  -1171  -1204  -1210  -1175  -1078  -939  -830  -789  -799  -844  -946  -1119  -1329  -1513  -1611  -1589  -1451  -1262  -1115  -1042  -1021  -1037  -1075  -1098  -1080  -1034  -997  -991  -1015  -1068  -1150  -1233  -1276  -1272  -1245  -1201  -1123  -1028  -987  -1071  -1278  -1511  -1650  -1635  -1479  -1266  -1116  -1102  -1206  -1353  -1455  -1464  -1394  -1297  -1226  -1190  -1162  -1126  -1068  -946  -731  -484  -306  -223  -192  -172  -154  -151  -207  -365  -590  -797  -957  -1073  -1091  -939  -658  -416  -356  -480  -711  -986  -1249  -1441  -1534  -1554  -1539  -1495  -1403  -1257  -1090  -971  -946  -1039  -1223  -1317  -1018  -140  1293  3152  5190  6959  7914  7757  6581  4627  2271  93  -1478  -2392  -2736  -2586  -2122  -1618  -1246  -990  -758  -494  -230  -52  0  -50  -180  -336  -449  -511  -571  -660  -755  -809  -753  -470  89  741  1189  1326  1233  1006  744  564  563  801  1245  1710  2001  2114  2186  2312  2454  2521  2505  2479  2483  2502  2520  2554  2617  2711  2805  2843  2792  2700  2644  2615  2472  2055  1397  724  205  -157  -415  -587  -699  -785  -853  -894  -905  -901  -906  -924  -942  -959  -983  -1007  -1014  -1007  -1001  -1007  -1036  -1097  -1170  -1222  -1246  -1270  -1308  -1348  -1374  -1384  -1383  -1378  -1350  -1269  -1126  -959  -824  -759  -787  -917  -1110  -1271  -1332  -1295  -1198  -1088  -997  -941  -926  -953  -1000  -1036  -1046  -1044  -1053  -1089  -1144  -1202  -1263  -1332  -1397  -1445  -1460  -1427  -1359  -1290  -1232  -1153  -1009  -804  -614  -537  -628  -844  -1073  -1206  -1185  -979  -638  -315  -144  -135  -226  -345  -440  -492  -500  -476  -467  -512  -606  -725  -855  -980  -1083  -1157  -1198  -1193  -1149  -1092  -1047  -1023  -1018  -1022  -1032  -1047  -1050  -996  -828  -540  -257  -182  -372  -645  -631  70  1643  3883  6214  7880  8311  7400  5446  3008  780  -787  -1646  -1885  -1662  -1277  -990  -856  -818  -821  -798  -646  -323  54  305  377  333  228  117  101  265  568  863  1050  1145  1197  1214  1188  1130  1052  951  843  793  867  1071  1338  1607  1886  2185  2450  2617  2689  2742  2859  3041  3205  3286  3300  3292  3272  3218  3139  3065  2981  2839  2607  2301  1966  1606  1167  658  227  3  -39  -3  35  11  -166  -521  -912  -1175  -1300  -1385  -1479  -1533  -1477  -1332  -1199  -1137  -1130  -1128  -1089  -1024  -980  -970  -970  -973  -1002  -1083  -1186  -1228  -1156  -1016  -903  -860  -863  -876  -879  -861  -815  -745  -673  -629  -625  -651  -700  -789  -938  -1137  -1334  -1470  -1536  -1564  -1588  -1622  -1661  -1689  -1676  -1590  -1433  -1251  -1086  -959  -881  -859  -888  -951  -1017  -1059  -1079  -1098  -1126  -1160  -1178  -1141  -1048  -927  -757  -515  -254  -54  58  103  111  109  103  77  5  -140  -371  -662  -939  -1143  -1275  -1365  -1421  -1444  -1434  -1364  -1206  -997  -825  -739  -727  -753  -809  -924  -1076  -1189  -1243  -1301  -1414  -1535  -1465  -984  -41  1335  3099  5022  6657  7527  7318  5977  3766  1264  -827  -2082  -2459  -2138  -1493  -958  -715  -664  -651  -613  -568  -550  -548  -523  -453  -363  -287  -207  -56  212  543  799  892  845  727  598  491  423  412  478  626  840  1095  1408  1802  2208  2492  2615  2642  2635  2614  2596  2626  2744  2921  3083  3202  3308  3410  3473  3471  3409  3299  3121  2814  2389  1997  1765  1662  1598  1523  1368  1062  652  286  45  -98  -222  -382  -590  -843  -1099  -1269  -1317  -1278  -1193  -1093  -1008  -954  -933  -935  -954  -984  -1011  -1024  -1019  -993  -947  -887  -830  -794  -780  -780  -785  -792  -795  -778  -724  -646  -580  -554  -587  -690  -841  -995  -1139  -1274  -1361  -1342  -1185  -923  -650  -476  -476  -650  -922  -1186  -1358  -1421  -1428  -1437  -1459  -1470  -1463  -1456  -1456  -1459  -1449  -1413  -1349  -1258  -1130  -968  -830  -772  -771  -764  -732  -696  -665  -633  -592  -539  -472  -402  -374  -425  -539  -693  -891  -1117  -1308  -1413  -1430  -1387  -1303  -1200  -1103  -1021  -947  -876  -811  -748  -709  -736  -813  -894  -1004  -1231  -1590  -1978  -2279  -2431  -2354  -1949  -1193  -162  1062  2499  4168  5843  6991  7116  6118  4265  2060  148  -1046  -1607  -1830  -1908  -1943  -1960  -1913  -1778  -1549  -1242  -937  -707  -578  -546  -580  -629  -646  -597  -457  -253  -67  36  61  47  25  16  56  178  362  549  714  873  1028  1192  1397  1645  1874  2034  2155  2288  2450  2616  2749  2824  2851  2857  2862  2875  2897  2918  2911  2838  2723  2626  2536  2334  1946  1469  1067  769  514  291  142  87  88  75  -20  -234  -524  -784  -935  -983  -985  -989  -1031  -1131  -1262  -1358  -1391  -1379  -1347  -1313  -1296  -1301  -1304  -1254  -1117  -930  -780  -709  -691  -686  -676  -667  -666  -684  -738  -848  -1004  -1154  -1234  -1206  -1063  -868  -720  -667  -701  -813  -961  -1057  -1038  -922  -800  -750  -768  -819  -891  -963  -1020  -1076  -1144  -1217  -1276  -1303  -1292  -1243  -1138  -952  -722  -550  -491  -520  -593  -670  -716  -696  -578  -375  -155  8  74  39  -62  -179  -266  -326  -403  -521  -647  -729  -762  -767  -763  -767  -782  -793  -791  -774  -753  -750  -807  -959  -1166  -1318  -1349  -1260  -1096  -926  -809  -756  -765  -804  -753  -457  239  1516  3366  5395  6958  7453  6624  4723  2361  244  -1153  -1799  -1967  -1918  -1748  -1493  -1224  -1022  -928  -921  -955  -991  -963  -772  -389  53  363  459  382  221  68  -22  -51  -30  44  181  346  503  661  820  938  998  1053  1168  1355  1568  1762  1936  2121  2334  2537  2669  2722  2750  2805  2893  2987  3058  3106  3142  3159  3118  2991  2795  2577  2332  2022  1681  1410  1231  1046  781  479  198  -38  -214  -323  -391  -458  -559  -685  -777  -806  -796  -775  -762  -759  -758  -748  -730  -732  -776  -846  -901  -924  -930  -922  -881  -789  -666  -560  -505  -502  -532  -574  -604  -615  -609  -588  -556  -520  -496  -502  -563  -698  -865  -986  -1039  -1066  -1084  -1074  -1035  -995  -979  -981  -984  -955  -868  -747  -659  -636  -659  -703  -773  -898  -1059  -1177  -1186  -1065  -857  -662  -559  -537  -543  -545  -547  -543  -498  -405  -302  -225  -187  -176  -181  -208  -293  -467  -707  -935  -1095  -1189  -1241  -1264  -1261  -1237  -1202  -1161  -1104  -1012  -891  -770  -680  -649  -684  -777  -901  -1025  -1111  -1142  -1162  -1224  -1259  -969  26  1795  3966  5944  7113  7096  5969  4125  2042  171  -1220  -2074  -2400  -2282  -1943  -1614  -1353  -1102  -843  -620  -471  -400  -387  -414  -465  -507  -504  -444  -351  -260  -177  -88  -2  69  137  228  367  561  767  924  1001  1024  1054  1155  1350  1600  1828  1974  2051  2135  2277  2440  2562  2635  2695  2765  2854  2961  3074  3165  3202  3143  2968  2708  2414  2098  1771  1477  1239  1030  800  483  78  -291  -509  -605  -689  -808  -921  -988  -1021  -1044  -1056  -1050  -1033  -1034  -1073  -1140  -1202  -1235  -1229  -1188  -1123  -1050  -985  -948  -966  -1046  -1160  -1258  -1301  -1270  -1158  -982  -824  -782  -857  -964  -1042  -1083  -1100  -1104  -1103  -1101  -1102  -1109  -1121  -1129  -1096  -993  -846  -732  -685  -690  -734  -824  -941  -1039  -1089  -1114  -1149  -1193  -1225  -1245  -1258  -1240  -1152  -984  -780  -602  -483  -425  -407  -404  -402  -402  -410  -436  -472  -510  -559  -640  -767  -913  -1030  -1101  -1149  -1195  -1234  -1254  -1248  -1229  -1216  -1228  -1269  -1327  -1381  -1411  -1413  -1390  -1369  -1420  -1613  -1862  -1946  -1706  -1044  161  1912  3975  5949  7279  7440  6352  4432  2294  523  -580  -1159  -1507  -1731  -1784  -1665  -1488  -1360  -1260  -1091  -842  -609  -461  -391  -356  -319  -269  -200  -98  41  198  342  450  503  514  516  543  604  686  769  852  944  1068  1239  1438  1625  1777  1896  2005  2172  2453  2800  3086  3230  3265  3266  3274  3281  3253  3169  3064  2984  2881  2631  2230  1835  1573  1423  1296  1107  792  385  22  -197  -295  -352  -427  -518  -594  -657  -738  -828  -903  -968  -1029  -1085  -1130  -1131  -1077  -1019  -1006  -1024  -1040  -1039  -1027  -1015  -1000  -953  -859  -771  -773  -865  -963  -997  -961  -885  -804  -744  -710  -700  -707  -735  -789  -856  -921  -987  -1051  -1098  -1122  -1130  -1122  -1088  -1015  -913  -816  -750  -721  -713  -708  -690  -655  -614  -581  -565  -560  -541  -476  -354  -210  -111  -76  -81  -107  -172  -325  -587  -879  -1070  -1124  -1097  -1041  -990  -969  -978  -977  -950  -937  -981  -1060  -1120  -1141  -1154  -1194  -1257  -1316  -1360  -1387  -1372  -1277  -1034  -523  383  1748  3478  5198  6292  6311  5262  3466  1450  -199  -1210  -1691  -1831  -1752  -1542  -1254  -953  -728  -614  -573  -557  -541  -522  -509  -507  -513  -524  -528  -495  -396  -235  -50  115  247  349  440  536  636  728  823  938  1059  1162  1259  1367  1486  1628  1804  2001  2198  2362  2471  2574  2749  2969  3129  3186  3178  3127  3022  2865  2696  2545  2387  2195  1996  1823  1667  1505  1317  1056  666  215  -127  -296  -381  -467  -567  -680  -803  -921  -1024  -1115  -1194  -1253  -1288  -1298  -1278  -1227  -1159  -1096  -1043  -991  -948  -927  -930  -944  -954  -959  -960  -949  -918  -874  -831  -794  -757  -718  -688  -695  -761  -854  -918  -935  -931  -931  -944  -966  -982  -987  -985  -969  -915  -813  -689  -585  -527  -509  -513  -522  -515  -474  -409  -355  -335  -347  -377  -412  -458  -539  -658  -767  -822  -832  -844  -903  -1012  -1124  -1192  -1200  -1160  -1093  -1023  -975  -955  -956  -983  -1045  -1111  -1134  -1113  -1080  -1052  -1008  -825  -270  816  2356  4096  5721  6770  6822  5834  4066  1986  223  -852  -1342  -1503  -1513  -1465  -1343  -1099  -829  -666  -611  -592  -580  -579  -587  -584  -540  -442  -315  -206  -148  -126  -104  -68  -38  -22  19  155  395  658  845  931  965  1000  1044  1083  1130  1239  1434  1661  1845  1994  2144  2290  2405  2476  2506  2499  2450  2368  2287  2220  2140  2020  1874  1721  1536  1274  972  730  558  364  97  -225  -554  -825  -992  -1064  -1086  -1098  -1110  -1131  -1175  -1235  -1279  -1296  -1296  -1296  -1301  -1314  -1343  -1399  -1465  -1493  -1453  -1376  -1315  -1287  -1267  -1228  -1168  -1105  -1066  -1070  -1119  -1190  -1247  -1270  -1253  -1190  -1093  -1004  -957  -950  -969  -1003  -1052  -1117  -1186  -1240  -1268  -1270  -1241  -1162  -1037  -898  -756  -588  -400  -234  -116  -47  -39  -105  -218  -322  -419  -556  -732  -878  -963  -1007  -1038  -1067  -1091  -1109  -1117  -1115  -1111  -1116  -1127  -1120  -1085  -1044  -1002  -930  -847  -810  -864  -991  -1063  -951  -583  163  1413  3102  4909  6325  6874  6399  5066  3259  1512  192  -705  -1278  -1519  -1442  -1171  -889  -698  -588  -533  -517  -523  -538  -549  -551  -535  -480  -361  -191  -28  75  126  158  195  239  285  326  374  444  537  625  677  704  764  937  1268  1671  1982  2120  2135  2115  2123  2182  2269  2345  2388  2408  2419  2429  2437  2424  2359  2226  2053  1890  1742  1570  1330  1023  700  440  292  227  158  2  -260  -577  -848  -999  -1047  -1056  -1063  -1078  -1097  -1119  -1142  -1150  -1130  -1086  -1027  -949  -856  -770  -710  -681  -673  -665  -640  -600  -569  -590  -693  -857  -1016  -1125  -1185  -1209  -1199  -1139  -1027  -910  -855  -881  -947  -995  -1004  -993  -980  -963  -921  -839  -728  -627  -563  -539  -555  -607  -668  -707  -721  -719  -695  -638  -564  -508  -484  -484  -518  -604  -731  -852  -939  -1008  -1071  -1120  -1146  -1155  -1156  -1149  -1132  -1117  -1111  -1111  -1113  -1115  -1116  -1117  -1130  -1196  -1353  -1572  -1764  -1839  -1706  -1282  -472  845  2657  4698  6485  7468  7328  6118  4163  2022  301  -729  -1192  -1342  -1389  -1447  -1498  -1470  -1376  -1266  -1141  -998  -847  -697  -565  -475  -428  -390  -321  -213  -92  5  74  129  168  183  178  163  154  178  249  356  505  744  1063  1349  1523  1620  1717  1853  2013  2161  2283  2410  2570  2734  2845  2883  2850  2749  2619  2521  2467  2396  2256  2053  1783  1412  991  659  484  403  311  144  -71  -267  -432  -588  -725  -809  -835  -830  -829  -844  -870  -899  -918  -925  -926  -925  -913  -879  -821  -742  -644  -544  -476  -449  -449  -472  -532  -629  -732  -797  -816  -814  -810  -803  -781  -740  -702  -691  -700  -705  -703  -706  -711  -699  -660  -622  -635  -715  -820  -895  -922  -918  -910  -918  -953  -1005  -1042  -1024  -928  -777  -644  -581  -588  -646  -726  -781  -745  -572  -307  -83  4  -22  -86  -130  -149  -167  -207  -281  -404  -564  -712  -805  -842  -848  -846  -847  -851  -855  -854  -843  -822  -795  -772  -758  -757  -776  -825  -887  -934  -952  -949  -940  -924  -812  -395  536  2037  3953  5894  7245  7525  6706  5063  3016  1126  -198  -942  -1290  -1358  -1229  -1039  -887  -784  -727  -708  -703  -691  -651  -560  -416  -271  -185  -165  -175  -186  -179  -149  -104  -68  -44  3  126  323  533  687  783  856  926  1022  1198  1462  1735  1925  2014  2050  2088  2161  2277  2417  2544  2635  2682  2693  2674  2614  2506  2365  2219  2096  2011  1930  1780  1510  1182  919  748  597  432  267  75  -173  -441  -664  -826  -938  -999  -1023  -1052  -1134  -1272  -1405  -1462  -1415  -1295  -1159  -1052  -978  -922  -878  -845  -809  -761  -710  -666  -634  -618  -631  -691  -800  -920  -992  -974  -858  -694  -577  -586  -738  -971  -1166  -1248  -1197  -1013  -764  -573  -507  -543  -635  -736  -810  -852  -879  -919  -995  -1093  -1167  -1197  -1197  -1166  -1090  -984  -903  -874  -883  -906  -917  -903  -871  -841  -825  -826  -858  -937  -1044  -1128  -1157  -1121  -1017  -880  -779  -743  -748  -765  -784  -791  -757  -653  -501  -364  -279  -239  -222  -209  -186  -155  -132  -133  -159  -210  -289  -396  -530  -681  -819  -910  -944  -940  -924  -905  -879  -842  -801  -769  -772  -830  -915  -987  -1041  -1088  -1121  -1127  -1094  -1033  -974  -882  -585  128  1377  3112  5054  6680  7438  7105  5821  3896  1805  89  -1000  -1546  -1685  -1585  -1460  -1368  -1236  -1051  -865  -715  -600  -506  -427  -366  -322  -287  -261  -240  -202  -132  -31  79  173  252  328  402  463  529  640  824  1045  1239  1389  1529  1681  1814  1892  1934  1992  2089  2220  2372  2527  2665  2777  2875  2980  3082  3145  3152  3107  3013  2867  2666  2415  2132  1852  1599  1360  1145  988  862  666  342  -71  -481  -778  -908  -901  -816  -709  -631  -618  -701  -884  -1100  -1237  -1227  -1076  -870  -724  -679  -689  -707  -716  -722  -733  -743  -741  -729  -738  -778  -822  -847  -855  -853  -847  -843  -843  -845  -838  -804  -742  -661  -572  -499  -465  -475  -521  -589  -659  -712  -740  -746  -740  -735  -736  -747  -768  -802  -869  -990  -1138  -1244  -1279  -1256  -1184  -1062  -907  -755  -650  -604  -597  -606  -625  -656  -697  -738  -767  -777  -778  -778  -783  -793  -800  -803  -803  -803  -801  -789  -761  -724  -693  -671  -634  -557  -457  -384  -353  -344  -341  -343  -338  -289  -160  15  153  210  186  68  -152  -418  -646  -793  -860  -876  -866  -845  -819  -799  -791  -792  -799  -811  -819  -807  -760  -688  -636  -669  -833  -1086  -1312  -1406  -1286  -854  -6  1333  3122  5075  6646  7343  7032  5802  3916  1872  121  -1131  -1806  -1932  -1688  -1324  -1052  -923  -846  -740  -618  -530  -504  -524  -561  -594  -583  -461  -200  117  344  413  382  334  335  413  536  643  706  733  735  731  764  901  1174  1501  1729  1811  1839  1916  2070  2262  2462  2659  2822  2923  2972  2990  2989  2988  3002  3024  3016  2946  2807  2602  2323  1962  1566  1243  1049  919  762  529  206  -150  -429  -580  -647  -683  -711  -740  -771  -795  -819  -867  -935  -998  -1053  -1100  -1129  -1129  -1115  -1100  -1091  -1086  -1083  -1083  -1076  -1042  -973  -885  -806  -757  -745  -761  -786  -800  -792  -773  -757  -752  -747  -729  -702  -701  -757  -860  -985  -1104  -1165  -1152  -1095  -1018  -931  -857  -813  -792  -787  -808  -852  -897  -925  -931  -926  -922  -934  -970  -1012  -1028  -1011  -991  -993  -1006  -1017  -1028  -1042  -1040  -999  -926  -863  -835  -833  -839  -841  -841  -839  -839  -844  -860  -878  -874  -829  -749  -671  -625  -605  -589  -573  -561  -532  -450  -302  -132  -12  25  12  -7  -27  -68  -145  -254  -382  -507  -603  -674  -741  -802  -847  -867  -868  -862  -862  -879  -904  -910  -893  -884  -914  -988  -1066  -1105  -1093  -1045  -976  -819  -417  351  1507  2992  4660  6193  7117  7104  6119  4335  2156  165  -1222  -1956  -2174  -1987  -1518  -1008  -694  -611  -645  -705  -760  -799  -806  -753  -622  -456  -324  -228  -118  18  147  254  336  383  392  381  375  407  501  643  790  905  989  1087  1239  1442  1665  1891  2140  2427  2703  2883  2957  2995  3064  3170  3268  3312  3296  3235  3150  3064  2988  2910  2810  2670  2453  2110  1662  1237  933  724  505  201  -141  -404  -543  -616  -681  -742  -789  -824  -867  -937  -1027  -1111  -1172  -1213  -1239  -1251  -1250  -1220  -1141  -1023  -897  -790  -722  -681  -639  -585  -547  -587  -734  -918  -1026  -1016  -943  -881  -859  -860  -867  -873  -875  -862  -820  -761  -713  -695  -714  -777  -871  -951  -972  -917  -810  -710  -670  -699  -763  -823  -870  -911  -945  -971  -986  -982  -961  -941  -928  -913  -874  -803  -737  -741  -829  -953  -1053  -1100  -1090  -1039  -970  -904  -847  -799  -771  -765  -771  -774  -752  -687  -601  -540  -518  -509  -483  -431  -357  -283  -239  -233  -256  -288  -312  -319  -306  -271  -227  -194  -186  -196  -219  -250  -278  -294  -302  -325  -394  -527  -707  -867  -952  -967  -947  -911  -874  -862  -891  -948  -1000  -1035  -1078  -1138  -1144  -986  -584  116  1211  2762  4629  6393  7463  7396  6174  4155  1921  95  -1039  -1629  -1881  -1860  -1638  -1342  -1052  -805  -656  -611  -625  -654  -673  -641  -508  -269  -3  182  260  283  300  317  324  318  309  318  370  489  674  882  1039  1116  1178  1332  1600  1881  2070  2165  2226  2294  2379  2481  2603  2743  2889  3036  3199  3365  3473  3477  3394  3265  3126  2981  2786  2524  2245  2002  1795  1598  1354  998  571  218  9  -98  -183  -324  -579  -903  -1177  -1337  -1414  -1456  -1476  -1467  -1419  -1341  -1263  -1211  -1187  -1170  -1123  -1011  -861  -752  -715  -714  -713  -705  -699  -704  -730  -795  -902  -1018  -1106  -1143  -1107  -985  -820  -698  -661  -688  -761  -872  -993  -1077  -1105  -1089  -1042  -979  -928  -910  -921  -932  -923  -904  -905  -940  -982  -981  -919  -826  -751  -724  -742  -790  -868  -965  -1048  -1104  -1139  -1169  -1200  -1215  -1193  -1145  -1097  -1066  -1054  -1051  -1049  -1031  -972  -875  -765  -660  -573  -519  -500  -502  -510  -513  -496  -446  -360  -248  -138  -65  -42  -52  -76  -110  -171  -278  -426  -574  -669  -700  -705  -715  -731  -748  -774  -815  -856  -893  -931  -966  -986  -988  -979  -967  -954  -929  -866  -781  -767  -877  -992  -870  -299  813  2400  4248  5998  7172  7353  6423  4575  2259  135  -1246  -1764  -1675  -1361  -1115  -1030  -1045  -1078  -1071  -992  -833  -617  -395  -234  -163  -148  -136  -106  -64  -24  9  38  60  102  211  391  578  699  741  744  775  895  1097  1313  1478  1578  1646  1731  1874  2125  2513  2941  3233  3342  3374  3431  3517  3594  3635  3630  3546  3350  3062  2775  2582  2474  2368  2179  1846  1391  955  667  478  261  1  -215  -367  -528  -715  -857  -913  -930  -986  -1107  -1252  -1368  -1432  -1451  -1440  -1416  -1384  -1320  -1206  -1065  -950  -890  -879  -899  -930  -947  -933  -899  -864  -840  -832  -839  -851  -857  -859  -866  -892  -946  -1011  -1034  -976  -870  -769  -699  -661  -644  -638  -652  -712  -817  -921  -981  -995  -987  -977  -972  -970  -965  -962  -977  -1030  -1120  -1207  -1249  -1227  -1147  -1019  -865  -736  -689  -735  -821  -873  -859  -809  -766  -745  -734  -731  -742  -760  -774  -775  -762  -742  -714  -663  -573  -463  -370  -305  -247  -178  -97  -19  37  62  42  -56  -247  -491  -747  -978  -1135  -1185  -1143  -1054  -973  -933  -930  -938  -929  -883  -815  -753  -724  -758  -898  -1142  -1406  -1561  -1495  -1153  -562  223  1295  2772  4516  6128  7096  7007  5806  3806  1557  -320  -1482  -1997  -2115  -2011  -1759  -1439  -1127  -858  -661  -552  -504  -484  -484  -485  -462  -403  -321  -232  -154  -97  -54  -12  36  113  243  402  524  575  586  617  711  888  1125  1357  1528  1654  1798  2003  2275  2590  2892  3098  3180  3183  3178  3201  3246  3281  3285  3262  3231  3202  3146  3031  2875  2727  2581  2367  2042  1616  1147  722  389  136  -39  -143  -227  -367  -566  -761  -902  -987  -1029  -1042  -1046  -1062  -1098  -1139  -1164  -1160  -1122  -1064  -1017  -987  -967  -954  -947  -948  -952  -957  -963  -969  -969  -940  -861  -756  -675  -648  -662  -698  -737  -762  -761  -728  -666  -600  -562  -581  -673  -817  -961  -1063  -1110  -1110  -1093  -1081  -1072  -1058  -1032  -993  -944  -897  -878  -896  -923  -930  -911  -892  -902  -946  -996  -1029  -1044  -1045  -1028  -972  -869  -746  -644  -593  -591  -622  -664  -695  -694  -646  -557  -449  -337  -217  -96  0  61  87  79  40  -16  -73  -121  -162  -198  -230  -283  -380  -511  -644  -769  -881  -957  -989  -996  -992  -975  -939  -889  -840  -806  -797  -814  -837  -827  -791  -784  -768  -501  336  1862  3854  5833  7215  7518  6622  4783  2493  381  -1051  -1694  -1761  -1551  -1309  -1138  -1009  -862  -705  -590  -538  -518  -497  -463  -424  -389  -342  -245  -96  52  153  209  259  340  447  541  601  638  673  727  807  917  1068  1241  1405  1590  1856  2182  2481  2721  2945  3167  3324  3377  3357  3311  3267  3235  3221  3220  3204  3135  3012  2864  2717  2590  2496  2406  2236  1911  1448  942  492  148  -77  -209  -320  -479  -688  -898  -1082  -1236  -1343  -1394  -1408  -1416  -1430  -1439  -1429  -1397  -1350  -1302  -1262  -1216  -1154  -1100  -1079  -1101  -1153  -1207  -1235  -1225  -1179  -1118  -1052  -965  -876  -835  -873  -981  -1101  -1179  -1216  -1239  -1255  -1256  -1249  -1231  -1197  -1159  -1141  -1170  -1245  -1332  -1399  -1436  -1451  -1441  -1398  -1329  -1266  -1240  -1257  -1296  -1332  -1354  -1361  -1350  -1315  -1269  -1229  -1197  -1161  -1119  -1075  -1034  -997  -954  -889  -807  -736  -695  -684  -687  -687  -673  -649  -634  -657  -733  -837  -910  -934  -936  -951  -985  -1020  -1040  -1043  -1041  -1049  -1074  -1114  -1155  -1182  -1191  -1189  -1189  -1207  -1266  -1375  -1503  -1588  -1587  -1487  -1263  -841  -60  1281  3186  5282  6928  7538  6930  5336  3191  1060  -554  -1527  -2023  -2158  -1995  -1688  -1399  -1154  -938  -782  -686  -614  -541  -476  -431  -383  -290  -142  11  120  171  184  183  190  237  349  512  666  752  777  799  874  1009  1166  1324  1523  1797  2097  2311  2397  2418  2459  2566  2753  3008  3270  3445  3506  3500  3469  3420  3335  3192  2980  2718  2442  2195  1999  1811  1558  1218  833  475  205  45  -50  -155  -295  -444  -589  -739  -886  -997  -1050  -1059  -1053  -1042  -1022  -994  -975  -973  -981  -991  -1005  -1019  -1026  -1019  -1006  -998  -996  -986  -950  -892  -851  -849  -872  -891  -894  -890  -889  -891  -902  -922  -939  -945  -950  -957  -965  -965  -946  -902  -851  -818  -808  -810  -810  -810  -821  -855  -909  -976  -1054  -1129  -1175  -1178  -1145  -1076  -978  -885  -831  -813  -799  -766  -695  -573  -429  -325  -291  -312  -357  -399  -422  -435  -459  -508  -592  -704  -810  -876  -894  -881  -857  -835  -826  -833  -851  -869  -888  -910  -938  -978  -1007  -1008  -997  -1034  -1144  -1235  -1232  -1154  -915  -268  985  2794  4813  6466  7169  6699  5341  3546  1701  144  -968  -1680  -2030  -2047  -1853  -1588  -1312  -1021  -718  -462  -310  -252  -231  -213  -195  -181  -164  -126  -63  5  50  66  89  168  312  466  573  658  795  1011  1249  1425  1513  1557  1614  1705  1833  1995  2185  2400  2640  2866  3015  3081  3101  3111  3124  3138  3155  3188  3230  3234  3134  2919  2659  2426  2206  1945  1626  1274  907  549  258  53  -108  -282  -485  -687  -843  -934  -982  -1013  -1043  -1082  -1128  -1168  -1191  -1198  -1200  -1202  -1202  -1181  -1129  -1062  -1016  -1009  -1025  -1028  -1002  -966  -935  -905  -864  -805  -739  -705  -729  -791  -852  -887  -897  -895  -883  -853  -811  -781  -792  -855  -948  -1032  -1090  -1123  -1118  -1076  -1025  -987  -955  -919  -879  -848  -825  -796  -755  -711  -677  -654  -635  -613  -579  -514  -419  -330  -283  -276  -297  -347  -442  -602  -830  -1059  -1196  -1214  -1155  -1076  -1022  -1007  -1022  -1063  -1123  -1187  -1235  -1255  -1253  -1240  -1230  -1229  -1240  -1274  -1321  -1334  -1282  -1115  -675  214  1632  3457  5313  6640  6942  6090  4346  2201  254  -1068  -1740  -1971  -1949  -1775  -1505  -1223  -1013  -909  -882  -873  -838  -765  -667  -576  -521  -496  -471  -433  -392  -358  -326  -291  -236  -134  15  178  325  440  510  539  575  701  954  1263  1502  1618  1666  1742  1915  2166  2407  2569  2650  2691  2733  2787  2843  2887  2904  2870  2757  2577  2370  2168  1977  1801  1615  1355  1013  658  344  72  -179  -435  -686  -885  -1005  -1064  -1086  -1088  -1087  -1095  -1122  -1176  -1250  -1307  -1308  -1244  -1138  -1036  -981  -990  -1046  -1112  -1164  -1185  -1172  -1152  -1141  -1120  -1066  -974  -871  -805  -793  -812  -828  -822  -802  -778  -753  -723  -701  -709  -755  -817  -870  -903  -925  -944  -937  -880  -798  -740  -719  -706  -687  -679  -691  -699  -674  -607  -507  -397  -314  -266  -241  -228  -227  -239  -263  -293  -328  -373  -425  -485  -567  -675  -774  -835  -871  -911  -961  -1012  -1055  -1086  -1091  -1060  -1007  -986  -1042  -1145  -1234  -1292  -1325  -1329  -1286  -1166  -946  -600  4  1076  2664  4560  6329  7377  7290  6093  4121  1927  133  -970  -1494  -1644  -1560  -1333  -1077  -913  -863  -866  -864  -842  -795  -716  -614  -528  -467  -412  -362  -327  -285  -191  -40  110  216  273  296  314  372  488  635  770  877  956  1027  1137  1312  1524  1735  1938  2120  2256  2353  2447  2545  2634  2711  2798  2908  3013  3068  3059  2976  2793  2512  2193  1884  1590  1326  1102  883  641  393  133  -157  -436  -638  -766  -865  -974  -1102  -1217  -1282  -1291  -1270  -1241  -1204  -1150  -1091  -1055  -1055  -1087  -1133  -1171  -1191  -1190  -1163  -1106  -1028  -947  -886  -854  -845  -851  -867  -881  -881  -867  -849  -833  -819  -810  -807  -816  -845  -880  -892  -856  -787  -735  -736  -783  -860  -945  -1003  -1022  -1020  -1015  -1006  -987  -964  -945  -921  -874  -811  -762  -741  -743  -753  -752  -722  -658  -574  -499  -459  -460  -490  -517  -511  -475  -448  -461  -517  -605  -706  -793  -859  -921  -979  -1016  -1030  -1038  -1047  -1056  -1061  -1063  -1065  -1061  -1044  -1026  -1023  -1039  -1067  -1121  -1197  -1190  -886  -85  1269  3059  5002  6632  7432  7129  5851  3941  1852  129  -936  -1447  -1571  -1437  -1235  -1103  -1031  -946  -831  -725  -659  -621  -595  -584  -582  -554  -464  -315  -154  -17  72  126  186  281  384  454  514  624  782  924  1014  1065  1110  1186  1308  1460  1628  1808  1990  2160  2311  2470  2690  2948  3139  3202  3183  3139  3081  3003  2913  2815  2709  2601  2487  2310  2011  1621  1237  923  694  529  355  106  -212  -516  -709  -795  -857  -945  -1032  -1088  -1120  -1140  -1149  -1146  -1139  -1137  -1140  -1146  -1155  -1161  -1160  -1150  -1131  -1096  -1036  -962  -903  -872  -861  -855  -842  -836  -859  -904  -947  -964  -950  -921  -894  -871  -852  -841  -841  -851  -865  -884  -905  -922  -931  -929  -919  -909  -905  -909  -924  -956  -1000  -1046  -1087  -1103  -1082  -1044  -1019  -1012  -1014  -1018  -1011  -979  -914  -837  -782  -756  -745  -734  -717  -701  -698  -715  -752  -787  -785  -738  -668  -590  -502  -401  -304  -237  -203  -193  -213  -285  -402  -512  -576  -617  -679  -780  -896  -992  -1050  -1071  -1057  -1008  -940  -884  -863  -884  -953  -1057  -1163  -1248  -1304  -1314  -1243  -1118  -987  -772  -259  731  2253  4150  5998  7222  7394  6443  4601  2334  284  -1077  -1690  -1723  -1435  -1093  -852  -765  -793  -839  -855  -843  -809  -749  -655  -528  -389  -267  -173  -95  -14  80  176  241  265  273  296  355  443  535  627  724  811  881  969  1127  1368  1633  1848  1999  2118  2226  2326  2437  2584  2773  2973  3133  3220  3234  3187  3086  2961  2856  2788  2715  2560  2286  1963  1691  1473  1236  926  550  188  -77  -256  -407  -554  -692  -816  -918  -993  -1055  -1128  -1209  -1264  -1263  -1197  -1090  -974  -869  -780  -718  -684  -675  -683  -697  -712  -727  -737  -740  -738  -730  -718  -697  -664  -635  -636  -666  -696  -703  -685  -655  -634  -638  -681  -756  -835  -892  -914  -877  -760  -600  -483  -460  -518  -621  -729  -826  -912  -979  -1015  -1022  -1018  -1007  -990  -969  -952  -939  -924  -908  -898  -895  -893  -892  -896  -908  -920  -910  -867  -811  -768  -740  -714  -691  -682  -691  -709  -719  -709  -679  -639  -597  -550  -504  -477  -473  -468  -434  -352  -227  -95  -5  24  -3  -78  -179  -288  -408  -557  -709  -808  -830  -792  -722  -653  -609  -589  -581  -581  -587  -602  -644  -733  -845  -924  -954  -964  -982  -1007  -1034  -1059  -1055  -990  -802  -321  649  2146  4006  5866  7141  7328  6361  4537  2327  319  -1050  -1732  -1887  -1694  -1359  -1065  -873  -762  -714  -711  -724  -721  -670  -566  -441  -343  -294  -272  -222  -97  83  239  317  330  321  324  358  419  491  574  694  876  1096  1277  1377  1431  1528  1731  2005  2263  2469  2632  2778  2932  3087  3204  3267  3290  3284  3252  3192  3109  3007  2889  2759  2614  2435  2202  1888  1490  1075  749  540  369  160  -88  -338  -532  -638  -683  -731  -818  -941  -1053  -1097  -1052  -957  -876  -843  -855  -898  -954  -1000  -1031  -1050  -1045  -998  -912  -843  -847  -887  -875  -804  -737  -712  -716  -724  -726  -729  -747  -779  -802  -796  -767  -728  -681  -634  -611  -626  -666  -711  -750  -783  -813  -839  -859  -871  -879  -887  -894  -903  -931  -988  -1049  -1067  -1014  -917  -834  -791  -779  -783  -794  -809  -830  -862  -896  -912  -904  -887  -875  -860  -836  -814  -813  -831  -850  -860  -866  -870  -864  -838  -800  -766  -743  -710  -648  -552  -441  -340  -270  -227  -191  -151  -111  -87  -88  -114  -152  -182  -202  -236  -318  -461  -620  -733  -782  -793  -789  -773  -761  -768  -792  -825  -861  -892  -918  -954  -1003  -1049  -1075  -1086  -1098  -1104  -1083  -1041  -974  -756  -141  1034  2701  4590  6265  7191  7024  5817  3871  1647  -280  -1544  -2125  -2165  -1863  -1450  -1109  -927  -871  -852  -824  -789  -749  -698  -632  -555  -483  -428  -381  -323  -251  -167  -54  101  279  430  526  580  632  720  847  972  1061  1133  1235  1393  1592  1807  2017  2203  2350  2459  2550  2667  2862  3106  3301  3402  3433  3419  3383  3356  3348  3328  3229  3011  2687  2323  1989  1699  1423  1177  982  768  450  79  -196  -338  -441  -580  -737  -863  -943  -991  -1022  -1043  -1062  -1089  -1116  -1127  -1109  -1051  -965  -867  -772  -703  -679  -704  -764  -824  -849  -826  -770  -716  -690  -681  -676  -674  -681  -699  -720  -732  -734  -735  -745  -763  -783  -806  -842  -897  -955  -990  -986  -949  -903  -860  -820  -792  -784  -797  -834  -882  -918  -932  -923  -890  -837  -785  -753  -739  -740  -768  -818  -863  -881  -883  -879  -864  -837  -813  -811  -813  -794  -776  -794  -839  -875  -885  -876  -859  -835  -810  -795  -783  -753  -712  -683  -665  -640  -584  -489  -378  -292  -239  -196  -151  -117  -103  -104  -117  -140  -170  -205  -282  -452  -681  -860  -932  -933  -918  -910  -917  -941  -975  -999  -1002  -987  -964  -947  -955  -997  -1067  -1138  -1166  -1108  -989  -865  -677  -229  710  2242  4169  6011  7191  7308  6330  4541  2423  526  -786  -1468  -1678  -1612  -1414  -1165  -914  -701  -573  -538  -549  -560  -558  -543  -518  -484  -440  -367  -253  -126  -36  12  66  168  301  413  479  506  521  574  736  1018  1335  1600  1793  1940  2077  2239  2425  2597  2730  2852  2987  3119  3222  3284  3308  3307  3287  3248  3204  3176  3168  3151  3083  2923  2663  2342  2025  1743  1475  1194  897  600  331  98  -128  -366  -598  -808  -973  -1066  -1089  -1079  -1064  -1066  -1099  -1159  -1214  -1247  -1259  -1260  -1245  -1190  -1082  -964  -909  -950  -1047  -1139  -1194  -1215  -1203  -1143  -1035  -910  -811  -757  -741  -752  -784  -823  -860  -902  -951  -994  -1017  -1013  -972  -905  -832  -775  -749  -780  -887  -1031  -1136  -1168  -1155  -1129  -1103  -1078  -1065  -1072  -1085  -1089  -1082  -1068  -1052  -1027  -987  -960  -976  -1013  -1033  -1033  -1032  -1051  -1092  -1115  -1070  -974  -883  -816  -777  -783  -847  -947  -1027  -1016  -865  -614  -389  -292  -304  -335  -333  -308  -287  -273  -252  -218  -174  -128  -98  -86  -88  -125  -240  -425  -602  -702  -733  -750  -796  -861  -894  -879  -860  -872  -888  -882  -870  -878  -920  -994  -1075  -1138  -1188  -1196  -1102  -870  -459  225  1308  2824  4598  6209  7108  6910  5645  3685  1564  -188  -1300  -1839  -2006  -1908  -1585  -1166  -841  -690  -653  -620  -540  -440  -366  -321  -292  -272  -254  -235  -212  -156  -29  135  254  292  295  319  378  459  549  643  759  929  1158  1413  1663  1888  2063  2177  2244  2276  2297  2374  2587  2924  3248  3437  3493  3479  3433  3352  3225  3067  2926  2827  2746  2631  2425  2100  1704  1326  1013  745  461  128  -194  -410  -501  -538  -599  -719  -878  -1037  -1166  -1249  -1286  -1300  -1320  -1360  -1405  -1416  -1366  -1259  -1128  -1019  -967  -979  -1029  -1060  -1037  -989  -954  -938  -933  -932  -933  -938  -949  -961  -968  -957  -922  -866  -815  -786  -776  -783  -795  -795  -788  -800  -843  -904  -958  -996  -1021  -1038  -1051  -1071  -1103  -1144  -1187  -1224  -1252  -1279  -1312  -1346  -1363  -1357  -1329  -1274  -1192  -1101  -1032  -992  -962  -931  -908  -892  -863  -797  -704  -627  -584  -566  -554  -524  -452  -363  -322  -369  -470  -571  -667  -780  -910  -1032  -1119  -1150  -1126  -1090  -1079  -1091  -1095  -1073  -1039  -1014  -998  -984  -978  -991  -1026  -1054  -1056  -1047  -1022  -957  -849  -632  -164  690  1969  3525  5041  6094  6260  5427  3849  1927  159  -1022  -1594  -1807  -1799  -1607  -1340  -1086  -857  -673  -569  -533  -520  -508  -493  -464  -394  -284  -177  -109  -76  -59  -39  2  75  170  260  323  354  386  488  704  1008  1314  1542  1665  1720  1792  1955  2187  2406  2576  2719  2854  2975  3076  3169  3263  3342  3377  3353  3266  3125  2970  2861  2803  2730  2563  2281  1930  1561  1189  837  531  267  53  -108  -261  -455  -672  -848  -941  -968  -958  -928  -881  -826  -792  -795  -828  -885  -959  -1027  -1067  -1080  -1075  -1055  -1027  -1004  -989  -971  -920  -822  -707  -624  -590  -578  -568  -556  -553  -574  -623  -681  -722  -734  -731  -733  -749  -781  -833  -902  -964  -998  -1007  -1003  -981  -929  -852  -772  -715  -677  -655  -663  -704  -758  -802  -830  -843  -845  -828  -783  -721  -662  -594  -493  -375  -295  -287  -325  -375  -425  -468  -500  -535  -596  -698  -817  -911  -959  -973  -976  -977  -978  -981  -982  -971  -939  -884  -825  -788  -784  -814  -878  -989  -1137  -1243  -1228  -1074  -708  13  1187  2762  4492  5930  6565  6161  4890  3129  1333  -76  -931  -1340  -1497  -1489  -1352  -1183  -1056  -959  -865  -759  -636  -515  -425  -381  -382  -422  -474  -503  -493  -440  -337  -179  11  187  317  406  471  529  596  677  756  837  952  1100  1241  1350  1454  1595  1792  2049  2325  2551  2696  2779  2822  2831  2812  2783  2767  2763  2766  2753  2667  2456  2156  1873  1646  1424  1176  906  603  286  26  -148  -295  -469  -657  -802  -882  -914  -929  -948  -975  -1002  -1022  -1040  -1061  -1084  -1101  -1107  -1101  -1087  -1074  -1070  -1072  -1074  -1077  -1081  -1083  -1067  -1015  -926  -829  -762  -736  -733  -729  -717  -700  -683  -669  -663  -680  -729  -795  -841  -840  -792  -723  -674  -667  -702  -765  -848  -942  -1022  -1047  -1002  -921  -857  -823  -795  -760  -729  -712  -698  -675  -643  -610  -564  -487  -397  -337  -318  -322  -345  -394  -459  -511  -533  -534  -537  -568  -650  -773  -888  -947  -958  -963  -982  -1005  -1020  -1025  -1023  -1019  -1016  -1026  -1060  -1115  -1163  -1178  -1141  -1056  -959  -786  -266  871  2610  4610  6300  7113  6848  5712  4031  2160  505  -682  -1393  -1670  -1578  -1292  -1018  -848  -768  -734  -710  -682  -654  -620  -577  -531  -490  -458  -440  -423  -378  -292  -192  -115  -57  12  101  196  310  480  692  888  1025  1108  1186  1317  1501  1674  1782  1841  1908  2011  2129  2232  2335  2469  2622  2744  2803  2799  2743  2651  2542  2439  2352  2236  2017  1689  1334  1037  829  663  427  68  -308  -564  -685  -747  -812  -908  -1034  -1157  -1234  -1256  -1250  -1241  -1245  -1263  -1284  -1292  -1274  -1221  -1147  -1071  -1004  -954  -932  -940  -970  -1011  -1050  -1073  -1070  -1027  -939  -825  -719  -652  -625  -618  -617  -628  -674  -760  -869  -971  -1033  -1048  -1036  -1021  -1008  -992  -967  -931  -894  -872  -872  -884  -902  -930  -961  -976  -956  -911  -866  -841  -838  -847  -856  -842  -779  -664  -523  -391  -303  -274  -293  -337  -389  -449  -525  -615  -696  -754  -797  -830  -851  -865  -891  -935  -987  -1040  -1083  -1107  -1112  -1109  -1109  -1117  -1134  -1151  -1162  -1167  -1177  -1202  -1242  -1242  -1040  -426  735  2424  4383  6107  7065  6999  5987  4297  2296  411  -1024  -1893  -2227  -2127  -1762  -1339  -1008  -806  -709  -682  -688  -686  -644  -562  -479  -426  -395  -364  -324  -282  -232  -172  -116  -68  -4  89  196  305  430  592  776  935  1034  1071  1087  1145  1296  1553  1866  2154  2383  2564  2700  2800  2887  2963  3008  3014  2985  2932  2879  2835  2770  2637  2433  2188  1909  1611  1335  1083  798  444  65  -264  -493  -602  -619  -615  -650  -741  -872  -1019  -1160  -1279  -1358  -1392  -1398  -1396  -1388  -1355  -1277  -1176  -1103  -1077  -1079  -1090  -1101  -1108  -1110  -1105  -1092  -1070  -1045  -1029  -1028  -1033  -1032  -1025  -1017  -1004  -982  -955  -941  -944  -951  -951  -952  -962  -984  -1009  -1031  -1049  -1063  -1067  -1061  -1041  -1014  -992  -984  -1002  -1057  -1133  -1188  -1187  -1128  -1040  -960  -907  -878  -865  -864  -865  -867  -874  -884  -883  -832  -704  -537  -412  -361  -349  -324  -275  -224  -184  -156  -148  -198  -344  -545  -698  -758  -755  -733  -712  -701  -698  -700  -699  -696  -695  -713  -764  -840  -900  -925  -927  -931  -951  -985  -1003  -977  -884  -685  -308  394  1606  3333  5239  6747  7364  6931  5598  3702  1724  135  -885  -1422  -1585  -1455  -1174  -918  -778  -732  -727  -737  -742  -722  -659  -569  -482  -399  -287  -146  -24  42  72  107  155  209  280  378  485  581  663  722  752  774  849  1045  1340  1634  1866  2061  2234  2360  2433  2485  2561  2686  2847  2993  3088  3130  3132  3111  3066  2981  2847  2678  2486  2261  1993  1708  1441  1196  950  690  427  199  37  -76  -192  -339  -502  -647  -748  -808  -853  -908  -977  -1043  -1084  -1092  -1079  -1057  -1038  -1034  -1038  -1024  -964  -859  -744  -657  -617  -613  -620  -612  -580  -535  -502  -505  -545  -602  -643  -651  -633  -608  -612  -656  -706  -733  -741  -739  -725  -690  -644  -617  -628  -665  -700  -717  -719  -725  -751  -787  -814  -824  -828  -828  -814  -772  -713  -668  -654  -663  -685  -716  -753  -791  -812  -811  -799  -785  -758  -704  -642  -607  -604  -608  -601  -589  -577  -555  -498  -385  -238  -123  -74  -70  -77  -86  -105  -140  -183  -227  -276  -348  -454  -589  -728  -844  -919  -954  -969  -977  -983  -990  -998  -1002  -992  -967  -937  -916  -909  -916  -961  -1086  -1255  -1316  -1111  -581  293  1545  3148  4921  6444  7174  6792  5351  3244  1112  -468  -1318  -1599  -1526  -1272  -1029  -921  -916  -937  -947  -932  -874  -773  -649  -535  -450  -384  -322  -273  -242  -219  -199  -182  -154  -83  61  268  471  611  689  743  813  908  1000  1063  1139  1310  1606  1933  2165  2293  2395  2505  2592  2645  2700  2802  2946  3087  3188  3241  3237  3169  3039  2864  2662  2438  2187  1909  1604  1267  898  520  197  -23  -174  -323  -513  -726  -897  -970  -964  -941  -948  -986  -1043  -1104  -1141  -1121  -1028  -900  -808  -790  -827  -882  -921  -936  -936  -921  -889  -850  -834  -855  -893  -913  -899  -868  -843  -837  -844  -846  -845  -860  -886  -906  -902  -862  -792  -721  -673  -654  -650  -650  -653  -677  -743  -840  -920  -943  -926  -908  -913  -945  -983  -1003  -1015  -1019  -996  -958  -924  -895  -875  -868  -868  -867  -854  -828  -801  -792  -808  -833  -846  -828  -772  -697  -636  -605  -597  -595  -587  -585  -601  -613  -580  -497  -397  -317  -260  -209  -156  -98  -38  10  34  -1  -145  -398  -683  -908  -1018  -999  -871  -698  -568  -521  -545  -631  -761  -883  -954  -979  -989  -1007  -1034  -1053  -1055  -1036  -1009  -993  -923  -616  125  1376  3039  4850  6397  7201  6964  5739  3832  1692  -166  -1400  -1992  -2095  -1858  -1444  -1033  -748  -623  -653  -814  -1033  -1190  -1175  -944  -570  -232  -51  -1  -15  -75  -164  -229  -225  -137  9  156  258  311  352  432  571  743  921  1111  1314  1491  1622  1760  1946  2140  2313  2512  2752  2962  3081  3120  3124  3124  3132  3139  3131  3082  2950  2718  2436  2170  1944  1758  1607  1445  1211  902  578  276  -16  -306  -553  -721  -829  -917  -991  -1047  -1096  -1151  -1204  -1246  -1273  -1285  -1280  -1255  -1200  -1112  -1019  -959  -941  -946  -961  -977  -984  -962  -902  -827  -774  -763  -792  -849  -911  -959  -985  -997  -1000  -1002  -1000  -976  -908  -799  -689  -625  -623  -687  -804  -926  -1002  -1021  -1004  -960  -904  -865  -863  -899  -955  -1004  -1030  -1033  -1018  -993  -965  -932  -888  -848  -831  -848  -900  -967  -1022  -1059  -1075  -1063  -1031  -1003  -991  -988  -985  -980  -980  -994  -1016  -1029  -1022  -983  -901  -795  -693  -593  -483  -403  -389  -408  -425  -447  -465  -476  -523  -662  -873  -1070  -1185  -1226  -1235  -1242  -1248  -1249  -1247  -1245  -1240  -1226  -1203  -1177  -1158  -1162  -1202  -1273  -1357  -1435  -1474  -1463  -1423  -1314  -996  -289  961  2762  4804  6485  7213  6736  5213  3096  985  -630  -1602  -2025  -2060  -1879  -1620  -1365  -1173  -1058  -985  -927  -885  -856  -823  -771  -707  -650  -609  -571  -507  -417  -322  -223  -101  36  155  232  274  300  344  471  727  1053  1321  1462  1522  1579  1665  1784  1943  2133  2358  2638  2955  3221  3360  3397  3398  3389  3361  3312  3256  3195  3104  2943  2721  2490  2259  2008  1735  1440  1127  820  525  222  -71  -304  -448  -530  -595  -673  -771  -878  -980  -1068  -1140  -1186  -1195  -1168  -1112  -1036  -955  -879  -817  -779  -764  -761  -757  -746  -731  -714  -694  -662  -612  -548  -477  -417  -383  -370  -356  -315  -246  -165]
