reading_id,reading_time,wire_id,result_classification,heart_rate,heart_rate_alert,firmware_version,device_app_version,hardware_version,waveform_samples
f2fb2cb0-6954-11ed-8080-808080808080,Mon Nov 21 04:28:29 UTC 2022,2101e3b12739,NSR,57,NONE,20001.171.50,2.10.0,Charge 5,[6850  6955  6847  6315  5347  4172  3071  2192  1374  296  -1018  -2168  -2992  -3771  -4691  -5572  -6185  -6543  -6838  -7215  -7662  -8085  -8407  -8619  -8753  -8843  -8874  -8750  -8371  -7832  -7403  -7218  -7147  -7028  -6873  -6791  -6754  -6562  -6068  -5373  -4734  -4325  -4166  -4233  -4517  -4935  -5325  -5626  -5921  -6230  -6462  -6599  -6741  -6975  -7302  -7691  -8111  -8470  -8608  -8422  -7971  -7477  -7151  -7029  -7042  -7174  -7460  -7829  -8117  -8242  -8273  -8326  -8465  -8674  -8887  -9065  -9206  -9315  -9391  -9431  -9437  -9419  -9393  -9411  -9557  -9867  -10226  -10466  -10535  -10508  -10461  -10412  -10369  -10342  -10333  -10331  -10335  -10360  -10417  -10511  -10658  -10846  -11005  -11081  -11097  -11092  -11090  -11091  -11076  -11013  -10893  -10740  -10597  -10518  -10525  -10575  -10612  -10616  -10602  -10591  -10574  -10535  -10478  -10421  -10374  -10317  -10200  -10016  -9844  -9752  -9732  -9741  -9770  -9829  -9901  -9943  -9929  -9827  -9584  -9220  -8848  -8565  -8398  -8300  -8186  -8023  -7872  -7808  -7868  -8029  -8149  -8029  -7642  -7076  -6306  -5209  -3701  -1853  -3  1341  1798  1295  50  -1585  -3203  -4445  -5178  -5412  -5196  -4715  -4226  -3839  -3542  -3301  -3045  -2706  -2332  -2059  -1936  -1885  -1810  -1678  -1502  -1284  -1020  -764  -588  -482  -393  -310  -238  -155  -22  176  423  713  1027  1267  1384  1438  1478  1529  1643  1841  2058  2206  2271  2313  2400  2571  2830  3126  3379  3565  3744  3940  4095  4162  4174  4202  4302  4472  4662  4811  4901  4948  4976  4988  4978  4952  4911  4830  4681  4480  4285  4111  3897  3607  3297  3050  2897  2808  2736  2670  2623  2600  2583  2543  2486  2473  2537  2625  2676  2697  2717  2739  2747  2725  2652  2518  2383  2352  2470  2655  2774  2789  2759  2721  2652  2518  2351  2232  2207  2258  2329  2380  2414  2467  2540  2594  2596  2549  2486  2460  2506  2617  2738  2800  2790  2753  2728  2717  2711  2708  2734  2822  2967  3111  3206  3241  3224  3177  3142  3161  3239  3332  3399  3441  3471  3498  3538  3617  3739  3875  3976  4015  3998  3945  3853  3711  3552  3450  3430  3453  3464  3433  3359  3268  3195  3154  3143  3146  3148  3154  3175  3206  3226  3228  3214  3196  3182  3175  3168  3136  3051  2913  2742  2570  2488  2537  2595  2533  2371  2216  2151  2176  2220  2247  2299  2399  2494  2515  2442  2327  2260  2286  2372  2459  2510  2526  2528  2501  2393  2182  1910  1638  1379  1131  938  848  856  928  1019  1080  1097  1089  1097  1171  1330  1514  1631  1662  1658  1669  1689  1639  1469  1302  1441  2226  3813  6009  8274  9932  10563  10104  8691  6642  4421  2472  1063  304  243  788  1608  2247  2437  2306  2125  2000  1907  1820  1757  1753  1797  1836  1848  1874  1966  2130  2301  2379  2296  2104  1947  1900  1936  1995  2040  2063  2070  2065  2040  1990  1922  1841  1744  1645  1572  1536  1535  1578  1655  1733  1779  1780  1744  1686  1616  1549  1494  1457  1435  1409  1356  1291  1246  1219  1177  1122  1088  1082  1063  959  740  465  232  79  -23  -138  -352  -715  -1175  -1592  -1867  -2018  -2105  -2155  -2177  -2196  -2255  -2383  -2543  -2654  -2692  -2706  -2745  -2806  -2874  -2979  -3151  -3337  -3454  -3493  -3511  -3564  -3690  -3868  -4021  -4079  -4025  -3894  -3755  -3671  -3655  -3691  -3771  -3893  -4035  -4159  -4264  -4402  -4602  -4813  -4962  -5030  -5045  -5028  -4995  -4967  -4968  -4993  -5014  -5006  -4965  -4893  -4804  -4729  -4691  -4686  -4701  -4723  -4739  -4712  -4600  -4417  -4239  -4121  -4060  -4031  -4015  -3998  -3979  -3965  -3956  -3938  -3906  -3849  -3754  -3644  -3580  -3582  -3624  -3680  -3730  -3775  -3823  -3845  -3803  -3708  -3607  -3526  -3466  -3430  -3405  -3365  -3283  -3162  -3032  -2929  -2841  -2744  -2645  -2562  -2503  -2452  -2367  -2205  -1957  -1691  -1503  -1425  -1409  -1409  -1415  -1419  -1407  -1370  -1298  -1179  -1049  -964  -921  -841  -666  -437  -252  -154  -110  -80  -48  -22  -4  29  108  198  215  120  -22  -122  -152  -150  -146  -137  -94  16  205  431  624  755  845  935  1049  1180  1298  1363  1350  1274  1179  1105  1058  1017  984  969  973  983  966  864  658  424  270  219  224  237  243  244  244  240  224  183  115  44  12  37  101  163  206  239  263  278  335  532  912  1335  1558  1493  1278  1084  936  770  588  453  372  294  193  99  44  22  11  21  73  159  250  335  421  521  636  744  804  796  739  673  578  385  210  446  1404  3030  5044  7073  8724  9737  9909  9026  7119  4682  2456  962  291  238  467  681  746  683  578  494  435  390  353  327  317  326  347  373  399  410  363  218  16  -132  -151  -41  137  313  459  596  707  754  744  721  707  704  701  693  681  682  724  823  956  1073  1150  1188  1205  1211  1208  1211  1271  1461  1789  2141  2379  2471  2473  2422  2316  2181  2085  2073  2134  2224  2292  2313  2279  2186  2057  1933  1812  1654  1461  1296  1200  1123  970  732  486  267  38  -184  -334  -389  -388  -358  -302  -230  -162  -93  -16  28  -23  -176  -347  -451  -483  -484  -477  -461  -433  -401  -374  -349  -314  -284  -308  -390  -464  -471  -404  -306  -233  -205  -200  -189  -160  -116  -88  -138  -295  -488  -634  -710  -704  -630  -526  -407  -315  -298  -340  -394  -433  -453  -460  -462  -466  -476  -479  -446  -362  -250  -162  -153  -246  -419  -608  -736  -779  -767  -729  -677  -615  -519  -346  -112  89  192  216  204  155  48  -94  -213  -280  -311  -324  -328  -328  -321  -298  -272  -283  -344  -398  -379  -311  -297  -397  -544  -667  -764  -835  -876  -904  -926  -927  -897  -860  -844  -840  -827  -822  -856  -915  -939  -891  -790  -685  -608  -558  -518  -491  -509  -585  -678  -740  -763  -773  -792  -817  -845  -876  -902  -920  -949  -1014  -1103  -1182  -1232  -1255  -1256  -1229  -1168  -1085  -1017  -984  -978  -981  -989  -1015  -1066  -1130  -1176  -1178  -1145  -1112  -1100  -1101  -1099  -1086  -1079  -1109  -1180  -1254  -1296  -1298  -1259  -1186  -1088  -970  -847  -747  -690  -676  -705  -784  -890  -967  -973  -903  -791  -696  -642  -622  -645  -715  -806  -882  -934  -975  -1029  -1105  -1189  -1249  -1252  -1174  -995  -765  -598  -571  -667  -820  -971  -1123  -1305  -1501  -1644  -1666  -1487  -991  -28  1498  3494  5690  7699  9000  9167  8114  6029  3412  1079  -326  -789  -729  -590  -607  -720  -741  -663  -605  -596  -580  -509  -365  -125  215  556  751  720  476  142  -93  -134  -7  197  386  527  638  703  698  649  610  607  623  631  636  697  874  1121  1328  1469  1592  1714  1810  1861  1884  1925  2022  2169  2334  2504  2675  2811  2881  2894  2886  2877  2871  2867  2865  2867  2867  2838  2755  2626  2484  2323  2111  1841  1561  1335  1179  1016  754  415  104  -156  -404  -634  -825  -996  -1183  -1384  -1544  -1640  -1701  -1753  -1797  -1836  -1898  -2024  -2186  -2300  -2317  -2251  -2132  -1988  -1854  -1754  -1710  -1723  -1761  -1782  -1757  -1661  -1478  -1233  -995  -838  -791  -813  -838  -840  -824  -797  -753  -676  -569  -453  -348  -257  -177  -113  -77  -70  -75  -65  -16  74  194  343  523  691  794  836  869  918  967  1005  1053  1140  1255  1346  1376  1355  1316  1310  1350  1396  1438  1512  1617  1741  1893  2048  2140  2122  1987  1786  1579  1369  1159  1000  888  749  545  317  130  0  -126  -307  -515  -666  -726  -741  -775  -845  -943  -1056  -1161  -1228  -1265  -1308  -1365  -1410  -1409  -1345  -1246  -1183  -1199  -1263  -1321  -1360  -1409  -1505  -1628  -1712  -1709  -1613  -1471  -1350  -1282  -1260  -1265  -1292  -1337  -1389  -1433  -1448  -1430  -1402  -1396  -1427  -1487  -1558  -1619  -1654  -1653  -1617  -1559  -1504  -1462  -1424  -1393  -1391  -1423  -1454  -1449  -1400  -1334  -1282  -1243  -1195  -1147  -1101  -1029  -920  -797  -688  -614  -577  -559  -541  -520  -507  -503  -482  -414  -295  -143  19  169  282  367  452  527  540  440  228  -28  -247  -426  -595  -730  -784  -719  -512  -236  -35  27  -2  -69  -146  -223  -296  -344  -358  -374  -475  -716  -986  -1003  -469  809  2793  5104  7154  8397  8576  7802  6332  4388  2279  413  -929  -1679  -1825  -1495  -1056  -812  -758  -753  -719  -661  -604  -552  -476  -350  -196  -66  17  73  120  151  161  160  153  147  166  288  576  944  1209  1301  1291  1237  1147  1055  1042  1165  1383  1588  1702  1746  1791  1857  1908  1922  1915  1909  1920  1960  2022  2073  2090  2098  2159  2287  2424  2517  2571  2595  2555  2399  2160  1958  1867  1852  1838  1783  1686  1573  1462  1321  1104  838  616  498  452  388  254  91  -24  -84  -161  -320  -552  -713  -641  -397  -212  -183  -246  -329  -403  -456  -484  -491  -489  -487  -487  -490  -497  -501  -484  -430  -352  -290  -279  -340  -470  -611  -680  -642  -540  -444  -392  -382  -407  -467  -554  -643  -702  -731  -762  -820  -895  -953  -980  -993  -1008  -1023  -1026  -1001  -923  -793  -665  -586  -559  -556  -553  -548  -560  -612  -697  -783  -852  -908  -955  -986  -1008  -1029  -1049  -1079  -1135  -1194  -1227  -1238  -1251  -1273  -1267  -1198  -1092  -1010  -976  -976  -996  -1034  -1089  -1152  -1205  -1243  -1271  -1286  -1272  -1223  -1159  -1118  -1111  -1119  -1130  -1163  -1251  -1395  -1539  -1645  -1698  -1645  -1463  -1227  -1029  -917  -890  -926  -1031  -1218  -1451  -1651  -1759  -1783  -1778  -1798  -1861  -1941  -2011  -2074  -2121  -2142  -2149  -2166  -2192  -2211  -2216  -2221  -2246  -2306  -2393  -2484  -2558  -2594  -2597  -2600  -2624  -2673  -2769  -2927  -3103  -3227  -3274  -3272  -3258  -3249  -3255  -3275  -3296  -3315  -3333  -3344  -3338  -3313  -3271  -3229  -3222  -3264  -3351  -3491  -3675  -3870  -4062  -4258  -4428  -4529  -4564  -4566  -4596  -4778  -5202  -5758  -6222  -6511  -6707  -6859  -6951  -6990  -7024  -7082  -7121  -7017  -6657  -6104  -5511  -4867  -4050  -3098  -2249  -1776  -1716  -1758  -1454  -485  1304  3861  6714  9132  10505  10455  8925  6374  3649  1539  439  257  531  792  924  1115  1524  2121  2737  3189  3407  3466  3476  3525  3735  4208  4899  5639  6237  6548  6549  6325  6025  5807  5746  5839  6097  6534  7110  7727  8285  8693  8881  8843  8625  8340  8137  8058  8004  7884  7725  7621  7592  7555  7417  7191  6986  6866  6766  6592  6344  6085  5797  5372  4788  4211  3820  3604  3383  2997  2474  2004  1723  1603  1553  1504  1404  1208  930  648  436  319  298  411  738  1296  1930  2400  2557  2364  1860  1233  736  450  291  185  115  46  -84  -275  -458  -599  -742  -970  -1311  -1709  -2103  -2493  -2872  -3162  -3298  -3277  -3102  -2798  -2436  -2041  -1572  -1013  -394  194  599  757  766  766  833  970  1123  1224  1275  1335  1422  1486  1542  1659  1745  1639  1427  1359  1649  2420  3479  4327  4596  4230  3404  2539  2049  2005  2207  2383  2293  1938  1583  1418  1408  1442  1438  1348  1160  890  557  206  -77  -229  -282  -351  -504  -683  -800  -867  -984  -1246  -1655  -2107  -2493  -2772  -2965  -3106  -3204  -3264  -3324  -3441  -3655  -3996  -4505  -5159  -5777  -6130  -6113  -5769  -5260  -4776  -4383  -4084  -3915  -3871  -3844  -3709  -3444  -3158  -2969  -2880  -2820  -2740  -2644  -2540  -2341  -1889  -1097  -49  985  1690  1983  2036  2023  2007  1997  1995  2016  2104  2338  2774  3307  3713  3860  3692  3160  2401  1756  1427  1260  926  234  -746  -1859  -2929  -3752  -4219  -4395  -4430  -4444  -4475  -4512  -4538  -4536  -4446  -4190  -3792  -3390  -3103  -2955  -2929  -3003  -3183  -3528  -3987  -4174  -3517  -1688  1109  4205  6856  8518  8874  7925  5941  3329  695  -1273  -2177  -2159  -1741  -1348  -1078  -875  -701  -552  -415  -253  -70  78  184  281  401  573  805  1042  1202  1255  1218  1104  928  718  525  438  579  1026  1682  2294  2675  2843  2903  2910  2877  2829  2765  2603  2269  1856  1560  1456  1486  1585  1714  1853  2037  2350  2813  3317  3705  3893  3900  3770  3549  3325  3184  3124  3080  3022  2972  2941  2892  2762  2526  2242  2016  1937  2036  2265  2507  2650  2644  2489  2228  1938  1673  1442  1229  1003  726  400  109  -15  69  259  406  459  458  445  445  483  571  705  872  1032  1127  1115  986  765  479  113  -294  -610  -749  -761  -734  -716  -701  -657  -585  -568  -675  -852  -994  -1064  -1085  -1086  -1094  -1115  -1132  -1143  -1197  -1352  -1614  -1905  -2124  -2233  -2260  -2254  -2244  -2245  -2275  -2345  -2444  -2548  -2631  -2679  -2702  -2726  -2763  -2818  -2883  -2918  -2877  -2750  -2588  -2470  -2431  -2441  -2464  -2487  -2519  -2591  -2709  -2811  -2805  -2680  -2514  -2388  -2323  -2298  -2279  -2256  -2232  -2204  -2170  -2130  -2087  -2058  -2067  -2102  -2132  -2153  -2157  -2109  -1994  -1865  -1801  -1818  -1847  -1799  -1651  -1472  -1350  -1312  -1318  -1332  -1349  -1371  -1375  -1331  -1252  -1190  -1165  -1149  -1116  -1070  -1018  -947  -854  -769  -708  -648  -578  -529  -514  -516  -500  -445  -361  -283  -235  -214  -210  -219  -248  -301  -375  -460  -535  -586  -617  -635  -640  -638  -648  -687  -755  -831  -891  -912  -873  -782  -692  -658  -673  -718  -868  -1221  -1618  -1615  -836  823  3203  5790  7870  8936  8804  7524  5378  2883  655  -889  -1669  -1812  -1622  -1478  -1510  -1576  -1590  -1616  -1720  -1853  -1887  -1747  -1518  -1353  -1306  -1361  -1519  -1751  -1961  -2080  -2118  -2112  -2082  -2043  -1997  -1947  -1901  -1859  -1827  -1818  -1831  -1842  -1835  -1826  -1843  -1897  -1974  -2053  -2105  -2090  -1985  -1817  -1619  -1351  -929  -401  57  374  609  816  999  1152  1275  1386  1528  1748  2078  2491  2873  3089  3082  2885  2595  2328  2110  1897  1679  1475  1291  1128  987  887  871  1015  1348  1749  2006  1985  1688  1263  899  632  403  223  130  89  5  -182  -420  -590  -643  -626  -604  -612  -654  -711  -761  -781  -722  -534  -258  -19  110  148  101  -73  -395  -779  -1096  -1287  -1366  -1390  -1423  -1490  -1572  -1653  -1742  -1852  -1961  -2028  -2039  -2012  -1962  -1896  -1825  -1761  -1693  -1624  -1598  -1630  -1693  -1828  -2141  -2606  -3027  -3284  -3443  -3576  -3664  -3687  -3691  -3741  -3860  -4004  -4114  -4174  -4218  -4286  -4388  -4509  -4648  -4792  -4896  -4938  -4945  -4954  -4970  -4959  -4863  -4632  -4192  -3359  -2019  -480  762  1613  2263  2779  3165  3467  3681  3777  3753  3625  3438  3271  3162  3067  2933  2779  2668  2609  2567  2525  2479  2401  2296  2206  2153  2064  1827  1442  1056  806  729  790  939  1131  1327  1481  1562  1581  1582  1579  1557  1516  1467  1382  1242  1091  1000  984  998  983  907  814  807  932  1155  1411  1642  1811  1911  1945  1886  1697  1426  1171  924  755  1053  2216  4229  6601  8526  9215  8362  6359  3958  1840  417  -292  -622  -911  -1188  -1267  -1082  -777  -537  -431  -421  -440  -456  -457  -436  -385  -306  -206  -102  -20  -3  -126  -433  -818  -1088  -1186  -1203  -1205  -1178  -1104  -994  -865  -743  -662  -633  -625  -598  -526  -414  -277  -147  -61  -25  -22  -47  -77  -4  295  767  1206  1520  1844  2355  3020  3603  3957  4146  4274  4382  4476  4569  4700  4891  5120  5371  5620  5798  5864  5818  5665  5447  5242  5092  4985  4903  4845  4804  4742  4597  4327  3948  3524  3117  2759  2457  2217  2054  1973  1954  1975  2029  2109  2195  2253  2269  2259  2241  2228  2232  2269  2345  2438  2514  2556  2580  2600  2604  2549  2391  2158  1947  1829  1792  1789  1785  1772  1757  1755  1794  1888  2004  2086  2094  2016  1872  1728  1648  1641  1672  1718  1780  1829  1791  1612  1342  1095  933  835  763  703  669  701  858  1170  1591  1998  2300  2494  2620  2692  2711  2698  2676  2657  2654  2685  2778  2956  3194  3398  3490  3488  3484  3475  3263  2629  1665  727  61  -300  -436  -453  -436  -445  -564  -888  -1419  -2029  -2562  -2941  -3168  -3319  -3562  -4022  -4574  -4951  -5064  -5012  -4889  -4761  -4694  -4723  -4821  -4951  -5104  -5264  -5380  -5423  -5428  -5460  -5571  -5776  -6023  -6210  -6301  -6346  -6384  -6394  -6351  -6279  -6234  -6239  -6284  -6351  -6412  -6453  -6484  -6500  -6502  -6508  -6528  -6576  -6686  -6850  -7014  -7135  -7197  -7204  -7180  -7135  -6962  -6449  -5448  -3966  -2259  -891  -349  -717  -1842  -3453  -5117  -6459  -7327  -7642  -7374  -6683  -5850  -5115  -4615  -4381  -4346  -4409  -4508  -4603  -4644  -4599  -4485  -4354  -4259  -4224  -4187  -3927  -3214  -2093  -809  434  1457  2104  2388  2460  2495  2682  3188  4054  5189  6422  7466  8034  8010  7390  6307  5085  4039  3320  2951  2836  2803  2736  2630  2533  2481  2483  2532  2621  2750  2916  3077  3172  3185  3145  3086  3034  2993  2950  2873  2713  2470  2221  2042  1920  1748  1390  833  255  -150  -386  -569  -765  -958  -1105  -1184  -1207  -1207  -1194  -1144  -1023  -850  -694  -586  -454  -201  155  499  724  756  548  157  -257  -557  -699  -724  -679  -577  -433  -290  -182  -123  -111  -137  -181  -205  -181  -123  -98  -149  -229  -281  -308  -334  -353  -345  -307  -294  -380  -536  -651  -674  -639  -594  -562  -540  -511  -477  -456  -455  -471  -494  -518  -540  -526  -440  -301  -167  -65  18  84  108  66  -37  -164  -273  -362  -461  -599  -779  -945  -1002  -904  -719  -556  -450  -372  -309  -269  -259  -280  -329  -411  -527  -652  -740  -776  -789  -803  -822  -846  -896  -1011  -1195  -1400  -1554  -1622  -1582  -1379  -1000  -584  -320  -242  -251  -268  -287  -327  -391  -452  -485  -474  -419  -339  -270  -220  -175  -130  -92  -57  3  137  405  813  1224  1453  1463  1371  1296  1259  1216  1141  1060  992  870  593  196  -142  -306  -331  -330  -427  -693  -1092  -1510  -1823  -1976  -2002  -1955  -1857  -1738  -1662  -1693  -1831  -1978  -2001  -1819  -1296  -146  1786  4237  6580  8058  8189  7064  5064  2609  281  -1391  -2279  -2510  -2279  -1894  -1614  -1407  -1132  -819  -593  -499  -484  -462  -375  -244  -152  -151  -229  -316  -337  -286  -195  -82  27  119  216  302  341  339  323  317  351  449  621  889  1368  2182  3167  3915  4229  4264  4228  4206  4201  4196  4185  4188  4256  4418  4616  4755  4804  4804  4777  4699  4560  4391  4215  4035  3872  3765  3709  3631  3446  3155  2836  2535  2277  2104  2012  1949  1898  1875  1879  1881  1844  1741  1582  1409  1266  1184  1205  1398  1773  2209  2572  2845  3045  3147  3124  2981  2732  2377  1910  1397  972  687  476  301  198  195  270  378  469  514  513  479  431  385  354  339  342  364  400  436  454  445  424  432  492  577  649  687  687  669  658  657  660  657  639  607  570  535  504  466  368  131  -249  -643  -903  -985  -888  -606  -224  81  226  232  118  -105  -380  -618  -793  -959  -1167  -1437  -1781  -2163  -2501  -2732  -2846  -2876  -2872  -2859  -2827  -2777  -2745  -2751  -2758  -2731  -2688  -2691  -2785  -2941  -3090  -3190  -3239  -3254  -3258  -3261  -3267  -3281  -3298  -3297  -3277  -3264  -3276  -3294  -3257  -3139  -2990  -2879  -2833  -2841  -2881  -2927  -2959  -2989  -3052  -3156  -3259  -3319  -3334  -3323  -3265  -3119  -2897  -2679  -2505  -2338  -2156  -1998  -1910  -1889  -1899  -1919  -1943  -1980  -2041  -2112  -2150  -2116  -2010  -1856  -1688  -1544  -1447  -1395  -1374  -1372  -1388  -1431  -1490  -1535  -1548  -1547  -1565  -1624  -1707  -1767  -1777  -1743  -1688  -1650  -1672  -1788  -1972  -2138  -2219  -2195  -2064  -1851  -1605  -1364  -1149  -963  -781  -596  -433  -314  -228  -148  -22  216  588  999  1444  2192  3584  5710  8222  10390  11497  11170  9443  6803  4024  1750  287  -369  -431  -139  260  519  554  466  356  260  207  259  465  771  1048  1215  1281  1288  1278  1274  1285  1298  1290  1249  1192  1136  1090  1068  1075  1092  1100  1101  1110  1138  1178  1207  1215  1211  1210  1224  1245  1252  1245  1243  1272  1354  1497  1671  1804  1872  1926  2016  2167  2369  2560  2681  2731  2720  2631  2454  2240  2062  1955  1892  1822  1713  1583  1485  1429  1367  1244  1045  808  581  387  234  114  -28  -258  -561  -875  -1179  -1456  -1653  -1744  -1755  -1707  -1610  -1498  -1419  -1386  -1384  -1421  -1541  -1765  -2017  -2209  -2377  -2642  -2986  -3228  -3189  -2832  -2329  -1959  -1858  -1983  -2252  -2575  -2847  -3014  -3085  -3088  -3010  -2820  -2537  -2221  -1921  -1666  -1470  -1310  -1146  -989  -890  -872  -907  -958  -1004  -1030  -1003  -884  -685  -492  -395  -446  -662  -963  -1206  -1343  -1449  -1581  -1728  -1849  -1919  -1948  -1966  -2000  -2041  -2031  -1902  -1688  -1494  -1361  -1267  -1214  -1202  -1197  -1151  -1060  -965  -901  -873  -894  -960  -1033  -1098  -1152  -1173  -1129  -1017  -879  -769  -703  -656  -608  -572  -555  -529  -449  -298  -101  97  249  359  578  1146  2159  3423  4534  5192  5460  5619  5815  6000  6126  6228  6353  6505  6652  6749  6784  6760  6663  6495  6313  6182  6120  6118  6162  6221  6262  6277  6281  6280  6254  6181  6078  5963  5780  5467  5084  4761  4550  4424  4324  4122  3634  2667  1079  -1006  -3022  -4346  -4885  -5008  -5038  -5061  -5061  -5050  -5096  -5289  -5651  -6067  -6373  -6510  -6537  -6488  -6331  -6097  -5907  -5820  -5768  -5680  -5566  -5476  -5382  -5144  -4634  -3850  -2897  -1874  -900  -186  151  220  187  136  89  53  26  3  13  136  421  778  1020  976  561  -110  -730  -1075  -1167  -1135  -1084  -1052  -1035  -1028  -1013  -952  -810  -633  -625  -914  -1169  -808  398  2239  4370  6376  7740  8114  7500  6031  3916  1635  -219  -1349  -1764  -1588  -1116  -738  -612  -624  -637  -603  -522  -426  -353  -292  -203  -70  72  173  225  269  351  473  588  663  726  822  955  1060  1054  929  782  713  742  821  912  1014  1120  1193  1222  1243  1290  1375  1498  1640  1761  1822  1816  1784  1771  1813  1919  2057  2166  2215  2216  2196  2176  2169  2206  2317  2472  2590  2630  2618  2585  2520  2400  2251  2143  2090  2008  1806  1479  1132  880  755  703  670  640  595  504  347  157  8  -62  -77  -63  -25  30  85  136  181  209  201  168  155  210  343  511  647  733  789  835  912  1056  1229  1346  1389  1407  1424  1376  1139  690  162  -376  -1025  -1754  -2331  -2701  -3078  -3585  -4100  -4460  -4595  -4387  -3670  -2582  -1624  -1123  -955  -874  -799  -753  -745  -777  -921  -1291  -1854  -2377  -2669  -2769  -2867  -3133  -3515  -3705  -3523  -3232  -3251  -3744  -4416  -4645  -4163  -3447  -3181  -3725  -4945  -6117  -6455  -5946  -5207  -4841  -5080  -5649  -6083  -6231  -6232  -6204  -6151  -6062  -5967  -5905  -5887  -5893  -5897  -5862  -5762  -5617  -5456  -5235  -4884  -4428  -3973  -3590  -3214  -2721  -2107  -1484  -966  -624  -447  -362  -295  -205  -83  48  129  33  -351  -921  -1403  -1647  -1700  -1648  -1521  -1324  -1111  -955  -889  -884  -886  -861  -811  -761  -736  -758  -849  -998  -1155  -1284  -1400  -1515  -1574  -1526  -1414  -1250  -953  -518  -97  192  459  957  1786  2678  3255  3450  3459  3437  3432  3448  3455  3375  3128  2764  2441  2236  2105  2002  1929  1898  1937  2088  2317  2458  2367  2095  1950  2370  3594  5544  7849  9767  10509  9817  8042  5890  4142  3194  2869  2839  2908  2966  3074  3369  3761  4056  4203  4237  4204  4147  4100  4077  4045  3957  3837  3760  3754  3782  3798  3801  3808  3821  3830  3837  3848  3864  3879  3894  3903  3880  3786  3633  3491  3404  3351  3292  3213  3137  3094  3093  3118  3147  3173  3215  3315  3492  3697  3839  3889  3889  3880  3854  3768  3578  3296  2966  2572  2030  1262  318  -523  -979  -1069  -1010  -966  -996  -1103  -1276  -1502  -1756  -1983  -2127  -2185  -2200  -2234  -2333  -2482  -2613  -2680  -2691  -2680  -2694  -2771  -2904  -3031  -3105  -3126  -3101  -3009  -2842  -2636  -2449  -2311  -2197  -2042  -1782  -1445  -1159  -1017  -967  -919  -854  -814  -811  -824  -838  -846  -822  -733  -586  -432  -313  -249  -246  -282  -318  -332  -328  -316  -308  -320  -379  -492  -622  -710  -773  -899  -1129  -1309  -1201  -790  -314  40  256  334  166  -369  -1141  -1803  -2182  -2325  -2288  -2128  -1916  -1668  -1366  -1036  -743  -537  -416  -384  -575  -1162  -2036  -2816  -3280  -3497  -3577  -3567  -3500  -3426  -3418  -3546  -3832  -4204  -4504  -4623  -4584  -4481  -4317  -3933  -3199  -2259  -1469  -1072  -1019  -1120  -1237  -1315  -1355  -1378  -1381  -1342  -1258  -1163  -1104  -1107  -1164  -1266  -1385  -1468  -1481  -1430  -1333  -1212  -1072  -910  -748  -670  -796  -1171  -1692  -2157  -2425  -2510  -2502  -2494  -2590  -2860  -3240  -3568  -3757  -3823  -3811  -3752  -3635  -3448  -3211  -2958  -2697  -2425  -2123  -1766  -1389  -1142  -1179  -1542  -2024  -2115  -1328  457  2933  5356  6922  7287  6566  5061  3172  1356  2  -705  -762  -331  240  636  829  967  1126  1264  1335  1349  1367  1478  1775  2248  2729  3007  2984  2689  2269  1920  1732  1662  1649  1666  1702  1727  1715  1679  1637  1584  1508  1407  1294  1192  1120  1093  1114  1172  1270  1414  1572  1676  1691  1621  1492  1344  1243  1262  1420  1649  1856  1993  2077  2149  2218  2263  2274  2266  2262  2267  2273  2270  2247  2189  2096  1990  1876  1737  1560  1366  1181  1004  837  715  654  629  608  582  568  568  551  474  336  180  34  -119  -277  -385  -423  -424  -418  -416  -423  -442  -459  -438  -359  -238  -99  46  170  245  263  228  137  14  -92  -154  -181  -203  -257  -356  -456  -462  -317  -98  60  119  129  140  160  174  183  212  290  423  576  683  711  670  580  463  347  268  231  213  198  191  187  174  156  147  151  154  146  142  166  214  263  308  353  376  321  146  -111  -349  -513  -615  -673  -701  -726  -769  -814  -814  -746  -631  -515  -438  -399  -365  -325  -284  -244  -196  -145  -122  -146  -205  -267  -309  -332  -348  -358  -363  -367  -352  -294  -221  -196  -257  -383  -513  -602  -666  -742  -855  -998  -1134  -1229  -1283  -1313  -1331  -1360  -1430  -1526  -1602  -1638  -1659  -1679  -1692  -1695  -1712  -1765  -1840  -1869  -1773  -1538  -1254  -1029  -904  -899  -1049  -1319  -1495  -1219  -252  1379  3432  5409  6689  6913  6115  4485  2388  442  -830  -1394  -1539  -1482  -1308  -1108  -945  -818  -725  -692  -723  -775  -806  -818  -836  -850  -833  -782  -711  -633  -565  -496  -395  -264  -142  -63  -17  41  134  250  344  358  326  316  285  188  91  49  40  25  14  83  313  657  966  1187  1391  1623  1838  1973  2025  2042  2086  2196  2347  2470  2539  2586  2632  2666  2646  2530  2323  2090  1890  1758  1715  1778  1943  2165  2374  2521  2595  2614  2610  2609  2622  2622  2529  2251  1776  1230  780  471  228  -5  -229  -429  -626  -845  -1061  -1214  -1284  -1314  -1345  -1389  -1436  -1493  -1592  -1749  -1919  -2033  -2078  -2078  -2007  -1771  -1341  -871  -583  -545  -681  -865  -996  -1049  -1052  -1033  -999  -949  -885  -810  -734  -695  -701  -703  -690  -705  -749  -790  -812  -817  -814  -814  -822  -841  -857  -824  -683  -427  -115  159  317  352  321  291  335  510  784  1024  1140  1153  1120  1059  965  845  728  622  501  348  188  41  -140  -397  -676  -889  -1013  -1071  -1080  -1050  -994  -933  -872  -806  -731  -644  -555  -496  -474  -471  -476  -499  -561  -657  -762  -887  -1061  -1253  -1414  -1551  -1677  -1768  -1806  -1808  -1793  -1774  -1757  -1747  -1750  -1776  -1833  -1911  -1963  -1930  -1787  -1592  -1452  -1400  -1349  -1189  -915  -656  -520  -504  -542  -584  -610  -618  -620  -618  -613  -606  -614  -671  -805  -1012  -1258  -1482  -1618  -1646  -1593  -1490  -1358  -1234  -1152  -1101  -1031  -918  -847  -952  -1196  -1395  -1461  -1457  -1431  -1336  -1073  -631  -156  237  629  1178  1997  3151  4612  6092  7079  7184  6371  4782  2701  662  -831  -1559  -1482  -762  175  859  1094  1031  857  592  222  -203  -644  -1052  -1331  -1444  -1463  -1446  -1339  -1020  -460  160  628  914  1122  1311  1464  1517  1358  922  365  -19  -90  78  323  506  582  548  394  153  -68  -172  -96  181  626  1137  1624  2145  2778  3405  3846  4142  4500  5037  5645  6100  6282  6177  5772  5125  4380  3628  2939  2414  2091  1922  1854  1838  1802  1663  1392  1071  800  583  368  158  -1  -98  -204  -417  -726  -1000  -1138  -1155  -1133  -1135  -1186  -1274  -1371  -1473  -1595  -1744  -1885  -1975  -2022  -2081  -2189  -2329  -2465  -2594  -2696  -2725  -2683  -2619  -2560  -2523  -2516  -2523  -2497  -2387  -2172  -1906  -1663  -1448  -1242  -1080  -993  -963  -948  -918  -885  -878  -905  -946  -970  -958  -923  -875  -804  -634  -235  430  1170  1726  2016  2126  2140  2050  1786  1383  1026  844  773  685  549  407  273  162  145  276  480  612  620  570  512  412  235  19  -156  -249  -287  -317  -332  -229  102  603  1043  1262  1255  1017  517  -175  -833  -1231  -1349  -1313  -1218  -1101  -962  -760  -463  -132  116  271  419  588  718  763  724  608  452  305  145  -88  -355  -529  -578  -626  -818  -1175  -1553  -1772  -1754  -1531  -1231  -1019  -950  -966  -1007  -1050  -1086  -1104  -1105  -1093  -1071  -1033  -969  -897  -843  -800  -756  -727  -721  -710  -647  -490  -233  61  282  396  510  731  1039  1322  1496  1545  1409  925  52  -922  -1607  -1859  -1801  -1623  -1418  -1094  -391  856  2390  3684  4459  4748  4604  4051  3283  2600  2040  1392  600  -150  -700  -1087  -1461  -1896  -2350  -2677  -2650  -2034  -666  1296  3251  4559  5111  5328  5571  5635  5052  3697  1833  25  -1079  -1353  -1214  -1062  -1049  -1137  -1205  -1209  -1195  -1207  -1291  -1512  -1880  -2299  -2627  -2797  -2847  -2835  -2729  -2459  -2057  -1686  -1471  -1390  -1372  -1384  -1405  -1418  -1422  -1421  -1415  -1397  -1360  -1278  -1116  -907  -747  -680  -664  -656  -659  -680  -677  -522  -48  791  1739  2398  2639  2635  2556  2442  2313  2221  2197  2213  2232  2245  2246  2196  2063  1890  1761  1656  1363  679  -218  -879  -1123  -1143  -1171  -1306  -1512  -1706  -1876  -2053  -2218  -2333  -2392  -2415  -2426  -2428  -2398  -2310  -2186  -2085  -2038  -2032  -2030  -1973  -1797  -1481  -1074  -682  -403  -208  14  278  455  392  40  -443  -793  -908  -891  -848  -786  -671  -517  -387  -310  -270  -251  -255  -289  -346  -404  -436  -440  -445  -506  -650  -824  -942  -974  -964  -961  -989  -1046  -1112  -1167  -1199  -1211  -1205  -1176  -1117  -1040  -968  -941  -1031  -1284  -1620  -1884  -2012  -2068  -2115  -2157  -2179  -2185  -2188  -2199  -2212  -2188  -2064  -1820  -1509  -1222  -1033  -942  -905  -894  -920  -1020  -1216  -1456  -1637  -1705  -1647  -1436  -1095  -706  -302  115  485  717  807  826  836  839  774  564  225  -130  -428  -668  -838  -907  -880  -782  -603  -321  13  285  444  543  639  729  792  834  877  933  1002  1045  986  765  398  4  -277  -415  -495  -603  -736  -840  -873  -822  -618  -174  397  828  1062  1381  2181  3662  5528  7164  8221  8678  8661  8530  8648  8987  9272  9415  9556  9749  9803  9485  8640  7300  5900  4969  4605  4531  4480  4340  4095  3801  3543  3386  3340  3367  3413  3424  3271  2764  1863  793  -102  -583  -656  -490  -247  -26  103  75  -157  -554  -966  -1238  -1339  -1339  -1319  -1311  -1303  -1277  -1259  -1308  -1441  -1592  -1689  -1716  -1654  -1467  -1198  -999  -1059  -1498  -2202  -2829  -3139  -3209  -3259  -3417  -3650  -3853  -3964  -3994  -3961  -3818  -3479  -2954  -2433  -2124  -2112  -2384  -2860  -3304  -3326  -2622  -1220  624  2622  4414  5620  5988  5415  3939  1814  -451  -2265  -3288  -3562  -3408  -3218  -3175  -3176  -3111  -3019  -2950  -2889  -2807  -2713  -2636  -2592  -2571  -2551  -2508  -2430  -2339  -2272  -2247  -2264  -2324  -2415  -2494  -2526  -2482  -2350  -2189  -2072  -1999  -1916  -1809  -1709  -1639  -1578  -1500  -1383  -1190  -882  -524  -269  -182  -201  -249  -274  -226  -66  166  378  544  717  897  1026  1148  1396  1782  2169  2437  2557  2581  2609  2786  3225  3820  4285  4454  4292  3786  3086  2517  2246  2182  2172  2124  1997  1797  1574  1392  1261  1099  811  413  46  -178  -293  -395  -527  -674  -809  -912  -974  -1006  -1026  -1043  -1054  -1060  -1064  -1074  -1084  -1062  -941  -692  -405  -207  -121  -83  -56  -42  -46  -55  -73  -121  -204  -299  -373  -415  -405  -312  -116  151  422  627  759  873  1017  1183  1335  1446  1499  1462  1315  1112  967  954  1066  1232  1365  1424  1429  1403  1355  1292  1220  1125  1002  888  844  890  975  1020  990  906  784  597  335  86  -17  80  309  539  681  727  701  610  434  175  -79  -226  -266  -285  -332  -397  -458  -522  -604  -692  -766  -827  -893  -969  -1015  -967  -782  -525  -320  -198  -88  41  152  194  111  -137  -472  -720  -813  -820  -824  -876  -1004  -1179  -1315  -1369  -1373  -1372  -1381  -1385  -1346  -1219  -1013  -812  -695  -655  -635  -613  -603  -593  -535  -412  -297  -286  -374  -474  -530  -554  -579  -626  -687  -732  -746  -742  -741  -752  -778  -810  -838  -863  -913  -1010  -1123  -1177  -1122  -973  -802  -677  -625  -628  -650  -657  -636  -613  -620  -671  -779  -941  -1101  -1199  -1224  -1184  -1068  -901  -746  -632  -540  -459  -404  -363  -301  -214  -149  -154  -232  -316  -320  -246  -188  -209  -291  -391  -510  -636  -723  -745  -724  -706  -753  -917  -1164  -1385  -1511  -1539  -1503  -1455  -1431  -1417  -1374  -1317  -1370  -1612  -1850  -1663  -746  861  2899  5048  6875  7952  8068  7160  5304  2890  552  -1132  -1923  -1968  -1577  -1098  -845  -853  -933  -974  -990  -1008  -1046  -1104  -1151  -1153  -1085  -960  -839  -791  -830  -910  -972  -1003  -1020  -1018  -960  -829  -662  -519  -411  -310  -196  -87  -15  3  -23  -64  -74  -21  82  193  283  362  460  574  682  806  977  1149  1271  1409  1676  2027  2287  2375  2357  2304  2243  2184  2137  2076  1906  1543  1081  751  650  681  703  615  384  65  -257  -541  -775  -949  -1055  -1104  -1119  -1116  -1100  -1062  -987  -875  -765  -718  -761  -872  -997  -1100  -1175  -1211  -1153  -917  -486  44  507  760  759  558  279  66  8  155  527  995  1345  1501  1539  1537  1521  1517  1545  1600  1651  1670  1615  1456  1240  1086  1058  1136  1250  1342  1396  1411  1374  1295  1216  1165  1142  1139  1144  1143  1131  1114  1102  1099  1092  1068  1034  1009  1001  1008  1018  1016  975  871  723  590  520  501  483  427  304  84  -245  -640  -1033  -1377  -1643  -1825  -1944  -2022  -2044  -1932  -1606  -1156  -814  -721  -882  -1253  -1711  -2085  -2307  -2422  -2479  -2475  -2377  -2177  -1928  -1719  -1606  -1578  -1572  -1540  -1482  -1424  -1384  -1357  -1346  -1378  -1494  -1684  -1866  -1969  -1999  -2007  -2012  -1975  -1834  -1593  -1342  -1152  -1030  -953  -892  -809  -693  -573  -471  -387  -307  -239  -191  -157  -122  -95  -95  -119  -133  -96  0  134  269  359  394  385  322  185  6  -153  -263  -325  -352  -363  -366  -345  -265  -100  145  438  699  857  914  926  957  1044  1174  1298  1401  1482  1491  1379  1201  1064  1008  1018  1074  1144  1195  1217  1213  1181  1100  951  768  601  437  217  -43  -259  -393  -475  -532  -554  -530  -467  -382  -279  -143  37  226  321  244  28  -139  97  1117  2965  5173  6980  7777  7406  6121  4377  2635  1258  408  5  -147  -235  -329  -372  -339  -287  -251  -221  -170  -83  9  68  86  62  -3  -100  -223  -352  -454  -516  -556  -583  -604  -632  -688  -797  -938  -1045  -1089  -1085  -1028  -899  -729  -595  -547  -575  -634  -680  -700  -704  -724  -775  -817  -778  -642  -471  -300  -87  156  331  388  373  342  319  308  302  292  285  324  485  824  1303  1795  2166  2352  2393  2378  2356  2299  2130  1748  1132  475  49  -77  -32  79  225  378  495  555  554  492  372  219  69  -51  -155  -260  -359  -424  -449  -451  -447  -458  -503  -609  -785  -984  -1124  -1169  -1147  -1104  -1067  -1034  -1005  -989  -988  -991  -994  -1001  -1022  -1057  -1104  -1171  -1245  -1282  -1257  -1190  -1095  -936  -699  -462  -321  -297  -373  -533  -731  -909  -1049  -1152  -1215  -1257  -1314  -1367  -1345  -1215  -1040  -922  -887  -868  -792  -641  -414  -98  251  517  675  797  931  1074  1212  1344  1459  1540  1584  1593  1570  1535  1517  1540  1641  1853  2137  2379  2490  2464  2333  2159  2025  1959  1921  1871  1811  1760  1708  1624  1504  1383  1275  1161  1043  945  846  689  493  344  280  268  273  278  272  261  248  220  159  76  10  -9  6  49  123  219  284  243  53  -217  -423  -493  -476  -460  -522  -701  -953  -1177  -1329  -1480  -1722  -2008  -2138  -1971  -1587  -1205  -985  -970  -1155  -1398  -1324  -712  213  1255  2450  3746  5084  6392  7231  7062  5835  4029  2291  1047  349  64  43  202  533  947  1226  1181  765  123  -472  -850  -1000  -997  -954  -986  -1181  -1527  -1906  -2227  -2470  -2629  -2710  -2736  -2736  -2728  -2720  -2715  -2724  -2769  -2856  -2975  -3101  -3217  -3317  -3376  -3350  -3237  -3073  -2878  -2649  -2394  -2137  -1922  -1796  -1761  -1769  -1771  -1735  -1665  -1590  -1521  -1438  -1306  -1094  -826  -582  -404  -189  195  694  1090  1256  1169  778  120  -564  -1029  -1246  -1355  -1469  -1604  -1720  -1781  -1781  -1753  -1769  -1920  -2238  -2625  -2925  -3064  -3095  -3101  -3117  -3116  -3057  -2925  -2694  -2269  -1581  -801  -245  -20  -22  -128  -237  -278  -252  -201  -163  -147  -141  -135  -108  3  258  587  855  1041  1202  1322  1338  1244  1146  1171  1313  1447  1501  1503  1495  1485  1450  1373  1259  1116  951  815  790  896  1122  1490  1930  2252  2361  2338  2301  2301  2319  2318  2265  2135  1907  1529  965  341  -119  -371  -547  -723  -842  -818  -630  -359  -125  47  182  265  284  278  306  413  603  835  1044  1183  1234  1172  967  670  401  193  -51  -414  -851  -1248  -1525  -1677  -1758  -1810  -1840  -1852  -1855  -1878  -1935  -1998  -2043  -2078  -2081  -1927  -1466  -779  -210  -30  -227  -534  -489  314  1895  3884  5753  6954  7143  6388  4998  3266  1539  187  -633  -985  -975  -667  -183  243  495  666  847  1030  1195  1332  1416  1440  1444  1471  1533  1606  1670  1742  1849  1977  2067  2086  2063  2044  2042  2040  2016  1972  1965  2063  2246  2420  2556  2685  2804  2884  2925  2943  2912  2775  2524  2229  1951  1683  1401  1150  1002  966  985  1009  1003  925  750  541  429  479  614  712  731  714  703  674  564  317  -45  -435  -776  -1038  -1237  -1431  -1648  -1862  -2091  -2393  -2755  -3072  -3271  -3393  -3544  -3787  -4071  -4291  -4436  -4560  -4666  -4731  -4770  -4795  -4741  -4439  -3750  -2802  -1998  -1613  -1577  -1685  -1801  -1873  -1895  -1879  -1827  -1746  -1665  -1615  -1589  -1543  -1446  -1313  -1186  -1067  -932  -810  -738  -702  -662  -597  -518  -439  -345  -195  24  262  438  527  551  488  264  -106  -484  -790  -1095  -1415  -1622  -1646  -1576  -1515  -1460  -1303  -948  -454  -17  223  285  217  13  -320  -713  -1054  -1234  -1204  -1014  -828  -815  -978  -1166  -1277  -1320  -1318  -1258  -1105  -876  -635  -447  -338  -267  -163  -32  73  133  160  162  153  155  183  259  394  555  673  698  614  422  149  -144  -386  -523  -564  -571  -627  -781  -1002  -1212  -1354  -1420  -1415  -1339  -1204  -1043  -883  -707  -476  -220  -96  -255  -625  -783  -154  1484  3732  5839  7094  7146  6145  4499  2597  795  -672  -1734  -2312  -2366  -2054  -1638  -1265  -931  -599  -259  73  381  645  845  974  1043  1053  1000  905  819  775  768  775  782  785  782  767  743  752  886  1229  1745  2252  2564  2650  2581  2411  2203  2060  2048  2161  2337  2484  2557  2567  2516  2375  2148  1919  1774  1720  1704  1703  1753  1868  1971  1995  1973  1957  1953  1955  1970  2010  2070  2122  2131  2050  1829  1457  1036  727  569  467  369  307  292  253  113  -112  -319  -430  -435  -346  -185  -14  113  209  300  379  416  369  245  130  95  126  184  247  311  383  480  614  752  831  816  688  450  174  -41  -159  -215  -280  -412  -590  -736  -807  -813  -758  -631  -461  -307  -176  -18  193  409  556  616  619  573  466  337  289  390  585  747  802  755  619  418  207  37  -81  -156  -201  -230  -246  -248  -239  -228  -218  -215  -229  -262  -305  -356  -435  -555  -689  -784  -821  -816  -790  -757  -718  -647  -519  -370  -302  -380  -555  -724  -829  -879  -897  -895  -888  -898  -942  -1019  -1103  -1168  -1210  -1258  -1330  -1400  -1423  -1378  -1294  -1212  -1141  -1043  -871  -648  -463  -374  -357  -359  -345  -292  -203  -113  -62  -48  -52  -60  -68  -75  -80  -81  -79  -76  -71  -71  -89  -146  -246  -356  -436  -508  -638  -824  -966  -950  -757  -487  -279  -193  -214  -331  -549  -836  -1104  -1253  -1246  -1120  -931  -742  -625  -623  -723  -867  -993  -1087  -1144  -1139  -1084  -1043  -1057  -1106  -1148  -1163  -1158  -1142  -1123  -1108  -1105  -1121  -1168  -1241  -1322  -1388  -1424  -1417  -1367  -1288  -1205  -1139  -1075  -972  -853  -800  -830  -883  -913  -912  -902  -919  -985  -1090  -1200  -1276  -1289  -1249  -1198  -1146  -1062  -925  -726  -461  -165  97  290  411  470  484  477  472  452  341  74  -306  -689  -1003  -1238  -1383  -1438  -1450  -1469  -1492  -1462  -1350  -1204  -1085  -1008  -964  -948  -951  -976  -1055  -1248  -1563  -1896  -2116  -2141  -1861  -1067  412  2524  4924  7001  8078  7853  6492  4421  2252  557  -461  -923  -943  -573  -51  297  382  310  156  -45  -233  -345  -378  -353  -240  38  500  999  1312  1336  1125  827  599  500  487  504  525  551  578  601  607  573  487  382  303  283  362  571  844  1037  1047  878  632  459  467  677  1000  1294  1505  1679  1832  1925  1954  1949  1925  1869  1779  1685  1628  1620  1656  1732  1828  1902  1907  1804  1583  1304  1040  795  528  233  -41  -260  -425  -541  -605  -632  -661  -725  -824  -932  -1022  -1079  -1108  -1131  -1169  -1203  -1190  -1141  -1098  -1076  -1064  -1042  -1007  -977  -937  -875  -824  -780  -658  -396  -74  158  256  285  302  322  335  323  256  124  -25  -125  -163  -172  -173  -169  -161  -156  -159  -166  -175  -183  -180  -133  -13  153  300  385  415  405  360  298  246  219  203  179  148  145  215  354  493  574  597  578  518  416  297  196  131  100  83  78  100  151  205  240  257  263  254  189  15  -243  -480  -612  -651  -648  -628  -594  -542  -470  -390  -330  -290  -250  -208  -176  -164  -177  -217  -264  -291  -282  -235  -154  -58  10  33  20  -23  -91  -167  -225  -234  -178  -101  -89  -196  -374  -526  -623  -693  -729  -659  -426  -108  124  199  187  174  198  241  259  229  183  161  164  140  38  -125  -241  -189  1  200  344  463  588  695  705  569  349  173  98  91  103  106  93  68  44  33  33  38  43  44  31  -5  -67  -137  -197  -240  -263  -268  -261  -243  -221  -205  -206  -226  -267  -315  -351  -371  -380  -376  -340  -257  -165  -120  -111  -87  -37  14  54  79  98  116  126  119  101  86  79  75  77  102  163  238  302  320  237  52  -164  -373  -566  -710  -779  -783  -727  -614  -487  -418  -436  -499  -550  -577  -599  -606  -545  -446  -512  -815  -1045  -793  171  1849  3930  5940  7468  8200  7985  6830  4896  2635  670  -617  -1214  -1324  -1166  -868  -590  -518  -614  -707  -760  -842  -975  -1118  -1241  -1343  -1378  -1214  -742  -113  341  460  316  37  -261  -505  -685  -830  -964  -1081  -1153  -1158  -1097  -987  -876  -804  -771  -742  -694  -629  -555  -460  -324  -136  121  472  857  1141  1266  1296  1331  1428  1560  1657  1688  1685  1682  1691  1700  1678  1597  1488  1421  1399  1364  1290  1198  1102  984  841  691  507  231  -92  -348  -511  -646  -777  -883  -968  -1073  -1213  -1361  -1468  -1512  -1502  -1445  -1335  -1173  -1006  -897  -865  -886  -938  -1004  -1071  -1146  -1225  -1281  -1300  -1304  -1313  -1333  -1349  -1334  -1264  -1163  -1092  -1082  -1109  -1138  -1153  -1159  -1159  -1148  -1116  -1064  -993  -895  -787  -720  -724  -780  -848  -903  -939  -951  -918  -819  -671  -524  -423  -390  -421  -499  -600  -693  -743  -732  -664  -559  -450  -381  -358  -344  -300  -232  -183  -195  -279  -398  -497  -556  -587  -612  -644  -675  -689  -694  -708  -737  -770  -808  -865  -927  -960  -955  -931  -913  -915  -925  -928  -929  -955  -1032  -1124  -1120  -924  -576  -224  28  163  205  201  214  284  397  501  571  621  637  583  459  313  199  135  98  57  17  26  124  305  519  712  852  952  1042  1113  1107  1014  892  800  749  709  639  549  483  474  523  598  660  687  666  551  315  38  -142  -157  -33  142  268  284  176  -26  -252  -447  -645  -905  -1186  -1379  -1444  -1444  -1438  -1439  -1425  -1379  -1315  -1267  -1250  -1255  -1269  -1288  -1313  -1339  -1356  -1333  -1239  -1088  -946  -861  -823  -803  -789  -779  -768  -747  -721  -705  -707  -713  -691  -612  -495  -407  -427  -598  -875  -1126  -1244  -1233  -1114  -821  -275  382  822  833  446  -91  -474  -578  -484  -314  -173  -147  -265  -475  -608  -438  251  1667  3769  6134  8208  9468  9526  8375  6401  4139  2128  723  -47  -335  -296  -105  67  154  180  153  52  -103  -254  -381  -489  -542  -482  -283  30  394  718  935  1039  1064  1061  1096  1226  1428  1593  1657  1675  1717  1778  1823  1835  1812  1756  1673  1581  1518  1509  1560  1661  1773  1853  1881  1869  1840  1810  1790  1806  1907  2120  2400  2654  2812  2883  2920  2958  2997  3027  3041  3036  3015  2983  2947  2903  2854  2826  2821  2775  2599  2286  1930  1609  1324  1067  869  758  704  677  687  742  782  724  546  307  92  -32  -62  -51  -47  -66  -94  -110  -116  -136  -183  -249  -312  -349  -366  -377  -381  -346  -241  -94  23  74  79  66  38  -10  -78  -151  -230  -330  -414  -428  -408  -422  -466  -492  -473  -415  -349  -290  -228  -184  -206  -311  -447  -533  -551  -534  -514  -501  -495  -488  -471  -443  -407  -372  -347  -338  -347  -368  -386  -422  -544  -808  -1164  -1496  -1734  -1870  -1904  -1853  -1753  -1656  -1606  -1600  -1638  -1766  -2006  -2265  -2396  -2350  -2198  -2042  -1898  -1723  -1535  -1408  -1368  -1371  -1380  -1396  -1445  -1523  -1567  -1539  -1506  -1554  -1662  -1750  -1777  -1757  -1717  -1677  -1650  -1627  -1593  -1550  -1515  -1496  -1504  -1543  -1605  -1673  -1728  -1763  -1776  -1754  -1672  -1531  -1380  -1272  -1223  -1217  -1232  -1259  -1278  -1238  -1077  -810  -524  -274]
