reading_id,reading_time,wire_id,result_classification,heart_rate,heart_rate_alert,firmware_version,device_app_version,hardware_version,waveform_samples
39521800-595f-11ed-8080-808080808080,Mon Oct 31 21:01:43 UTC 2022,2101e3b12739,NSR,74,NONE,20001.171.50,2.10.0,Charge 5,[-13525  -13731  -13931  -14063  -14103  -14095  -14081  -14067  -14049  -14017  -13971  -13927  -13904  -13924  -14007  -14133  -14261  -14380  -14488  -14575  -14648  -14725  -14795  -14840  -14869  -14913  -15011  -15174  -15367  -15601  -15977  -16498  -16989  -17338  -17625  -18014  -18577  -19201  -19688  -19985  -20165  -20266  -20250  -20059  -19677  -19174  -18684  -18336  -18143  -17980  -17721  -17340  -16956  -16795  -16964  -17211  -17010  -15880  -13621  -10394  -6788  -3733  -2075  -2177  -3864  -6565  -9472  -11701  -12700  -12556  -11624  -10256  -8845  -7554  -6190  -4537  -2524  -245  2139  4584  7146  9871  12785  15947  19392  23099  27077  31253  32767  32767  32767  32767  32767  32767  32767  32767  32767  32767  32767  32767  32767  32767  32767  32767  32767  32767  32767  32767  32767  32767  32767  32767  32767  32767  32767  32767  32767  32767  32767  32056  30749  30026  29559  29101  28647  28144  27326  25988  24272  22555  21133  20037  19050  17913  16588  15283  14153  13175  12335  11647  11046  10420  9701  8925  8138  7335  6527  5711  4907  4222  3655  3006  2238  1587  1150  779  382  17  -254  -419  -498  -550  -635  -770  -949  -1191  -1515  -1918  -2400  -2911  -3349  -3679  -3975  -4300  -4602  -4800  -4971  -5311  -5908  -6662  -7383  -7933  -8341  -8712  -9026  -9191  -9241  -9404  -9890  -10577  -11082  -11188  -10977  -10659  -10427  -10373  -10519  -10865  -11327  -11729  -11947  -12004  -11981  -11889  -11703  -11472  -11306  -11244  -11246  -11267  -11294  -11357  -11502  -11752  -12068  -12334  -12365  -11898  -10628  -8364  -5196  -1636  1389  2950  2612  618  -2273  -5200  -7559  -9116  -9910  -10107  -9911  -9536  -9165  -8895  -8720  -8571  -8367  -8067  -7711  -7366  -7060  -6806  -6622  -6522  -6487  -6462  -6385  -6208  -5910  -5537  -5215  -5045  -5008  -5014  -5003  -4955  -4851  -4663  -4412  -4189  -4051  -3948  -3780  -3484  -3081  -2661  -2330  -2146  -2091  -2099  -2091  -1980  -1731  -1427  -1194  -1064  -994  -957  -922  -839  -701  -562  -474  -448  -481  -573  -713  -887  -1113  -1416  -1771  -2096  -2331  -2495  -2611  -2653  -2630  -2586  -2543  -2520  -2528  -2548  -2559  -2549  -2519  -2506  -2643  -3086  -3781  -4414  -4749  -4826  -4772  -4611  -4318  -3940  -3603  -3398  -3314  -3291  -3282  -3260  -3195  -3072  -2902  -2712  -2501  -2227  -1918  -1678  -1542  -1459  -1388  -1321  -1253  -1180  -1099  -1018  -958  -914  -869  -817  -756  -680  -598  -509  -369  -133  140  325  378  359  330  339  434  640  907  1135  1257  1277  1242  1187  1110  988  835  690  563  459  405  409  431  425  378  283  154  22  -102  -212  -284  -329  -394  -498  -615  -716  -778  -785  -751  -774  -982  -1311  -1373  -674  1088  3897  7308  10386  12103  11929  9998  6929  3588  804  -996  -1898  -2181  -2089  -1856  -1714  -1750  -1841  -1838  -1702  -1478  -1256  -1110  -1063  -1120  -1287  -1508  -1680  -1760  -1765  -1678  -1465  -1176  -931  -791  -732  -719  -739  -786  -863  -956  -1031  -1064  -1030  -895  -658  -359  -44  221  381  450  484  509  528  545  567  586  564  463  309  166  60  -26  -101  -150  -169  -176  -183  -193  -220  -301  -462  -685  -915  -1100  -1220  -1290  -1346  -1401  -1413  -1341  -1211  -1065  -898  -677  -395  -90  189  454  758  1077  1315  1398  1250  786  60  -707  -1334  -1769  -2029  -2159  -2178  -2010  -1558  -931  -408  -116  51  211  360  452  476  450  385  312  316  495  851  1244  1517  1625  1627  1602  1593  1614  1672  1759  1839  1870  1850  1819  1800  1785  1751  1688  1609  1561  1571  1608  1604  1527  1401  1283  1203  1172  1174  1175  1171  1178  1181  1170  1151  1120  1089  1079  1090  1082  979  722  375  80  -83  -125  -70  50  178  250  249  209  174  152  121  58  -52  -197  -321  -371  -346  -294  -328  -536  -819  -847  -220  1364  3978  7288  10524  12724  13187  11834  9143  5911  2961  781  -570  -1215  -1350  -1250  -1119  -996  -870  -751  -659  -605  -576  -540  -479  -418  -394  -415  -441  -427  -371  -295  -204  -108  -39  -19  -47  -110  -182  -235  -264  -282  -284  -227  -70  153  351  477  568  694  871  1045  1147  1182  1201  1230  1259  1278  1297  1339  1404  1478  1543  1579  1588  1596  1600  1579  1543  1508  1449  1300  1002  608  284  131  95  75  25  -43  -121  -237  -407  -591  -734  -815  -847  -852  -837  -801  -748  -694  -662  -660  -671  -674  -667  -663  -674  -694  -708  -712  -703  -656  -541  -385  -271  -272  -402  -613  -821  -969  -1041  -1055  -1039  -1017  -1008  -1036  -1122  -1238  -1333  -1378  -1386  -1382  -1378  -1380  -1385  -1389  -1387  -1390  -1422  -1505  -1622  -1721  -1768  -1765  -1729  -1667  -1583  -1487  -1393  -1311  -1256  -1239  -1280  -1399  -1567  -1716  -1805  -1846  -1869  -1888  -1890  -1863  -1827  -1808  -1807  -1813  -1806  -1757  -1632  -1425  -1203  -1063  -1023  -1030  -1036  -1043  -1091  -1208  -1360  -1484  -1555  -1587  -1599  -1622  -1673  -1729  -1766  -1795  -1826  -1860  -1877  -1846  -1758  -1662  -1638  -1684  -1736  -1806  -1996  -2332  -2635  -2658  -2260  -1328  333  2810  5796  8572  10276  10322  8698  5957  2963  474  -1121  -1789  -1767  -1411  -1004  -698  -521  -424  -370  -344  -338  -337  -334  -333  -333  -311  -230  -92  61  189  279  343  400  456  511  566  613  635  627  606  603  635  693  756  827  927  1051  1172  1278  1380  1476  1548  1586  1613  1688  1848  2057  2234  2340  2385  2393  2363  2287  2188  2103  2056  2046  2053  2021  1869  1567  1192  863  637  500  417  344  234  63  -135  -295  -387  -434  -486  -597  -792  -1016  -1178  -1246  -1255  -1246  -1241  -1264  -1337  -1448  -1546  -1586  -1561  -1506  -1456  -1411  -1359  -1308  -1275  -1259  -1255  -1255  -1254  -1253  -1256  -1269  -1293  -1321  -1353  -1388  -1414  -1420  -1398  -1352  -1300  -1259  -1237  -1257  -1319  -1376  -1384  -1339  -1259  -1158  -1030  -887  -777  -740  -768  -823  -868  -888  -879  -821  -693  -503  -310  -185  -131  -81  21  163  282  346  378  413  456  489  509  539  589  623  567  366  77  -153  -255  -275  -272  -265  -250  -216  -156  -68  27  88  98  77  61  70  102  141  162  112  -48  -250  -275  158  1294  3191  5569  7843  9316  9471  8226  5963  3343  1038  -500  -1187  -1259  -1028  -697  -383  -177  -81  -20  46  123  227  365  501  585  598  547  463  409  428  492  544  562  559  556  560  568  571  565  560  566  598  666  777  921  1056  1136  1180  1260  1409  1580  1708  1784  1841  1918  2028  2150  2254  2332  2403  2476  2528  2524  2470  2406  2349  2266  2121  1925  1726  1559  1432  1306  1071  609  -65  -793  -1421  -1897  -2216  -2379  -2429  -2440  -2466  -2506  -2525  -2497  -2437  -2395  -2402  -2431  -2451  -2465  -2490  -2516  -2514  -2470  -2395  -2300  -2193  -2091  -2012  -1964  -1942  -1934  -1930  -1935  -1952  -1969  -1955  -1882  -1765  -1644  -1548  -1480  -1428  -1388  -1373  -1400  -1463  -1527  -1564  -1574  -1575  -1578  -1583  -1586  -1584  -1576  -1557  -1512  -1418  -1291  -1183  -1120  -1075  -1017  -947  -901  -891  -903  -911  -894  -823  -679  -488  -319  -207  -113  -17  54  92  122  176  256  346  424  481  517  530  510  442  328  195  73  -25  -99  -158  -227  -323  -448  -591  -733  -868  -1001  -1132  -1269  -1419  -1565  -1674  -1729  -1753  -1770  -1751  -1640  -1480  -1408  -1453  -1372  -729  775  3105  5872  8281  9422  8932  7121  4600  2078  132  -1082  -1708  -1894  -1776  -1504  -1170  -829  -569  -443  -410  -401  -371  -310  -244  -200  -171  -155  -164  -183  -183  -153  -104  -56  -9  37  69  74  68  94  204  411  649  832  931  983  1021  1046  1051  1069  1169  1384  1655  1881  2018  2081  2108  2157  2286  2498  2715  2855  2896  2826  2591  2166  1686  1355  1215  1153  1071  950  816  697  563  366  113  -125  -289  -386  -466  -564  -667  -735  -763  -775  -788  -793  -773  -726  -673  -639  -630  -639  -664  -698  -723  -725  -692  -616  -521  -454  -431  -434  -447  -467  -488  -480  -410  -290  -176  -108  -86  -100  -135  -166  -186  -210  -243  -274  -294  -308  -317  -313  -299  -291  -299  -298  -268  -231  -216  -226  -244  -264  -303  -379  -484  -578  -630  -642  -632  -617  -605  -600  -603  -612  -623  -632  -638  -649  -674  -719  -787  -870  -952  -1013  -1044  -1047  -1023  -979  -915  -827  -724  -630  -564  -518  -463  -356  -176  35  190  242  225  197  173  129  50  -64  -210  -363  -495  -599  -684  -758  -827  -885  -921  -932  -924  -905  -874  -832  -793  -783  -803  -845  -939  -1154  -1514  -1895  -2063  -1774  -831  853  3201  5862  8212  9582  9544  8071  5547  2641  106  -1553  -2257  -2191  -1701  -1209  -985  -1021  -1146  -1215  -1151  -908  -541  -214  -37  14  15  8  7  14  18  3  -22  -5  120  335  537  654  699  717  725  727  732  747  770  783  770  753  820  1080  1519  1950  2194  2250  2226  2204  2212  2234  2244  2238  2219  2190  2162  2151  2152  2141  2093  2004  1896  1794  1703  1586  1393  1133  883  679  466  154  -247  -601  -787  -822  -805  -804  -826  -851  -865  -874  -904  -974  -1060  -1113  -1114  -1089  -1070  -1063  -1047  -1004  -947  -896  -841  -775  -732  -744  -791  -815  -788  -755  -777  -855  -930  -960  -952  -930  -884  -796  -682  -584  -533  -532  -582  -680  -802  -907  -970  -988  -966  -904  -813  -714  -636  -600  -608  -659  -756  -887  -1015  -1107  -1150  -1153  -1126  -1070  -988  -905  -855  -848  -865  -887  -897  -883  -843  -792  -751  -728  -718  -717  -727  -744  -765  -789  -815  -838  -857  -861  -806  -651  -441  -287  -237  -252  -284  -302  -270  -147  43  211  296  311  301  292  289  289  293  302  298  218  2  -303  -565  -703  -742  -736  -720  -719  -744  -783  -817  -844  -866  -884  -901  -930  -962  -984  -1006  -1061  -1179  -1360  -1446  -1061  116  2111  4690  7342  9312  10016  9344  7502  4879  2096  -183  -1634  -2283  -2308  -1994  -1649  -1423  -1285  -1148  -988  -841  -734  -652  -559  -456  -383  -360  -371  -390  -396  -371  -316  -240  -157  -86  -33  13  75  161  251  325  386  442  493  546  609  683  756  804  837  913  1111  1447  1817  2091  2230  2272  2271  2260  2246  2232  2221  2217  2212  2191  2147  2093  2033  1944  1815  1665  1527  1386  1175  875  579  381  249  73  -174  -429  -627  -762  -863  -954  -1035  -1089  -1114  -1126  -1135  -1148  -1163  -1175  -1180  -1169  -1134  -1086  -1051  -1036  -1036  -1051  -1086  -1126  -1128  -1061  -949  -851  -795  -768  -755  -754  -755  -737  -688  -639  -639  -693  -756  -797  -812  -815  -824  -841  -861  -883  -899  -901  -894  -879  -859  -853  -866  -886  -907  -933  -955  -953  -927  -901  -891  -897  -922  -974  -1048  -1114  -1149  -1152  -1133  -1099  -1058  -1026  -1012  -1017  -1027  -1031  -1031  -1034  -1044  -1054  -1054  -1037  -1004  -953  -879  -799  -730  -666  -591  -512  -432  -356  -288  -216  -127  -33  30  43  19  -21  -81  -179  -319  -478  -620  -730  -819  -895  -942  -962  -977  -997  -1013  -1020  -1019  -1016  -1018  -1031  -1053  -1062  -1052  -1057  -1128  -1289  -1451  -1370  -737  700  3020  5958  8854  10874  11375  10195  7692  4584  1718  -314  -1430  -1828  -1759  -1506  -1254  -1029  -842  -737  -731  -786  -851  -908  -957  -986  -950  -798  -556  -337  -221  -184  -171  -160  -146  -117  -64  5  78  151  220  263  280  312  401  555  734  885  982  1045  1136  1302  1520  1732  1912  2089  2271  2410  2478  2507  2546  2629  2742  2830  2841  2765  2635  2495  2365  2240  2109  1962  1781  1550  1260  936  652  472  374  268  76  -186  -428  -579  -652  -708  -787  -873  -959  -1079  -1237  -1373  -1440  -1437  -1364  -1227  -1076  -981  -954  -960  -970  -980  -994  -999  -981  -950  -932  -935  -953  -968  -950  -895  -842  -820  -819  -822  -821  -815  -803  -787  -778  -790  -819  -852  -880  -908  -943  -966  -959  -939  -934  -942  -943  -926  -897  -872  -860  -857  -857  -866  -893  -935  -972  -990  -989  -983  -990  -1029  -1090  -1152  -1199  -1223  -1215  -1172  -1085  -961  -839  -745  -673  -599  -497  -366  -243  -165  -146  -172  -211  -230  -224  -203  -173  -134  -110  -155  -310  -530  -716  -834  -926  -1015  -1081  -1104  -1098  -1100  -1125  -1161  -1192  -1213  -1229  -1241  -1244  -1233  -1243  -1342  -1589  -1945  -2216  -2090  -1254  475  3037  6066  8918  10849  11306  10155  7687  4561  1595  -610  -1838  -2211  -2107  -1908  -1777  -1680  -1557  -1424  -1337  -1312  -1316  -1307  -1260  -1178  -1071  -942  -808  -713  -677  -670  -647  -582  -493  -424  -398  -396  -384  -335  -235  -108  4  93  186  302  442  592  725  823  921  1075  1293  1531  1756  1959  2135  2274  2372  2450  2530  2591  2601  2563  2499  2435  2373  2289  2187  2104  2062  2020  1895  1629  1262  881  523  206  -17  -127  -162  -173  -193  -241  -330  -454  -596  -737  -859  -951  -1003  -998  -937  -852  -771  -703  -649  -618  -608  -607  -608  -614  -627  -644  -664  -681  -689  -684  -660  -622  -588  -565  -539  -503  -487  -521  -583  -636  -670  -688  -699  -719  -749  -771  -766  -728  -672  -631  -616  -619  -641  -697  -777  -860  -925  -947  -913  -861  -835  -832  -821  -778  -713  -652  -618  -615  -661  -769  -906  -1008  -1052  -1068  -1088  -1115  -1127  -1080  -926  -679  -441  -309  -280  -294  -308  -313  -311  -298  -267  -228  -195  -188  -239  -345  -473  -618  -773  -906  -1018  -1130  -1221  -1269  -1280  -1275  -1269  -1264  -1262  -1261  -1260  -1265  -1286  -1320  -1344  -1320  -1267  -1304  -1531  -1881  -2080  -1694  -336  2055  5186  8449  10954  11900  11037  8668  5443  2229  -212  -1602  -2090  -1944  -1481  -1061  -866  -834  -843  -848  -848  -854  -870  -893  -929  -972  -993  -959  -862  -730  -610  -517  -418  -280  -126  -10  44  62  76  101  151  228  305  365  432  534  662  791  906  995  1062  1133  1238  1398  1638  1942  2224  2414  2511  2554  2580  2605  2628  2641  2633  2581  2463  2304  2161  2047  1908  1677  1334  960  673  527  478  419  235  -91  -434  -659  -771  -843  -900  -930  -937  -934  -932  -928  -920  -910  -901  -898  -900  -906  -916  -925  -931  -930  -927  -924  -920  -885  -785  -643  -525  -464  -443  -443  -456  -487  -538  -588  -609  -590  -534  -467  -417  -395  -391  -388  -379  -391  -462  -582  -699  -788  -863  -939  -1005  -1049  -1065  -1038  -952  -828  -725  -676  -662  -662  -671  -695  -738  -788  -824  -849  -884  -930  -969  -991  -998  -978  -900  -768  -625  -510  -418  -342  -291  -266  -257  -276  -378  -618  -949  -1228  -1362  -1378  -1341  -1293  -1263  -1267  -1287  -1301  -1300  -1282  -1254  -1223  -1195  -1177  -1184  -1248  -1381  -1558  -1749  -1891  -1773  -1062  459  2744  5447  7884  9240  9056  7427  4833  1961  -477  -2051  -2760  -2820  -2456  -1938  -1485  -1151  -935  -837  -809  -789  -756  -715  -674  -630  -579  -526  -479  -439  -397  -347  -284  -207  -137  -96  -74  -54  -32  -18  4  82  245  458  644  775  889  1014  1129  1201  1232  1261  1341  1502  1741  2035  2340  2593  2744  2801  2806  2797  2792  2794  2790  2749  2648  2520  2413  2310  2131  1818  1429  1097  882  725  545  299  14  -226  -356  -391  -396  -420  -484  -586  -708  -834  -948  -1020  -1046  -1044  -1016  -952  -869  -809  -789  -788  -785  -776  -768  -766  -765  -757  -741  -721  -687  -636  -597  -602  -652  -716  -754  -748  -710  -661  -617  -575  -528  -481  -450  -444  -458  -487  -515  -527  -529  -535  -552  -572  -573  -545  -495  -445  -410  -378  -328  -268  -217  -157  -77  -9  20  28  44  74  101  112  117  126  140  150  134  68  -44  -163  -252  -316  -385  -466  -554  -662  -781  -865  -893  -887  -877  -866  -847  -819  -798  -806  -853  -933  -1026  -1121  -1214  -1271  -1203  -895  -214  968  2705  4787  6688  7770  7563  6012  3596  1119  -738  -1746  -2072  -1988  -1729  -1429  -1124  -866  -725  -696  -705  -674  -563  -409  -291  -232  -198  -168  -149  -150  -161  -161  -133  -79  -11  70  171  287  388  444  459  451  426  382  322  271  259  303  389  483  559  618  696  843  1089  1402  1692  1877  1962  1998  2011  1981  1908  1837  1792  1758  1730  1709  1679  1606  1438  1162  837  532  278  79  -99  -320  -602  -876  -1050  -1124  -1176  -1245  -1312  -1360  -1400  -1443  -1481  -1504  -1509  -1495  -1469  -1445  -1422  -1387  -1342  -1309  -1290  -1260  -1208  -1148  -1096  -1056  -1022  -985  -950  -944  -984  -1045  -1090  -1112  -1118  -1107  -1070  -1002  -924  -876  -893  -985  -1114  -1209  -1232  -1194  -1117  -1038  -988  -975  -997  -1054  -1121  -1146  -1098  -1008  -928  -877  -842  -809  -767  -709  -637  -553  -464  -383  -314  -258  -220  -197  -180  -170  -183  -231  -302  -374  -448  -529  -618  -728  -852  -944  -981  -991  -1002  -1020  -1040  -1054  -1057  -1052  -1042  -1031  -1015  -989  -961  -977  -1108  -1356  -1566  -1479  -849  500  2599  5149  7591  9320  9835  8937  6833  4062  1389  -520  -1459  -1615  -1348  -1032  -857  -790  -743  -686  -633  -599  -579  -533  -428  -299  -222  -221  -266  -319  -354  -365  -363  -352  -324  -273  -199  -101  43  251  474  629  689  695  697  740  847  993  1121  1200  1242  1279  1356  1516  1766  2054  2288  2419  2472  2487  2489  2478  2447  2394  2336  2295  2271  2246  2194  2087  1893  1604  1276  994  792  649  522  372  190  -5  -204  -405  -600  -760  -859  -919  -1001  -1144  -1293  -1359  -1331  -1277  -1239  -1211  -1174  -1113  -1023  -925  -859  -834  -831  -839  -864  -921  -994  -1052  -1080  -1085  -1061  -1008  -953  -923  -912  -898  -870  -828  -784  -751  -736  -737  -753  -793  -869  -958  -1003  -988  -970  -983  -995  -956  -855  -747  -694  -715  -803  -926  -1035  -1102  -1133  -1141  -1129  -1087  -1016  -929  -842  -769  -724  -692  -655  -615  -583  -546  -477  -362  -212  -74  7  31  16  -29  -91  -146  -172  -167  -157  -217  -410  -692  -928  -1050  -1083  -1068  -1029  -995  -981  -991  -1022  -1065  -1104  -1136  -1167  -1201  -1225  -1230  -1266  -1401  -1547  -1446  -888  221  1997  4427  7124  9364  10378  9761  7706  4869  2116  125  -962  -1433  -1606  -1630  -1532  -1350  -1171  -1054  -983  -942  -961  -1034  -1081  -996  -735  -391  -131  -32  -52  -117  -198  -299  -410  -477  -421  -243  -31  137  233  269  302  374  454  495  497  498  560  727  966  1191  1338  1402  1410  1411  1473  1663  1969  2283  2505  2616  2656  2665  2667  2660  2617  2492  2264  1969  1692  1516  1440  1370  1225  998  742  499  255  -22  -305  -506  -592  -612  -625  -653  -718  -833  -968  -1062  -1101  -1121  -1147  -1162  -1128  -1032  -932  -898  -902  -872  -819  -789  -789  -801  -811  -815  -809  -790  -764  -746  -740  -741  -744  -744  -739  -725  -704  -676  -649  -628  -616  -621  -651  -698  -740  -760  -764  -765  -769  -774  -781  -806  -856  -915  -954  -965  -958  -941  -914  -881  -848  -823  -809  -812  -834  -871  -908  -938  -966  -989  -1010  -1038  -1068  -1081  -1060  -1005  -943  -906  -892  -880  -861  -841  -824  -803  -768  -714  -655  -596  -539  -486  -448  -429  -404  -328  -185  -38  24  -26  -131  -213  -262  -320  -400  -478  -551  -629  -699  -754  -796  -798  -737  -647  -586  -569  -573  -574  -567  -562  -563  -558  -525  -445  -332  -266  -321  -430  -378  108  1289  3268  5845  8529  10604  11398  10651  8544  5602  2627  323  -1052  -1592  -1559  -1291  -1043  -912  -868  -828  -737  -613  -505  -430  -378  -347  -336  -342  -353  -367  -388  -412  -421  -411  -394  -381  -363  -328  -267  -175  -55  70  176  273  365  426  449  461  486  545  677  904  1185  1429  1578  1655  1720  1817  1953  2088  2175  2216  2252  2299  2339  2354  2342  2296  2207  2056  1835  1573  1318  1110  971  884  793  623  328  -41  -372  -616  -792  -904  -952  -964  -968  -975  -984  -996  -1005  -1009  -1000  -974  -938  -911  -901  -902  -905  -914  -925  -932  -938  -953  -981  -1015  -1037  -1031  -998  -952  -897  -840  -799  -784  -777  -764  -750  -744  -743  -742  -734  -724  -734  -783  -866  -947  -1000  -1039  -1077  -1102  -1092  -1054  -1028  -1029  -1025  -1015  -1033  -1069  -1083  -1075  -1066  -1062  -1058  -1051  -1045  -1042  -1038  -1029  -1020  -1018  -1032  -1061  -1087  -1096  -1103  -1105  -1081  -1032  -981  -950  -941  -946  -960  -974  -970  -927  -856  -791  -753  -748  -767  -779  -751  -688  -623  -576  -532  -433  -239  -8  152  208  198  150  60  -46  -124  -170  -233  -343  -481  -617  -739  -830  -878  -891  -888  -886  -892  -899  -892  -860  -822  -809  -841  -908  -992  -1121  -1342  -1656  -1902  -1676  -545  1621  4585  7774  10362  11595  11168  9311  6551  3525  892  -913  -1811  -1948  -1623  -1225  -1025  -1029  -1073  -1041  -933  -801  -689  -625  -606  -616  -631  -635  -633  -638  -644  -621  -535  -392  -243  -127  -38  51  143  216  252  262  268  290  337  419  546  706  885  1065  1218  1321  1394  1484  1611  1782  1997  2216  2372  2445  2483  2536  2610  2676  2709  2711  2686  2605  2439  2220  1993  1741  1476  1274  1135  963  713  436  195  -6  -196  -359  -452  -475  -487  -551  -675  -809  -901  -943  -957  -958  -938  -894  -841  -804  -783  -739  -640  -501  -375  -300  -288  -362  -549  -789  -961  -1014  -987  -922  -846  -779  -741  -732  -744  -767  -796  -836  -880  -895  -847  -761  -691  -665  -672  -693  -716  -734  -738  -717  -665  -598  -552  -562  -634  -738  -819  -854  -845  -799  -738  -692  -674  -679  -703  -750  -817  -879  -901  -858  -776  -711  -690  -700  -715  -727  -738  -747  -746  -732  -710  -679  -633  -576  -537  -545  -609  -702  -791  -877  -966  -1033  -1059  -1042  -989  -919  -853  -780  -677  -566  -478  -410  -350  -312  -305  -304  -277  -196  -63  78  176  225  251  250  191  83  -34  -172  -347  -530  -672  -752  -781  -785  -790  -813  -848  -878  -897  -914  -936  -954  -962  -961  -944  -904  -853  -816  -828  -961  -1235  -1408  -997  452  3038  6309  9349  11192  11313  9825  7264  4346  1760  -64  -1057  -1369  -1253  -994  -822  -786  -793  -776  -749  -713  -646  -561  -501  -488  -495  -468  -378  -249  -126  -22  67  127  147  143  146  180  253  360  490  625  751  847  891  898  905  915  911  898  908  980  1113  1259  1376  1472  1563  1639  1717  1834  1986  2114  2182  2208  2225  2234  2206  2129  2013  1856  1654  1431  1209  973  700  406  159  -2  -125  -273  -453  -640  -824  -1014  -1196  -1323  -1379  -1387  -1382  -1378  -1379  -1379  -1373  -1357  -1336  -1317  -1289  -1243  -1199  -1175  -1156  -1125  -1096  -1083  -1081  -1081  -1086  -1103  -1132  -1161  -1173  -1133  -1010  -839  -713  -695  -779  -915  -1029  -1073  -1053  -1010  -978  -965  -959  -954  -951  -954  -964  -976  -977  -947  -886  -836  -831  -846  -843  -829  -828  -849  -881  -898  -881  -826  -754  -721  -755  -812  -842  -842  -831  -809  -765  -701  -645  -617  -615  -623  -627  -612  -568  -510  -467  -447  -419  -348  -244  -149  -73  0  69  121  167  231  291  294  229  130  25  -74  -165  -251  -348  -461  -572  -654  -697  -715  -727  -742  -752  -748  -744  -751  -772  -796  -794  -772  -760  -746  -738  -777  -769  -442  494  2182  4430  6669  8172  8421  7357  5299  2812  561  -999  -1827  -2128  -2073  -1765  -1370  -1059  -858  -691  -523  -383  -294  -238  -192  -152  -106  -44  15  48  56  60  73  94  119  152  194  233  264  307  390  500  586  628  675  787  975  1201  1417  1587  1701  1777  1848  1946  2092  2296  2534  2751  2910  3006  3046  3051  3046  3047  3044  3016  2934  2784  2574  2334  2100  1880  1654  1430  1247  1113  980  780  461  43  -348  -597  -736  -881  -1073  -1241  -1315  -1317  -1300  -1272  -1225  -1185  -1177  -1199  -1227  -1242  -1263  -1319  -1396  -1454  -1481  -1495  -1500  -1478  -1429  -1360  -1264  -1148  -1043  -968  -922  -910  -942  -1014  -1108  -1208  -1282  -1281  -1204  -1096  -993  -908  -838  -786  -761  -771  -809  -855  -897  -946  -1014  -1073  -1081  -1045  -1011  -999  -996  -985  -959  -923  -885  -859  -852  -866  -905  -959  -1006  -1012  -929  -736  -502  -345  -307  -348  -409  -447  -425  -327  -189  -87  -74  -159  -315  -491  -649  -747  -748  -678  -626  -648  -727  -835  -982  -1158  -1300  -1365  -1352  -1247  -1059  -849  -664  -502  -389  -405  -469  -257  552  2036  3952  5733  6693  6468  5252  3510  1674  143  -905  -1596  -2016  -2075  -1752  -1248  -847  -664  -584  -463  -294  -166  -126  -139  -154  -161  -169  -157  -100  -5  104  196  240  249  272  355  502  658  757  771  736  711  724  768  819  873  957  1082  1208  1298  1393  1569  1811  2012  2110  2143  2190  2294  2423  2509  2535  2531  2522  2508  2471  2396  2280  2137  1994  1864  1705  1459  1158  913  749  579  329  25  -254  -460  -588  -648  -661  -662  -694  -778  -901  -1033  -1150  -1245  -1305  -1323  -1287  -1183  -1041  -938  -924  -999  -1116  -1208  -1238  -1211  -1153  -1095  -1055  -1036  -1065  -1143  -1214  -1244  -1251  -1262  -1278  -1282  -1271  -1268  -1289  -1296  -1238  -1127  -1036  -1019  -1078  -1184  -1300  -1395  -1453  -1481  -1498  -1502  -1454  -1316  -1110  -912  -766  -669  -614  -592  -596  -614  -642  -677  -711  -732  -737  -734  -726  -715  -700  -687  -714  -825  -995  -1141  -1214  -1228  -1228  -1253  -1316  -1396  -1469  -1523  -1545  -1516  -1438  -1327  -1210  -1128  -1090  -1081  -1147  -1329  -1489  -1330  -563  958  3072  5266  6954  7704  7313  5929  4036  2177  711  -212  -629  -704  -607  -445  -290  -169  -71  11  61  48  -13  -67  -80  -73  -80  -114  -163  -209  -241  -244  -191  -52  153  352  471  503  486  474  506  584  665  710  716  708  697  685  679  707  804  954  1106  1238  1359  1472  1570  1643  1699  1753  1799  1819  1823  1827  1833  1818  1736  1537  1229  910  681  545  445  352  248  79  -189  -487  -700  -802  -843  -870  -908  -950  -976  -980  -975  -969  -967  -977  -1006  -1039  -1045  -1001  -935  -889  -875  -868  -858  -851  -850  -853  -853  -854  -875  -923  -966  -963  -887  -744  -590  -489  -455  -466  -499  -532  -559  -594  -645  -690  -691  -627  -539  -479  -452  -432  -400  -353  -315  -312  -331  -346  -348  -346  -344  -344  -345  -340  -320  -278  -227  -188  -168  -170  -220  -339  -494  -627  -726  -801  -843  -846  -833  -820  -814  -811  -808  -806  -803  -790  -755  -666  -518  -414  -510  -777  -958  -753  96  1692  3785  5803  7126  7366  6532  4966  3148  1527  319  -518  -1053  -1275  -1242  -1093  -931  -807  -730  -661  -570  -480  -428  -417  -426  -437  -427  -379  -292  -189  -84  7  59  59  32  10  7  28  87  195  326  420  455  459  482  546  627  679  706  758  884  1089  1321  1492  1574  1610  1636  1641  1607  1551  1514  1512  1522  1525  1517  1492  1424  1281  1067  838  634  438  221  -8  -207  -324  -364  -372  -387  -434  -552  -762  -999  -1153  -1182  -1125  -1044  -979  -934  -898  -880  -890  -920  -947  -959  -963  -963  -941  -880  -800  -737  -683  -614  -555  -563  -622  -657  -651  -647  -675  -731  -787  -810  -795  -766  -747  -737  -712  -658  -590  -537  -500  -462  -420  -384  -360  -344  -337  -336  -329  -298  -246  -196  -170  -172  -193  -220  -239  -244  -237  -220  -208  -238  -356  -544  -717  -812  -837  -836  -838  -850  -865  -875  -866  -825  -757  -682  -628  -618  -660  -762  -920  -1072  -1121  -970  -533  215  1309  2841  4729  6522  7621  7598  6394  4398  2246  488  -609  -1098  -1182  -1079  -975  -925  -864  -758  -637  -542  -507  -522  -541  -538  -525  -512  -499  -482  -465  -447  -426  -401  -359  -271  -128  20  113  140  133  121  125  160  234  335  435  508  556  606  690  815  960  1092  1197  1280  1347  1389  1401  1395  1393  1416  1473  1539  1559  1498  1377  1232  1075  913  780  694  640  560  396  177  -15  -163  -301  -437  -545  -623  -695  -784  -887  -977  -1030  -1052  -1060  -1066  -1069  -1069  -1061  -1041  -1020  -1016  -1030  -1049  -1079  -1134  -1200  -1211  -1108  -913  -744  -696  -749  -816  -851  -866  -893  -948  -1015  -1065  -1084  -1074  -1038  -979  -915  -870  -853  -855  -872  -912  -974  -1034  -1059  -1049  -1037  -1047  -1058  -1041  -994  -938  -893  -871  -872  -883  -888  -862  -789  -687  -600  -540  -488  -433  -375  -319  -280  -264  -265  -274  -290  -313  -344  -384  -442  -524  -615  -693  -765  -846  -923  -952  -904  -818  -761  -762  -797  -832  -861  -895  -933  -962  -979  -993  -1011  -1045  -1145  -1333  -1489  -1399  -870  278  2110  4397  6606  8135  8567  7796  6054  3825  1673  36  -932  -1346  -1387  -1220  -985  -758  -584  -491  -461  -455  -453  -457  -464  -455  -391  -260  -120  -41  -21  4  66  140  203  249  283  311  342  376  405  426  458  533  646  752  827  900  995  1093  1185  1312  1484  1642  1733  1766  1773  1786  1830  1912  2006  2074  2102  2105  2104  2105  2086  2017  1893  1755  1634  1521  1380  1185  930  634  346  122  -12  -86  -148  -230  -341  -457  -541  -581  -592  -587  -575  -564  -558  -557  -559  -560  -558  -549  -517  -451  -372  -326  -335  -375  -410  -424  -416  -382  -326  -271  -235  -225  -249  -321  -426  -524  -581  -596  -587  -579  -578  -575  -552  -503  -449  -425  -446  -494  -536  -557  -561  -560  -559  -559  -556  -542  -519  -500  -499  -511  -530  -554  -578  -591  -593  -598  -615  -645  -684  -736  -797  -825  -788  -730  -718  -774  -864  -934  -966  -969  -930  -820  -663  -532  -472  -471  -504  -553  -605  -648  -678  -700  -726  -751  -760  -736  -673  -588  -519  -485  -485  -514  -552  -575  -578  -571  -560  -554  -554  -556  -557  -547  -516  -456  -372  -283  -201  -130  -75  -47  -46  -63  -79  -80  -64  -35  2  39  67  81  76  47  -21  -144  -323  -522  -680  -766  -795  -801  -801  -799  -797  -795  -801  -821  -850  -900  -974  -1016  -1002  -983  -854  -332  812  2629  4914  7148  8645  8904  7873  5880  3495  1340  -204  -1104  -1504  -1589  -1524  -1379  -1154  -904  -715  -614  -575  -563  -551  -511  -432  -335  -251  -194  -160  -147  -151  -159  -162  -163  -165  -158  -125  -66  0  70  165  282  389  494  626  775  905  1012  1105  1175  1223  1267  1318  1393  1520  1682  1821  1908  1954  1974  1962  1906  1815  1731  1686  1678  1687  1699  1682  1558  1282  944  685  528  397  240  69  -82  -205  -322  -443  -545  -606  -636  -664  -714  -786  -866  -941  -1008  -1055  -1071  -1052  -999  -925  -853  -797  -758  -719  -648  -538  -429  -354  -313  -304  -333  -391  -451  -490  -505  -500  -467  -398  -305  -221  -171  -154  -156  -175  -220  -291  -372  -449  -505  -529  -520  -491  -457  -417  -354  -283  -238  -231  -249  -278  -304  -323  -328  -323  -317  -318  -328  -344  -369  -402  -437  -445  -408  -356  -355  -445  -600  -740  -808  -813  -786  -742  -681  -608  -531  -457  -415  -436  -528  -694  -910  -1105  -1210  -1197  -1097  -980  -902  -874  -874  -874  -859  -835  -817  -808  -792  -753  -696  -631  -558  -490  -466  -494  -541  -565  -555  -543  -563  -608  -647  -668  -678  -687  -700  -719  -738  -738  -676  -530  -347  -203  -120  -68  -33  -13  3  23  43  57  66  74  84  85  51  -44  -185  -321  -429  -520  -592  -618  -585  -516  -453  -421  -425  -460  -506  -539  -552  -563  -596  -660  -751  -901  -1133  -1345  -1302  -743  492  2397  4733  7002  8571  8949  8004  5986  3468  1160  -426  -1204  -1397  -1274  -1046  -875  -814  -817  -825  -815  -781  -694  -518  -293  -121  -33  16  40  2  -87  -156  -152  -90  -15  48  112  186  267  354  444  519  556  556  548  571  668  857  1082  1246  1329  1382  1428  1463  1532  1696  1928  2120  2220  2271  2333  2411  2467  2486  2485  2481  2486  2498  2476  2339  2025  1574  1115  760  517  315  122  -27  -118  -192  -294  -429  -590  -772  -947  -1062  -1098  -1091  -1076  -1072  -1089  -1127  -1184  -1251  -1303  -1305  -1256  -1190  -1135  -1090  -1047  -1003  -959  -926  -912  -914  -909  -872  -789  -676  -572  -514  -510  -543  -589  -624  -638  -636  -627  -619  -616  -619  -626  -638  -651  -660  -660  -651  -639  -630  -627  -627  -629  -632  -636  -647  -670  -705  -742  -770  -785  -784  -765  -729  -682  -642  -621  -619  -629  -644  -663  -688  -710  -720  -703  -649  -575  -525  -516  -523  -525  -530  -564  -645  -745  -810  -810  -755  -676  -612  -578  -561  -541  -510  -482  -466  -463  -470  -493  -529  -575  -632  -692  -736  -753  -740  -694  -624  -546  -475  -424  -395  -378  -376  -376  -343  -255  -138  -20  109  255  372  419  400  349  290  224  155  107  84  52  -38  -213  -428  -611  -724  -771  -776  -766  -758  -758  -764  -767  -763  -756  -760  -767  -763  -763  -793  -836  -868  -871  -717  -158  1025  2886  5205  7441  8895  9073  7939  5816  3256  942  -643  -1464  -1717  -1583  -1269  -999  -853  -789  -761  -759  -770  -781  -764  -683  -541  -390  -281  -220  -182  -151  -117  -67  0  58  93  102  94  81  83  126  222  345  448  506  528  561  662  833  1016  1171  1309  1451  1582  1674  1734  1797  1887  2012  2167  2338  2498  2605  2640  2621  2582  2543  2499  2440  2365  2262  2096  1847  1541  1242  979  721  435  133  -138  -327  -414  -432  -446  -508  -614  -721  -796  -845  -884  -921  -962  -1007  -1041  -1057  -1059  -1056  -1059  -1067  -1062  -1014  -897  -736  -605  -550  -580  -686  -825  -922  -920  -820  -679  -575  -539  -559  -626  -718  -797  -833  -835  -823  -807  -782  -738  -679  -629  -609  -621  -650  -682  -720  -767  -812  -835  -836  -831  -825  -807  -778  -750  -727  -707  -685  -665  -649  -638  -627  -617  -605  -588  -579  -588  -607  -628  -650  -673  -690  -697  -693  -683  -669  -664  -685  -735  -804  -871  -918  -934  -894  -779  -623  -505  -460  -480  -563  -706  -861  -968  -1007  -969  -828  -599  -376  -240  -195  -194  -202  -204  -200  -197  -193  -167  -96  1  76  106  114  112  86  23  -65  -166  -304  -486  -658  -764  -809  -822  -800  -728  -634  -589  -632  -735  -831  -882  -898  -930  -1028  -1184  -1318  -1373  -1322  -1019  -213  1228  3234  5562  7711  8993  8950  7589  5269  2625  389  -1023  -1657  -1777  -1630  -1388  -1167  -1024  -931  -844  -768  -723  -703  -687  -668  -632  -560  -464  -392  -358  -335  -300  -257  -225  -202  -165  -96  -5  71  127  195  289  377  426  452  489  545  617  716  857  1020  1171  1299  1416  1549  1722  1924  2108  2237  2335  2433  2522  2575  2591  2593  2589  2583  2581  2592  2596  2521  2282  1869  1391  996  743  558  347  97  -132  -291  -376  -432  -514  -639  -770  -856  -888  -891  -899  -933  -1000  -1080  -1139  -1159  -1140  -1084  -1009  -948  -909  -881  -862  -852  -849  -848  -845  -833  -805  -762  -715  -671  -624  -580  -549  -541  -560  -585  -594  -585  -573  -576  -594  -616  -631  -635  -619  -576  -520  -490  -506  -556  -616  -675  -734  -785  -817  -830  -836  -846  -851  -826  -748  -633  -533  -475  -458  -493  -595  -735  -846  -901  -913  -894  -843  -756  -652  -562  -493  -443  -430  -481  -591  -720  -819  -869  -883  -880  -852  -783  -689  -622  -600  -604  -611  -619  -633  -643  -629  -589  -542  -500  -462  -415  -347  -229  -40  169  309  346  321  282  246  205  145  60  -46  -180  -332  -461  -538  -574  -607  -651  -691  -704  -694  -675  -662  -663  -682  -726  -804  -906  -1002  -1068  -1096  -1104  -1144  -1205  -1094  -519  719  2644  5065  7486  9176  9546  8509  6409  3826  1473  -202  -1225  -1745  -1850  -1670  -1379  -1103  -885  -729  -670  -728  -842  -908  -860  -710  -520  -360  -274  -255  -266  -277  -284  -286  -277  -245  -193  -130  -63  -1  46  97  185  308  429  519  582  627  670  742  867  1037  1208  1331  1388  1419  1518  1755  2093  2418  2636  2734  2753  2734  2690  2627  2559  2510  2482  2446  2357  2193  1981  1727  1386  957  545  236  0  -198  -339  -422  -498  -604  -745  -893  -1014  -1091  -1129  -1140  -1139  -1133  -1128  -1131  -1142  -1159  -1170  -1158  -1105  -1010  -902  -826  -794  -779  -750  -707  -683  -694  -729  -760  -769  -759  -741  -712  -670  -629  -605  -601  -617  -655  -712  -765  -785  -768  -739  -728  -733  -717  -670  -629  -622  -634  -642  -643  -645  -651  -661  -669  -671  -664  -651  -646  -655  -676  -699  -715  -727  -741  -754  -758  -757  -755  -753  -749  -747  -759  -797  -859  -916  -945  -937  -893  -831  -782  -760  -758  -764  -778  -802  -827  -841  -838  -818  -794  -780  -768  -738  -681  -623  -575  -521  -448  -357  -258  -178  -128  -98  -79  -74  -80  -89  -92  -87  -80  -92  -157  -298  -505  -735  -932  -1040  -1044  -969  -868  -797  -777  -794  -832  -872  -897  -904  -903  -903  -908  -936  -1040  -1264  -1531  -1605  -1147  119  2235  4950  7758  9907  10683  9826  7570  4541  1622  -483  -1604  -1951  -1850  -1574  -1289  -1087  -990  -942  -872  -777  -700  -652  -604  -546  -496  -469  -463  -468  -467  -440  -379  -304  -238  -186  -144  -93  -3  106  188  228  247  266  309  407  564  739  882  976  1041  1108  1197  1333  1531  1760  1967  2123  2231  2303  2340  2346  2342  2372  2469  2604  2704  2722  2665  2566  2448  2302  2075  1730  1324  989  789  661  496  245  -37  -252  -376  -476  -593  -700  -773  -830  -897  -978  -1057  -1124  -1150  -1097  -978  -860  -787  -760  -764  -788  -828  -875  -923  -955  -954  -895  -774  -637  -552  -531  -541  -554  -563  -566  -555  -525  -491  -477  -484  -500  -521  -546  -578  -613  -642  -656  -661  -663  -662  -654  -631  -599  -574  -557  -528  -482  -432  -396  -393  -436  -504  -553  -571  -593  -656  -745  -810  -827  -810  -780  -746  -717  -692  -665  -637  -620  -623  -630  -631  -632  -643  -667  -698  -726  -733  -716  -701  -710  -732  -736  -692  -598  -497  -424  -357  -252  -117  -12  32  35  24  10  -14  -49  -91  -147  -240  -365  -483  -567  -644  -761  -914  -1044  -1106  -1114  -1101  -1084  -1077  -1092  -1127  -1167  -1188  -1169  -1124  -1081  -1046  -1030  -1070  -1225  -1479  -1593  -1242  -221  1518  3788  6068  7688  8119  7179  5140  2632  348  -1252  -2069  -2304  -2230  -2005  -1704  -1406  -1149  -928  -762  -676  -648  -631  -594  -521  -431  -366  -342  -336  -323  -290  -246  -218  -214  -218  -206  -149  -32  122  274  398  478  518  534  542  566  639  763  907  1052  1202  1367  1546  1715  1846  1955  2093  2287  2510  2700  2807  2839  2837  2829  2811  2757  2650  2509  2367  2220  2029  1793  1554  1327  1090  815  486  161  -51  -136  -184  -270  -408  -583  -756  -872  -915  -919  -917  -919  -916  -891  -835  -767  -719  -700  -702  -716  -737  -762  -789  -819  -837  -827  -790  -738  -683  -643  -626  -621  -608  -574  -527  -511  -555  -623  -658  -651  -638  -636  -627  -596  -555  -520  -498  -493  -504  -525  -545  -564  -584  -586  -550  -492  -456  -464  -498  -526  -540  -544  -536  -512  -480  -464  -479  -524  -588  -669  -764  -835  -813  -673  -473  -308  -227  -213  -223  -230  -219  -172  -81  28  105  129  121  100  74  42  5  -58  -188  -372  -527  -608  -650  -703  -763  -803  -822  -844  -884  -940  -989  -1016  -1022  -1022  -1032  -1062  -1124  -1220  -1335  -1449  -1530  -1450  -976  47  1646  3743  6013  7816  8533  7887  6004  3428  950  -849  -1834  -2165  -2123  -1948  -1758  -1571  -1378  -1179  -985  -826  -724  -674  -658  -658  -668  -684  -696  -673  -579  -420  -260  -153  -109  -98  -92  -77  -53  -10  48  100  132  171  254  360  437  485  571  736  943  1106  1169  1169  1219  1432  1781  2104  2276  2323  2338  2379  2449  2520  2566  2581  2563  2500  2389  2249  2086  1902  1689  1426  1118  804  518  266  46  -144  -309  -464  -633  -802  -927  -978  -965  -948  -970  -1011  -1018  -974  -905  -849  -817  -798  -782  -770  -761  -759  -773  -802  -825  -807  -726  -611  -519  -476  -462  -463  -490  -545  -616  -678  -725  -758  -766  -728  -652  -566  -490  -440  -424  -458  -557  -690  -789  -818  -788  -719  -638  -575  -548  -548  -565  -598  -650  -720  -789  -830  -841  -839  -834  -825  -809  -790  -781  -788  -802  -813  -826  -849  -868  -876  -878  -883  -886  -861  -784  -666  -560  -507  -500  -512  -525  -518  -463  -338  -172  -39  19  28  27  30  21  -26  -126  -260  -388  -474  -534  -614  -728  -827  -857  -830  -800  -807  -858  -916  -941  -936  -929  -947  -992  -1043  -1097  -1169  -1265  -1381  -1476  -1430  -1039  -52  1697  4111  6726  8798  9664  9074  7183  4494  1761  -348  -1543  -1901  -1744  -1423  -1156  -1011  -942  -876  -804  -748  -720  -710  -701  -675  -625  -560  -497  -449  -426  -427  -429  -393  -290  -149  -30  41  78  94  101  124  184  275  374  493  654  829  954  1003  1011  1018  1043  1117  1283  1534  1800  2033  2218  2346  2418  2453  2469  2478  2485  2492  2505  2520  2522  2469  2315  2056  1747  1447  1196  1011  876  719  469  156  -131  -364  -547  -672  -760  -865  -1002  -1138  -1234  -1252  -1173  -1033  -912  -857  -853  -865  -869  -857  -831  -802  -783  -782  -798  -830  -867  -887  -875  -831  -759  -664  -571  -514  -510  -549  -609  -663  -701  -723  -719  -690  -657  -634  -620  -610  -602  -596  -608  -655  -726  -770  -754  -712  -685  -675  -670  -665  -671  -692  -715  -715  -691  -659  -633  -614  -604  -615  -652  -704  -750  -789  -833  -876  -903  -913  -910  -890  -839  -751  -652  -599  -614  -666  -708  -722  -719  -712  -706  -704  -704  -697  -667  -602  -500  -372  -240  -131  -57  -20  -13  -18  -21  -17  -9  -18  -79  -214  -374  -481  -520  -534  -559  -589  -616  -651  -706  -770  -819  -845  -855  -870  -904  -960  -1021  -1050  -1034  -1027  -1136  -1427  -1760  -1830  -1343  -83  2010  4727  7527  9649  10468  9785  7801  5043  2267  105  -1206  -1721  -1646  -1321  -1068  -1004  -1044  -1079  -1071  -1014  -910  -791  -704  -658  -633  -619  -612  -604  -582  -544  -502  -462  -413  -354  -295  -240  -196  -174  -158  -116  -16  137  291  389  422  433  482  603  769  940  1107  1280  1463  1637  1792  1937  2075  2194  2284  2342  2388  2441  2506  2572  2619  2618  2517  2297  2025  1801  1646  1499  1291  1001  699  478  340  200  1  -235  -457  -639  -785  -895  -976  -1038  -1073  -1069  -1033  -991  -952  -903  -859  -845  -857  -874  -885  -892  -893  -879  -836  -774  -724  -699  -689  -687  -694  -713  -743  -767  -761  -734  -706  -689  -684  -700  -734  -770  -796  -808  -808  -799  -779  -751  -726  -720  -742  -780  -809  -807  -781  -765  -778  -806  -824  -829  -827  -810  -764  -701  -656  -651  -684  -730  -764  -776  -773  -762  -744  -736  -759  -805  -847  -868  -872  -861  -821  -752  -683  -644  -638  -648  -658  -651  -601  -501  -383  -289  -236  -215  -213  -215  -216  -219  -231  -254  -278  -292  -295  -310  -387  -559  -780  -955  -1037  -1053  -1045  -1022  -976  -922  -904  -950  -1027  -1084  -1110  -1119  -1125  -1127  -1150  -1248  -1410  -1402  -806  711  3141  6067  8693  10187  10175  8763  6324  3514  1064  -627  -1545  -1840  -1739  -1489  -1269  -1120  -1014  -941  -911  -911  -907  -870  -801  -725  -654  -580  -513  -459  -408  -365  -334  -299  -258  -230  -221  -208  -163  -80  18  120  229  331  407  457  501  558  662  850  1113  1379  1568  1661  1708  1762  1841  1953  2095  2228  2308  2344  2385  2455  2538  2591  2565  2446  2272  2086  1920  1778  1613  1375  1093  840  626  394  100  -219  -473  -597  -623  -643  -721  -843  -938  -964  -956  -960  -975  -987  -994  -1007  -1018  -1000  -948  -895  -867  -863  -869  -873  -870  -853  -824  -791  -763  -748  -749  -766  -789  -809  -819  -821  -820  -820  -818  -800  -768  -743  -742  -748  -745  -737  -730  -726  -722  -720  -727  -754  -798  -841  -863  -860  -832  -782  -725  -677  -656  -676  -733  -813  -882  -906  -886  -858  -836  -805  -757  -728  -750  -804  -863  -917  -955  -959  -903  -784  -647  -556  -535  -560  -600  -644  -684  -710  -713  -693  -654  -605  -549  -476  -356  -171  32  169  217  221  212  191  160  128  85  7  -121  -290  -460  -592  -665  -685  -680  -670  -665  -670  -693  -739  -794  -827  -799  -682  -515  -391  -391  -542  -801  -1078  -1294  -1372  -1182  -550  676  2531  4773  6876  8218  8368  7294  5334  3018  907  -605  -1455  -1787  -1744  -1463  -1108  -808  -617  -530  -514  -517  -491  -422  -335  -269  -228  -180  -100  -4  81  154  220  269  298  319  351  406  494  606  711  780  821  867  933  1008  1075  1144  1253  1397  1519  1598  1679  1805  1977  2156  2312  2450  2594  2753  2920  3074  3187  3256  3301  3326  3298  3173  2962  2740  2570  2446  2312  2102  1786  1408  1045  744  507  337  241  205  192  162  87  -27  -148  -259  -359  -437  -476  -481  -471  -462  -459  -470  -508  -573  -642  -692  -706  -674  -589  -480  -402  -378  -384  -396  -404  -409  -412  -407  -388  -357  -334  -337  -381  -469  -591  -709  -780  -790  -766  -745  -735  -723  -704  -681  -654  -631  -621  -603  -573  -557  -569  -595  -608  -597  -579  -580  -604  -629  -634  -629  -637  -657  -673  -678  -675  -676  -687  -707  -730  -737  -724  -715  -740  -782  -788  -717  -584  -431  -280  -151  -74  -60  -102  -191  -288  -334  -293  -185  -59  41  93  91  50  -1  -42  -75  -136  -257  -424  -593  -737  -853  -932  -969  -980  -999  -1042  -1104  -1162  -1200  -1216  -1215  -1189  -1122  -1030  -963  -1000  -1208  -1539  -1773  -1610  -799  761  2941  5347  7378  8448  8256  6888  4722  2292  145  -1371  -2228  -2569  -2517  -2173  -1724  -1382  -1223  -1185  -1197  -1244  -1339  -1459  -1538  -1513  -1365  -1163  -1017  -970  -978  -992  -994  -981  -957  -932  -914  -909  -909  -910  -911  -911  -912  -914  -911  -889  -820  -678  -493  -337  -252  -207  -137  -21  99  183  227  269  368  555  776  925  958  905  779  572  324  125  26  0]
