reading_id,reading_time,wire_id,result_classification,heart_rate,heart_rate_alert,firmware_version,device_app_version,hardware_version,waveform_samples
9f609300-646e-11ed-8080-808080808080,Mon Nov 14 22:49:40 UTC 2022,2101e3b12739,NSR,77,NONE,20001.171.50,2.10.0,Charge 5,[-804  -1331  -1681  -1721  -1424  -971  -618  -350  200  1421  3314  5387  6785  6728  5058  2301  -673  -2971  -4061  -4066  -3479  -2646  -1726  -970  -613  -588  -664  -717  -733  -719  -665  -556  -382  -145  103  286  362  369  396  549  865  1240  1520  1654  1709  1778  1887  2008  2131  2267  2411  2547  2668  2766  2841  2907  2968  3024  3106  3258  3469  3669  3793  3844  3852  3847  3854  3887  3941  3993  4031  4035  3943  3693  3355  3085  2949  2895  2854  2762  2562  2242  1841  1411  1014  714  539  435  307  140  7  -46  -48  -39  -28  -7  20  8  -86  -236  -410  -575  -636  -559  -446  -384  -369  -373  -381  -388  -394  -384  -349  -300  -260  -236  -225  -231  -266  -314  -349  -358  -357  -360  -373  -389  -404  -419  -434  -445  -456  -466  -465  -451  -443  -468  -550  -704  -896  -1057  -1165  -1263  -1372  -1488  -1622  -1773  -1900  -1959  -1919  -1775  -1586  -1448  -1399  -1403  -1412  -1404  -1387  -1410  -1491  -1516  -1359  -1033  -571  72  1001  2361  4109  5836  6912  6790  5276  2706  -138  -2430  -3685  -3910  -3442  -2701  -2027  -1542  -1196  -952  -800  -701  -640  -633  -660  -677  -665  -614  -505  -355  -217  -131  -95  -80  -48  25  144  295  440  551  661  825  1033  1199  1276  1288  1289  1349  1526  1777  1983  2094  2168  2275  2437  2625  2808  2995  3179  3306  3356  3361  3347  3297  3173  2990  2822  2718  2658  2586  2464  2289  2051  1731  1379  1078  802  458  79  -202  -359  -480  -616  -741  -798  -773  -717  -684  -698  -754  -843  -958  -1063  -1078  -989  -885  -835  -831  -842  -851  -859  -875  -911  -972  -1037  -1080  -1098  -1093  -1039  -908  -734  -607  -571  -603  -667  -745  -821  -883  -928  -946  -928  -881  -816  -734  -630  -486  -332  -262  -328  -468  -586  -653  -696  -736  -805  -954  -1184  -1426  -1627  -1782  -1890  -1952  -1984  -2000  -2008  -2011  -2009  -2004  -2000  -2010  -2057  -2149  -2260  -2353  -2372  -2261  -2058  -1851  -1618  -1223  -437  976  2962  5018  6366  6315  4654  1792  -1355  -3785  -4927  -4836  -4010  -3061  -2398  -2118  -2098  -2132  -2078  -1916  -1711  -1558  -1500  -1497  -1468  -1352  -1172  -1016  -937  -920  -932  -931  -857  -663  -385  -134  10  78  151  276  451  658  857  989  1054  1124  1254  1424  1580  1711  1850  2003  2151  2328  2575  2840  3026  3103  3117  3112  3111  3114  3115  3101  3055  2975  2862  2695  2426  2054  1659  1333  1116  975  818  578  290  44  -133  -276  -392  -467  -502  -532  -593  -681  -749  -760  -732  -721  -758  -811  -839  -842  -839  -840  -848  -855  -850  -818  -750  -672  -654  -750  -934  -1104  -1189  -1187  -1131  -1061  -1013  -1005  -1037  -1102  -1182  -1249  -1278  -1264  -1224  -1185  -1167  -1164  -1154  -1120  -1061  -1000  -965  -960  -946  -877  -741  -577  -451  -403  -413  -441  -490  -582  -737  -963  -1212  -1397  -1476  -1487  -1481  -1478  -1459  -1401  -1319  -1261  -1266  -1331  -1417  -1481  -1531  -1604  -1699  -1782  -1842  -1869  -1772  -1442  -850  10  1192  2724  4489  6168  7204  6971  5295  2661  -130  -2283  -3322  -3349  -2821  -2156  -1593  -1244  -1115  -1094  -1071  -1013  -926  -830  -714  -544  -344  -172  -56  7  44  77  109  139  175  219  262  308  358  400  445  516  614  695  737  790  948  1225  1516  1718  1811  1837  1848  1894  2001  2137  2245  2313  2364  2408  2452  2511  2573  2595  2565  2515  2485  2474  2443  2348  2171  1925  1623  1273  919  632  442  324  223  74  -144  -364  -499  -547  -572  -621  -694  -764  -809  -819  -797  -747  -683  -616  -560  -540  -563  -587  -572  -527  -480  -453  -448  -457  -486  -546  -621  -673  -686  -678  -668  -654  -629  -600  -591  -619  -678  -755  -833  -904  -970  -1025  -1068  -1109  -1157  -1187  -1154  -1070  -1001  -978  -971  -928  -832  -716  -619  -536  -458  -400  -375  -401  -501  -675  -900  -1153  -1378  -1504  -1515  -1447  -1343  -1231  -1117  -1000  -902  -845  -835  -870  -960  -1093  -1229  -1330  -1359  -1284  -1107  -832  -530  -300  30  822  2256  4252  6362  7757  7697  6009  3154  54  -2271  -3262  -3093  -2345  -1509  -872  -559  -516  -575  -608  -566  -462  -332  -176  -8  117  195  280  391  483  525  526  515  540  620  718  793  874  1011  1197  1390  1570  1718  1810  1858  1899  1954  2037  2150  2279  2403  2522  2634  2732  2824  2932  3053  3151  3201  3214  3210  3193  3161  3118  3067  2990  2858  2678  2483  2303  2148  1987  1778  1536  1310  1133  998  857  648  358  49  -193  -319  -349  -343  -342  -364  -420  -508  -609  -699  -768  -820  -868  -909  -927  -913  -870  -816  -753  -682  -635  -654  -733  -819  -855  -832  -810  -833  -878  -934  -1017  -1099  -1139  -1150  -1165  -1192  -1214  -1217  -1201  -1173  -1140  -1114  -1106  -1121  -1163  -1218  -1257  -1271  -1260  -1215  -1103  -908  -689  -543  -502  -521  -549  -569  -590  -632  -705  -815  -965  -1145  -1309  -1410  -1444  -1441  -1446  -1508  -1600  -1641  -1614  -1550  -1467  -1397  -1380  -1421  -1491  -1567  -1662  -1757  -1706  -1412  -989  -560  -80  611  1711  3270  4987  6241  6380  5101  2679  -165  -2537  -3795  -3969  -3538  -2890  -2232  -1734  -1478  -1362  -1230  -1056  -922  -876  -890  -917  -919  -873  -784  -689  -635  -636  -657  -649  -578  -453  -320  -211  -129  -46  62  193  321  430  516  601  702  819  952  1094  1223  1341  1457  1554  1621  1689  1795  1931  2047  2105  2111  2094  2076  2065  2047  2010  1968  1944  1917  1814  1599  1331  1094  903  718  528  354  188  -11  -254  -492  -663  -743  -773  -812  -872  -911  -901  -857  -826  -834  -863  -888  -902  -908  -911  -913  -915  -912  -895  -866  -838  -824  -819  -792  -720  -626  -563  -558  -586  -611  -619  -614  -607  -613  -661  -769  -914  -1040  -1090  -1050  -972  -911  -877  -855  -836  -808  -765  -713  -674  -653  -637  -609  -561  -496  -414  -322  -239  -188  -169  -171  -180  -193  -217  -263  -319  -368  -428  -534  -672  -796  -875  -906  -893  -853  -816  -811  -834  -867  -909  -974  -1041  -1062  -1019  -940  -861  -797  -725  -604  -443  -257  66  757  1992  3728  5583  6906  7084  5834  3397  494  -1974  -3328  -3446  -2758  -1857  -1157  -788  -670  -650  -618  -556  -498  -464  -445  -417  -358  -275  -186  -103  -34  23  79  125  142  155  217  340  500  660  788  874  919  933  940  960  1003  1069  1161  1306  1494  1675  1822  1957  2098  2225  2299  2321  2347  2420  2517  2575  2562  2493  2405  2335  2285  2224  2125  1979  1782  1539  1261  991  800  720  703  650  462  103  -335  -678  -831  -847  -817  -793  -785  -783  -782  -781  -779  -779  -790  -824  -882  -944  -964  -898  -751  -587  -457  -378  -366  -435  -546  -636  -681  -707  -740  -789  -841  -875  -888  -892  -899  -897  -863  -801  -737  -687  -652  -636  -634  -636  -646  -675  -728  -789  -837  -863  -886  -905  -878  -798  -721  -677  -658  -647  -635  -609  -574  -537  -498  -444  -372  -300  -254  -240  -243  -255  -279  -330  -416  -510  -568  -577  -565  -583  -672  -826  -993  -1125  -1194  -1203  -1179  -1145  -1112  -1079  -1052  -1038  -1037  -1032  -1016  -1031  -1162  -1428  -1627  -1498  -1036  -408  310  1142  2208  3639  5235  6411  6541  5301  2894  51  -2284  -3480  -3537  -2859  -1940  -1238  -939  -884  -849  -769  -695  -663  -643  -580  -441  -268  -140  -89  -91  -107  -104  -52  50  174  301  414  473  464  436  435  465  515  610  789  1028  1226  1352  1459  1580  1705  1846  2003  2141  2257  2359  2427  2446  2437  2427  2420  2416  2420  2429  2438  2448  2456  2437  2347  2163  1926  1712  1542  1362  1132  863  581  298  23  -209  -355  -427  -498  -608  -720  -785  -802  -792  -769  -744  -721  -700  -678  -654  -631  -611  -591  -558  -515  -476  -450  -435  -427  -436  -491  -600  -720  -790  -793  -763  -734  -713  -691  -659  -613  -565  -538  -538  -561  -608  -682  -771  -852  -918  -972  -993  -968  -919  -884  -874  -878  -885  -893  -911  -957  -1047  -1163  -1252  -1285  -1271  -1221  -1142  -1040  -939  -877  -880  -947  -1043  -1116  -1145  -1146  -1133  -1102  -1044  -977  -938  -929  -903  -815  -677  -556  -484  -432  -377  -327  -298  -291  -300  -319  -344  -383  -439  -505  -581  -681  -778  -820  -805  -780  -782  -829  -923  -1040  -1142  -1201  -1223  -1224  -1196  -1122  -1002  -837  -620  -345  -13  353  781  1452  2580  4152  5798  6817  6567  4922  2281  -512  -2507  -3295  -3111  -2431  -1727  -1268  -1009  -786  -570  -441  -428  -481  -539  -575  -586  -541  -393  -169  25  117  128  112  102  104  122  155  197  264  390  582  790  958  1068  1135  1182  1229  1283  1341  1418  1545  1729  1908  2018  2066  2103  2165  2278  2442  2605  2709  2748  2751  2730  2660  2516  2339  2205  2130  2059  1944  1784  1610  1443  1273  1068  794  459  131  -108  -232  -280  -314  -380  -483  -592  -672  -713  -727  -725  -718  -721  -753  -819  -898  -934  -885  -765  -639  -562  -545  -561  -590  -625  -658  -685  -714  -759  -826  -885  -899  -878  -861  -860  -845  -792  -729  -717  -771  -852  -919  -955  -968  -973  -974  -969  -960  -948  -938  -930  -920  -902  -882  -887  -933  -1001  -1040  -1026  -974  -900  -801  -689  -610  -595  -638  -715  -790  -831  -830  -796  -744  -687  -636  -595  -572  -564  -549  -513  -469  -440  -433  -439  -443  -431  -395  -346  -309  -282  -241  -179  -117  -74  -47  -34  -63  -154  -276  -378  -438  -467  -493  -541  -612  -681  -716  -717  -714  -739  -817  -938  -1051  -1110  -1109  -1066  -993  -897  -777  -616  -398  -97  386  1262  2656  4394  6000  6855  6478  4822  2318  -316  -2346  -3346  -3361  -2709  -1809  -1082  -708  -559  -467  -390  -349  -348  -357  -355  -346  -336  -313  -261  -183  -103  -38  3  30  82  209  392  545  619  642  656  683  739  822  924  1048  1188  1312  1399  1476  1592  1748  1893  2011  2144  2309  2469  2592  2682  2746  2768  2739  2676  2613  2576  2566  2568  2549  2459  2261  1965  1635  1362  1194  1110  1046  937  768  542  239  -118  -420  -585  -644  -668  -684  -688  -687  -708  -776  -894  -1015  -1063  -1006  -894  -820  -820  -863  -902  -920  -921  -901  -851  -785  -736  -720  -725  -736  -745  -742  -721  -690  -664  -653  -661  -702  -785  -893  -986  -1037  -1044  -1020  -972  -912  -858  -817  -792  -782  -799  -855  -944  -1027  -1071  -1072  -1042  -996  -939  -870  -803  -764  -762  -788  -827  -876  -928  -964  -977  -975  -967  -952  -923  -880  -844  -844  -877  -911  -929  -937  -930  -878  -765  -623  -509  -449  -430  -421  -400  -358  -305  -261  -232  -202  -157  -96  -39  -26  -82  -180  -270  -337  -413  -519  -636  -727  -780  -811  -843  -881  -905  -893  -845  -788  -738  -699  -690  -723  -771  -809  -813  -729  -531  -271  38  522  1372  2735  4533  6271  7203  6807  5030  2284  -612  -2752  -3658  -3455  -2599  -1568  -752  -369  -347  -450  -521  -535  -497  -400  -271  -165  -106  -79  -55  -6  67  139  193  221  224  228  287  439  635  779  852  911  984  1058  1127  1197  1254  1294  1333  1394  1499  1653  1832  1992  2099  2169  2271  2459  2683  2836  2884  2875  2852  2817  2760  2680  2580  2475  2378  2276  2154  2011  1815  1527  1189  891  669  486  284  27  -261  -508  -659  -729  -755  -766  -782  -807  -816  -798  -771  -749  -736  -729  -715  -688  -660  -652  -661  -672  -685  -708  -727  -700  -608  -495  -421  -397  -399  -417  -459  -529  -612  -688  -747  -787  -816  -831  -819  -773  -718  -703  -751  -833  -906  -961  -1005  -1032  -1032  -999  -942  -880  -829  -800  -793  -799  -804  -798  -787  -787  -810  -843  -867  -882  -910  -959  -1005  -1022  -1008  -978  -954  -949  -949  -944  -937  -934  -934  -930  -902  -814  -661  -496  -385  -327  -274  -208  -149  -129  -193  -376  -632  -856  -996  -1063  -1068  -1044  -1031  -1037  -1057  -1086  -1112  -1114  -1078  -1003  -919  -861  -837  -841  -895  -1013  -1122  -1102  -900  -492  171  1100  2337  3946  5674  6864  6886  5525  3036  103  -2331  -3603  -3726  -3126  -2250  -1468  -1009  -848  -799  -742  -690  -668  -638  -542  -377  -211  -113  -83  -77  -63  -37  -9  8  16  24  56  138  253  365  452  515  561  611  700  852  1032  1177  1276  1387  1548  1723  1866  1974  2058  2109  2148  2220  2340  2469  2574  2642  2665  2643  2597  2553  2502  2434  2356  2258  2093  1848  1556  1235  919  681  534  398  216  19  -146  -295  -456  -613  -726  -777  -793  -830  -926  -1055  -1159  -1210  -1229  -1228  -1188  -1083  -942  -839  -806  -813  -817  -797  -755  -727  -757  -828  -886  -903  -898  -891  -888  -892  -902  -910  -904  -885  -874  -881  -892  -894  -893  -896  -907  -919  -917  -875  -793  -732  -747  -800  -829  -830  -823  -818  -811  -801  -801  -824  -864  -900  -915  -898  -819  -667  -490  -368  -328  -340  -380  -443  -520  -579  -583  -523  -415  -291  -183  -108  -63  -60  -139  -295  -455  -551  -583  -580  -577  -613  -708  -833  -933  -982  -1000  -1001  -966  -868  -731  -645  -700  -900  -1098  -1095  -840  -434  17  543  1361  2708  4482  6136  6959  6482  4724  2155  -457  -2387  -3340  -3433  -2940  -2204  -1530  -1033  -680  -442  -311  -257  -237  -212  -167  -112  -70  -52  -48  -47  -48  -45  -14  72  194  298  374  434  468  490  555  673  789  879  969  1083  1207  1315  1398  1479  1585  1723  1883  2045  2175  2247  2286  2346  2460  2604  2733  2819  2847  2816  2734  2616  2477  2330  2180  2024  1871  1730  1582  1353  992  575  255  84  -19  -121  -206  -256  -295  -366  -483  -616  -718  -775  -820  -869  -901  -891  -852  -830  -837  -825  -763  -684  -627  -610  -622  -639  -670  -724  -748  -692  -576  -459  -391  -380  -400  -415  -418  -425  -444  -464  -483  -526  -605  -690  -728  -697  -630  -574  -550  -559  -607  -699  -819  -913  -920  -853  -785  -757  -756  -759  -755  -752  -765  -807  -864  -907  -929  -936  -914  -831  -688  -545  -464  -446  -449  -435  -403  -371  -354  -349  -353  -373  -412  -454  -485  -521  -605  -744  -884  -970  -993  -982  -966  -950  -919  -875  -841  -836  -866  -920  -967  -966  -895  -798  -784  -865  -889  -701  -212  655  1932  3530  5212  6522  6845  5820  3584  703  -1912  -3466  -3839  -3438  -2720  -2042  -1609  -1391  -1231  -1043  -865  -749  -699  -686  -678  -649  -583  -492  -410  -361  -327  -277  -198  -114  -53  -15  21  73  156  279  429  566  667  736  812  934  1081  1198  1293  1434  1640  1850  1998  2071  2109  2162  2243  2344  2465  2592  2685  2723  2718  2673  2568  2403  2229  2107  2043  1979  1846  1627  1361  1107  889  701  531  352  115  -152  -362  -475  -545  -631  -728  -793  -811  -808  -802  -785  -742  -687  -648  -636  -642  -652  -650  -618  -544  -455  -389  -360  -355  -360  -366  -373  -384  -405  -430  -443  -440  -432  -429  -428  -424  -419  -424  -449  -486  -514  -523  -523  -518  -513  -546  -637  -743  -791  -756  -678  -614  -586  -581  -590  -618  -674  -741  -788  -809  -816  -816  -793  -729  -645  -584  -565  -566  -564  -550  -528  -507  -498  -494  -464  -380  -260  -156  -102  -81  -60  -37  -26  -29  -40  -52  -65  -85  -115  -153  -223  -362  -569  -770  -903  -985  -1064  -1151  -1232  -1290  -1319  -1325  -1321  -1317  -1318  -1326  -1347  -1396  -1484  -1553  -1488  -1198  -649  137  1102  2273  3690  5152  6197  6316  5180  2874  38  -2346  -3573  -3628  -2951  -2059  -1378  -1076  -1017  -998  -945  -864  -780  -724  -705  -683  -625  -542  -479  -448  -417  -346  -238  -132  -54  -9  11  24  46  94  185  320  476  625  754  859  935  985  1034  1107  1216  1364  1538  1696  1806  1889  1965  2028  2097  2215  2382  2554  2665  2661  2553  2406  2269  2156  2053  1939  1816  1681  1482  1197  872  553  283  101  -24  -179  -389  -596  -743  -822  -871  -923  -983  -1044  -1093  -1116  -1103  -1047  -970  -905  -866  -844  -834  -833  -833  -830  -821  -812  -808  -815  -829  -833  -792  -672  -496  -352  -309  -365  -467  -572  -674  -765  -807  -797  -765  -725  -681  -635  -588  -552  -531  -520  -517  -522  -537  -566  -625  -737  -876  -976  -1014  -1020  -1011  -962  -853  -713  -599  -536  -516  -520  -530  -529  -515  -526  -597  -701  -790  -854  -912  -943  -884  -683  -408  -208  -147  -177  -227  -257  -242  -167  -51  64  148  189  183  132  57  -15  -90  -181  -287  -398  -499  -571  -609  -617  -603  -578  -558  -557  -586  -645  -726  -819  -903  -955  -979  -1000  -1001  -916  -718  -464  -169  309  1174  2537  4308  6076  7162  7031  5615  3222  525  -1551  -2485  -2468  -1965  -1369  -943  -731  -608  -475  -329  -214  -153  -132  -111  -68  -4  70  138  184  219  273  359  482  639  792  887  925  947  983  1028  1060  1077  1108  1180  1298  1451  1613  1755  1882  2032  2225  2427  2585  2700  2824  2975  3118  3203  3210  3156  3076  2997  2952  2947  2935  2885  2821  2764  2679  2504  2239  1950  1679  1415  1108  723  293  -107  -429  -656  -817  -950  -1078  -1203  -1307  -1379  -1442  -1527  -1626  -1700  -1729  -1717  -1666  -1581  -1491  -1415  -1357  -1314  -1301  -1322  -1352  -1354  -1316  -1260  -1219  -1205  -1204  -1200  -1195  -1207  -1248  -1292  -1289  -1229  -1155  -1097  -1055  -1033  -1032  -1037  -1036  -1034  -1047  -1090  -1153  -1213  -1258  -1280  -1284  -1279  -1240  -1141  -1026  -959  -944  -953  -974  -1012  -1062  -1102  -1121  -1123  -1112  -1077  -1016  -946  -895  -870  -866  -892  -960  -1053  -1125  -1154  -1155  -1151  -1147  -1137  -1120  -1101  -1081  -1051  -1013  -989  -990  -1000  -968  -852  -682  -546  -492  -496  -510  -493  -428  -341  -280  -263  -271  -287  -318  -376  -478  -627  -794  -927  -995  -1014  -1022  -1035  -1040  -1002  -924  -861  -861  -921  -992  -1023  -1019  -1019  -1024  -975  -799  -506  -183  165  708  1657  3119  4952  6660  7506  6951  4997  2151  -690  -2595  -3207  -2842  -2036  -1253  -789  -640  -591  -524  -462  -416  -355  -269  -181  -113  -78  -72  -78  -59  22  163  307  406  464  511  569  633  679  693  686  683  710  795  962  1211  1497  1747  1912  2004  2062  2129  2247  2416  2591  2738  2853  2936  2981  2998  3002  3003  3004  3006  3006  3004  2988  2945  2855  2693  2454  2166  1865  1585  1342  1112  872  648  446  186  -190  -586  -846  -951  -989  -1025  -1061  -1082  -1087  -1079  -1048  -986  -907  -851  -840  -856  -867  -853  -827  -813  -807  -795  -768  -732  -694  -663  -645  -638  -630  -614  -590  -570  -556  -541  -525  -522  -532  -550  -572  -605  -655  -710  -756  -794  -808  -787  -755  -741  -750  -767  -772  -769  -764  -739  -690  -651  -648  -666  -675  -672  -682  -702  -714  -716  -724  -752  -793  -825  -835  -829  -808  -767  -717  -688  -699  -728  -746  -747  -733  -705  -662  -612  -566  -521  -467  -410  -373  -358  -340  -292  -210  -121  -60  -33  -15  4  15  10  -11  -74  -216  -420  -605  -725  -810  -898  -984  -1042  -1065  -1069  -1070  -1076  -1081  -1067  -1017  -945  -883  -861  -873  -860  -782  -633  -342  186  986  2163  3843  5782  7279  7604  6390  3826  716  -1872  -3262  -3441  -2822  -1941  -1264  -926  -748  -590  -444  -311  -198  -125  -87  -67  -54  -42  -26  -6  23  77  154  220  250  249  239  245  292  391  523  661  801  975  1169  1303  1346  1357  1405  1505  1616  1696  1749  1826  1986  2243  2523  2730  2857  2967  3076  3161  3210  3230  3221  3153  2993  2753  2497  2295  2175  2087  1950  1721  1420  1078  703  322  -15  -265  -420  -530  -646  -764  -857  -924  -979  -1031  -1088  -1150  -1190  -1180  -1134  -1085  -1057  -1047  -1044  -1033  -995  -931  -878  -856  -854  -856  -856  -851  -847  -859  -896  -946  -979  -985  -979  -974  -969  -958  -941  -922  -903  -886  -877  -875  -875  -875  -877  -888  -905  -908  -893  -882  -884  -883  -869  -852  -843  -840  -838  -835  -834  -846  -878  -920  -949  -947  -918  -884  -867  -854  -815  -749  -688  -659  -665  -704  -776  -869  -953  -1004  -1021  -1003  -935  -828  -724  -654  -628  -648  -706  -767  -786  -762  -718  -632  -462  -253  -108  -62  -72  -89  -106  -131  -165  -195  -220  -253  -323  -456  -637  -799  -888  -906  -892  -870  -852  -842  -842  -844  -829  -784  -726  -697  -730  -822  -960  -1117  -1174  -1020  -696  -313  112  717  1769  3437  5487  7286  8060  7284  5040  1994  -903  -2814  -3452  -3148  -2447  -1771  -1286  -941  -672  -473  -340  -258  -210  -178  -155  -140  -134  -155  -222  -320  -395  -396  -306  -147  57  285  472  575  618  633  651  700  795  930  1090  1242  1367  1491  1638  1775  1856  1886  1921  2005  2140  2321  2559  2824  3032  3136  3163  3156  3121  3039  2908  2760  2631  2537  2476  2435  2382  2254  1995  1647  1331  1092  878  641  377  107  -130  -304  -429  -571  -756  -923  -1009  -1025  -1017  -1011  -1011  -1020  -1042  -1077  -1104  -1091  -1010  -880  -770  -733  -761  -811  -828  -790  -730  -685  -667  -672  -710  -793  -900  -977  -1005  -1005  -993  -958  -897  -848  -849  -881  -904  -907  -904  -900  -899  -901  -908  -918  -927  -924  -905  -876  -862  -864  -849  -807  -785  -812  -866  -907  -921  -919  -919  -921  -917  -897  -862  -828  -802  -782  -766  -770  -823  -940  -1078  -1175  -1206  -1185  -1124  -1040  -972  -939  -929  -916  -896  -881  -877  -870  -846  -803  -747  -685  -625  -582  -556  -538  -524  -503  -448  -332  -178  -50  16  30  8  -28  -71  -119  -186  -300  -469  -650  -785  -847  -856  -846  -839  -835  -828  -826  -846  -890  -927  -928  -887  -825  -777  -762  -770  -768  -705  -537  -188  539  1858  3745  5875  7658  8331  7393  4977  1778  -1233  -3204  -3823  -3373  -2415  -1479  -865  -567  -442  -395  -390  -397  -387  -352  -304  -252  -188  -107  -19  54  110  166  239  332  420  475  494  512  574  709  890  1038  1116  1154  1202  1294  1447  1640  1814  1937  2052  2204  2369  2509  2646  2810  2969  3068  3111  3140  3176  3211  3235  3247  3237  3194  3120  3013  2877  2724  2539  2289  1961  1593  1258  1003  802  597  345  39  -277  -528  -678  -754  -803  -871  -982  -1126  -1252  -1316  -1320  -1286  -1233  -1172  -1116  -1088  -1101  -1129  -1137  -1107  -1039  -949  -859  -795  -772  -783  -819  -873  -935  -984  -1004  -992  -945  -879  -822  -792  -782  -780  -783  -801  -846  -907  -964  -1000  -1016  -1017  -1014  -1011  -1010  -1012  -1020  -1036  -1057  -1078  -1090  -1081  -1045  -996  -961  -951  -958  -969  -979  -987  -992  -1003  -1030  -1078  -1132  -1162  -1131  -1038  -925  -847  -835  -875  -916  -934  -943  -959  -980  -999  -1019  -1036  -1051  -1081  -1122  -1106  -951  -699  -498  -421  -413  -413  -390  -331  -236  -139  -96  -131  -213  -299  -391  -508  -643  -790  -927  -1013  -1028  -993  -942  -907  -900  -923  -970  -1020  -1050  -1058  -1054  -1045  -1041  -1060  -1106  -1123  -1017  -750  -385  53  727  1860  3538  5577  7367  8007  6929  4313  939  -2093  -3862  -4199  -3577  -2556  -1558  -868  -557  -495  -511  -518  -491  -415  -287  -140  -31  20  43  66  102  156  251  384  505  568  579  569  563  582  654  780  916  1013  1068  1133  1260  1439  1621  1789  1964  2143  2291  2386  2448  2528  2681  2900  3102  3235  3325  3408  3478  3521  3547  3573  3601  3605  3532  3339  3046  2703  2332  1955  1617  1326  1024  669  315  53  -105  -220  -346  -484  -625  -794  -989  -1152  -1244  -1272  -1257  -1214  -1159  -1108  -1071  -1051  -1043  -1031  -1000  -951  -904  -876  -860  -831  -780  -730  -704  -700  -707  -715  -731  -770  -843  -926  -959  -894  -771  -698  -711  -758  -788  -796  -809  -847  -898  -914  -868  -783  -718  -698  -714  -747  -786  -818  -839  -856  -872  -884  -887  -886  -882  -874  -858  -837  -835  -870  -918  -949  -963  -972  -969  -931  -835  -699  -585  -530  -520  -529  -547  -564  -572  -561  -535  -510  -489  -464  -429  -386  -335  -286  -255  -257  -294  -359  -438  -530  -648  -795  -934  -1016  -1044  -1063  -1108  -1177  -1244  -1285  -1290  -1270  -1246  -1223  -1192  -1151  -1106  -1071  -1078  -1129  -1162  -1106  -852  -218  923  2596  4715  6849  8156  7919  6046  3013  -294  -2793  -3879  -3791  -3114  -2300  -1629  -1197  -922  -699  -522  -428  -410  -422  -428  -418  -395  -350  -274  -176  -78  -3  37  43  29  16  37  116  245  403  558  672  735  793  899  1063  1253  1435  1589  1710  1803  1904  2050  2217  2342  2402  2428  2466  2545  2657  2761  2839  2890  2910  2895  2851  2786  2708  2610  2471  2275  2027  1752  1498  1285  1080  831  540  262  21  -207  -452  -727  -994  -1170  -1224  -1205  -1167  -1137  -1111  -1082  -1054  -1049  -1075  -1107  -1121  -1118  -1104  -1071  -1017  -951  -896  -875  -873  -859  -836  -827  -837  -851  -851  -832  -803  -772  -745  -729  -724  -725  -728  -731  -734  -734  -730  -727  -740  -783  -851  -922  -975  -982  -935  -866  -810  -772  -750  -743  -742  -748  -771  -819  -872  -921  -975  -1022  -1032  -1002  -958  -924  -898  -852  -770  -675  -613  -595  -583  -532  -430  -312  -229  -185  -159  -149  -177  -259  -388  -549  -722  -875  -984  -1052  -1103  -1154  -1204  -1240  -1258  -1256  -1227  -1171  -1113  -1076  -1054  -1031  -1016  -1038  -1078  -1030  -779  -300  383  1367  2853  4816  6764  7929  7657  5769  2736  -473  -2858  -3936  -3893  -3204  -2271  -1404  -808  -491  -342  -288  -288  -305  -317  -308  -273  -226  -187  -154  -90  30  175  290  347  351  333  332  369  461  606  752  845  891  937  1015  1104  1174  1227  1283  1359  1460  1578  1695  1810  1921  2025  2129  2227  2297  2340  2382  2420  2437  2425  2388  2335  2258  2137  1950  1668  1296  923  648  483  365  219  -12  -338  -700  -997  -1166  -1220  -1211  -1186  -1185  -1249  -1403  -1615  -1811  -1936  -1985  -1981  -1951  -1913  -1846  -1717  -1560  -1446  -1389  -1363  -1349  -1336  -1323  -1312  -1298  -1272  -1239  -1212  -1199  -1191  -1176  -1153  -1133  -1124  -1122  -1124  -1125  -1129  -1144  -1178  -1220  -1247  -1249  -1242  -1244  -1265  -1296  -1323  -1343  -1362  -1372  -1359  -1310  -1226  -1127  -1037  -947  -838  -714  -601  -520  -478  -467  -450  -399  -321  -247  -190  -153  -145  -161  -194  -249  -313  -367  -416  -501  -672  -916  -1142  -1277  -1350  -1422  -1514  -1601  -1653  -1651  -1591  -1498  -1412  -1339  -1276  -1247  -1258  -1250  -1108  -777  -277  438  1504  2994  4789  6495  7526  7402  6023  3675  972  -1296  -2638  -3066  -2815  -2169  -1447  -858  -449  -200  -76  -32  -27  -17  37  147  265  334  343  324  321  385  539  725  831  801  710  690  778  886  956  1035  1186  1416  1699  1986  2218  2384  2520  2647  2763  2898  3103  3371  3628  3812  3946  4101  4312  4566  4806  4960  4993  4948  4882  4780  4590  4353  4181  4123  4118  4062  3881  3614  3366  3187  3051  2921  2780  2644  2508  2326  2106  1928  1836  1807  1805  1792  1732  1602  1420  1240  1115  1050  1012  986  976  982  1007  1046  1085  1110  1119  1119  1113  1092  1062  1061  1105  1154  1172  1174  1170  1150  1117  1066  979  876  804  774  758  740  724  706  671  620  569  521  475  428  362  274  189  127  64  -79  -375  -772  -1139  -1436  -1732  -2059  -2363  -2587  -2735  -2837  -2902  -2944  -3004  -3124  -3281  -3407  -3486  -3580  -3760  -4039  -4352  -4597  -4715  -4736  -4724  -4718  -4721  -4733  -4787  -4959  -5282  -5674  -5994  -6165  -6245  -6346  -6444  -6317  -5856  -5205  -4432  -3409  -1987  -132  1854  3260  3373  1987  -498  -3248  -5307  -6122  -5850  -5058  -4244  -3649  -3277  -3025  -2826  -2652  -2483  -2301  -2065  -1767  -1470  -1231  -1019  -786  -548  -352  -225  -149  -62  98  335  588  803  975  1116  1210  1246  1247  1253  1309  1430  1593  1756  1877  1963  2072  2241  2430  2574  2706  2910  3162  3333  3363  3297  3175  2969  2666  2356  2139  2006  1871  1694  1493  1269  983  614  217  -120  -392  -666  -952  -1173  -1297  -1388  -1515  -1670  -1806  -1915  -2029  -2162  -2276  -2322  -2304  -2267  -2240  -2230  -2266  -2388  -2576  -2742  -2822  -2819  -2755  -2652  -2522  -2352  -2103  -1722  -1217  -721  -387  -218  -121  -37  56  150  216  242  250  272  316  366  408  426  361  127  -277  -727  -1084  -1313  -1458  -1558  -1620  -1642  -1633  -1612  -1578  -1510  -1402  -1265  -1108  -955  -835  -735  -632  -526  -427  -336  -255  -171  -78  28  178  374  557  676  743  805  882  946  985  1024  1085  1158  1213  1222  1206  1215  1279  1380  1470  1526  1552  1561  1550  1503  1421  1313  1178  1020  856  691  529  388  277  215  263  453  791  1327  2139  3291  4822  6585  8065  8587  7781  5722  2895  238  -1371  -1773  -1390  -732  -200  18  4  -54  -62  -23  4  -42  -187  -381  -533  -600  -605  -585  -558  -531  -503  -459  -389  -309  -224  -116  13  135  253  391  543  672  766  852  962  1101  1272  1470  1669  1847  2006  2152  2276  2373  2446  2494  2520  2527  2523  2521  2535  2567  2579  2527  2421  2309  2203  2065  1836  1532  1259  1056  840  538  191  -114  -339  -508  -652  -769  -845  -882  -899  -918  -959  -1026  -1105  -1182  -1264  -1346  -1406  -1467  -1585  -1749  -1872  -1883  -1771  -1581  -1386  -1235  -1129  -1061  -1029  -1016  -989  -932  -866  -824  -807  -797  -792  -831  -969  -1198  -1421  -1545  -1573  -1562  -1549  -1547  -1560  -1594  -1657  -1744  -1845  -1968  -2103  -2213  -2270  -2283  -2253  -2167  -2037  -1920  -1861  -1841  -1807  -1724  -1612  -1525  -1485  -1451  -1375  -1253  -1133  -1062  -1044  -1041  -1000  -891  -751  -642  -581  -534  -472  -396  -340  -334  -370  -411  -434  -442  -442  -420  -361  -280  -203  -112  32  221  405  551  643  683  691  688  693  731  819  925  988  969  866  712  548  372  145  -137  -435  -685  -846  -932  -985  -1022  -1046  -1063  -1074  -1073  -1066  -1065  -1072  -1073  -1034  -932  -780  -552  -201  276  964  2053  3601  5423  7072  7867  7256  5255  2413  -427  -2363  -2924  -2390  -1436  -632  -220  -103  -61  20  132  240  354  475  573  619  618  606  612  628  637  641  670  749  889  1071  1252  1395  1484  1524  1543  1581  1648  1721  1773  1788  1769  1752  1773  1841  1931  2011  2072  2128  2197  2300  2447  2620  2779  2900  2987  3049  3083  3079  3027  2930  2817  2720  2634  2518  2335  2095  1848  1621  1379  1042  574  63  -357  -637  -843  -1072  -1333  -1560  -1730  -1858  -1938  -1968  -1973  -1985  -2007  -2021  -2011  -1975  -1916  -1833  -1719  -1575  -1416  -1274  -1172  -1108  -1066  -1023  -969  -902  -819  -720  -621  -534  -471  -451  -523  -723  -986  -1177  -1242  -1227  -1172  -1094  -1021  -993  -1009  -1029  -1015  -967  -903  -843  -803  -791  -791  -782  -750  -702  -677  -699  -736  -755  -764  -801  -879  -962  -1011  -1040  -1086  -1171  -1293  -1426  -1529  -1584  -1598  -1591  -1584  -1585  -1576  -1530  -1439  -1325  -1214  -1117  -1041  -997  -984  -986  -989  -992  -996  -995  -974  -922  -858  -823  -834  -871  -906  -932  -937  -880  -719  -497  -319  -223  -161  -104  -61  -37  -30  -41  -75  -133  -205  -271  -313  -328  -334  -361  -412  -456  -473  -480  -497  -525  -549  -568  -594  -647  -757  -923  -1108  -1253  -1298  -1197  -957  -630  -240  384  1556  3344  5437  7262  8083  7351  5122  2031  -959  -2956  -3611  -3198  -2272  -1344  -707  -382  -243  -180  -132  -67  21  97  130  128  115  114  156  264  420  579  716  813  850  837  818  822  842  866  903  981  1114  1285  1472  1679  1888  2038  2100  2120  2162  2263  2415  2587  2762  2921  3060  3206  3374  3525  3620  3664  3675  3646  3557  3428  3314  3236  3145  2969  2704  2422  2160  1840  1375  827  378  108  -57  -227  -454  -748  -1074  -1343  -1482  -1512  -1502  -1491  -1486  -1492  -1536  -1641  -1787  -1909  -1954  -1900  -1767  -1624  -1541  -1520  -1505  -1444  -1351  -1275  -1235  -1213  -1193  -1167  -1139  -1118  -1111  -1110  -1098  -1073  -1035  -981  -917  -860  -818  -778  -737  -709  -699  -691  -672  -648  -636  -646  -677  -722  -763  -794  -824  -854  -874  -877  -875  -875  -860  -798  -677  -533  -412  -326  -251  -161  -77  -37  -41  -56  -68  -100  -197  -370  -553  -642  -620  -579  -589  -620  -630  -638  -660  -685  -696  -684  -638  -540  -416  -342  -361  -434  -496  -530  -559  -594  -621  -635  -653  -685  -714  -706  -631  -464  -225  -5  124  175  193  202  195  152  71  -42  -176  -296  -370  -411  -456  -517  -584  -652  -709  -744  -755  -754  -745  -723  -698  -712  -783  -849  -829  -735  -635  -507  -278  20  309  691  1440  2798  4770  6923  8413  8474  6936  4211  1107  -1401  -2713  -2912  -2426  -1681  -989  -504  -255  -163  -101  5  134  222  278  372  534  697  794  843  906  988  1061  1119  1169  1207  1228  1234  1243  1280  1356  1461  1573  1686  1809  1940  2042  2096  2127  2199  2364  2597  2809  2949  3030  3095  3173  3269  3367  3433  3421  3344  3264  3189  3063  2873  2682  2543  2434  2304  2145  1976  1779  1529  1220  823  339  -128  -455  -612  -658  -661  -683  -808  -1091  -1458  -1750  -1889  -1924  -1932  -1943  -1963  -1997  -2047  -2087  -2091  -2077  -2067  -2059  -2027  -1950  -1846  -1759  -1717  -1706  -1707  -1712  -1718  -1717  -1701  -1670  -1641  -1625  -1622  -1623  -1611  -1568  -1498  -1418  -1327  -1242  -1200  -1209  -1233  -1248  -1252  -1245  -1225  -1190  -1147  -1105  -1076  -1074  -1110  -1176  -1249  -1305  -1331  -1326  -1295  -1251  -1204  -1143  -1062  -977  -914  -884  -874  -873  -882  -908  -954  -1004  -1037  -1045  -1031  -1002  -968  -941  -933  -946  -970  -984  -969  -911  -815  -737  -742  -836  -996  -1196  -1356  -1394  -1305  -1135  -961  -837  -770  -743  -742  -752  -764  -759  -699  -565  -377  -194  -68  -16  -17  -44  -98  -192  -319  -444  -541  -627  -722  -813  -877  -896  -863  -798  -728  -668  -619  -583  -560  -545  -531  -531  -561  -601  -581  -464  -338  -256  -99  290  1069  2397  4208  6121  7555  7895  6830  4571  1730  -865  -2516  -3074  -2883  -2327  -1668  -1131  -854  -777  -764  -728  -641  -539  -465  -419  -385  -350  -287  -180  -57  32  85  140  200  221  174  94  55  99  216  374  555  738  909  1067  1203  1294  1333  1361  1457  1679  1981  2232  2359  2405  2456  2564  2726  2913  3087  3212  3273  3277  3226  3121  2979  2831  2691  2548  2397  2218  1995  1745  1507  1273  1010  749  549  410  288  161  42  -53  -127  -186  -228  -219  -140  -42  -5  -82  -272  -496  -665  -758  -816  -868  -903  -908  -883  -841  -791  -736  -692  -683  -721  -786  -833  -842  -833  -829  -820  -780  -694  -593  -528  -529  -580  -653  -747  -861  -964  -1022  -1035  -1021  -987  -948  -927  -951  -1020  -1107  -1176  -1201  -1176  -1121  -1065  -1016  -973  -944  -923  -892  -853  -827  -825  -829  -820  -803  -799  -813  -837  -862  -888  -902  -889  -836  -762  -703  -675  -657  -624  -581  -551  -548  -548  -513  -422  -309  -234  -212  -199  -150  -63  32  106  132  104  53  12  -18  -56  -118  -202  -298  -412  -549  -691  -805  -869  -888  -889  -889  -893  -905  -937  -1000  -1076  -1130  -1136  -1090  -1016  -942  -865  -751  -579  -290  216  1029  2267  3988  5878  7250  7462  6275  3892  946  -1605  -3061  -3417  -3077  -2466  -1904  -1520  -1293  -1131  -960  -785  -656  -609  -640  -701  -741  -739  -696  -630  -573  -529  -482  -437  -418  -418  -393  -300  -154  -27  48  96  144  210  299  403  516  660  839  1016  1154  1275  1462  1747  2045  2243  2332  2377  2419  2469  2527  2577  2605  2615  2623  2634  2642  2634  2596  2519  2380  2111  1668  1166  805  641  558  425  204  -63  -325  -532  -656  -705  -721  -768  -893  -1079  -1258  -1373  -1405  -1363  -1285  -1207  -1132  -1057  -1001  -969  -945  -911  -866  -812  -741  -651  -563  -489  -412  -320  -235  -182  -170  -209  -299  -402  -467  -483  -476  -474  -482  -480  -462  -458  -473  -439  -333  -218  -147  -128  -152  -201  -257  -302  -310  -272  -205  -136  -106  -129  -161  -147  -89  -37  -17  -12  -2  17  40  50  20  -77  -233  -385  -494  -578  -657  -711  -732  -751  -802  -877  -933  -956  -961  -961  -937  -856  -721  -585  -496  -459  -442  -400  -310  -198  -111  -63  -40  -20  25  136  305  461  530  479  312  75  -138  -254  -276  -256  -243  -266  -336  -430  -501  -530  -538  -555  -592  -642  -689  -717  -737  -773  -811  -774  -623  -406  -112  369  1161  2379  4037  5886  7386  7882  7001  4881  2074  -573  -2300  -2850  -2455  -1597  -822  -437  -348  -325  -272  -200  -139  -100  -68  -42  -22  1  38  87  143  202  266  320  329  301  282  301  353  419  482  537  583  613  647  745  953  1207  1391  1471  1503  1542  1624  1782  2009  2241  2424  2550  2629  2687  2759  2842  2898  2909  2896  2878  2853  2804  2732  2645  2525  2328  2040  1713  1410  1129  830  537  301  76  -243  -630  -939  -1092  -1130  -1124  -1114  -1104  -1095  -1097  -1145  -1263  -1423  -1556  -1626  -1648  -1659  -1673  -1677  -1638  -1547  -1455  -1416  -1422  -1437  -1447  -1453  -1462  -1480  -1509  -1539  -1563  -1572  -1557  -1520  -1462  -1395  -1326  -1237  -1111  -970  -859  -803  -806  -876  -1019  -1224  -1433  -1574  -1617  -1579  -1484  -1374  -1293  -1254  -1240  -1240  -1257  -1296  -1339  -1365  -1371  -1367  -1367  -1374  -1385  -1384  -1367  -1347  -1316  -1242  -1118  -990  -909  -886  -899  -924  -956  -1001  -1048  -1075  -1075  -1062  -1043  -1024  -1016  -1032  -1087  -1166  -1231  -1255  -1243  -1213  -1185  -1159  -1120  -1037  -889  -700  -532  -411  -311  -188  -12  207  420  557  600  583  532  460  382  303  216  123  35  -26  -37  -5  40  82  91  41  -56  -153  -205  -215  -224  -265  -337  -417  -468  -427  -221  139  605  1223  2136  3471  5205  7013  8261  8332  6982  4443  1424  -1085  -2369  -2432  -1777  -926  -260  43  74  32  25  43  56  56  55  69  104  156  208  258  331  461  629  770  858  930  1015  1104  1178  1231  1263  1275  1276  1287  1330  1402  1466  1493  1496  1531  1659  1879  2120  2310  2433  2507  2557  2592  2624  2679  2761  2865  2988  3108  3167  3123  2977  2750  2478  2225  2034  1882  1713  1502  1257  986  681  345  5  -297  -531  -695  -814  -924  -1047  -1185  -1306  -1373  -1392  -1386  -1361  -1308  -1245  -1212  -1224  -1259  -1293  -1310  -1310  -1303  -1299  -1299  -1299  -1300  -1298  -1290  -1269  -1227  -1171  -1123  -1105  -1118  -1148  -1177  -1196  -1204  -1207  -1209  -1210  -1197  -1159  -1095  -1027  -972  -938  -939  -986  -1076  -1180  -1258  -1303  -1322  -1315  -1278  -1228  -1195  -1208  -1259  -1304  -1305  -1246  -1147  -1056  -1009  -1000  -1012  -1041  -1082  -1136  -1198  -1236  -1216  -1162  -1115  -1088  -1081  -1069  -1019  -945  -885  -850  -830  -816  -807  -811  -826  -845  -867  -893  -920  -950  -961  -933  -881  -836  -814  -803  -780  -743  -699  -638  -525  -348  -166  -55  -40  -98  -194  -281  -325  -325  -306  -306  -373  -531  -737  -903  -979  -972  -918  -852  -804  -782  -777  -795  -842  -898  -922  -888  -811  -731  -678  -640  -553  -362  -79  289  858  1792  3227  5147  7112  8347  8234  6617  3864  846  -1488  -2689  -2839  -2278  -1471  -808  -425  -273  -254  -279  -298  -305  -298  -270  -228  -187  -154  -109  -13  140  295  402  473  533  585  632  688  760  836  902  959  1026  1118  1235  1353  1434  1464  1460  1441  1426  1449  1561  1764  1992  2178  2320  2467  2644  2832  2996  3114  3182  3210  3218  3228  3245  3250  3211  3105  2935  2722  2452  2074  1597  1132  757  460  248  136  67  -73  -348  -685  -940  -1057  -1102  -1144  -1185  -1210  -1233  -1277  -1349  -1438  -1521  -1570  -1566  -1511  -1415  -1286  -1140  -1001  -888  -814  -791  -818  -858  -877  -875  -869  -867  -865  -856  -828  -754  -617  -475  -423  -464  -520  -542  -538  -535  -547  -577  -613  -640  -654  -662  -671  -680  -688  -695  -702  -707  -712  -731  -783  -854  -908  -926  -915  -890  -867  -847  -817  -767  -708  -651  -605  -590  -621  -698  -787  -840  -816  -701  -541  -420  -369  -354  -339  -324  -335  -365  -350  -253  -127  -40  -10  -10  0  48  133  221  274  281  265  246  209  103  -118  -444  -781  -1006  -1084  -1080  -1065  -1060  -1048  -1001  -917  -826  -782  -804  -866  -945  -1040  -1145  -1239  -1260  -1169  -1031  -915  -740  -253  876  2790  5161  7193  7956  6952  4378  997  -2076  -3920  -4356  -3818  -2898  -2106  -1645  -1368  -1103  -859  -707  -659  -669  -696  -725  -758  -802  -841  -833  -743  -601  -472  -376  -279  -183  -113  -65  -5  91  218  323  392  514  784  1142  1419  1548  1590  1604  1623  1692  1854  2092  2346  2571  2741  2832  2855  2844  2836  2862  2944  3054  3136  3168  3167  3142  3082  2977  2824  2617  2336  1947  1492  1092  802  582  385  190  -19  -264  -535  -778  -924  -969  -966  -949  -904  -804  -680  -605  -620  -722  -883  -1053  -1168  -1193  -1151  -1088  -1035  -998  -972  -935  -868  -767  -653  -561  -494  -435  -378  -327  -292  -279  -287  -313  -348  -393  -451  -512  -582  -680  -788  -866  -902  -915  -921  -924  -924  -917  -903  -888  -885  -892  -892  -885  -882  -891  -910  -942  -988  -1039  -1082  -1106  -1112  -1109  -1102  -1091  -1084  -1091  -1099  -1053  -904  -694  -518  -421  -379  -351  -312  -254  -189  -149  -188  -330  -520  -671  -768  -858  -971  -1098  -1201  -1255  -1269  -1268  -1258  -1219  -1140  -1043  -961  -915  -909  -932  -963  -992  -1003  -939  -730  -367  167  980  2216  3920  5814  7216  7415  6116  3547  433  -2168  -3522  -3669  -3100  -2296  -1576  -1079  -815  -693  -612  -530  -445  -361  -286  -230  -176  -92  15  103  141  144  135  127  129  149  195  267  346  411  463  525  611  701  785  889  1011  1111  1180  1246  1334  1446  1577  1745  1973  2224  2413  2515  2574  2619  2648  2658  2660  2659  2639  2592  2536  2502  2465  2340  2090  1781  1504  1259  986  668  338  34  -206  -357  -432  -487  -566  -694  -855  -999  -1125  -1287  -1482  -1627  -1681  -1671  -1620  -1528  -1420  -1338  -1302  -1289  -1259  -1197  -1121  -1060  -1020  -975  -902  -817  -759  -737  -724  -692  -635  -570  -508  -449  -410  -406  -422  -434  -437  -439  -447  -474  -537  -631  -716  -767  -787  -786  -771  -765  -789  -829  -851  -840  -815  -791  -760  -701  -617  -531  -461  -400  -338  -276  -224  -196  -187  -185  -188  -204  -233  -247  -230  -215  -237  -275  -299  -326  -391  -499  -621  -724  -793  -845  -915  -1001  -1067  -1093  -1091  -1080  -1073  -1093  -1158  -1255  -1332  -1335  -1235  -1037  -761  -366  277  1317  2811  4608  6247  7070  6596  4836  2256  -416  -2413  -3365  -3438  -2979  -2285  -1628  -1175  -929  -816  -772  -760  -761  -769  -780  -782  -752  -669  -556  -473  -449  -463  -470  -418  -277  -97  28  64  45  24  47  160  362  594  785  897  941  964  998  1049  1131  1321  1692  2165  2549  2757  2862  2944  3014  3061  3084  3085  3057  2994  2908  2811  2691  2539  2369  2183  1935  1608  1268  1005  834  680  467  196  -70  -285  -452  -605  -761  -894  -986  -1051  -1107  -1145  -1157  -1150  -1127  -1099  -1081  -1086  -1112  -1142  -1171  -1207  -1241  -1246  -1194  -1083  -962  -889  -874  -886  -897  -901  -895  -869  -821  -764  -702  -643  -600  -573  -568  -594  -635  -659  -649  -621  -603  -601  -596  -574  -546  -523  -500  -471  -436  -401  -380  -377  -387  -409  -436  -459  -472  -474  -466  -440  -385  -307  -229  -174  -144  -130  -134  -174  -259  -378  -503  -619  -718  -797  -855  -895  -921  -929  -922  -915  -920  -935  -953  -969  -974  -952  -891  -808  -738  -733  -813  -887  -803  -425  385  1680  3348  5147  6651  7292  6684  4842  2157  -590  -2538  -3328  -3186  -2548  -1843  -1341  -1016  -737  -501  -369  -337  -341  -327  -280  -204  -96  19  100  126  109  55  -12  -60  -56  4  99  190  263  336  430  542  657  795  980  1179  1325  1407  1468  1537  1625  1729  1844  1968  2103  2260  2458  2677  2855  2954  2983  2962  2903  2828  2774  2747  2703  2577  2344  2042  1748  1526  1354  1146  857  552  337  223  125  -18  -194  -376  -535  -640  -689  -718  -757  -807  -853  -883  -901  -915  -926  -914  -859  -783  -733  -732  -762  -782  -782  -795  -839  -891  -935  -971  -995  -1008  -1032  -1086  -1159  -1214  -1246  -1286  -1352  -1417  -1456  -1476  -1500  -1538  -1588  -1646  -1701  -1733  -1737  -1733  -1731  -1718  -1665  -1572  -1464  -1372  -1314  -1279  -1251  -1229  -1231  -1276  -1367  -1469  -1536  -1549  -1505  -1406  -1284  -1173  -1072  -980  -923  -902  -893  -878  -875  -956  -1186  -1499  -1725  -1774  -1690  -1565  -1478  -1447  -1452  -1478  -1526  -1587  -1633  -1647  -1634  -1611  -1592  -1566  -1540  -1553  -1543  -1414  -1174  -775  -80  963  2375  4078  5649  6482  6174  4658  2282  -190  -2005  -2877  -3001  -2721  -2297  -1868  -1489  -1157  -893  -744  -708  -746  -836  -945  -1023  -1052  -1053  -1035  -995  -934  -877  -846  -842  -839  -799  -682  -488  -271  -106  -29  -24  -57  -100  -135  -140  -80  74  306  554  783  994  1184  1346  1499  1670  1841  1982  2102  2214  2301  2353  2378  2385  2377  2363  2338  2270  2113  1836  1478  1110  737  354  45  -108  -135  -131  -171  -277  -406  -515  -627  -787  -963  -1082  -1137  -1187  -1258  -1322  -1352  -1348  -1327  -1286  -1214  -1132  -1095  -1132  -1213  -1280  -1311  -1318  -1317  -1309  -1286  -1251  -1209  -1149  -1059  -966  -917  -915  -928  -946  -971  -981  -894  -633  -251  71  233  284  303  312  302  279  272  307  371  435  484  516  534  540  535  531  536  552  584  629  673  709  748  780  746  591  364  192  132  140  159  169  174  192  236  284  305  300  291  292  294  281  239  178  134  138  203  337  515  674  759  779  777  783  799  818  864  971  1113  1216  1264  1303  1373  1456  1513  1535  1535  1526  1517  1507  1461  1343  1170  1017  935  914  917  924  927  922  902  871  835]
