reading_id,reading_time,wire_id,result_classification,heart_rate,heart_rate_alert,firmware_version,device_app_version,hardware_version,waveform_samples
8b65bfc0-54d2-11ed-8080-808080808080,Wed Oct 26 02:04:37 UTC 2022,2101e3b12739,NSR,61,NONE,20001.171.50,2.10.0,Charge 5,[43  166  308  421  433  357  282  234  150  -22  -267  -535  -787  -982  -1083  -1100  -1087  -1093  -1130  -1198  -1312  -1486  -1684  -1827  -1886  -1877  -1800  -1646  -1446  -1279  -1196  -1183  -1194  -1205  -1210  -1208  -1190  -1145  -1079  -1009  -936  -856  -775  -689  -591  -505  -460  -455  -473  -495  -512  -528  -542  -532  -486  -436  -435  -485  -540  -565  -562  -549  -531  -498  -445  -389  -338  -277  -223  -212  -224  -236  -258  -298  -348  -400  -434  -423  -357  -263  -187  -149  -152  -213  -334  -469  -551  -558  -523  -483  -467  -476  -496  -513  -525  -529  -502  -417  -293  -183  -116  -82  -64  -61  -70  -80  -75  -44  21  136  308  483  568  534  435  330  239  156  75  15  -9  -10  -7  -32  -118  -259  -406  -516  -550  -504  -441  -428  -467  -492  -443  -343  -266  -246  -294  -390  -406  -143  498  1449  2515  3431  4012  4211  3943  3101  1754  162  -1290  -2196  -2393  -2094  -1672  -1343  -1064  -729  -393  -185  -135  -201  -352  -544  -703  -792  -827  -835  -834  -829  -812  -749  -618  -461  -353  -320  -341  -381  -393  -340  -235  -119  -13  83  183  285  368  415  426  415  397  381  384  465  687  1018  1344  1582  1722  1782  1792  1777  1754  1741  1769  1863  1994  2100  2155  2162  2089  1896  1640  1446  1356  1309  1236  1050  655  111  -375  -679  -824  -890  -930  -946  -928  -902  -902  -931  -981  -1049  -1126  -1200  -1247  -1239  -1179  -1112  -1086  -1105  -1145  -1198  -1246  -1271  -1278  -1276  -1248  -1177  -1094  -1085  -1200  -1373  -1493  -1528  -1521  -1508  -1495  -1482  -1472  -1467  -1474  -1496  -1532  -1569  -1592  -1581  -1527  -1460  -1399  -1334  -1275  -1249  -1273  -1344  -1432  -1492  -1513  -1513  -1510  -1500  -1473  -1430  -1388  -1363  -1350  -1328  -1294  -1264  -1245  -1239  -1246  -1251  -1253  -1268  -1296  -1283  -1174  -988  -810  -695  -642  -630  -636  -634  -597  -524  -448  -406  -395  -379  -325  -235  -140  -76  -81  -208  -472  -773  -972  -1015  -926  -738  -512  -340  -279  -332  -462  -612  -727  -785  -798  -790  -748  -629  -419  -211  -125  -125  10  501  1375  2422  3344  3932  4059  3645  2712  1344  -276  -1726  -2579  -2738  -2358  -1718  -1164  -868  -736  -629  -530  -473  -463  -466  -439  -350  -211  -69  38  94  96  48  -34  -116  -152  -107  24  199  339  401  402  372  333  297  290  361  546  803  1033  1175  1226  1217  1199  1234  1361  1547  1724  1901  2136  2399  2589  2673  2704  2733  2761  2777  2788  2798  2804  2807  2809  2793  2725  2563  2299  1972  1636  1331  1087  903  762  644  543  465  391  285  148  29  -46  -94  -122  -112  -68  -22  8  29  43  50  42  6  -56  -126  -173  -181  -141  -54  52  134  171  173  154  129  123  140  156  143  108  71  40  17  0  -24  -49  -64  -54  -7  59  107  96  5  -133  -249  -303  -309  -295  -263  -208  -139  -83  -62  -65  -69  -79  -91  -65  21  115  115  13  -97  -151  -161  -165  -194  -254  -324  -371  -395  -424  -476  -548  -637  -731  -807  -845  -855  -847  -815  -751  -687  -672  -710  -784  -935  -1150  -1228  -965  -382  369  1171  1996  2889  3835  4622  4841  4182  2692  666  -1377  -2784  -3239  -2950  -2292  -1590  -1112  -940  -941  -961  -943  -872  -738  -547  -350  -208  -146  -147  -198  -301  -423  -505  -506  -421  -283  -158  -95  -88  -103  -99  -51  39  149  246  314  352  386  446  536  640  763  928  1123  1292  1405  1489  1587  1713  1867  2045  2245  2433  2553  2594  2599  2605  2599  2533  2408  2291  2213  2128  1991  1816  1640  1487  1335  1118  811  484  214  15  -145  -311  -492  -659  -772  -828  -845  -834  -793  -734  -693  -693  -715  -730  -732  -726  -725  -748  -813  -925  -1055  -1140  -1132  -1026  -880  -774  -737  -742  -765  -808  -862  -898  -888  -833  -773  -765  -809  -843  -834  -798  -748  -703  -670  -634  -597  -609  -714  -883  -1027  -1081  -1060  -1021  -1003  -999  -978  -916  -829  -759  -722  -708  -695  -676  -665  -691  -758  -824  -830  -772  -698  -645  -618  -604  -574  -503  -410  -341  -317  -314  -301  -265  -224  -209  -244  -345  -506  -692  -887  -1110  -1350  -1530  -1591  -1553  -1492  -1472  -1487  -1497  -1494  -1487  -1462  -1394  -1298  -1222  -1190  -1190  -1210  -1267  -1365  -1422  -1288  -882  -232  637  1674  2744  3711  4371  4374  3514  1953  57  -1692  -2780  -3041  -2753  -2262  -1759  -1350  -1088  -968  -925  -869  -754  -606  -482  -416  -385  -346  -289  -242  -223  -222  -225  -227  -232  -243  -246  -200  -54  183  420  558  584  550  499  443  387  359  424  649  984  1261  1380  1382  1361  1379  1463  1607  1791  2007  2258  2500  2651  2683  2639  2578  2539  2530  2546  2582  2629  2655  2569  2281  1848  1459  1211  1066  982  945  932  891  741  431  2  -412  -671  -750  -732  -693  -664  -653  -658  -668  -653  -580  -455  -346  -327  -390  -475  -545  -596  -629  -641  -630  -608  -585  -566  -555  -553  -545  -521  -486  -460  -452  -454  -460  -475  -508  -555  -598  -621  -610  -576  -566  -606  -655  -663  -622  -560  -516  -504  -507  -509  -496  -472  -462  -491  -528  -522  -482  -454  -461  -498  -542  -571  -578  -559  -528  -507  -495  -454  -348  -204  -90  -40  -33  -36  -33  -28  -32  -67  -163  -331  -517  -642  -696  -728  -755  -761  -733  -685  -665  -696  -755  -845  -982  -1112  -1164  -1135  -1064  -986  -878  -643  -287  63  395  788  1299  2032  3013  4017  4695  4694  3792  2138  204  -1502  -2594  -2924  -2666  -2135  -1575  -1134  -883  -790  -749  -667  -536  -398  -277  -169  -76  -21  -40  -139  -270  -363  -404  -422  -421  -326  -68  272  518  597  580  544  510  476  463  483  509  513  517  604  847  1193  1489  1649  1688  1664  1631  1622  1659  1750  1866  1981  2134  2378  2671  2911  3053  3113  3116  3056  2897  2607  2224  1870  1654  1563  1518  1468  1373  1127  651  75  -334  -484  -486  -456  -432  -417  -408  -409  -440  -515  -614  -686  -710  -704  -692  -686  -694  -725  -777  -827  -850  -840  -813  -784  -748  -697  -642  -605  -592  -594  -605  -627  -651  -661  -656  -657  -681  -733  -818  -923  -997  -984  -857  -647  -426  -257  -171  -176  -262  -388  -493  -537  -531  -517  -543  -630  -734  -769  -724  -667  -643  -645  -639  -600  -528  -459  -426  -432  -453  -476  -509  -549  -582  -601  -611  -597  -535  -420  -289  -191  -131  -69  9  79  127  158  176  178  150  82  -24  -146  -265  -391  -532  -664  -755  -802  -818  -815  -795  -762  -708  -629  -554  -519  -537  -595  -676  -771  -865  -941  -973  -910  -680  -273  237  791  1436  2260  3233  4088  4438  4041  2906  1246  -513  -1857  -2468  -2386  -1937  -1510  -1274  -1167  -1075  -958  -830  -707  -610  -552  -521  -491  -441  -380  -337  -326  -331  -323  -277  -194  -111  -61  -48  -53  -64  -78  -77  -21  119  308  462  544  591  637  678  700  729  813  953  1093  1195  1304  1484  1720  1934  2091  2194  2249  2276  2310  2386  2501  2613  2675  2677  2634  2559  2438  2245  1993  1739  1513  1316  1151  986  760  471  192  -21  -165  -254  -316  -378  -444  -492  -514  -525  -551  -620  -734  -852  -928  -956  -952  -914  -822  -691  -578  -520  -519  -561  -627  -692  -734  -747  -744  -731  -700  -638  -554  -483  -444  -427  -419  -413  -413  -443  -515  -592  -617  -602  -607  -662  -746  -805  -814  -820  -866  -921  -934  -884  -797  -712  -650  -609  -587  -589  -622  -680  -734  -744  -695  -605  -509  -446  -444  -507  -606  -686  -720  -722  -724  -744  -779  -810  -830  -841  -845  -847  -850  -870  -923  -996  -1051  -1069  -1057  -1026  -994  -978  -980  -991  -1006  -1025  -1030  -957  -731  -340  137  639  1210  1938  2834  3751  4345  4226  3269  1674  -191  -1846  -2873  -3151  -2849  -2226  -1506  -904  -579  -503  -531  -577  -635  -697  -730  -706  -630  -538  -466  -422  -391  -356  -316  -284  -250  -187  -90  11  93  142  161  160  153  143  142  172  257  388  538  704  869  999  1084  1139  1168  1180  1217  1316  1463  1608  1745  1920  2156  2404  2588  2669  2648  2552  2436  2342  2285  2263  2239  2144  1922  1590  1226  852  449  63  -206  -341  -409  -467  -518  -551  -571  -593  -625  -668  -733  -819  -897  -932  -929  -917  -916  -911  -890  -850  -795  -737  -699  -693  -712  -739  -763  -774  -752  -671  -540  -420  -369  -410  -536  -700  -835  -891  -862  -759  -600  -439  -356  -389  -493  -590  -648  -682  -707  -723  -725  -717  -714  -697  -664  -684  -758  -798  -778  -729  -672  -632  -628  -660  -707  -744  -761  -754  -709  -613  -486  -356  -229  -112  -33  -34  -143  -330  -505  -592  -565  -432  -253  -128  -133  -271  -470  -625  -702  -737  -738  -672  -559  -475  -469  -514  -548  -550  -562  -612  -687  -773  -850  -851  -698  -327  308  1200  2244  3288  4205  4824  4858  4050  2460  518  -1207  -2217  -2359  -1966  -1493  -1138  -913  -797  -730  -644  -540  -448  -383  -338  -300  -256  -206  -166  -146  -145  -154  -161  -147  -83  46  201  308  343  333  308  284  274  314  438  618  775  885  971  1044  1122  1225  1341  1450  1559  1674  1782  1876  1974  2089  2203  2307  2423  2565  2700  2783  2808  2803  2795  2788  2760  2655  2441  2151  1844  1559  1319  1118  941  789  657  516  344  149  -27  -136  -175  -191  -237  -328  -433  -516  -576  -622  -652  -660  -649  -630  -606  -567  -506  -436  -379  -342  -330  -333  -324  -293  -259  -238  -225  -219  -249  -352  -509  -648  -710  -677  -550  -375  -238  -190  -223  -317  -436  -531  -580  -592  -575  -521  -433  -352  -320  -345  -403  -456  -488  -503  -512  -513  -512  -517  -529  -538  -533  -501  -448  -400  -376  -381  -415  -464  -505  -531  -557  -598  -645  -657  -599  -488  -392  -359  -388  -447  -520  -612  -703  -741  -695  -601  -523  -492  -493  -503  -517  -543  -587  -637  -669  -674  -661  -635  -588  -514  -415  -299  -194  -130  -102  -78  -43  -10  7  6  -20  -80  -170  -276  -402  -581  -798  -954  -980  -888  -747  -632  -580  -580  -620  -699  -804  -896  -924  -827  -599  -356  -222  -167  -35  288  813  1534  2448  3387  4063  4212  3633  2337  610  -1087  -2274  -2726  -2575  -2079  -1520  -1142  -979  -901  -803  -670  -537  -442  -400  -394  -403  -411  -416  -422  -424  -413  -383  -342  -294  -221  -114  -7  61  90  103  117  148  207  289  386  483  563  624  680  748  845  963  1073  1142  1174  1209  1309  1498  1739  1956  2098  2172  2209  2230  2244  2256  2272  2293  2315  2326  2308  2241  2137  2035  1931  1781  1592  1415  1252  1049  766  413  75  -153  -283  -389  -491  -555  -572  -583  -629  -706  -774  -809  -817  -799  -741  -636  -500  -374  -294  -271  -296  -364  -458  -551  -641  -728  -782  -759  -644  -485  -369  -328  -332  -331  -295  -232  -182  -170  -189  -225  -277  -362  -472  -559  -583  -552  -513  -529  -628  -768  -882  -919  -854  -700  -517  -393  -384  -466  -544  -553  -532  -534  -555  -578  -590  -592  -595  -598  -600  -600  -605  -619  -634  -641  -640  -637  -634  -631  -632  -648  -681  -701  -662  -563  -481  -477  -526  -570  -580  -574  -571  -564  -553  -558  -575  -582  -574  -560  -548  -528  -468  -351  -213  -137  -179  -317  -481  -596  -620  -552  -444  -362  -317  -274  -222  -183  -173  -177  -159  -88  34  150  192  123  -37  -210  -312  -330  -315  -326  -407  -559  -731  -873  -977  -1054  -1104  -1129  -1137  -1142  -1140  -1112  -1024  -841  -542  -98  529  1320  2157  2902  3439  3593  3188  2241  901  -606  -1853  -2432  -2336  -1873  -1379  -1082  -1012  -1048  -1067  -1015  -888  -718  -564  -472  -442  -444  -428  -364  -269  -195  -162  -145  -110  -49  18  73  108  119  108  88  66  44  23  32  134  369  666  904  1031  1077  1091  1098  1105  1151  1307  1595  1935  2214  2371  2426  2430  2395  2316  2220  2157  2153  2196  2269  2352  2416  2452  2463  2433  2284  1947  1494  1091  786  516  279  134  90  103  117  97  36  -35  -83  -114  -162  -232  -281  -287  -271  -260  -256  -242  -215  -199  -234  -331  -457  -553  -593  -598  -598  -595  -561  -453  -274  -98  -3  1  -37  -64  -66  -78  -115  -157  -192  -227  -274  -333  -390  -430  -457  -476  -483  -479  -476  -475  -456  -396  -313  -251  -236  -264  -319  -384  -437  -455  -443  -439  -473  -522  -548  -538  -506  -473  -450  -442  -471  -560  -684  -772  -764  -651  -493  -377  -335  -334  -342  -352  -377  -423  -489  -575  -675  -771  -830  -824  -747  -631  -536  -493  -486  -497  -529  -586  -639  -649  -613  -558  -498  -441  -404  -392  -394  -399  -403  -404  -394  -363  -310  -253  -216  -207  -204  -183  -139  -88  -59  -79  -146  -223  -275  -300  -319  -348  -384  -424  -461  -487  -511  -555  -618  -666  -665  -606  -519  -464  -498  -608  -664  -556  -303  65  556  1132  1765  2463  3169  3699  3784  3233  2067  529  -963  -1948  -2219  -1944  -1443  -1005  -788  -746  -748  -708  -590  -429  -302  -247  -245  -260  -272  -275  -272  -269  -267  -265  -259  -228  -137  38  251  410  479  478  422  321  220  184  251  399  572  720  824  888  927  945  944  947  1004  1162  1417  1700  1921  2043  2116  2221  2378  2534  2626  2649  2641  2629  2611  2558  2431  2241  2057  1917  1771  1563  1293  1003  758  607  541  493  370  127  -156  -345  -397  -375  -345  -325  -321  -354  -447  -573  -666  -698  -692  -676  -662  -653  -646  -637  -623  -612  -604  -587  -545  -465  -366  -300  -290  -308  -312  -287  -248  -223  -220  -227  -235  -245  -258  -278  -309  -346  -374  -401  -450  -516  -567  -585  -583  -578  -580  -596  -620  -637  -618  -549  -455  -385  -356  -347  -350  -383  -453  -515  -523  -496  -477  -474  -480  -487  -494  -499  -494  -460  -382  -288  -244  -290  -392  -483  -529  -539  -538  -536  -531  -509  -474  -460  -491  -536  -561  -568  -566  -547  -501  -433  -373  -336  -319  -316  -326  -342  -352  -354  -352  -350  -351  -354  -355  -350  -331  -301  -272  -251  -245  -263  -306  -358  -399  -428  -454  -475  -486  -502  -529  -529  -452  -316  -200  -156  -168  -212  -287  -375  -437  -455  -447  -423  -364  -257  -137  -56  -17  22  76  118  122  85  16  -67  -153  -232  -308  -390  -479  -558  -612  -633  -620  -589  -554  -523  -495  -469  -443  -428  -452  -524  -577  -516  -284  157  800  1553  2316  2995  3503  3718  3497  2805  1700  303  -1042  -1948  -2298  -2213  -1873  -1449  -1054  -716  -448  -293  -263  -312  -384  -436  -454  -447  -430  -406  -369  -314  -252  -190  -99  50  220  342  400  430  443  414  316  174  63  34  112  297  534  725  835  905  995  1114  1221  1296  1393  1572  1793  1959  2054  2139  2244  2341  2403  2432  2442  2446  2453  2466  2474  2457  2404  2324  2222  2080  1886  1666  1468  1323  1200  1041  842  628  386  125  -74  -178  -239  -320  -430  -537  -606  -636  -643  -637  -621  -604  -595  -591  -590  -588  -571  -516  -422  -321  -247  -212  -204  -205  -212  -235  -281  -332  -367  -379  -380  -375  -359  -322  -270  -220  -192  -197  -236  -293  -347  -378  -376  -354  -322  -284  -249  -244  -294  -400  -518  -603  -647  -668  -678  -675  -649  -601  -545  -500  -479  -468  -437  -381  -349  -382  -446  -487  -495  -488  -481  -483  -486  -469  -414  -348  -337  -398  -470  -490  -458  -430  -442  -452  -423  -381  -356  -350  -352  -364  -396  -449  -505  -542  -555  -554  -547  -529  -488  -422  -355  -325  -344  -384  -414  -435  -449  -463  -475  -479  -475  -468  -442  -400  -347  -284  -238  -234  -258  -289  -323  -351  -360  -353  -358  -386  -406  -386  -337  -292  -265  -254  -261  -288  -304  -268  -186  -99  -38  -7  5  18  50  106  174  244  312  337  236  -35  -380  -626  -713  -707  -664  -594  -512  -450  -421  -415  -413  -402  -385  -372  -371  -398  -479  -637  -818  -865  -670  -264  330  1157  2147  3091  3831  4235  4082  3278  1988  413  -1200  -2392  -2809  -2575  -2025  -1378  -846  -594  -551  -531  -452  -339  -244  -199  -194  -201  -207  -206  -192  -163  -127  -101  -94  -95  -94  -90  -84  -64  -15  55  136  238  373  511  612  676  735  794  830  838  845  902  1050  1282  1513  1658  1726  1792  1903  2049  2214  2394  2564  2666  2679  2625  2540  2468  2436  2437  2444  2425  2355  2246  2120  1954  1699  1343  967  703  594  565  525  426  259  55  -136  -299  -452  -604  -733  -803  -812  -784  -747  -734  -757  -778  -767  -743  -724  -701  -655  -583  -502  -435  -399  -393  -404  -426  -451  -471  -484  -496  -505  -506  -503  -505  -518  -544  -579  -608  -623  -628  -626  -605  -550  -467  -388  -353  -372  -424  -484  -546  -608  -649  -656  -637  -611  -590  -578  -571  -569  -592  -660  -755  -826  -838  -788  -698  -605  -543  -516  -517  -542  -574  -589  -584  -581  -591  -582  -520  -423  -343  -297  -267  -255  -278  -323  -373  -420  -465  -500  -516  -514  -511  -511  -503  -476  -437  -398  -365  -340  -310  -281  -305  -434  -623  -766  -815  -800  -779  -776  -775  -762  -744  -708  -623  -498  -388  -330  -312  -313  -321  -338  -364  -381  -345  -227  -63  57  99  95  83  76  65  32  -33  -118  -198  -280  -369  -451  -514  -568  -617  -648  -658  -657  -654  -652  -649  -641  -620  -571  -507  -478  -548  -710  -790  -556  -33  553  1122  1759  2497  3263  3897  4049  3422  2156  597  -952  -2107  -2603  -2550  -2197  -1699  -1185  -772  -517  -408  -388  -399  -399  -371  -319  -259  -208  -167  -124  -80  -57  -64  -81  -96  -119  -142  -139  -80  41  189  322  435  527  581  594  587  578  583  629  750  948  1180  1386  1520  1586  1629  1701  1828  1985  2111  2175  2195  2213  2275  2392  2522  2612  2652  2668  2677  2669  2626  2532  2397  2255  2094  1855  1538  1233  987  763  536  323  144  -10  -163  -310  -431  -524  -595  -638  -651  -647  -644  -645  -652  -656  -635  -572  -482  -416  -414  -489  -613  -727  -790  -808  -800  -756  -658  -535  -449  -430  -456  -490  -506  -504  -497  -496  -495  -489  -472  -452  -443  -452  -463  -462  -453  -447  -446  -448  -450  -452  -446  -419  -372  -352  -389  -445  -475  -486  -512  -568  -641  -700  -724  -715  -684  -638  -579  -509  -446  -412  -406  -410  -419  -448  -514  -602  -669  -686  -652  -570  -444  -306  -204  -162  -167  -228  -369  -558  -709  -776  -780  -751  -699  -630  -563  -521  -507  -508  -512  -521  -544  -577  -598  -591  -569  -541  -497  -438  -384  -340  -291  -234  -182  -140  -102  -70  -58  -73  -107  -137  -140  -108  -55  0  31  4  -103  -255  -372  -422  -435  -435  -423  -399  -382  -389  -425  -482  -538  -564  -548  -506  -456  -398  -345  -315  -261  -96  228  708  1318  2050  2903  3767  4350  4283  3390  1823  -4  -1527  -2303  -2338  -1978  -1535  -1136  -820  -607  -471  -377  -312  -268  -236  -222  -216  -177  -69  74  179  214  206  196  199  208  216  217  216  218  228  248  288  358  440  494  508  501  490  485  496  541  621  723  844  987  1142  1298  1451  1603  1754  1897  2013  2082  2121  2185  2323  2503  2638  2688  2680  2629  2519  2362  2176  1941  1632  1281  962  732  585  464  317  123  -90  -274  -403  -480  -519  -541  -572  -630  -713  -787  -825  -842  -860  -888  -903  -876  -820  -773  -756  -758  -758  -747  -736  -740  -761  -773  -743  -664  -571  -508  -480  -457  -424  -393  -381  -400  -462  -549  -615  -641  -645  -661  -703  -725  -668  -551  -461  -444  -479  -519  -539  -546  -550  -549  -547  -561  -611  -686  -752  -787  -798  -798  -786  -751  -693  -636  -597  -582  -582  -584  -581  -578  -579  -583  -587  -592  -600  -607  -597  -557  -491  -426  -385  -368  -357  -336  -309  -288  -280  -282  -287  -292  -299  -308  -321  -337  -359  -390  -430  -491  -573  -647  -679  -665  -622  -558  -462  -345  -251  -203  -187  -184  -185  -187  -184  -175  -162  -147  -120  -84  -53  -46  -71  -116  -172  -255  -375  -510  -616  -670  -683  -680  -677  -670  -637  -578  -530  -532  -572  -619  -651  -672  -686  -647  -514  -309  -24  387  938  1608  2365  3053  3396  3229  2562  1449  61  -1217  -2024  -2271  -2077  -1650  -1219  -917  -761  -716  -723  -712  -640  -511  -379  -286  -229  -188  -142  -93  -60  -41  -12  30  54  36  -12  -67  -107  -94  11  174  307  387  468  566  634  647  642  687  831  1031  1191  1280  1333  1377  1419  1476  1557  1667  1808  1986  2181  2341  2417  2425  2409  2400  2401  2408  2417  2418  2381  2271  2091  1883  1675  1461  1217  939  673  481  349  197  -18  -245  -402  -473  -488  -478  -468  -479  -532  -623  -711  -761  -770  -762  -750  -737  -714  -674  -623  -567  -522  -494  -486  -482  -439  -347  -261  -226  -228  -243  -272  -336  -435  -542  -637  -700  -695  -624  -534  -464  -427  -417  -431  -469  -521  -564  -590  -604  -607  -589  -539  -476  -450  -506  -635  -773  -852  -852  -789  -704  -637  -609  -609  -631  -662  -673  -635  -565  -506  -472  -456  -446  -430  -401  -380  -403  -490  -605  -687  -712  -692  -638  -572  -524  -504  -496  -480  -463  -476  -513  -532  -533  -539  -546  -545  -519  -462  -399  -362  -353  -356  -366  -383  -401  -395  -340  -236  -146  -149  -238  -329  -376  -412  -479  -568  -634  -658  -656  -651  -649  -650  -658  -674  -697  -717  -721  -703  -667  -616  -544  -413  -201  36  235  442  787  1373  2216  3183  3953  4119  3460  2113  466  -989  -1865  -2119  -2012  -1805  -1590  -1354  -1090  -834  -641  -538  -488  -438  -372  -313  -278  -262  -241  -190  -104  4  102  160  178  176  169  157  128  85  53  57  100  174  278  436  672  934  1109  1161  1148  1131  1137  1177  1259  1384  1537  1690  1847  2060  2330  2561  2678  2696  2672  2644  2624  2611  2602  2572  2506  2416  2324  2240  2143  1985  1747  1494  1317  1215  1104  906  598  243  -42  -209  -290  -337  -378  -415  -450  -486  -508  -501  -476  -455  -452  -473  -519  -575  -614  -612  -557  -460  -369  -332  -364  -444  -528  -580  -599  -587  -538  -454  -369  -331  -353  -408  -461  -496  -512  -499  -457  -404  -360  -340  -349  -382  -437  -503  -547  -527  -428  -286  -179  -163  -251  -416  -584  -686  -713  -702  -672  -624  -581  -571  -592  -626  -666  -694  -696  -672  -632  -596  -571  -543  -498  -444  -413  -418  -444  -486  -560  -651  -695  -646  -525  -396  -309  -279  -298  -350  -432  -553  -709  -853  -909  -828  -637  -438  -320  -289  -293  -296  -302  -343  -439  -553  -619  -626  -613  -612  -621  -624  -611  -588  -569  -566  -571  -567  -557  -550  -551  -555  -557  -542  -495  -420  -347  -299  -269  -238  -197  -149  -83  18  142  249  308  323  309  281  242  188  120  38  -58  -157  -248  -329  -403  -461  -487  -480  -453  -423  -402  -391  -390  -408  -460  -534  -595  -626  -621  -552  -384  -112  257  758  1441  2268  3091  3720  3950  3639  2793  1502  -39  -1424  -2273  -2487  -2189  -1622  -1055  -676  -536  -538  -549  -522  -469  -413  -371  -341  -299  -235  -164  -108  -75  -59  -47  -24  11  49  81  107  125  144  186  264  358  438  499  552  599  633  660  702  765  842  925  1008  1107  1250  1425  1567  1641  1682  1763  1945  2222  2502  2671  2706  2664  2607  2570  2559  2568  2594  2618  2569  2348  1954  1533  1224  1041  924  830  708  487  146  -213  -450  -540  -562  -580  -601  -614  -618  -628  -656  -695  -714  -692  -642  -600  -579  -574  -573  -572  -579  -601  -628  -614  -545  -472  -441  -438  -441  -451  -469  -498  -537  -559  -537  -479  -415  -370  -348  -348  -379  -446  -528  -586  -605  -592  -553  -488  -410  -354  -351  -389  -429  -449  -458  -457  -443  -425  -424  -448  -482  -514  -540  -558  -566  -543  -470  -370  -299  -283  -306  -355  -423  -500  -566  -605  -607  -574  -527  -495  -488  -496  -504  -507  -513  -521  -517  -495  -465  -444  -443  -463  -496  -530  -554  -562  -549  -510  -453  -405  -386  -405  -461  -533  -586  -604  -598  -583  -558  -528  -502  -485  -478  -484  -503  -527  -535  -521  -505  -502  -503  -489  -452  -410  -393  -421  -492  -581  -643  -649  -587  -466  -306  -121  67  217  301  320  281  193  85  0  -43  -51  -37  -6  43  85  67  -40  -210  -385  -520  -594  -628  -656  -699  -736  -733  -699  -673  -676  -691  -685  -646  -598  -557  -507  -412  -249  -3  401  1066  1953  2832  3504  3918  3997  3614  2683  1180  -647  -2186  -2874  -2626  -1831  -1041  -595  -486  -533  -584  -584  -522  -386  -218  -100  -62  -71  -96  -126  -153  -162  -140  -84  -9  67  124  153  166  179  193  205  221  248  292  372  492  619  727  824  916  987  1052  1156  1302  1452  1592  1736  1882  2009  2100  2153  2180  2203  2226  2265  2362  2518  2666  2749  2771  2747  2653  2471  2253  2084  1987  1900  1730  1440  1104  838  679  565  394  124  -178  -391  -454  -406  -336  -319  -362  -428  -496  -564  -617  -652  -673  -680  -672  -665  -671  -688  -686  -616  -462  -280  -157  -122  -158  -244  -347  -419  -437  -419  -393  -372  -361  -353  -350  -362  -395  -445  -512  -591  -669  -702  -644  -493  -310  -175  -116  -120  -195  -363  -602  -825  -953  -984  -954  -881  -773  -649  -536  -445  -389  -370  -375  -389  -403  -412  -415  -418  -417  -410  -396  -386  -409  -492  -616  -732  -811  -843  -794  -633  -409  -237  -178  -214  -313  -429  -508  -526  -492  -426  -361  -334  -356  -402  -437  -452  -460  -471  -484  -499  -520  -541  -552  -550  -545  -543  -545  -538  -504  -432  -340  -266  -238  -260  -329  -434  -556  -671  -739  -729  -634  -490  -358  -276  -244  -254  -306  -390  -438  -398  -301  -209  -148  -120  -121  -147  -194  -255  -315  -351  -343  -282  -173  -32  106  211  271  300  319  333  338  334  315  282  237  175  79  -66  -242  -397  -494  -546  -584  -623  -661  -687  -699  -702  -695  -668  -636  -630  -657  -690  -682  -590  -391  -70  402  1027  1750  2499  3200  3735  3889  3469  2484  1105  -378  -1548  -2111  -2121  -1843  -1536  -1344  -1268  -1207  -1067  -871  -705  -605  -549  -506  -461  -410  -363  -327  -297  -262  -227  -205  -203  -214  -214  -180  -97  12  99  150  197  251  292  309  315  323  346  408  531  692  835  925  979  1047  1176  1380  1618  1824  1977  2101  2220  2342  2468  2583  2670  2730  2774  2793  2761  2658  2498  2316  2161  2062  2005  1958  1889  1749  1494  1149  792  478  233  66  -68  -225  -390  -502  -542  -541  -526  -505  -489  -484  -483  -476  -467  -475  -508  -544  -550  -522  -487  -481  -502  -497  -445  -388  -366  -366  -355  -315  -262  -230  -231  -242  -230  -184  -133  -104  -98  -102  -102  -101  -113  -151  -197  -215  -195  -168  -162  -196  -265  -338  -383  -403  -423  -449  -466  -471  -469  -469  -469  -464  -450  -430  -416  -411  -412  -413  -412  -407  -399  -389  -378  -370  -363  -357  -358  -367  -381  -394  -410  -433  -456  -470  -464  -426  -353  -267  -205  -182  -188  -209  -234  -257  -279  -298  -303  -293  -283  -287  -306  -331  -354  -371  -378  -364  -319  -257  -210  -197  -215  -261  -331  -400  -428  -401  -358  -353  -392  -441  -472  -483  -464  -401  -299  -191  -112  -79  -92  -133  -174  -202  -223  -244  -243  -190  -92  8  73  94  91  85  87  109  149  186  190  155  102  45  -27  -140  -288  -436  -545  -587  -586  -607  -669  -707  -670  -593  -552  -562  -564  -520  -457  -345  -78  383  972  1589  2184  2766  3302  3604  3435  2664  1298  -402  -1872  -2622  -2615  -2139  -1538  -1089  -898  -879  -896  -873  -778  -618  -447  -323  -254  -206  -155  -103  -57  -12  38  99  159  200  210  196  167  134  111  117  174  279  386  447  459  456  463  495  573  729  951  1172  1341  1454  1532  1582  1618  1695  1873  2129  2355  2478  2513  2518  2530  2551  2563  2555  2521  2473  2429  2393  2338  2216  2002  1725  1469  1288  1140  907  525  101  -186  -305  -358  -416  -459  -463  -448  -440  -451  -497  -583  -698  -807  -877  -903  -906  -898  -876  -847  -831  -836  -845  -836  -801  -757  -725  -713  -710  -709  -707  -703  -697  -684  -669  -655  -641  -614  -564  -491  -404  -323  -278  -305  -420  -578  -694  -739  -741  -732  -719  -698  -665  -623  -578  -530  -486  -469  -502  -592  -702  -780  -807  -805  -801  -799  -777  -703  -585  -483  -441  -447  -452  -431  -413  -427  -465  -496  -515  -539  -572  -595  -604  -606  -613  -629  -649  -664  -663  -638  -581  -499  -414  -362  -353  -371  -407  -459  -513  -547  -553  -536  -500  -456  -423  -408  -405  -407  -413  -422  -429  -419  -370  -271  -169  -145  -209  -285  -321  -324  -313  -285  -241  -190  -146  -110  -78  -41  9  63  87  56  -24  -121  -208  -291  -391  -498  -577  -607  -599  -588  -595  -616  -631  -633  -629  -625  -620  -618  -632  -682  -755  -757  -553  -142  330  785  1273  1839  2466  3077  3465  3318  2540  1332  -38  -1256  -1974  -2092  -1830  -1479  -1198  -1017  -880  -724  -562  -454  -410  -396  -399  -409  -395  -330  -203  -32  116  204  249  272  274  255  209  151  110  97  98  98  93  97  145  274  479  682  806  858  896  951  1037  1183  1390  1601  1762  1863  1930  1988  2051  2129  2216  2280  2306  2308  2303  2303  2315  2324  2311  2255  2145  2011  1891  1785  1674  1534  1340  1100  871  674  465  230  25  -100  -167  -221  -309  -467  -678  -866  -986  -1056  -1091  -1070  -963  -787  -604  -471  -405  -401  -462  -594  -756  -869  -888  -827  -725  -621  -524  -423  -337  -289  -274  -268  -257  -239  -223  -219  -238  -285  -355  -419  -438  -414  -377  -351  -339  -343  -366  -415  -482  -534  -551  -544  -529  -516  -507  -504  -497  -470  -411  -351  -339  -382  -445  -508  -568  -609  -627  -627  -603  -541  -457  -395  -372  -371  -373  -372  -367  -362  -358  -355  -357  -387  -470  -583  -664  -668  -598  -496  -417  -380  -371  -381  -425  -519  -634  -713  -719  -665  -592  -546  -534  -534  -536  -537  -532  -517  -497  -488  -496  -509  -507  -476  -409  -325  -260  -227  -206  -166  -80  40  139  182  182  163  138  112  92  86  93  86  38  -50  -158  -250  -305  -326  -328  -321  -310  -292  -265  -250  -300  -460  -684  -855  -921  -927  -923  -891  -756  -451  -17  412  761  1097  1529  2084  2718  3274  3493  3176  2276  881  -699  -1946  -2490  -2401  -1989  -1492  -1070  -838  -777  -765  -720  -648  -592  -558  -516  -441  -331  -213  -133  -116  -153  -214  -277  -316  -303  -210  -52  107  223  303  350  328  230  114  48  66  185  409  671  855  923  933  955  1035  1188  1403  1636  1832  1968  2055  2115  2167  2229  2336  2507  2702  2858  2931  2904  2785  2627  2501  2412  2291  2092  1861  1679  1562  1474  1386  1235  929  468  8  -288  -413  -446  -447  -430  -420  -464  -567  -668  -721  -724  -674  -568  -436  -347  -351  -449  -586  -683  -703  -664  -606  -561  -540  -535  -544  -556  -548  -500  -419  -344  -305  -299  -304  -309  -311  -313  -325  -353  -385  -396  -374  -338  -308  -291  -289  -297  -305  -314  -323  -336  -351  -364  -375  -390  -403  -393  -356  -316  -311  -338  -369  -388  -399  -405  -410  -415  -408  -354  -233  -118  -123  -240  -373  -468  -507  -493  -455  -427  -441  -500  -568  -618  -647  -659  -654  -629  -566  -464  -378  -361  -402  -457  -487  -478  -446  -410  -393  -396  -391  -353  -305  -286  -300  -322  -341  -371  -415  -462  -505  -541  -563  -570  -573  -574  -558  -511  -445  -396  -385  -398  -411  -404  -381  -364  -375  -406  -430  -436  -426  -403  -353  -259  -139  -43  9  43  90  151  191  183  135  49  -63  -176  -277  -368  -431  -461  -478  -493  -503  -505  -499  -494  -489  -478  -469  -478  -512  -569  -633  -690  -737  -748  -631  -319  129  638  1200  1793  2376  2931  3360  3441  3004  2061  760  -605  -1625  -2062  -2012  -1711  -1356  -1073  -892  -753  -628  -538  -487  -452  -420  -390  -371  -379  -413  -444  -432  -383  -335  -287  -206  -100  -14  46  113  180  211  189  136  110  160  265  369  449  521  595  678  785  913  1027  1114  1211  1348  1511  1674  1824  1945  2015  2056  2120  2233  2379  2530  2659  2732  2728  2650  2533  2426  2340  2237  2095  1932  1775  1606  1361  1035  707  467  349  315  270  131  -84  -287  -419  -494  -541  -585  -644  -709  -750  -755  -739  -725  -713  -695  -658  -603  -558  -558  -597  -627  -611  -542  -438  -331  -253  -211  -197  -218  -277  -342  -377  -371  -342  -308  -272  -245  -256  -316  -397  -460  -488  -479  -431  -351  -274  -243  -266  -314  -349  -360  -359  -355  -344  -318  -304  -355  -475  -587  -627  -605  -550  -490  -452  -441  -440  -438  -432  -425  -414  -400  -391  -393  -397  -404  -421  -449  -474  -492  -502  -508  -511  -510  -512  -524  -545  -554  -539  -514  -499  -496  -498  -497  -494  -492  -496  -502  -495  -463  -418  -381  -359  -342  -316  -282  -254  -249  -275  -335  -417  -492  -523  -503  -465  -439  -420  -398  -377  -361  -346  -326  -305  -300  -319  -360  -405  -434  -435  -399  -335  -270  -233  -224  -233  -250  -258  -211  -69  129  279  327  310  275  231  165  96  58  53  54  39  -7  -105  -253  -409  -512  -545  -542  -547  -583  -637  -675  -678  -652  -613  -575  -548  -527  -498  -448  -361  -205  30  277  459  630  978  1675  2667  3659  4267  4182  3341  1936  288  -1179  -2080  -2323  -2088  -1649  -1242  -953  -754  -630  -569  -525  -462  -373  -269  -194  -182  -216  -253  -262  -243  -211  -177  -134  -71  -1  50  77  89  100  116  163  274  424  545  603  617  612  607  610  631  698  840  1050  1291  1515  1672  1740  1761  1800  1891  2034  2213  2403  2573  2691  2758  2794  2811  2803  2756  2652  2494  2343  2261  2223  2117  1849  1474  1166  997  879  714  501  278  73  -95  -218  -303  -360  -387  -408  -477  -622  -789  -902  -947  -945  -885  -731  -519  -354  -294  -319  -378  -434  -469  -480  -478  -474  -476  -488  -505  -512  -483  -406  -294  -179  -90  -59  -110  -228  -356  -439  -465  -451  -410  -349  -286  -247  -254  -304  -364  -403  -417  -418  -425  -458  -526  -596  -620  -595  -544  -482  -432  -418  -426  -438  -451  -464  -466  -438  -368  -278  -214  -210  -277  -397  -516  -585  -596  -559  -481  -394  -343  -339  -356  -373  -385  -395  -412  -448  -499  -542  -561  -560  -537  -487  -419  -361  -333  -344  -385  -436  -470  -481  -466  -424  -365  -314  -285  -268  -239  -197  -167  -161  -178  -215  -270  -334  -392  -415  -389  -343  -309  -290  -284  -308  -369  -450  -518  -555  -566  -560  -543  -506  -439  -347  -255  -191  -175  -207  -248  -246  -188  -107  -41  -2  30  82  136  156  143  119  87  50  16  -19  -68  -122  -167  -207  -250  -282  -298  -314  -352  -423  -513  -600  -663  -703  -735  -774  -812  -833  -798  -659  -425  -131  237  698  1246  1895  2597  3189  3512  3412  2775  1683  354  -946  -1894  -2276  -2175  -1852  -1496  -1170  -913  -747  -660  -622  -597  -560  -508  -449  -393  -349  -323  -288  -209  -92  0  47  96  154  196  250  327  372  338  242  147  116  156  247  385  553  690  763  792  816  878  1002  1162  1297  1374  1420  1486  1572  1652  1744  1892  2087  2278  2433  2548  2610  2630  2636  2638  2616  2545  2434  2297  2100  1818  1503  1229  1024  879  753  601  415  217  38  -129  -292  -422  -512  -597  -703  -812  -885  -906  -898  -881  -855  -820  -789  -774  -771  -767  -749  -718  -683  -651  -638  -653  -678  -695  -706  -726  -756  -779  -780  -760  -699  -563  -385  -258  -235  -295  -381  -440  -457  -452  -445  -448  -466  -492  -512  -520  -511  -482  -439  -404  -407  -479  -622  -780  -876  -876  -795  -678  -568  -478  -410  -376  -371  -377  -379  -379  -385  -407  -449  -497  -522  -506  -465  -426  -404  -398  -402  -408  -418  -438  -468  -501  -522  -528  -527  -523  -510  -487  -465  -446  -418  -393  -402  -451  -513  -560  -586  -590  -557  -467  -349  -263  -234  -236  -243  -253  -277  -328  -401  -476  -527  -537  -518  -497  -490  -501  -510  -499  -487  -489  -498  -498  -476  -433  -375  -289  -182  -99  -63  -58  -59  -56  -49  -49  -56  -55  -34  1  52  103  136  149  160  169  150  71  -56  -191  -289  -338  -351  -352  -349  -344  -342  -365  -427  -507  -563  -582  -591  -615  -634  -570  -336  38  453  903  1421  1959  2465  2897  3110  2932  2335  1369  130  -1069  -1850  -2110  -1979  -1638  -1255  -952  -776  -689  -607  -502  -416  -379  -373  -356  -287  -165  -40  30  28  -32  -116  -179  -194  -152  -53  80  200  272  308  330  349  375  422  497  591  678  736  762  763  762  801  928  1138  1352  1498  1578  1651  1754  1882  2033  2232  2448  2598  2654  2659  2657  2654  2640  2612  2574  2531  2463  2333  2146  1961  1788  1551  1218  898  709  628  538  351  75  -203  -405  -516  -569  -599  -623  -653  -682  -691  -674  -641  -614  -612  -630  -649  -657  -658  -656  -649  -633  -609  -574  -533  -487  -423  -344  -281  -248  -227  -216  -233  -286  -339  -336  -274  -208  -173  -165  -169  -190  -243  -319  -385  -415  -419  -412  -407  -404  -401  -390  -360  -308  -248  -200  -173  -166  -192  -266  -365  -438  -460  -452  -444  -460  -510  -578  -626  -632  -599  -545  -494  -464  -459  -469  -482  -492  -491  -476  -451  -427  -417  -432  -456  -460  -427  -365  -306  -272  -260  -262  -284  -342  -418  -462  -451  -409  -376  -363  -356  -344  -338  -357  -392  -407  -393  -364  -333  -310  -280  -249  -277  -378  -472  -490  -442  -375  -321  -280  -256  -259  -277  -293  -305  -322  -339  -322  -264  -223  -261  -363  -466  -534  -571  -586  -564  -480  -333  -180  -87  -52  -37  -26  -27  -26  4  77  171  255  302  309  290  245  153  -13  -228  -416  -525  -562  -555  -532  -520  -541  -588  -631  -655  -669  -680  -687  -691  -691  -669  -580  -369  -50  249  392  411  528  996  1814  2699  3377  3648  3315  2349  919  -684  -2027  -2696  -2610  -2056  -1449  -1044  -850  -746  -623  -479  -377  -343  -347  -357  -364  -366  -358  -341  -325  -315  -304  -285  -254  -224  -215  -223  -223  -184  -81  60  180  247  292  334  367  390  433  528  674  831  943  997  1037  1139  1327  1533  1677  1762  1851  1973  2095  2196  2290  2398  2532  2675  2785  2843  2845  2789  2681  2556  2457  2404  2363  2250  2002  1653  1296  1000  770  566  370  218  137  93  18  -117  -277  -417  -518  -574  -595  -605  -625  -648  -629  -524  -363  -245  -246  -338  -398  -346  -241  -174  -155  -160  -183  -235  -306  -362  -383  -369  -315  -231  -149  -100  -83  -80  -82  -105  -177  -287  -393  -484  -561  -603  -595  -559  -531  -526  -532  -537  -539  -540  -531  -497  -434  -358  -298  -278  -296  -328  -346  -347  -341  -333  -330  -346  -394  -466  -541  -617  -687  -722  -719  -700  -678  -655  -623  -568  -500  -445  -412  -392  -376  -358  -332  -306  -291  -286  -287  -305  -358  -441  -528  -595  -633  -645  -631  -592  -543  -507  -492  -484  -474  -460  -445  -434  -431  -431  -424  -412  -410  -425  -448  -466  -478  -482  -463  -395  -290  -193  -139  -124  -139  -202  -327  -471  -567  -595  -583  -551  -481  -355  -216  -152  -197  -287  -345  -363  -370  -376  -374  -338  -252  -126  10  124  192  211  194  147  82  18  -27  -43  -20  36  99  134  112  25  -87  -166  -199  -237  -336  -492  -637  -716  -732  -724  -718  -720  -725  -725  -716  -690  -647  -605  -517  -264  182  737  1343  1967  2547  3036  3341  3262  2650  1545  133  -1205  -2048  -2268  -2035  -1612  -1260  -1093  -1033  -977  -880  -730  -557  -425  -362  -346  -343  -341  -342  -328  -282  -215  -155  -109  -78  -64  -65  -75  -84  -89  -89  -74  -34  23  76  131  223  366  535  689  807  884  927  955  1011  1142  1333  1510  1636  1739  1857  1995  2141  2283  2410  2514  2585  2606  2561  2473  2402  2374  2370  2370  2355  2286  2123  1880  1610  1358  1146  954  726  479  306  232  176  72  -68  -206  -326  -424  -494  -533  -544  -535  -516  -513  -551  -628  -708  -766  -794  -796  -782  -753  -706  -657  -631  -633  -645  -625  -528  -366  -214  -153  -195  -290  -374  -418  -435  -453  -477  -497  -504  -504  -502  -498  -494  -492  -491  -487  -480  -480  -489  -499  -505  -507  -505  -488  -449  -389  -326  -283  -263  -254  -259  -315  -453  -635  -767  -803  -760  -669  -556  -459  -422  -461  -540  -599  -610  -589  -555  -515  -466  -408  -370  -392  -467  -540  -565  -536  -483  -445  -430  -424  -418  -408  -396  -384  -379  -384  -386  -386  -399  -442  -501  -544  -559  -562  -567  -580  -601  -638  -688  -731  -737  -677  -550  -386  -233  -137  -119  -171  -278  -395  -470  -479  -435  -365  -302  -278  -314  -419  -554  -656  -692  -661  -569  -450  -365  -337  -342  -357  -371  -365  -305  -167  10  158  247  304  363  425  464  452  373  247  120  27  -26  -52  -67  -81  -91  -100  -132  -221  -353  -466  -517  -499  -427  -335  -269  -247  -258  -287  -330  -389  -455  -469  -316  68  615  1209  1831  2485  3102  3593  3827  3615  2875  1693  225  -1208  -2128  -2305  -1925  -1324  -806  -546  -511  -558  -594  -598  -569  -508  -422  -321  -206  -73  52  126  124  55  -41  -111  -121  -61  55  184  274  310  313  306  300  291  285  311  406  558  703  789  822  847  898  984  1103  1260  1458  1671  1848  1983  2110  2231  2337  2453  2585  2695  2757  2774  2763  2747  2726  2675  2586  2485  2383  2245  2039  1785  1515  1256  1032  856  698  514  312  139  2  -122  -242  -343  -417  -488  -582  -687  -777  -849  -905  -928  -915  -892  -881  -863  -808  -722  -641  -593  -576  -575  -569  -546  -506  -458  -425  -434  -507  -634  -758  -833  -862  -869  -850  -775  -640  -500  -416  -395  -404  -415  -423  -430  -437  -442  -439  -418  -381  -360  -381  -426  -463  -487  -505  -524  -545  -561  -564  -556  -539  -506  -444  -365  -307  -290  -301  -321  -338  -352  -382  -436  -500  -546  -566  -567  -548  -501  -440  -406  -425  -478  -525  -540  -533  -530  -531  -521  -499  -488  -497  -498  -475  -470  -516  -574  -601  -600  -593  -587  -584  -582  -583  -584  -588  -595  -605  -594  -523  -390  -248  -145  -98  -117  -198  -318  -447  -550  -612  -639  -638  -610  -550  -460  -366  -303  -286  -305  -343  -373  -358  -291  -209  -149  -102  -14  147  332  449  439  307  118  -39  -137  -191  -198  -156  -118  -159  -283  -411  -478  -495  -511  -550  -609  -668  -709  -725  -705  -640  -537  -434  -363  -343  -367  -376  -246  135  763  1484  2118  2584  2903  3070  2992  2546  1639  318  -1092  -2128  -2522  -2335  -1837  -1319  -952  -754  -663  -627  -615  -614  -618  -617  -589  -510  -386  -270  -206  -198  -228  -278  -329  -359  -357  -327  -281  -228  -166  -99  -43  1  74  213  385  507  547  534  506  489  537  709  985  1247  1399  1464  1533  1667  1852  2037  2193  2308  2374  2405  2432  2466  2498  2529  2567  2594  2563  2437  2234  2036  1915  1860  1791  1632  1365  1034  701  418  226  134  85  21  -58  -148  -282  -469  -643  -737  -755  -744  -734  -732  -734  -740  -757  -778  -777  -729  -653  -592  -570  -581  -601  -614  -619  -619  -607  -575  -531  -479  -419  -371  -345  -330  -314  -301  -298  -305  -308  -315  -344  -380  -399  -404  -416  -448  -488  -518  -517  -462  -376  -309  -273  -266  -294  -340  -380  -406  -415  -411  -397  -373  -345  -327  -330  -356  -396  -430  -448  -452  -451  -446  -434  -422  -421  -444  -478  -505  -514  -512  -504  -493  -485  -478  -461  -434  -413  -416  -428  -437  -446  -466  -497  -528  -557  -588  -611  -597  -512  -358  -204  -118  -109  -150  -229  -352  -504  -638  -699  -676  -596  -501  -423  -377  -349  -316  -273  -244  -256  -301  -349  -377  -392  -399  -380  -332  -284  -262  -259  -266  -279  -281  -232  -103  61  178  206  172  116  58  0  -55  -91  -103  -108  -133  -198  -302  -411  -485  -521  -547  -568  -574  -569  -578  -609  -647  -673  -687  -693  -677  -597  -429  -213  21  362  915  1648  2416  3039  3310  3078  2390  1395  214  -950  -1834  -2310  -2389  -2142  -1710  -1272  -955  -780  -701  -655  -602  -533  -445  -335  -235  -187  -191  -215  -238  -251  -257  -289  -372  -470  -504  -455  -371  -290  -207  -102  18  128  199  227  249  328  471  619  721  790  846  891  942  1024  1149  1311  1481  1627  1734  1814  1904  2043  2235  2430  2561  2610  2599  2554  2496  2432  2352  2256  2148  2011  1813  1545  1245  975  788  668  545  393  239  103  -46  -247  -479  -681  -814  -888  -938  -971  -958  -896  -827  -788  -776  -779  -803  -863  -942  -1000  -1004  -948  -853  -764  -711  -674  -620  -542  -461  -385]
