reading_id,reading_time,wire_id,result_classification,heart_rate,heart_rate_alert,firmware_version,device_app_version,hardware_version,waveform_samples
88614480-6548-11ed-8080-808080808080,Wed Nov 16 00:49:31 UTC 2022,2101e3b12739,NSR,58,NONE,20001.171.50,2.10.0,Charge 5,[859  878  959  1142  1401  1642  1764  1694  1413  1036  766  681  703  739  734  656  503  328  195  118  62  6  -33  -48  -50  -57  -74  -95  -112  -120  -117  -95  -48  15  87  156  206  205  139  10  -173  -376  -529  -596  -607  -606  -603  -589  -572  -574  -603  -618  -564  -453  -355  -307  -304  -361  -506  -698  -841  -888  -863  -788  -667  -526  -427  -407  -443  -471  -468  -494  -588  -710  -807  -852  -818  -694  -526  -405  -373  -402  -447  -480  -507  -548  -611  -686  -764  -829  -883  -942  -996  -1033  -1071  -1135  -1215  -1286  -1345  -1398  -1432  -1444  -1446  -1439  -1391  -1274  -1088  -870  -685  -536  -303  126  786  1661  2584  3327  3810  3906  3248  1670  -372  -2133  -3062  -3027  -2375  -1684  -1290  -1141  -1066  -999  -953  -937  -940  -953  -970  -972  -935  -867  -801  -769  -770  -779  -754  -673  -536  -356  -144  50  136  80  -47  -176  -294  -383  -401  -329  -185  -33  61  92  96  101  116  156  257  437  648  833  977  1052  1031  966  943  992  1102  1255  1426  1601  1754  1845  1862  1809  1697  1567  1471  1406  1333  1235  1136  1042  926  770  557  268  -49  -302  -478  -646  -797  -809  -601  -291  -80  -34  -107  -262  -444  -582  -683  -812  -941  -975  -910  -815  -719  -620  -512  -402  -322  -284  -274  -285  -331  -428  -546  -631  -676  -725  -760  -684  -482  -306  -284  -370  -455  -491  -484  -437  -350  -241  -125  4  138  225  201  47  -171  -325  -321  -157  76  253  317  290  201  90  12  -14  -11  10  56  134  260  448  606  588  404  208  110  147  282  420  499  524  510  457  371  271  174  80  -22  -97  -70  53  182  251  264  252  241  241  248  255  253  219  100  -152  -482  -731  -815  -761  -605  -383  -160  1  65  38  -34  -119  -230  -366  -470  -482  -408  -295  -194  -135  -114  -100  -63  -7  9  -57  -169  -251  -279  -275  -258  -226  -180  -145  -173  -311  -536  -755  -904  -985  -1021  -1033  -1037  -1032  -1017  -998  -985  -988  -1014  -1061  -1111  -1146  -1158  -1139  -1082  -987  -822  -531  -47  722  1789  2894  3610  3708  3237  2261  848  -737  -2079  -2868  -3038  -2707  -2116  -1566  -1241  -1110  -1025  -928  -863  -866  -926  -995  -1028  -1021  -989  -949  -914  -881  -845  -808  -755  -648  -484  -329  -246  -251  -326  -435  -530  -585  -584  -481  -243  60  324  540  731  861  901  873  815  767  760  801  875  953  1025  1121  1274  1491  1756  2013  2181  2233  2185  2038  1830  1648  1548  1505  1481  1471  1468  1431  1322  1174  1079  1076  1104  1017  688  177  -291  -593  -766  -880  -955  -944  -806  -611  -478  -437  -443  -459  -492  -560  -651  -729  -762  -711  -538  -275  -42  47  -77  -422  -850  -1150  -1243  -1170  -970  -676  -366  -123  11  55  52  23  -31  -102  -155  -175  -175  -174  -182  -197  -208  -203  -176  -137  -110  -132  -234  -409  -583  -674  -642  -488  -282  -128  -59  -40  -35  -44  -77  -118  -138  -175  -277  -393  -455  -468  -458  -423  -348  -249  -161  -90  -34  -34  -146  -359  -575  -699  -701  -585  -373  -137  38  123  139  119  85  41  -17  -112  -276  -473  -599  -591  -498  -389  -260  -62  179  354  400  345  232  79  -98  -262  -366  -415  -445  -466  -463  -411  -308  -187  -77  49  250  529  761  789  594  297  25  -146  -219  -251  -285  -312  -270  -88  227  557  765  815  712  459  142  -86  -176  -188  -179  -183  -231  -332  -408  -352  -221  -169  -121  156  793  1802  3050  4129  4542  4071  2868  1308  -187  -1276  -1772  -1754  -1525  -1315  -1150  -975  -735  -461  -276  -248  -316  -363  -327  -247  -185  -149  -111  -48  29  83  92  67  27  -28  -115  -233  -318  -279  -109  95  242  312  334  341  344  348  348  335  309  300  374  596  966  1414  1817  2055  2101  2025  1913  1821  1763  1716  1678  1665  1689  1760  1893  2070  2233  2345  2403  2401  2309  2090  1768  1425  1133  917  749  569  370  217  136  88  52  12  -86  -309  -626  -897  -1017  -1017  -978  -943  -925  -917  -888  -807  -681  -565  -506  -497  -505  -513  -514  -506  -491  -482  -492  -520  -548  -578  -626  -692  -757  -803  -824  -823  -780  -660  -495  -364  -305  -317  -370  -430  -485  -531  -566  -593  -614  -627  -643  -664  -690  -718  -749  -774  -787  -791  -791  -790  -781  -752  -705  -643  -567  -506  -508  -567  -625  -648  -651  -654  -656  -647  -623  -593  -568  -555  -555  -565  -575  -568  -516  -403  -249  -110  -30  -21  -79  -208  -387  -565  -694  -760  -781  -789  -795  -776  -676  -472  -249  -150  -237  -425  -577  -640  -640  -607  -540  -451  -377  -334  -303  -263  -207  -151  -116  -105  -93  -29  115  272  314  221  88  -1  -41  -56  -50  -25  13  37  -13  -177  -390  -545  -600  -595  -579  -578  -601  -640  -696  -801  -971  -1059  -851  -387  126  634  1172  1808  2684  3729  4527  4661  3975  2551  709  -966  -2002  -2377  -2296  -1932  -1441  -942  -534  -309  -267  -321  -388  -434  -454  -445  -381  -245  -86  17  46  34  14  -2  -8  7  49  107  188  295  371  354  276  223  244  319  398  463  520  565  602  664  784  948  1094  1182  1221  1241  1284  1386  1519  1622  1663  1641  1583  1534  1537  1603  1708  1825  1950  2070  2152  2187  2183  2114  1941  1686  1434  1224  1005  734  429  150  -44  -141  -170  -167  -144  -101  -64  -120  -336  -644  -878  -967  -972  -963  -951  -897  -754  -542  -338  -198  -137  -148  -221  -325  -423  -517  -638  -775  -888  -957  -995  -1013  -1002  -934  -783  -596  -486  -505  -577  -607  -573  -511  -466  -453  -452  -444  -428  -432  -476  -544  -615  -671  -702  -710  -710  -714  -718  -700  -651  -601  -598  -650  -716  -735  -669  -526  -364  -246  -204  -222  -262  -312  -381  -465  -539  -588  -616  -628  -637  -659  -700  -742  -753  -730  -692  -648  -600  -558  -528  -517  -529  -549  -559  -558  -553  -544  -526  -501  -483  -478  -475  -462  -437  -397  -343  -290  -260  -255  -263  -281  -302  -307  -278  -229  -176  -116  -31  86  208  286  304  285  239  153  36  -75  -164  -255  -380  -514  -593  -585  -529  -494  -522  -607  -714  -817  -905  -953  -913  -741  -462  -181  -13  17  2  54  257  675  1346  2208  3085  3740  3972  3624  2585  984  -747  -2106  -2761  -2659  -2034  -1286  -742  -489  -435  -456  -480  -497  -513  -510  -456  -355  -254  -195  -184  -195  -204  -184  -119  -31  39  89  149  229  314  378  410  415  413  412  407  395  386  420  538  723  909  1066  1188  1258  1280  1294  1337  1416  1506  1588  1690  1860  2107  2379  2583  2655  2592  2448  2299  2210  2188  2197  2198  2170  2099  1990  1864  1688  1400  1045  770  622  515  386  238  80  -79  -218  -325  -427  -545  -661  -743  -772  -738  -643  -516  -418  -399  -442  -496  -541  -580  -608  -618  -612  -600  -593  -585  -564  -525  -485  -471  -486  -518  -541  -535  -512  -494  -488  -489  -488  -486  -490  -515  -568  -629  -664  -657  -615  -552  -493  -453  -400  -289  -137  -47  -77  -146  -161  -141  -153  -230  -344  -438  -487  -523  -578  -647  -704  -728  -713  -665  -599  -556  -588  -676  -748  -763  -741  -721  -713  -682  -605  -509  -440  -416  -424  -452  -505  -580  -658  -715  -750  -777  -797  -799  -765  -687  -586  -501  -455  -448  -454  -449  -434  -425  -440  -484  -524  -514  -440  -329  -211  -114  -52  -22  -4  27  79  145  238  346  391  271  -32  -389  -625  -689  -637  -522  -385  -273  -223  -260  -389  -553  -667  -696  -642  -513  -355  -252  -250  -321  -360  -280  -152  -28  255  843  1713  2766  3774  4347  4193  3325  1940  295  -1250  -2284  -2594  -2250  -1473  -632  -113  7  -65  -167  -258  -316  -320  -280  -220  -146  -86  -78  -134  -227  -295  -293  -226  -107  26  121  151  137  103  62  32  26  58  141  272  437  621  806  959  1044  1057  1043  1043  1069  1113  1181  1307  1515  1747  1902  1951  1945  1938  1958  2014  2088  2149  2183  2192  2180  2156  2124  2081  2018  1918  1764  1568  1353  1122  850  564  348  218  106  -20  -131  -215  -321  -488  -676  -819  -895  -918  -908  -878  -842  -815  -799  -790  -800  -845  -916  -973  -978  -923  -835  -754  -697  -657  -632  -627  -638  -656  -673  -689  -694  -677  -644  -617  -606  -607  -620  -655  -717  -788  -819  -771  -657  -540  -479  -464  -457  -450  -463  -509  -591  -693  -777  -808  -793  -768  -764  -776  -790  -810  -839  -870  -890  -878  -801  -650  -479  -363  -340  -407  -523  -627  -697  -743  -769  -776  -774  -771  -758  -715  -629  -504  -368  -269  -244  -307  -463  -661  -812  -882  -899  -860  -741  -552  -360  -230  -172  -153  -166  -199  -217  -188  -113  -29  46  131  210  245  233  183  109  13  -121  -276  -395  -457  -480  -482  -487  -496  -501  -519  -530  -494  -423  -351  -300  -333  -455  -493  -293  86  546  1043  1564  2234  3204  4290  4968  4776  3601  1677  -443  -2037  -2691  -2528  -1901  -1192  -700  -466  -361  -273  -161  -50  15  35  42  63  105  163  219  258  292  350  430  496  524  518  482  418  346  309  331  390  464  541  607  647  662  662  670  720  846  1040  1238  1379  1463  1526  1605  1718  1848  1953  2012  2032  2039  2061  2106  2155  2187  2198  2199  2196  2195  2203  2223  2232  2179  2010  1740  1450  1193  968  792  691  629  522  332  90  -146  -344  -486  -579  -663  -772  -863  -866  -799  -742  -734  -766  -805  -819  -817  -814  -813  -806  -786  -762  -753  -767  -782  -767  -708  -617  -527  -470  -445  -432  -429  -446  -495  -573  -629  -611  -565  -574  -649  -739  -800  -825  -829  -814  -757  -645  -512  -419  -403  -473  -593  -692  -739  -754  -758  -752  -738  -731  -760  -823  -872  -873  -840  -806  -790  -788  -790  -783  -761  -739  -742  -764  -779  -773  -769  -784  -802  -776  -675  -517  -374  -303  -309  -359  -398  -404  -408  -428  -438  -416  -372  -357  -389  -373  -235  -65  25  49  65  96  121  110  72  28  -19  -71  -145  -279  -460  -611  -686  -711  -729  -760  -807  -851  -869  -853  -802  -734  -681  -649  -633  -664  -816  -1050  -1102  -776  -233  251  597  926  1466  2371  3466  4248  4318  3576  2115  306  -1287  -2283  -2595  -2318  -1700  -1125  -858  -834  -868  -869  -824  -750  -667  -590  -529  -480  -436  -399  -357  -279  -164  -60  -9  -5  -6  23  94  182  260  320  365  392  402  402  395  389  392  400  419  482  606  764  924  1081  1215  1289  1298  1300  1383  1612  1927  2182  2313  2370  2394  2370  2274  2109  1906  1711  1566  1514  1568  1681  1781  1812  1710  1407  953  527  251  83  -64  -209  -317  -404  -526  -668  -732  -664  -520  -393  -316  -294  -352  -516  -758  -1005  -1199  -1315  -1343  -1279  -1083  -718  -285  19  128  115  13  -188  -408  -506  -479  -435  -414  -400  -392  -406  -447  -499  -537  -558  -576  -594  -600  -592  -585  -594  -601  -574  -523  -485  -482  -499  -511  -498  -466  -441  -441  -463  -484  -491  -492  -509  -547  -585  -601  -600  -598  -601  -610  -637  -696  -774  -795  -700  -526  -351  -216  -141  -132  -180  -287  -439  -579  -653  -655  -615  -568  -540  -526  -492  -414  -318  -253  -232  -235  -244  -260  -286  -314  -330  -334  -333  -331  -333  -349  -391  -448  -493  -509  -494  -449  -390  -337  -290  -246  -208  -182  -166  -156  -138  -108  -66  -6  65  117  116  67  20  -5  -52  -138  -222  -271  -297  -334  -405  -497  -571  -610  -636  -679  -724  -732  -693  -621  -528  -436  -380  -389  -487  -620  -656  -584  -472  -231  276  1088  2174  3383  4393  4841  4545  3572  2073  304  -1266  -2244  -2531  -2209  -1519  -810  -348  -216  -284  -361  -384  -381  -383  -383  -361  -313  -246  -166  -95  -56  -49  -55  -55  -33  23  105  172  205  211  206  204  227  278  344  401  439  494  616  775  881  906  896  896  923  991  1117  1275  1427  1583  1744  1870  1943  1981  2005  2037  2095  2168  2233  2287  2329  2304  2161  1965  1837  1812  1810  1715  1469  1142  871  696  556  405  268  146  -8  -191  -331  -396  -417  -426  -425  -413  -402  -403  -419  -459  -521  -597  -680  -756  -802  -809  -784  -734  -660  -567  -478  -428  -438  -501  -566  -578  -546  -516  -506  -501  -483  -460  -442  -418  -378  -336  -305  -285  -272  -266  -267  -269  -254  -214  -176  -169  -217  -337  -489  -594  -628  -627  -621  -609  -556  -443  -307  -236  -272  -367  -433  -432  -391  -352  -333  -333  -340  -340  -323  -289  -245  -192  -137  -115  -176  -339  -541  -680  -717  -682  -607  -512  -434  -418  -460  -508  -531  -534  -531  -536  -555  -585  -609  -617  -612  -606  -609  -617  -612  -577  -530  -499  -490  -488  -482  -469  -452  -431  -406  -371  -321  -270  -243  -243  -257  -268  -267  -260  -245  -209  -141  -56  0  12  27  68  120  171  232  282  241  41  -249  -481  -591  -628  -626  -583  -508  -433  -393  -383  -384  -418  -516  -625  -683  -684  -636  -545  -381  -132  84  201  367  798  1671  2984  4366  5213  5114  4059  2357  515  -945  -1769  -2004  -1850  -1566  -1311  -1057  -768  -527  -406  -370  -330  -270  -265  -295  -198  52  274  350  330  281  225  152  56  -46  -123  -152  -124  -35  87  195  280  388  546  709  810  839  825  783  715  650  648  736  889  1049  1152  1194  1236  1347  1540  1752  1891  1936  1932  1924  1936  1980  2055  2152  2250  2315  2302  2163  1904  1620  1417  1302  1197  1009  727  454  293  215  109  -86  -326  -519  -634  -704  -758  -805  -834  -831  -809  -792  -792  -816  -860  -891  -872  -809  -736  -687  -666  -657  -662  -690  -741  -802  -841  -842  -797  -702  -585  -495  -436  -384  -336  -304  -291  -274  -234  -198  -212  -294  -411  -496  -525  -522  -511  -498  -481  -465  -460  -488  -570  -693  -809  -876  -881  -803  -625  -403  -245  -209  -260  -335  -403  -468  -533  -586  -597  -566  -540  -563  -612  -635  -606  -551  -520  -538  -584  -625  -648  -662  -676  -686  -684  -674  -660  -644  -628  -620  -619  -619  -611  -595  -586  -600  -625  -639  -633  -600  -544  -479  -423  -387  -377  -397  -455  -536  -601  -633  -649  -658  -655  -636  -611  -578  -524  -434  -308  -167  -54  -2  3  0  1  8  21  41  74  130  185  168  19  -215  -410  -496  -510  -509  -518  -528  -525  -499  -461  -430  -419  -424  -443  -480  -547  -642  -730  -756  -690  -589  -532  -467  -224  334  1243  2445  3772  4873  5306  4860  3705  2143  495  -815  -1507  -1665  -1565  -1391  -1191  -978  -797  -690  -655  -658  -653  -599  -488  -359  -272  -244  -250  -271  -298  -320  -315  -267  -199  -137  -69  28  135  205  224  220  232  282  349  401  449  539  668  790  888  986  1099  1229  1358  1444  1479  1488  1498  1538  1645  1808  1957  2046  2100  2156  2246  2416  2655  2861  2943  2891  2738  2508  2222  1922  1659  1463  1322  1193  1057  925  777  565  288  18  -174  -285  -349  -395  -452  -537  -649  -778  -891  -940  -906  -811  -689  -576  -499  -471  -475  -491  -504  -517  -534  -555  -574  -601  -644  -698  -740  -738  -702  -675  -675  -687  -679  -657  -648  -656  -657  -640  -603  -542  -480  -447  -437  -395  -275  -109  15  61  47  -7  -89  -164  -197  -200  -198  -191  -176  -162  -172  -226  -298  -337  -336  -324  -322  -327  -322  -285  -209  -128  -98  -158  -292  -432  -520  -552  -552  -536  -519  -511  -508  -506  -505  -498  -480  -459  -458  -500  -575  -645  -682  -678  -638  -571  -507  -472  -464  -468  -477  -496  -543  -634  -751  -848  -895  -888  -818  -682  -522  -406  -369  -405  -505  -632  -727  -764  -768  -765  -764  -765  -761  -746  -717  -671  -582  -426  -233  -69  27  61  41  -31  -126  -192  -196  -147  -87  -70  -126  -243  -369  -452  -491  -529  -584  -644  -703  -760  -799  -809  -803  -797  -790  -770  -731  -697  -703  -753  -810  -842  -843  -808  -738  -642  -474  -151  427  1402  2723  4004  4784  4803  4071  2784  1253  -194  -1324  -1991  -2161  -1928  -1475  -1007  -661  -460  -385  -423  -541  -674  -757  -757  -677  -540  -388  -253  -148  -77  -33  1  20  21  26  53  94  126  140  151  164  182  247  397  587  724  779  814  890  1001  1103  1172  1222  1287  1398  1540  1668  1751  1794  1821  1840  1850  1867  1926  2079  2326  2594  2794  2874  2829  2690  2477  2226  2017  1890  1786  1601  1283  917  644  514  470  446  401  300  136  -50  -206  -294  -316  -308  -297  -290  -292  -325  -413  -533  -625  -665  -671  -662  -629  -570  -521  -516  -553  -606  -633  -629  -623  -630  -643  -652  -633  -543  -369  -170  -37  1  -29  -108  -202  -267  -288  -284  -276  -272  -277  -298  -341  -393  -430  -437  -418  -388  -369  -390  -473  -590  -678  -691  -621  -485  -325  -189  -111  -95  -129  -202  -288  -356  -397  -419  -431  -435  -437  -436  -428  -408  -388  -392  -432  -491  -543  -569  -557  -495  -394  -289  -215  -193  -213  -249  -289  -339  -419  -527  -613  -619  -525  -367  -224  -154  -154  -200  -270  -357  -464  -572  -636  -641  -613  -584  -557  -519  -471  -423  -371  -318  -280  -266  -261  -261  -283  -352  -452  -537  -582  -595  -599  -615  -645  -667  -631  -503  -320  -180  -140  -192  -288  -346  -334  -304  -266  -192  -129  -146  -217  -274  -291  -285  -275  -272  -273  -271  -259  -223  -147  -42  52  115  148  156  149  136  121  95  50  -15  -89  -158  -228  -306  -385  -462  -532  -585  -623  -647  -658  -666  -679  -696  -711  -724  -738  -727  -625  -417  -219  -146  -84  254  1059  2277  3628  4666  5014  4602  3590  2231  840  -290  -1016  -1346  -1379  -1253  -1087  -923  -782  -683  -609  -542  -487  -451  -433  -432  -436  -435  -428  -429  -454  -497  -523  -468  -285  -36  145  205  199  186  186  190  189  185  191  237  351  516  657  710  693  672  702  814  995  1182  1298  1323  1304  1309  1391  1558  1757  1926  2050  2153  2235  2264  2244  2252  2330  2397  2368  2272  2165  2045  1884  1682  1458  1202  899  616  451  405  375  263  65  -135  -286  -419  -555  -656  -707  -745  -788  -822  -838  -843  -844  -837  -825  -816  -829  -865  -889  -850  -742  -621  -561  -570  -599  -615  -620  -618  -596  -541  -469  -421  -422  -470  -530  -562  -560  -542  -526  -525  -540  -562  -576  -571  -547  -525  -514  -504  -487  -468  -455  -451  -451  -454  -457  -460  -454  -426  -377  -338  -354  -439  -548  -627  -673  -682  -638  -560  -487  -433  -390  -367  -376  -404  -417  -389  -331  -271  -260  -351  -519  -665  -738  -754  -734  -677  -573  -443  -343  -298  -293  -304  -304  -262  -189  -137  -139  -178  -205  -198  -196  -224  -256  -269  -274  -302  -351  -370  -328  -266  -239  -252  -287  -318  -328  -313  -259  -151  -16  84  115  70  -59  -236  -378  -436  -421  -349  -224  -79  32  94  127  145  144  125  88  14  -119  -281  -393  -400  -300  -132  26  120  146  134  103  39  -86  -256  -396  -458  -450  -385  -260  -96  43  110  102  34  -65  -149  -189  -197  -206  -230  -265  -292  -307  -318  -325  -317  -285  -229  -169  -126  -87  -19  94  224  324  374  375  329  252  172  108  60  -1  -115  -272  -409  -474  -471  -443  -418  -411  -453  -574  -739  -861  -905  -896  -860  -803  -734  -673  -599  -440  -218  -81  -18  232  816  1645  2678  3814  4678  4888  4332  3093  1419  -199  -1274  -1725  -1778  -1597  -1284  -951  -631  -369  -234  -210  -249  -336  -456  -565  -612  -568  -437  -270  -137  -55  11  95  184  240  250  250  268  290  274  175  21  -100  -143  -137  -110  -55  49  220  442  650  775  808  798  804  872  1035  1272  1511  1680  1756  1765  1747  1718  1691  1680  1685  1703  1738  1832  2009  2188  2263  2250  2223  2204  2148  1955  1572  1104  741  565  519  524  531  479  320  87  -116  -237  -326  -453  -601  -704  -738  -731  -707  -673  -636  -607  -592  -589  -610  -665  -742  -802  -832  -839  -811  -712  -521  -308  -205  -262  -416  -573  -671  -702  -685  -624  -519  -397  -298  -249  -276  -383  -526  -635  -682  -681  -644  -570  -457  -336  -257  -232  -234  -240  -243  -245  -247  -251  -254  -242  -202  -141  -97  -102  -161  -245  -315  -359  -386  -401  -403  -388  -340  -259  -162  -79  -28  -18  -44  -104  -181  -256  -316  -335  -297  -236  -212  -247  -306  -333  -317  -269  -190  -102  -43  -20  -14  -13  -8  -4  -8  -27  -69  -119  -159  -183  -191  -182  -162  -140  -123  -113  -110  -110  -112  -139  -211  -298  -342  -339  -334  -358  -413  -465  -490  -497  -505  -507  -472  -374  -241  -136  -86  -77  -99  -150  -228  -313  -369  -388  -392  -398  -394  -368  -328  -300  -292  -297  -304  -301  -272  -214  -153  -109  -88  -102  -146  -188  -217  -248  -301  -384  -477  -544  -569  -550  -479  -367  -261  -195  -163  -144  -128  -121  -131  -147  -159  -167  -176  -189  -203  -216  -235  -257  -268  -236  -138  -6  87  115  108  110  146  207  260  288  296  305  329  359  351  256  72  -146  -329  -440  -491  -514  -525  -535  -561  -609  -678  -751  -800  -804  -762  -684  -573  -415  -203  -27  -25  -170  -248  -50  587  1725  3121  4284  4826  4595  3629  2181  628  -661  -1464  -1789  -1774  -1533  -1201  -947  -808  -686  -541  -427  -374  -353  -335  -324  -343  -398  -432  -399  -332  -281  -237  -170  -86  -13  31  52  54  52  60  93  160  251  332  385  437  514  604  673  694  668  630  628  694  814  936  1051  1222  1458  1675  1799  1837  1858  1937  2105  2338  2577  2753  2845  2891  2912  2846  2620  2275  1958  1774  1713  1683  1576  1353  1076  831  619  381  123  -74  -187  -246  -268  -285  -348  -452  -541  -604  -653  -685  -703  -723  -755  -782  -783  -768  -766  -781  -798  -803  -792  -772  -765  -775  -780  -762  -730  -706  -694  -674  -630  -569  -517  -486  -474  -466  -449  -445  -483  -543  -586  -606  -609  -591  -539  -465  -406  -381  -381  -409  -478  -576  -656  -675  -638  -572  -483  -360  -227  -141  -151  -262  -413  -520  -551  -543  -545  -582  -639  -676  -666  -616  -538  -436  -320  -220  -164  -147  -149  -162  -197  -257  -325  -373  -397  -400  -368  -291  -212  -201  -259  -342  -406  -413  -382  -379  -407  -419  -392  -344  -310  -300  -304  -302  -280  -237  -178  -105  -25  37  60  17  -94  -232  -331  -371  -371  -330  -225  -69  71  129  87  -28  -170  -291  -359  -363  -325  -274  -212  -125  -52  -68  -171  -268  -300  -290  -284  -294  -289  -248  -180  -108  -52  -23  -31  -94  -211  -337  -412  -414  -357  -280  -225  -204  -203  -213  -237  -268  -290  -312  -369  -446  -502  -538  -549  -508  -436  -367  -313  -281  -272  -280  -297  -317  -320  -295  -249  -198  -146  -88  -29  8  12  -9  -41  -63  -67  -53  -27  -2  -10  -97  -279  -494  -648  -706  -693  -640  -575  -520  -488  -488  -527  -587  -635  -650  -639  -629  -645  -657  -603  -458  -225  114  616  1368  2356  3396  4271  4750  4573  3668  2243  623  -837  -1760  -1976  -1694  -1249  -877  -698  -690  -713  -668  -551  -397  -253  -168  -168  -231  -313  -378  -408  -376  -263  -108  9  56  58  42  19  -10  -39  -59  -56  -5  93  218  347  466  561  621  650  656  646  641  689  833  1047  1249  1384  1456  1506  1579  1685  1801  1904  1999  2100  2221  2358  2480  2565  2604  2602  2571  2512  2428  2325  2202  2051  1862  1618  1318  1018  783  597  431  307  223  108  -98  -354  -551  -644  -664  -648  -611  -556  -498  -472  -485  -533  -618  -703  -738  -711  -647  -587  -534  -472  -442  -477  -538  -566  -552  -521  -494  -456  -415  -444  -557  -665  -702  -687  -661  -643  -630  -619  -604  -574  -535  -506  -499  -503  -485  -419  -319  -252  -260  -313  -366  -407  -435  -447  -448  -446  -446  -441  -429  -414  -410  -436  -485  -543  -582  -540  -399  -235  -139  -143  -213  -296  -376  -447  -472  -431  -353  -291  -270  -284  -326  -377  -413  -426  -428  -429  -416  -372  -308  -259  -242  -242  -243  -241  -247  -278  -336  -409  -475  -517  -525  -497  -428  -333  -264  -267  -327  -381  -405  -417  -436  -449  -434  -392  -337  -284  -251  -239  -225  -196  -173  -179  -205  -251  -336  -436  -496  -495  -438  -360  -299  -263  -228  -175  -109  -59  -58  -131  -279  -449  -566  -607  -613  -616  -602  -534  -414  -297  -227  -197  -180  -166  -156  -150  -146  -134  -111  -86  -77  -86  -98  -103  -103  -106  -104  -69  18  128  206  232  229  221  216  215  217  195  92  -107  -329  -476  -520  -502  -474  -453  -430  -395  -355  -332  -339  -368  -425  -522  -632  -690  -662  -580  -495  -441  -412  -374  -221  200  961  1980  3090  4054  4626  4637  4013  2808  1230  -351  -1520  -2050  -2002  -1592  -1060  -629  -437  -432  -463  -451  -396  -334  -295  -299  -342  -375  -356  -303  -256  -213  -137  -35  44  82  109  150  181  177  151  134  130  132  136  141  155  184  218  249  309  462  720  989  1158  1227  1283  1364  1449  1531  1614  1698  1794  1922  2079  2229  2344  2438  2528  2596  2614  2580  2519  2454  2384  2288  2157  1987  1800  1640  1517  1383  1161  831  478  200  4  -149  -272  -366  -439  -490  -523  -548  -562  -563  -563  -581  -630  -698  -762  -815  -862  -906  -945  -978  -1009  -1020  -952  -751  -483  -320  -358  -535  -718  -801  -769  -689  -606  -520  -454  -439  -455  -471  -485  -501  -513  -525  -540  -540  -512  -478  -450  -425  -409  -404  -396  -371  -338  -323  -341  -373  -391  -399  -406  -398  -366  -330  -311  -306  -311  -323  -342  -365  -381  -383  -370  -345  -312  -275  -241  -220  -221  -248  -298  -356  -404  -432  -442  -448  -457  -475  -510  -554  -586  -597  -595  -590  -576  -539  -483  -442  -434  -442  -447  -435  -403  -359  -325  -307  -291  -270  -260  -278  -319  -358  -376  -383  -410  -481  -550  -539  -442  -338  -307  -361  -452  -519  -544  -541  -519  -472  -388  -262  -120  -13  27  2  -82  -199  -302  -382  -462  -549  -610  -593  -445  -184  69  176  95  -98  -288  -405  -457  -477  -480  -435  -307  -131  2  45  32  7  -6  2  39  93  150  199  224  211  152  49  -75  -185  -265  -328  -393  -472  -549  -592  -582  -520  -439  -381  -359  -353  -349  -360  -389  -411  -413  -441  -578  -793  -854  -609  -188  252  679  1159  1865  2846  3845  4484  4521  3892  2633  995  -527  -1535  -1947  -1881  -1534  -1132  -834  -657  -563  -517  -487  -457  -435  -427  -426  -429  -433  -436  -415  -345  -225  -74  96  260  362  385  370  351  338  333  340  366  403  435  454  469  499  550  599  624  623  626  691  873  1148  1399  1547  1648  1794  1980  2120  2176  2187  2191  2199  2216  2267  2371  2483  2551  2580  2584  2545  2434  2263  2067  1856  1620  1391  1223  1106  962  752  528  348  174  -75  -369  -583  -653  -621  -571  -560  -599  -661  -712  -740  -762  -791  -827  -873  -921  -951  -956  -946  -932  -928  -940  -956  -956  -936  -906  -858  -763  -627  -498  -418  -398  -435  -500  -547  -558  -550  -535  -519  -491  -427  -329  -226  -140  -76  -36  -41  -120  -271  -450  -604  -704  -746  -726  -638  -512  -397  -314  -270  -255  -245  -227  -204  -180  -159  -142  -125  -113  -124  -166  -231  -297  -340  -361  -400  -496  -628  -726  -740  -672  -559  -448  -370  -331  -317  -316  -330  -372  -438  -501  -540  -562  -559  -512  -430  -354  -312  -306  -314  -321  -329  -338  -347  -348  -343  -340  -360  -415  -489  -547  -575  -579  -563  -541  -527  -526  -532  -539  -543  -543  -534  -510  -474  -438  -415  -409  -423  -470  -555  -619  -577  -439  -312  -257  -253  -265  -278  -286  -265  -204  -123  -60  -29  -14  0  25  71  131  173  163  89  -22  -132  -250  -401  -546  -620  -624  -607  -603  -611  -622  -645  -679  -692  -661  -591  -508  -467  -503  -572  -615  -611  -563  -470  -292  58  663  1543  2597  3664  4553  4971  4652  3529  1786  -63  -1421  -2034  -2017  -1627  -1163  -856  -725  -642  -537  -437  -368  -331  -313  -305  -303  -295  -263  -196  -100  3  84  124  131  125  114  110  132  202  298  373  402  401  396  409  454  518  583  654  747  858  964  1051  1120  1179  1238  1306  1389  1491  1623  1801  1991  2113  2141  2134  2179  2321  2510  2650  2701  2696  2665  2603  2490  2341  2192  2053  1867  1585  1261  999  828  698  569  450  340  196  -6  -218  -361  -420  -438  -454  -483  -528  -589  -656  -715  -760  -821  -927  -1029  -1025  -908  -775  -686  -638  -606  -572  -552  -561  -581  -590  -585  -575  -567  -565  -565  -567  -571  -574  -570  -547  -505  -457  -422  -408  -413  -425  -432  -418  -378  -331  -297  -277  -256  -235  -225  -222  -216  -215  -254  -363  -521  -655  -723  -744  -748  -716  -622  -516  -469  -465  -449  -434  -454  -500  -544  -580  -604  -622  -638  -643  -599  -467  -293  -192  -230  -364  -509  -615  -668  -668  -631  -591  -575  -584  -608  -650  -713  -779  -812  -777  -675  -538  -421  -369  -389  -453  -529  -603  -666  -703  -705  -674  -616  -544  -472  -419  -397  -403  -424  -440  -430  -391  -352  -346  -375  -408  -413  -390  -357  -322  -284  -261  -291  -404  -564  -684  -699  -597  -416  -244  -154  -140  -144  -110  -18  97  176  199  210  258  342  419  462  477  464  393  228  -38  -345  -576  -657  -621  -556  -528  -544  -569  -580  -585  -604  -650  -708  -716  -629  -490  -378  -308  -240  -187  -201  -203  57  745  1812  3100  4294  4989  4981  4289  2999  1331  -289  -1463  -2051  -2090  -1721  -1227  -876  -709  -625  -567  -547  -573  -603  -592  -541  -472  -397  -321  -247  -167  -85  -25  -5  -19  -41  -44  -23  11  38  47  46  42  38  36  52  109  206  314  404  457  478  493  529  620  787  1017  1261  1453  1562  1611  1635  1669  1734  1818  1877  1898  1915  1966  2040  2095  2106  2094  2084  2078  2033  1906  1703  1466  1220  994  838  762  729  707  662  534  285  -25  -267  -384  -441  -523  -660  -815  -916  -937  -914  -889  -873  -862  -857  -863  -875  -868  -817  -720  -600  -490  -407  -347  -303  -308  -397  -543  -677  -756  -777  -740  -647  -523  -412  -352  -338  -343  -353  -375  -409  -438  -432  -382  -324  -315  -357  -411  -451  -480  -489  -457  -376  -275  -202  -169  -170  -199  -246  -303  -381  -483  -585  -652  -681  -689  -688  -670  -615  -516  -397  -296  -232  -199  -184  -183  -207  -272  -359  -419  -428  -396  -351  -320  -305  -301  -304  -317  -342  -367  -377  -372  -370  -381  -387  -377  -375  -420  -487  -494  -406  -280  -209  -235  -314  -374  -402  -447  -526  -603  -663  -736  -819  -853  -792  -656  -495  -333  -187  -82  -41  -69  -157  -269  -367  -438  -493  -528  -541  -538  -514  -450  -331  -187  -83  -70  -160  -326  -491  -579  -583  -553  -533  -532  -526  -473  -343  -164  -12  71  102  108  107  100  63  -30  -168  -294  -363  -394  -428  -475  -516  -537  -546  -547  -546  -548  -550  -541  -504  -441  -395  -411  -477  -527  -527  -503  -485  -462  -422  -393  -353  -163  370  1380  2805  4284  5298  5483  4772  3362  1652  59  -1132  -1806  -2006  -1888  -1629  -1353  -1100  -824  -497  -200  -26  30  12  -51  -130  -180  -185  -165  -148  -143  -139  -129  -113  -101  -99  -103  -107  -97  -66  -19  21  40  43  42  56  117  251  441  620  722  751  778  851  951  1022  1038  1013  993  1052  1261  1573  1840  1988  2072  2149  2208  2230  2238  2267  2318  2354  2333  2263  2193  2129  2018  1825  1594  1386  1204  1014  827  675  534  349  126  -72  -205  -293  -386  -496  -593  -638  -639  -618  -579  -554  -580  -619  -637  -649  -662  -666  -664  -663  -670  -687  -719  -767  -819  -844  -819  -749  -662  -589  -543  -489  -385  -259  -198  -258  -393  -518  -588  -614  -622  -623  -601  -538  -448  -378  -351  -359  -393  -445  -507  -565  -609  -634  -638  -625  -610  -612  -634  -656  -643  -575  -477  -406  -381  -383  -390  -395  -397  -410  -442  -482  -496  -461  -397  -346  -328  -341  -380  -430  -465  -465  -428  -372  -319  -285  -265  -255  -250  -247  -244  -243  -250  -259  -257  -245  -253  -289  -321  -323  -302  -291  -298  -292  -238  -143  -66  -65  -132  -199  -234  -249  -260  -257  -235  -206  -191  -233  -359  -526  -649  -673  -604  -483  -355  -254  -198  -183  -193  -222  -268  -321  -370  -404  -405  -369  -301  -222  -162  -144  -152  -164  -201  -292  -427  -547  -615  -640  -642  -609  -513  -366  -220  -120  -72  -65  -84  -120  -155  -159  -106  -1  99  142  144  152  168  173  164  159  163  152  109  43  -27  -86  -122  -148  -195  -266  -334  -379  -405  -428  -452  -472  -483  -491  -490  -450  -350  -248  -234  -314  -391  -341  -30  634  1611  2728  3749  4403  4446  3868  2893  1751  647  -228  -826  -1163  -1255  -1185  -1042  -891  -782  -721  -699  -708  -736  -755  -744  -701  -623  -511  -391  -300  -250  -221  -199  -183  -173  -166  -159  -153  -144  -121  -82  -11  105  234  335  405  429  413  401  408  431  463  485  483  478  522  664  893  1132  1316  1446  1551  1646  1734  1825  1923  2015  2101  2212  2355  2480  2521  2458  2343  2226  2100  1945  1763  1569  1384  1204  1024  852  693  533  340  73  -240  -495  -623  -656  -653  -643  -619  -571  -513  -473  -470  -499  -537  -566  -588  -610  -626  -626  -608  -580  -562  -570  -608  -656  -686  -686  -673  -664  -662  -654  -639  -640  -664  -675  -616  -489  -363  -295  -283  -297  -329  -376  -431  -481  -520  -554  -588  -611  -621  -626  -627  -608  -551  -469  -404  -378  -367  -341  -297  -255  -235  -230  -224  -199  -144  -75  -30  -36  -99  -205  -309  -365  -374  -366  -362  -362  -357  -335  -298  -263  -248  -258  -292  -334  -367  -387  -395  -393  -389  -376  -346  -309  -282  -272  -275  -278  -275  -263  -238  -205  -173  -138  -90  -18  60  111  119  94  55  -9  -139  -333  -508  -578  -547  -484  -426  -358  -282  -224  -200  -203  -221  -253  -289  -318  -337  -355  -375  -389  -394  -389  -379  -372  -370  -362  -332  -278  -218  -174  -164  -185  -200  -187  -168  -174  -198  -213  -205  -189  -185  -193  -201  -211  -235  -263  -266  -214  -97  62  213  306  331  319  304  302  304  288  225  115  -3  -106  -219  -365  -513  -611  -650  -654  -637  -596  -530  -470  -466  -544  -670  -778  -827  -816  -746  -616  -444  -262  -78  151  486  997  1748  2682  3608  4304  4544  4154  3142  1713  204  -1007  -1701  -1879  -1649  -1214  -834  -649  -605  -594  -591  -618  -665  -687  -639  -498  -318  -191  -149  -159  -199  -270  -354  -417  -438  -415  -348  -254  -174  -130  -119  -127  -136  -121  -52  67  202  317  420  524  603  629  621  629  701  859  1080  1311  1492  1613  1716  1831  1934  1979  1969  1966  2022  2151  2321  2464  2514  2462  2354  2241  2131  2023  1920  1781  1532  1181  854  654  552  457  330  180  11  -163  -306  -391  -442  -503  -585  -667  -732  -775  -797  -802  -800  -801  -808  -820  -836  -845  -815  -717  -579  -475  -441  -447  -463  -491  -553  -652  -757  -837  -881  -900  -908  -917  -916  -869  -746  -573  -429  -367  -382  -451  -549  -649  -722  -766  -788  -781  -716  -577  -411  -287  -228  -211  -212  -222  -248  -290  -336  -368  -379  -392  -468  -635  -798  -804  -635  -418  -258  -178  -157  -176  -233  -333  -459  -570  -637  -646  -584  -443  -268  -151  -148  -246  -393  -528  -617  -662  -679  -664  -584  -418  -217  -74  -14  7  46  115  164  126  -27  -240  -391  -432  -425  -427  -430  -399  -322  -232  -151  -85  -64  -105  -165  -204  -225  -237  -243  -238  -207  -144  -72  -21  -3  -11  -55  -155  -297  -427  -488  -435  -286  -145  -87  -97  -134  -167  -182  -177  -162  -146  -128  -94  -45  -2  21  30  36  37  41  71  123  181  250  315  351  362  357  334  289  214  117  4  -149  -335  -476  -528  -529  -533  -559  -589  -605  -609  -604  -585  -551  -517  -493  -487  -516  -577  -604  -465  -35  669  1506  2391  3325  4201  4747  4676  3860  2361  501  -1106  -1966  -2081  -1776  -1341  -941  -667  -547  -519  -495  -441  -365  -286  -203  -123  -69  -71  -144  -279  -429  -545  -593  -553  -452  -341  -245  -168  -111  -76  -55  -26  38  133  219  265  274  277  303  368  459  529  534  486  465  592  945  1416  1772  1895  1861  1817  1849  1947  2065  2168  2245  2314  2403  2511  2604  2660  2681  2661  2563  2345  2028  1718  1535  1482  1436  1273  967  612  299  32  -187  -320  -360  -349  -321  -301  -332  -449  -638  -816  -908  -912  -883  -862  -845  -822  -795  -784  -798  -819  -823  -801  -761  -707  -634  -562  -537  -579  -657  -722  -765  -806  -843  -854  -832  -785  -733  -690  -656  -644  -663  -693  -706  -698  -692  -719  -764  -782  -763  -729  -696  -667  -624  -552  -492  -498  -547  -596  -644  -718  -806  -831  -718  -503  -324  -281  -351  -450  -533  -602  -661  -697  -700  -685  -657  -606  -524  -429  -363  -341  -360  -417  -498  -568  -600  -587  -524  -420  -305  -213  -176  -211  -300  -397  -461  -489  -486  -459  -417  -375  -335  -292  -241  -188  -150  -147  -182  -230  -276  -324  -367  -382  -370  -348  -330  -315  -293  -266  -236  -204  -197  -252  -364  -478  -534  -509  -430  -322  -210  -132  -106  -117  -155  -213  -271  -311  -326  -324  -310  -287  -259  -225  -169  -54  111  257  327  338  340  361  385  369  282  146  14  -107  -231  -342  -427  -503  -581  -659  -732  -786  -810  -806  -779  -736  -673  -574  -451  -352  -320  -317  -234  -39  177  402  788  1512  2567  3692  4475  4557  3858  2637  1249  -92  -1218  -1880  -1964  -1648  -1234  -951  -831  -776  -733  -709  -680  -608  -506  -434  -441  -525  -615  -619  -502  -316  -127  22  118  158  154  118  56  -9  -47  -51  -40  -30  -25  -16  28  146  324  498  622  710  776  808  799  776  759  765  818  973  1280  1685  2044  2279  2414  2478  2491  2481  2465  2443  2408  2357  2297  2231  2166  2108  2041  1939  1783  1572  1347  1130  876  582  354  246  198  130  14  -141  -304  -437  -520  -558  -571  -573  -560  -514  -437  -366  -350  -407  -527  -671  -791  -866  -898  -889  -830  -734  -642  -582  -546  -516  -495  -495  -524  -583  -662  -736  -763  -706  -581  -430  -268  -102  26  86  58  -68  -272  -478  -638  -757  -841  -881  -879  -855  -796  -668  -499  -374  -332  -342  -368  -401  -437  -464  -478  -488  -501  -503  -455  -333  -171  -39  11  -35  -175  -370  -559  -693  -755  -760  -733  -709  -727  -789  -849  -874  -878  -886  -896  -867  -739  -516  -293  -161  -124  -136  -158  -179  -206  -251  -312  -376  -420  -424  -403  -389  -379  -361  -361  -425  -548  -669  -737  -738  -667  -529  -376  -269  -202  -135  -69  -52  -123  -237  -311  -333  -357  -418  -497  -552  -569  -555  -508  -421  -307  -212  -160  -126  -71  9  88  143  172  183  179  162  135  89  10  -89  -168  -209  -225  -233  -236  -234  -218  -187  -172  -230  -383  -581  -761  -884  -934  -918  -861  -731  -440  -47  173  98  -108  -241  -148  259  1049  2211  3480  4444  4762  4236  2955  1369  -47  -1048  -1523  -1562  -1478  -1439  -1367  -1209  -1004  -784  -541  -271  -29  100  101  29  -66  -185  -337  -489  -564  -520  -391  -235  -70  95  222  279  276  240  197  167  162  182  222  282  368  491  641  789  915  1018  1087  1117  1120  1122  1150  1233  1393  1607  1805  1945  2055  2165  2263  2350  2433  2500  2535  2543  2530  2508  2500  2513  2517  2437  2216  1901  1607  1379  1157  875  558  293  120  18  -32  -63  -113  -186  -247  -283  -325  -416  -560  -700  -777  -785  -759  -740  -746  -772  -806  -840  -877  -921  -947  -935  -898  -838  -741  -630  -561  -542  -544  -545  -549  -559  -564  -555  -541  -534  -536  -533  -516  -503  -518  -556  -599  -639  -675  -712  -754  -784  -777  -717  -622  -542  -517  -549  -605  -644  -655  -655  -662  -677  -678  -646  -589  -531  -479  -430  -388  -370  -396  -468  -581  -719  -843  -912  -919  -879  -810  -728  -658  -622  -614  -607  -580  -544  -517  -509  -512  -516  -521  -524  -510  -428  -232  27  220  254  110  -172  -470  -649  -667  -568  -417  -274  -175  -130  -141  -200  -272  -313  -313  -303  -317  -357  -380  -354  -297  -246  -217  -205  -196  -165  -92  6  90  151  199  234  246  225  163  81  21  -2  -27  -109  -272  -471  -628  -717  -754  -758  -733  -689  -654  -650  -668  -693  -722  -746  -758  -776  -822  -877  -867  -698  -274  386  1139  1920  2758  3570  4133  4228  3741  2657  1166  -287  -1288  -1735  -1744  -1477  -1109  -827  -705  -682  -690  -698  -705  -710  -650  -464  -195  48  184  206  169  131  113  110  100  64  9  -29  -10  83  212  309  348  351  333  297  274  317  467  701  939  1121  1247  1336  1385  1386  1344  1279  1234  1271  1443  1712  1962  2110  2167  2185  2197  2209  2228  2264  2315  2360  2386  2391  2378  2356  2334  2298  2205  2012  1716  1339  916  511  203  28  -56  -113  -174  -243  -337  -451  -552  -623  -673  -712  -749  -787  -814  -817  -787  -716  -616  -532  -500  -522  -575  -628  -656  -647  -602  -543  -501  -489  -496  -502  -490  -446  -381  -325  -303  -317  -360  -418  -475  -520  -550  -578  -602  -586  -487  -330  -196  -146  -167  -214  -251  -265  -262  -259  -268  -295  -337  -382  -415  -429  -423  -418  -451  -520  -582  -596  -573  -551  -548  -547  -534  -514  -509  -528  -560  -590  -618  -650  -689  -720  -704  -617  -489  -378  -328  -337  -363  -378  -386  -407  -464  -561  -659  -715  -724  -704  -673  -625  -543  -444  -371  -345  -362  -418  -502  -585  -647  -679  -677  -635  -560  -480  -425  -403  -402  -407  -411  -411  -396  -347  -251  -125  -17  41  63  67  44  -18  -106  -197  -269  -310  -326  -334  -338  -338  -333  -332  -352  -407  -498  -609  -706  -747  -715  -640  -576  -551  -556  -568  -577  -602  -679  -809  -899  -795  -377  397  1519  2861  4141  5069  5404  4964  3756  2015  148  -1382  -2257  -2397  -1956  -1218  -461  11  10  -260  -462  -510  -475  -394  -283  -178  -110  -76  -62  -61  -73  -96  -118  -128  -121  -94  -47  11  60  73  59  48  49  50  42  35  57  126  226  327  442  590  762  931  1069  1150  1188  1237  1346  1519  1697  1809  1855  1900  2006  2154  2272  2329  2344  2350  2378  2437  2474  2421  2271  2074  1888  1747  1619  1416  1089  724  468  355  301  222  93  -71  -234  -359  -429  -468  -513  -577  -666  -792  -940  -1066  -1141  -1162  -1138  -1075  -984  -889  -795  -694  -595  -520  -467  -438  -453  -517  -600  -663  -690  -689  -675  -658  -625  -560  -474  -400  -354  -336  -360  -432  -528  -603  -640  -656  -649  -591  -466  -298  -146  -51  -18  -44  -133  -291  -487  -645  -717  -716  -662  -565  -438  -314  -238  -222  -255  -316  -376  -415  -425  -406  -347  -236  -91  39  108  102  37  -45  -104  -134  -165  -205  -236  -248  -247  -244  -243  -240  -236  -230  -226  -240  -283  -342  -386  -399  -391  -381  -379  -395  -433  -480  -520  -550  -573  -561  -494  -382  -251  -162  -181  -281  -367  -396  -390  -380  -381  -399  -428  -428  -361  -264  -230  -277  -338  -365  -367  -364  -366  -366  -348  -300  -227  -148  -82  -40  -22  -20  -24  -28  -23  -3  26  46  32  -29  -118  -188  -217  -221  -238  -298  -387  -459  -494  -508  -511  -477  -386  -268  -186  -164  -185  -246  -383  -595  -769  -780  -617  -275  318  1161  2168  3251  4237  4819  4745  3999  2735  1204  -204  -1157  -1575  -1571  -1310  -940  -619  -476  -511  -638  -779  -869  -859  -740  -551  -361  -196  -35  116  213  220  143  25  -75  -134  -165  -174  -154  -112  -64  -12  37  85  148  228  307  371  420  459  490  512  531  563  625  743  936  1172  1369  1477  1519  1544  1594  1682  1796  1920  2055  2214  2399  2569  2669  2673  2605  2507  2399  2260  2049  1747  1425  1197  1091  1030  932  768  561  344  129  -66  -202  -276  -331  -397  -466  -527  -574  -599  -596  -566  -518  -476  -457  -456  -456  -444  -441  -478  -542  -585  -587  -563  -540  -525  -520  -544  -622  -741  -846  -887  -826  -655  -436  -283  -244  -286  -363  -449  -521  -566  -589  -606  -616  -611  -586  -543  -506  -491  -492  -490  -489  -513  -583  -678  -745  -756  -731  -702  -686  -670  -630  -538  -388  -227  -154  -249  -461  -634  -668  -581  -452  -360  -327  -326  -336  -347  -350  -338  -301  -244]
