reading_id,reading_time,wire_id,result_classification,heart_rate,heart_rate_alert,firmware_version,device_app_version,hardware_version,waveform_samples
c53a11c0-5189-11ed-8080-808080808080,Fri Oct 21 21:46:07 UTC 2022,2101e3b12739,NSR,75,NONE,20001.171.50,2.10.0,Charge 5,[3287  3376  3261  2769  1970  1191  693  481  389  250  -27  -494  -1130  -1771  -2239  -2530  -2747  -2960  -3175  -3392  -3635  -3953  -4408  -4949  -5398  -5661  -5817  -5950  -6049  -6094  -6127  -6228  -6445  -6730  -6967  -7113  -7248  -7443  -7661  -7815  -7873  -7869  -7857  -7882  -7974  -8126  -8252  -8257  -8181  -8141  -8138  -8089  -7972  -7828  -7720  -7679  -7683  -7699  -7718  -7739  -7753  -7759  -7757  -7709  -7551  -7280  -6991  -6772  -6627  -6527  -6447  -6369  -6293  -6232  -6207  -6254  -6335  -6342  -6262  -6202  -6237  -6330  -6408  -6442  -6446  -6412  -6318  -6178  -6053  -5983  -5953  -5943  -5947  -5969  -5999  -5989  -5915  -5759  -5424  -4890  -4350  -3933  -3489  -2745  -1625  -454  199  -63  -1241  -3011  -4827  -6127  -6679  -6596  -6126  -5485  -4806  -4256  -3952  -3787  -3599  -3364  -3137  -2968  -2881  -2857  -2843  -2785  -2657  -2481  -2301  -2132  -1982  -1876  -1811  -1744  -1663  -1591  -1519  -1391  -1175  -928  -733  -596  -476  -349  -200  -26  152  339  558  805  1049  1285  1544  1817  2033  2137  2154  2138  2116  2088  2071  2091  2139  2158  2084  1915  1720  1561  1418  1246  1063  918  781  580  314  80  -42  -68  -56  -47  -50  -48  -21  33  84  105  103  103  117  135  145  147  145  137  124  111  106  113  161  284  449  567  606  609  627  668  716  763  804  821  826  861  919  940  909  868  850  861  879  885  882  890  917  951  971  953  885  837  921  1119  1291  1359  1362  1348  1311  1225  1106  1022  1036  1160  1332  1459  1506  1504  1481  1437  1379  1329  1290  1250  1232  1309  1531  1830  2058  2132  2085  2000  1938  1911  1897  1882  1865  1840  1783  1666  1503  1363  1297  1284  1273  1222  1107  952  818  749  733  746  779  834  901  958  964  907  889  1025  1292  1642  2112  2736  3502  4368  5147  5443  4893  3420  1353  -620  -1820  -1995  -1400  -553  95  430  601  727  798  803  789  800  838  873  884  882  897  933  975  1020  1073  1158  1310  1503  1641  1683  1667  1650  1669  1723  1786  1860  1960  2070  2172  2293  2469  2679  2859  2974  3043  3096  3170  3274  3375  3442  3484  3538  3615  3687  3709  3642  3476  3274  3113  2944  2653  2274  1989  1875  1824  1707  1504  1286  1105  933  743  574  456  373  321  302  265  133  -100  -305  -314  -144  33  115  131  130  131  130  110  57  -25  -102  -146  -200  -298  -394  -440  -449  -450  -448  -437  -422  -407  -389  -361  -340  -345  -370  -378  -348  -301  -252  -203  -176  -204  -279  -372  -446  -479  -489  -483  -448  -406  -412  -506  -678  -875  -1040  -1134  -1154  -1116  -1034  -923  -803  -699  -645  -641  -657  -670  -679  -683  -670  -624  -529  -387  -249  -191  -239  -340  -420  -454  -463  -470  -488  -527  -600  -707  -816  -887  -906  -896  -882  -889  -941  -1045  -1162  -1221  -1207  -1194  -1225  -1268  -1271  -1213  -1146  -1067  -833  -325  430  1333  2291  3189  3761  3646  2700  1056  -974  -2783  -3719  -3693  -3121  -2416  -1843  -1547  -1479  -1473  -1418  -1293  -1151  -1026  -877  -695  -542  -470  -474  -521  -576  -621  -649  -652  -612  -504  -323  -125  5  53  77  131  221  315  383  443  556  760  1048  1358  1600  1726  1781  1836  1906  1962  1997  2042  2115  2199  2267  2300  2287  2216  2062  1823  1576  1426  1386  1362  1269  1101  900  687  455  197  -68  -303  -499  -674  -825  -929  -990  -1061  -1197  -1381  -1518  -1543  -1455  -1307  -1173  -1076  -985  -889  -796  -724  -705  -734  -780  -833  -881  -916  -954  -996  -1027  -1040  -1042  -1031  -998  -941  -878  -811  -717  -599  -511  -493  -535  -599  -646  -660  -652  -630  -604  -586  -579  -578  -585  -604  -639  -683  -729  -766  -770  -690  -514  -345  -299  -348  -397  -431  -487  -567  -627  -620  -534  -408  -314  -280  -280  -270  -205  -59  114  203  143  -41  -297  -578  -820  -949  -942  -828  -675  -570  -565  -656  -795  -923  -1013  -1060  -1063  -1038  -1010  -955  -811  -603  -491  -502  -361  135  837  1571  2385  3230  3825  3959  3518  2345  503  -1456  -2877  -3451  -3162  -2257  -1256  -582  -323  -331  -377  -338  -235  -125  -37  11  11  -40  -136  -248  -320  -313  -230  -101  21  108  196  335  531  726  844  878  887  912  946  974  1018  1114  1235  1328  1389  1450  1565  1801  2118  2360  2429  2379  2316  2290  2291  2300  2308  2306  2277  2208  2112  2012  1912  1787  1604  1339  961  477  19  -263  -367  -404  -443  -478  -493  -514  -574  -679  -815  -991  -1177  -1275  -1200  -1000  -807  -701  -666  -667  -700  -784  -910  -1027  -1094  -1111  -1094  -1035  -934  -826  -745  -685  -632  -592  -577  -585  -627  -711  -815  -892  -924  -931  -925  -883  -777  -634  -529  -494  -499  -515  -534  -577  -665  -772  -847  -870  -827  -700  -535  -402  -324  -310  -346  -343  -234  -85  -1  10  16  42  60  66  109  201  270  234  73  -163  -410  -655  -882  -1039  -1105  -1094  -981  -752  -493  -334  -285  -281  -322  -407  -484  -534  -633  -856  -1085  -1034  -613  -71  381  765  1211  1944  3049  4105  4447  3779  2260  283  -1549  -2659  -2906  -2536  -1882  -1256  -869  -700  -581  -435  -316  -273  -282  -294  -280  -237  -143  38  269  436  486  451  371  275  206  231  380  594  776  875  911  947  1061  1277  1506  1628  1628  1595  1597  1628  1668  1738  1870  2037  2168  2239  2309  2441  2615  2741  2768  2716  2630  2536  2424  2305  2216  2129  1943  1604  1183  804  520  292  70  -134  -269  -331  -374  -424  -467  -490  -512  -566  -659  -766  -854  -903  -918  -920  -919  -919  -923  -931  -931  -922  -912  -902  -885  -855  -820  -796  -791  -798  -803  -784  -723  -640  -579  -554  -542  -533  -553  -611  -682  -732  -735  -680  -606  -571  -601  -680  -763  -813  -839  -865  -903  -965  -1039  -1092  -1113  -1113  -1094  -1049  -984  -901  -778  -605  -423  -293  -252  -282  -324  -348  -356  -352  -313  -221  -103  -22  -20  -102  -239  -369  -450  -489  -519  -554  -579  -581  -575  -597  -673  -789  -893  -954  -974  -974  -970  -974  -980  -974  -971  -1004  -971  -686  -187  272  595  962  1627  2717  4011  4845  4528  2893  415  -1957  -3328  -3493  -2868  -2009  -1354  -1021  -845  -705  -613  -568  -551  -560  -574  -542  -420  -220  -9  148  242  274  267  280  340  408  454  492  551  630  690  711  734  807  921  1030  1128  1260  1450  1654  1808  1915  2006  2087  2171  2289  2431  2539  2586  2591  2586  2588  2592  2575  2506  2391  2266  2159  2038  1818  1490  1175  958  780  571  321  23  -284  -498  -589  -637  -706  -782  -816  -801  -774  -762  -756  -732  -685  -629  -583  -555  -548  -581  -674  -803  -898  -918  -868  -771  -663  -571  -506  -469  -450  -442  -438  -445  -474  -505  -496  -433  -334  -236  -201  -239  -301  -369  -481  -627  -744  -803  -810  -751  -643  -583  -653  -815  -952  -993  -949  -863  -767  -692  -654  -649  -664  -696  -730  -722  -630  -472  -326  -256  -257  -284  -295  -269  -188  -47  123  265  336  306  128  -194  -574  -880  -996  -900  -702  -545  -484  -499  -588  -758  -944  -1043  -1019  -929  -855  -822  -811  -800  -766  -675  -507  -250  107  544  1048  1715  2628  3648  4337  4164  2878  774  -1400  -2905  -3396  -3011  -2211  -1443  -909  -643  -579  -570  -533  -490  -465  -448  -419  -378  -337  -306  -261  -168  -33  101  201  251  267  276  296  331  399  522  674  794  868  950  1100  1309  1498  1611  1674  1725  1763  1792  1856  1998  2210  2416  2525  2517  2442  2362  2308  2283  2267  2230  2166  2080  1960  1786  1564  1326  1108  939  818  686  460  123  -216  -435  -528  -575  -634  -699  -733  -734  -742  -786  -864  -950  -1021  -1059  -1021  -909  -800  -746  -728  -716  -706  -700  -680  -632  -583  -568  -593  -647  -700  -740  -787  -844  -869  -824  -721  -618  -568  -580  -622  -632  -568  -480  -460  -512  -566  -575  -555  -549  -574  -612  -649  -677  -683  -659  -623  -626  -678  -722  -726  -721  -754  -836  -932  -989  -997  -983  -983  -1005  -1019  -941  -693  -335  -57  43  35  32  89  189  278  316  279  140  -76  -301  -479  -598  -674  -721  -726  -686  -626  -573  -526  -464  -367  -266  -205  -180  -186  -255  -430  -672  -892  -1050  -1137  -1060  -728  -164  533  1221  1844  2543  3408  4169  4283  3369  1551  -578  -2306  -3165  -3143  -2574  -1813  -1086  -563  -327  -304  -360  -411  -437  -450  -465  -477  -452  -373  -285  -239  -241  -264  -246  -119  131  443  700  828  847  822  802  808  842  898  977  1099  1251  1369  1433  1499  1634  1836  2029  2142  2184  2201  2226  2273  2333  2383  2396  2354  2247  2108  2000  1949  1922  1884  1841  1800  1683  1392  961  526  152  -172  -423  -557  -588  -574  -557  -552  -575  -644  -738  -806  -815  -768  -687  -602  -538  -508  -512  -536  -553  -557  -567  -583  -587  -567  -528  -497  -494  -506  -516  -520  -521  -523  -526  -528  -528  -533  -553  -588  -631  -673  -707  -732  -745  -753  -766  -785  -800  -795  -771  -758  -770  -791  -820  -866  -916  -927  -833  -594  -289  -84  -99  -338  -673  -909  -936  -783  -565  -414  -391  -472  -588  -676  -713  -697  -596  -382  -100  135  258  297  296  234  52  -226  -484  -632  -676  -669  -650  -636  -639  -667  -710  -720  -692  -705  -799  -896  -931  -919  -904  -899  -884  -831  -771  -781  -798  -611  -146  519  1421  2599  3800  4586  4566  3518  1587  -616  -2316  -3078  -3020  -2567  -2022  -1450  -935  -628  -534  -533  -542  -539  -514  -453  -357  -247  -150  -87  -65  -70  -68  -20  84  206  290  349  446  602  754  829  814  758  719  746  870  1093  1350  1557  1693  1805  1922  2014  2053  2071  2143  2314  2550  2762  2874  2869  2762  2559  2313  2116  1993  1896  1798  1688  1544  1337  1088  865  676  445  176  -23  -98  -99  -109  -197  -377  -595  -789  -926  -982  -956  -913  -932  -1033  -1132  -1120  -1019  -969  -1013  -1071  -1086  -1075  -1057  -1008  -892  -733  -614  -569  -575  -612  -677  -729  -708  -621  -547  -539  -573  -596  -601  -629  -692  -739  -728  -683  -647  -635  -641  -667  -726  -804  -860  -859  -799  -707  -621  -561  -544  -576  -627  -663  -683  -705  -735  -762  -766  -743  -699  -643  -570  -465  -345  -261  -232  -236  -250  -257  -228  -136  0  114  162  149  103  45  -40  -206  -462  -715  -841  -809  -683  -557  -496  -509  -569  -656  -761  -857  -915  -923  -878  -779  -641  -503  -392  -308  -239  -196  -162  -48  309  1094  2320  3669  4648  4846  4045  2313  84  -1969  -3262  -3557  -3054  -2244  -1530  -1046  -795  -707  -688  -700  -712  -694  -656  -632  -631  -614  -516  -311  -50  168  273  279  250  234  235  244  290  417  621  836  998  1077  1088  1078  1099  1184  1322  1478  1638  1830  2066  2305  2485  2591  2641  2632  2573  2497  2426  2374  2333  2273  2182  2080  1988  1895  1752  1550  1323  1083  819  559  363  259  205  126  -26  -232  -443  -651  -848  -977  -1004  -949  -849  -741  -670  -675  -754  -855  -908  -879  -802  -721  -642  -577  -546  -542  -548  -557  -563  -561  -547  -520  -486  -462  -455  -463  -485  -523  -572  -613  -629  -614  -579  -545  -526  -522  -519  -502  -475  -459  -468  -483  -480  -454  -435  -461  -536  -624  -693  -732  -744  -740  -729  -717  -705  -698  -692  -682  -667  -671  -751  -944  -1166  -1215  -974  -577  -278  -178  -190  -218  -231  -242  -265  -299  -330  -342  -314  -230  -117  -32  0  -3  -41  -133  -290  -468  -601  -666  -691  -693  -685  -676  -668  -665  -690  -762  -857  -912  -894  -835  -784  -760  -758  -788  -868  -944  -860  -490  154  1008  1960  2850  3582  4048  4028  3396  2206  630  -982  -2214  -2832  -2811  -2319  -1723  -1330  -1121  -922  -674  -449  -320  -292  -315  -348  -373  -360  -267  -86  111  233  265  255  241  237  264  343  454  552  635  750  907  1057  1159  1230  1310  1418  1528  1604  1643  1679  1765  1940  2172  2393  2582  2744  2861  2918  2903  2808  2669  2538  2418  2300  2186  2066  1939  1807  1595  1214  748  385  184  76  20  5  14  22  -1  -85  -233  -413  -572  -667  -699  -699  -693  -689  -691  -697  -713  -742  -769  -777  -767  -759  -774  -801  -805  -774  -729  -684  -625  -544  -468  -427  -433  -470  -501  -500  -484  -484  -520  -585  -665  -740  -789  -805  -787  -734  -662  -604  -583  -601  -648  -697  -714  -684  -629  -589  -578  -580  -580  -574  -575  -607  -680  -760  -800  -800  -796  -808  -836  -866  -889  -905  -910  -877  -776  -621  -468  -346  -258  -212  -226  -305  -417  -503  -532  -503  -421  -319  -245  -205  -165  -112  -52  31  158  298  379  330  109  -219  -514  -701  -794  -815  -782  -735  -707  -684  -643  -568  -466  -366  -320  -370  -510  -696  -887  -1049  -1164  -1232  -1253  -1197  -1029  -778  -445  23  572  1129  1800  2667  3592  4288  4372  3494  1688  -480  -2253  -3185  -3265  -2740  -2000  -1394  -1039  -872  -785  -701  -610  -540  -507  -492  -466  -421  -371  -318  -250  -158  -54  37  98  129  157  222  347  497  605  646  638  586  498  450  554  830  1192  1547  1808  1932  1976  2034  2130  2219  2274  2341  2466  2612  2694  2696  2653  2581  2495  2399  2276  2137  2015  1928  1880  1857  1755  1444  960  529  307  230  152  1  -206  -423  -626  -794  -895  -924  -921  -913  -894  -852  -797  -760  -751  -757  -764  -769  -766  -744  -711  -684  -676  -681  -687  -688  -674  -645  -614  -588  -554  -506  -441  -370  -319  -297  -297  -322  -388  -484  -576  -651  -715  -771  -805  -814  -812  -809  -807  -807  -806  -793  -750  -673  -579  -501  -472  -489  -502  -483  -480  -550  -664  -732  -721  -678  -650  -647  -657  -663  -638  -565  -476  -437  -470  -505  -484  -468  -523  -572  -502  -341  -207  -155  -159  -175  -187  -186  -166  -132  -96  -65  -44  -31  -23  -35  -90  -176  -245  -270  -267  -260  -258  -267  -294  -344  -402  -446  -470  -496  -563  -680  -800  -865  -852  -764  -645  -560  -543  -589  -675  -751  -716  -489  -196  -72  -94  40  621  1709  3084  4280  4795  4422  3296  1647  -194  -1727  -2592  -2815  -2604  -2157  -1669  -1261  -924  -644  -458  -375  -350  -335  -309  -271  -197  -60  95  193  217  207  194  187  192  216  266  344  451  584  727  852  926  950  945  924  901  931  1110  1485  1973  2397  2626  2669  2629  2605  2650  2747  2830  2865  2881  2906  2930  2896  2754  2524  2279  2045  1805  1561  1325  1108  931  802  701  591  427  186  -116  -411  -605  -672  -673  -682  -736  -827  -919  -977  -989  -965  -923  -873  -822  -775  -758  -791  -848  -892  -904  -869  -795  -729  -700  -706  -736  -789  -852  -903  -921  -915  -887  -807  -674  -545  -466  -434  -429  -444  -467  -478  -464  -433  -410  -413  -462  -571  -712  -811  -815  -727  -602  -508  -476  -504  -588  -704  -797  -841  -849  -845  -828  -796  -766  -760  -764  -751  -721  -690  -669  -650  -635  -657  -731  -820  -878  -888  -860  -804  -708  -557  -387  -268  -231  -248  -278  -290  -257  -164  -29  97  176  204  185  118  4  -175  -457  -781  -1004  -1053  -971  -837  -717  -652  -660  -734  -838  -932  -970  -928  -840  -759  -712  -718  -818  -1008  -1135  -986  -525  64  572  990  1626  2745  4077  4876  4552  3109  1020  -1046  -2457  -2955  -2807  -2465  -2132  -1801  -1503  -1293  -1085  -735  -290  42  173  179  145  96  42  5  -4  4  36  114  229  353  474  576  623  611  587  611  725  915  1115  1267  1363  1434  1515  1631  1767  1879  1945  1990  2031  2065  2118  2253  2485  2725  2868  2903  2888  2868  2847  2811  2739  2611  2424  2178  1867  1506  1134  794  500  247  49  -70  -126  -172  -265  -426  -611  -743  -795  -798  -783  -758  -728  -703  -690  -705  -759  -840  -906  -913  -840  -713  -595  -520  -480  -462  -478  -525  -579  -632  -680  -694  -643  -530  -401  -303  -266  -291  -357  -456  -580  -700  -774  -800  -795  -755  -665  -567  -525  -540  -557  -537  -481  -425  -392  -372  -344  -315  -301  -329  -420  -554  -680  -778  -839  -849  -805  -713  -606  -521  -465  -429  -414  -426  -475  -562  -662  -727  -731  -674  -580  -465  -333  -195  -92  -57  -76  -112  -146  -180  -202  -187  -120  4  180  347  402  293  81  -106  -212  -298  -440  -612  -726  -748  -715  -660  -575  -461  -363  -319  -331  -394  -508  -650  -768  -820  -793  -699  -601  -568  -545  -321  313  1359  2581  3698  4461  4619  4068  2906  1336  -306  -1609  -2366  -2651  -2594  -2240  -1682  -1151  -813  -642  -553  -501  -467  -433  -381  -310  -246  -220  -240  -274  -280  -224  -87  85  206  242  224  195  175  177  213  299  447  641  821  935  1011  1126  1317  1545  1771  1994  2198  2353  2449  2502  2528  2545  2572  2614  2653  2655  2609  2544  2487  2423  2289  2021  1664  1380  1253  1197  1080  849  542  242  20  -120  -235  -363  -500  -616  -690  -726  -738  -739  -749  -810  -952  -1137  -1278  -1335  -1330  -1279  -1189  -1099  -1056  -1032  -974  -885  -783  -681  -603  -566  -563  -592  -662  -755  -826  -843  -806  -726  -619  -497  -377  -294  -273  -335  -487  -676  -810  -856  -844  -797  -716  -618  -527  -449  -377  -321  -305  -339  -393  -425  -441  -476  -533  -580  -600  -604  -604  -616  -672  -772  -848  -825  -689  -482  -296  -228  -266  -319  -339  -340  -345  -357  -370  -383  -406  -438  -455  -435  -398  -380  -397  -442  -475  -450  -339  -162  4  114  189  242  281  327  369  358  237  -2  -268  -442  -499  -493  -460  -414  -397  -471  -618  -746  -800  -803  -793  -786  -775  -740  -688  -654  -654  -627  -480  -223  44  280  570  1084  1916  2932  3873  4463  4474  3795  2432  596  -1181  -2314  -2597  -2251  -1641  -1038  -591  -339  -217  -150  -144  -225  -363  -486  -558  -591  -599  -559  -428  -202  40  210  288  306  298  283  277  309  404  530  617  636  623  619  660  782  1009  1290  1532  1738  1985  2255  2439  2501  2502  2503  2536  2600  2683  2765  2823  2842  2816  2740  2619  2482  2328  2110  1800  1461  1212  1087  985  794  516  218  -68  -320  -494  -587  -653  -734  -808  -839  -837  -827  -827  -838  -840  -826  -812  -827  -891  -999  -1100  -1135  -1072  -920  -752  -653  -632  -659  -725  -835  -963  -1051  -1074  -1049  -1001  -947  -898  -856  -806  -731  -634  -533  -451  -398  -377  -397  -465  -554  -619  -643  -640  -626  -614  -606  -601  -599  -602  -609  -617  -627  -643  -675  -706  -706  -702  -746  -809  -813  -725  -593  -490  -449  -448  -459  -461  -450  -443  -460  -497  -516  -511  -536  -623  -733  -814  -853  -859  -852  -850  -854  -834  -765  -663  -563  -492  -460  -458  -461  -455  -427  -367  -290  -235  -212  -194  -167  -147  -160  -190  -176  -103  -30  1  3  5  10  0  -53  -159  -295  -406  -449  -446  -446  -476  -558  -710  -886  -969  -888  -694  -485  -308  -187  -154  -194  -240  -277  -364  -501  -511  -225  361  1205  2212  3193  4003  4499  4462  3760  2426  680  -985  -2063  -2401  -2173  -1642  -1065  -655  -501  -520  -572  -575  -501  -356  -187  -51  14  0  -73  -146  -148  -63  55  156  208  217  205  199  223  306  473  705  928  1075  1143  1171  1187  1210  1266  1381  1534  1674  1808  1987  2190  2342  2445  2575  2746  2894  2975  2988  2952  2891  2830  2784  2739  2655  2469  2177  1870  1645  1484  1298  1022  663  300  19  -153  -244  -286  -292  -291  -340  -478  -660  -790  -831  -829  -833  -860  -903  -939  -954  -927  -839  -706  -590  -541  -561  -611  -650  -667  -671  -675  -679  -660  -595  -499  -424  -402  -415  -430  -444  -465  -486  -495  -487  -465  -441  -433  -451  -481  -503  -510  -507  -507  -525  -563  -588  -577  -550  -549  -588  -639  -656  -618  -531  -443  -422  -477  -541  -564  -549  -522  -503  -497  -500  -509  -525  -555  -611  -681  -730  -743  -738  -736  -740  -743  -735  -715  -693  -677  -671  -673  -685  -709  -727  -715  -680  -657  -654  -648  -619  -579  -551  -542  -550  -572  -603  -632  -646  -629  -565  -465  -368  -303  -261  -230  -239  -311  -397  -435  -409  -344  -286  -262  -256  -245  -220  -175  -120  -79  -61  -50  -36  -8  54  160  275  351  337  204  -15  -227  -363  -444  -527  -625  -693  -705  -685  -668  -659  -632  -559  -457  -367  -315  -343  -509  -784  -961  -858  -484  109  847  1580  2326  3223  4151  4795  4861  4073  2418  431  -1122  -1884  -2025  -1857  -1615  -1405  -1177  -905  -671  -545  -519  -537  -558  -565  -533  -438  -288  -134  -32  0  -10  -28  -34  -15  43  146  266  371  450  494  495  471  471  556  734  949  1163  1392  1633  1825  1915  1925  1926  2006  2227  2526  2749  2840  2865  2893  2936  2970  2955  2865  2725  2598  2499  2360  2128  1852  1611  1390  1157  920  668  386  104  -143  -338  -466  -529  -546  -542  -536  -533  -534  -543  -565  -614  -710  -844  -984  -1112  -1212  -1235  -1150  -1006  -890  -827  -779  -730  -708  -710  -683  -598  -494  -406  -333  -279  -273  -331  -420  -493  -541  -573  -576  -534  -465  -404  -372  -371  -393  -429  -466  -489  -493  -489  -492  -515  -557  -601  -636  -659  -671  -664  -629  -564  -489  -424  -384  -364  -351  -341  -336  -331  -327  -346  -413  -524  -635  -693  -672  -599  -533  -506  -507  -521  -533  -538  -540  -539  -539  -536  -529  -524  -521  -519  -527  -535  -525  -503  -484  -475  -472  -467  -453  -426  -393  -371  -362  -348  -321  -295  -284  -287  -294  -293  -272  -234  -206  -209  -227  -233  -230  -255  -335  -455  -557  -601  -576  -487  -385  -342  -370  -408  -410  -389  -378  -385  -389  -364  -290  -175  -51  57  148  216  246  245  234  232  243  258  243  132  -117  -432  -670  -766  -778  -773  -758  -695  -585  -489  -460  -492  -558  -644  -733  -796  -813  -778  -697  -622  -602  -596  -510  -234  315  1097  2012  2997  3933  4613  4800  4273  2982  1142  -817  -2339  -3037  -2951  -2351  -1563  -987  -784  -740  -664  -571  -501  -446  -388  -311  -197  -48  98  214  289  317  292  219  128  59  25  4  -11  21  169  435  725  924  994  980  956  988  1118  1317  1495  1608  1697  1819  1980  2135  2265  2397  2560  2728  2855  2941  3015  3076  3083  2990  2790  2542  2309  2091  1860  1611  1379  1203  1085  976  815  568  252  -66  -314  -470  -570  -647  -716  -778  -828  -868  -904  -939  -971  -997  -1007  -987  -927  -852  -809  -823  -858  -859  -800  -691  -572  -481  -435  -423  -439  -489  -574  -663  -720  -730  -710  -675  -616  -524  -426  -366  -358  -396  -464  -550  -605  -558  -427  -293  -198  -141  -114  -97  -78  -68  -102  -207  -355  -472  -522  -524  -510  -503  -511  -522  -507  -447  -361  -296  -274  -294  -344  -401  -435  -444  -445  -444  -439  -433  -435  -443  -449  -453  -454  -450  -434  -409  -386  -380  -408  -473  -537  -568  -578  -577  -552  -516  -489  -477  -489  -527  -576  -620  -651  -667  -669  -664  -645  -585  -457  -293  -172  -135  -165  -236  -318  -377  -404  -419  -443  -472  -493  -501  -504  -507  -503  -468  -386  -266  -150  -80  -59  -65  -81  -110  -127  -69  110  369  557  512  239  -73  -256  -299  -279  -262  -261  -266  -269  -280  -322  -405  -494  -531  -500  -446  -431  -485  -603  -768  -939  -1066  -1110  -1028  -801  -525  -290  -22  385  1013  1963  3180  4378  5191  5258  4359  2596  405  -1613  -2965  -3423  -3056  -2192  -1270  -622  -338  -299  -360  -455  -556  -602  -537  -393  -277  -233  -198  -100  41  147  163  109  36  -22  -29  66  257  454  599  707  801  868  908  971  1069  1165  1273  1460  1737  2018  2218  2332  2405  2483  2575  2659  2726  2778  2814  2833  2840  2838  2818  2765  2688  2608  2523  2400  2207  1921  1586  1297  1052  756  402  86  -121  -240  -339  -468  -613  -731  -797  -824  -846  -882  -934  -982  -1003  -999  -986  -974  -970  -973  -971  -954  -925  -890  -850  -793  -705  -625  -621  -687  -739  -737  -716  -705  -698  -670  -605  -516  -447  -423  -451  -532  -636  -703  -706  -668  -628  -602  -576  -534  -478  -417  -355  -315  -319  -366  -436  -486  -487  -466  -467  -501  -539  -561  -575  -598  -629  -655  -664  -662  -663  -661  -651  -644  -639  -610  -530  -416  -321  -279  -286  -339  -434  -547  -635  -664  -633  -578  -544  -551  -580  -608  -620  -608  -564  -492  -411  -333  -259  -197  -174  -228  -368  -523  -618  -653  -667  -691  -725  -742  -721  -687  -674  -687  -687  -619  -496  -377  -275  -151  -7  95  119  66  -35  -142  -223  -288  -348  -391  -405  -403  -398  -384  -320  -144  128  372  474  441  364  306  241  109  -93  -307  -475  -587  -646  -662  -638  -567  -469  -401  -431  -586  -803  -961  -995  -926  -796  -618  -357  -31  253  469  755  1251  2006  2990  4015  4727  4789  3999  2409  447  -1307  -2490  -2978  -2834  -2307  -1721  -1241  -851  -537  -337  -256  -249  -262  -247  -180  -87  -24  -16  -22  5  72  139  182  219  292  392  469  506  538  609  730  871  995  1089  1159  1220  1293  1387  1499  1633  1780  1921  2052  2193  2385  2639  2883  3038  3121  3189  3241  3227  3138  3029  2963  2945  2925  2819  2579  2260  1953  1671  1391  1143  947  731  435  89  -240  -491  -616  -635  -614  -598  -616  -679  -761  -816  -839  -878  -956  -1023  -1018  -978  -971  -993  -999  -965  -898  -822  -744  -671  -615  -581  -571  -586  -609  -626  -643  -663  -677  -684  -691  -698  -683  -615  -505  -406  -362  -394  -523  -712  -885  -1019  -1131  -1194  -1167  -1059  -928  -816  -718  -626  -562  -543  -553  -571  -586  -594  -598  -608  -626  -637  -629  -623  -638  -683  -755  -821  -850  -848  -834  -814  -780  -724  -653  -600  -585  -586  -574  -550  -535  -542  -576  -623  -657  -662  -643  -623  -639  -695  -748  -769  -769  -770  -778  -781  -740  -629  -498  -432  -445  -499  -575  -639  -657  -629  -583  -549  -534  -528  -527  -547  -599  -668  -719  -732  -712  -654  -521  -286  -9  187  262  257  219  173  140  132  145  172  204  221  180  48  -134  -282  -380  -484  -600  -674  -686  -671  -662  -654  -624  -565  -509  -492  -505  -519  -539  -603  -682  -616  -313  26  161  149  262  755  1782  3263  4702  5399  4956  3408  1137  -1151  -2723  -3193  -2695  -1804  -1150  -934  -897  -781  -606  -477  -421  -411  -413  -415  -423  -445  -465  -439  -321  -97  179  398  498  508  487  469  465  465  460  458  485  569  686  785  859  955  1082  1201  1318  1499  1754  2038  2349  2682  2948  3075  3093  3058  2995  2924  2875  2860  2870  2890  2895  2829  2635  2342  2058  1860  1732  1608  1444  1235  959  567  82  -365  -652  -769  -790  -785  -787  -803  -829  -850  -867  -894  -938  -966  -937  -845  -711  -589  -557  -626  -725  -799  -842  -874  -902  -912  -882  -801  -700  -633  -617  -633  -660  -687  -698  -650  -507  -310  -167  -136  -190  -276  -357  -430  -515  -601  -627  -555  -452  -396  -390  -400  -406  -406  -401  -400  -414  -456  -513  -559  -595  -644  -701  -723  -685  -639  -671  -806  -939  -919  -742  -551  -443  -403  -385  -368  -354  -363  -420  -511  -584  -617  -623  -623  -622  -619  -617  -623  -647  -692  -727  -711  -648  -583  -537  -503  -469  -430  -387  -351  -304  -222  -123  -58  -50  -73  -83  -68  -55  -42  12  96  152  148  70  -42  -124  -175  -244  -340  -420  -465  -489  -498  -489  -471  -458  -446  -433  -438  -500  -633  -783  -878  -905  -899  -888  -870  -819  -738  -661  -497  -75  598  1449  2444  3435  4203  4522  4122  2886  1027  -927  -2335  -2829  -2567  -1993  -1496  -1230  -1101  -950  -741  -535  -395  -329  -322  -362  -427  -489  -502  -405  -190  48  202  263  284  281  252  235  279  385  509  612  676  711  745  790  854  957  1103  1262  1430  1644  1898  2113  2232  2289  2373  2541  2762  2953  3075  3144  3169  3139  3043  2891  2730  2609  2513  2378  2199  2023  1818  1481  1046  679  451  286  99  -135  -377  -562  -660  -689  -696  -722  -787  -887  -999  -1091  -1133  -1108  -1003  -847  -711  -638  -614  -616  -664  -790  -956  -1063  -1068  -1016  -971  -941  -897  -821  -733  -659  -619  -611  -617  -623  -618  -595  -558  -525  -511  -519  -542  -571  -602  -632  -652  -657  -648  -635  -639  -668  -702  -711  -687  -637  -586  -553  -542  -544  -546  -536  -518  -517  -543  -567  -570  -557  -537  -515  -491  -465  -447  -458  -510  -596  -679  -735  -755  -727  -626  -466  -317  -236  -214  -211  -173  -71  45  104  105  89  77  60  41  67  185  300  226  -20  -257  -415  -543  -652  -717  -740  -738  -700  -604  -472  -369  -326  -327  -357  -420  -504  -576  -598  -552  -458  -378  -310  -146  203  749  1518  2513  3549  4349  4683  4332  3211  1541  -239  -1685  -2498  -2638  -2317  -1836  -1368  -974  -708  -558  -434  -326  -296  -310  -272  -168  -33  106  208  250  252  238  221  216  229  263  325  399  459  511  584  698  842  987  1100  1166  1212  1283  1405  1558  1699  1802  1888  2005  2162  2319  2435  2523  2605  2669  2705  2726  2744  2772  2817  2852  2819  2669  2398  2072  1768  1514  1310  1109  813  385  -89  -497  -770  -913  -966  -963  -935  -907  -893  -899  -951  -1071  -1227  -1336  -1339  -1238  -1095  -984  -940  -962  -1070  -1260  -1441  -1506  -1447  -1342  -1261  -1217  -1194  -1191  -1207  -1204  -1196  -1225  -1262  -1268  -1246  -1206  -1143  -1053  -950  -878  -858  -879  -916  -957  -991  -1007  -1006  -1000  -1019  -1083  -1181  -1284  -1386  -1481  -1521  -1438  -1239  -1030  -919  -910  -945  -975  -990  -992  -972  -913  -827  -748  -703  -693  -706  -722  -729  -731  -737  -752  -758  -708  -562  -362  -218  -225  -417  -744  -1049  -1179  -1114  -964  -849  -808  -812  -838  -884  -939  -979  -1001  -1031  -1080  -1132  -1160  -1153  -1114  -1039  -937  -833  -717  -552  -277  236  1091  2224  3437  4409  4723  4133  2748  897  -922  -2165  -2645  -2575  -2220  -1792  -1445  -1206  -1026  -865  -704  -552  -435  -376  -357  -341  -318  -294  -256  -176  -50  80  162  169  130  96  94  124  173  230  295  386  528  724  943  1137  1251  1271  1261  1340  1602  1982  2294  2442  2491  2563  2729  2947  3109  3170  3173  3161  3146  3115  3056  2959  2788  2502  2135  1806  1579  1397  1201  1006  828  611  346  118  -29  -157  -312  -461  -568  -616  -621  -621  -625  -610  -572  -517  -460  -421  -406  -414  -435  -453  -458  -453  -446  -443  -441  -435  -419  -398  -392  -424  -484  -537  -553  -530  -477  -422  -369  -302  -240  -237  -310  -395  -417  -407  -431  -465  -474  -476  -488  -496  -498  -504  -523  -547  -557  -547  -520  -473  -420  -381  -362  -346  -326  -312  -309  -309  -303  -284  -251  -200  -141  -106  -118  -155  -178  -170  -136  -92  -53  -10  61  174  299  390  427  402  273  24  -258  -441  -494  -480  -456  -451  -476  -531  -605  -684  -741  -744  -689  -602  -493  -379  -308  -328  -477  -684  -713  -454  -110  180  580  1277  2326  3666  4984  5688  5325  3987  2165  374  -984  -1722  -1992  -2061  -1997  -1743  -1343  -931  -573  -271  -43  81  106  110  156  209  186  70  -48  -58  37  136  182  189  185  186  200  240  316  432  581  749  917  1071  1195  1297  1413  1553  1669  1723  1727  1712  1692  1680  1720  1857  2078  2320  2527  2657  2689  2656  2600  2538  2487  2450  2378  2204  1907  1535  1167  881  695  511  207  -187  -506  -660  -700  -707  -712  -731  -792  -918  -1096  -1265  -1346  -1311  -1215  -1133  -1093  -1081  -1077  -1074  -1091  -1155  -1267  -1378  -1412  -1345  -1226  -1100  -966  -846  -787  -787  -796  -780  -755  -760  -815  -878  -859  -739  -614  -564  -578  -611  -631  -637  -642  -664  -715  -801  -903  -969  -968  -916  -842  -770  -714  -665  -617  -595  -615  -658  -696  -726  -760  -796  -833  -878  -920  -928  -886  -813  -768  -791  -847  -891  -921  -944  -956  -954  -945  -937  -928  -922  -918  -911  -895  -872  -845  -810  -767  -727  -701  -687  -680  -682  -707  -761  -807  -786  -691  -574  -469  -369  -279  -221  -190  -155  -83  31  158  252  302  314  280  205  104  -23  -167  -279  -341  -379  -403  -406  -389  -358  -320  -285  -255  -242  -263  -309  -363  -407  -426  -421  -419  -475  -579  -576  -344  27  463  1036  1818  2806  3877  4758  5156  4836  3716  2005  157  -1356  -2197  -2263  -1816  -1279  -892  -700  -656  -671  -681  -668  -620  -523  -379  -205  -43  56  87  99  127  165  194  216  248  292  336  385  448  530  633  736  805  842  880  938  989  999  1003  1137  1517  2030  2407  2551  2582  2625  2698  2776  2865  2994  3152  3286  3341  3270  3054  2754  2496  2355  2300  2268  2228  2152  1997  1757  1433  1010  554  216  48  -21  -78  -166  -282  -393  -500  -616  -706  -733  -713  -688  -670  -644  -594  -530  -476  -436  -394  -356  -330  -317  -328  -370  -423  -464  -485  -485  -444  -341  -205  -105  -73  -89  -136  -212  -301  -354  -343  -303  -283  -295  -329  -359  -370  -369  -375  -395  -427  -465  -499  -521  -530  -544  -569  -585  -571  -535  -492  -452  -419  -391  -370  -385  -447  -517  -558  -570  -564  -560  -566  -547  -491  -439  -424  -432  -444  -446  -436  -421  -407  -400  -401  -405  -415  -455  -520  -585  -659  -774  -911  -994  -995  -960  -919  -861  -796  -742  -692  -642  -599  -559  -511  -462  -429  -425  -457  -506  -549  -570  -575  -581  -598  -604  -577  -532  -503  -503  -519  -536  -549  -559  -562  -561  -550  -504  -395  -239  -95  -17  -25  -87  -132  -123  -85  -56  -48  -58  -118  -267  -473  -640  -731  -788  -851  -918  -959  -958  -921  -870  -829  -798  -765  -720  -675  -667  -703  -738  -716  -566  -211  317  947  1685  2557  3503  4298  4608  4191  3015  1256  -653  -2109  -2767  -2759  -2338  -1700  -1138  -863  -774  -693  -587  -504  -456  -429  -412  -408  -417  -423  -385  -268  -109  6  45  39  25  18  19  37  77  125  169  231  347  508  662  777  873  1006  1198  1399  1547  1657  1780  1916  2031  2147  2328  2556  2739  2830  2863  2882  2904  2920  2888  2778  2609  2438  2310  2227  2123  1893  1517  1116  820  627  470  323  165  -46  -298  -509  -633  -693  -745  -831  -918  -946  -917  -882  -870  -868  -847  -787  -708  -653  -643  -667  -701  -725  -731  -723  -708  -694  -679  -660  -652  -664  -670  -648  -621  -616  -625  -611  -546  -451  -379  -356  -360  -370  -380  -383  -361  -294  -201  -132  -114  -139  -190  -249  -299  -321  -281  -148  39  171  137  -90  -406  -636  -712  -691  -636  -580  -544  -533  -538  -549  -561  -571  -573  -542  -456  -342  -258  -225  -212  -193  -182  -223  -345  -511  -642  -700  -710  -710  -710  -688  -618  -514  -418  -351  -297  -231  -152  -103  -132  -242  -390  -520  -604  -645  -655  -643  -611  -559  -503  -477  -495  -534  -569  -598  -630  -658  -644  -522  -270  12  188  231  230  273  375  487  561  581  532  392  195  18  -112  -221  -311  -365  -384  -389  -392  -400  -412  -420  -402  -351  -304  -317  -400  -503  -585  -642  -684  -699  -641  -474  -246  -67  40  204  536  1046  1753  2673  3699  4568  4926  4488  3172  1199  -852  -2319  -2906  -2755  -2207  -1613  -1171  -876  -656  -477  -357  -312  -330  -394  -494  -604  -651  -547  -275  48  265  322  255  105  -76  -208  -212  -77  147  385  585  728  802  823  832  878  1001  1190  1386  1562  1751  1971  2167  2281  2340  2425  2558  2695  2813  2923  3032  3123  3160  3135  3089  3041  2949  2769  2517  2228  1919  1626  1396  1224  1034  794  545  302  17  -288  -514  -621  -660  -683  -702  -714  -719  -723  -730  -743  -767  -802  -835  -851  -845  -825  -797  -764  -742  -740  -752  -771  -781  -771  -749  -734  -725  -715  -694  -667  -663  -697  -731  -730  -693  -632  -565  -511  -466  -413  -360  -347  -407  -515  -575  -544  -492  -479  -474  -436  -391  -416  -521  -629  -687  -705  -701  -666  -595  -525  -504  -530  -574  -619  -653  -664  -634  -547  -430  -341  -310  -328  -381  -451  -511  -569  -659  -778  -866  -870  -784  -656  -562  -528  -526  -528  -519  -501  -483  -479  -490  -510  -534  -553  -561  -562  -562  -558  -534  -480  -419  -392  -404  -454  -560  -717  -888  -1036  -1121  -1113  -1008  -841  -676  -546  -445  -367  -302  -231  -149  -66  1  37  37  10  -17  -27  -25  -29  -36  -46  -82  -164  -271  -362  -445  -594  -859  -1168  -1370  -1374  -1192  -919  -676  -530  -479  -499  -551  -593  -607  -615  -673  -779  -803  -626  -250  377  1325  2499  3718  4724  5191  4920  3899  2248  290  -1437  -2489  -2791  -2537  -2015  -1522  -1198  -972  -758  -572  -457  -415  -418  -438  -452  -439  -374  -264  -152  -72  -22  17  48  62  55  47  82  197  353  464  500  513  567  672  798  921  1042  1171  1330  1546  1796  2016  2182  2339  2542  2777  2974  3075  3092  3069  3032  2990  2955  2945  2965  2984  2964  2898  2783  2580  2287  1959  1637  1342  1110  945  778  524  202  -65  -209  -303  -453  -671  -881  -1021  -1099  -1147  -1171  -1171  -1149  -1119  -1086  -1032  -942  -838  -753  -699  -672  -665  -672  -690  -709  -718  -713  -696  -692  -706  -685  -615  -551  -529  -534  -544  -554  -566  -585  -614  -655  -689  -683  -637  -595  -591  -634  -703  -758  -761  -674  -483  -237  -35  39  -23  -168  -318  -435  -512  -538  -509  -458  -415  -396  -412  -462  -519  -549  -538  -489  -408  -314  -248  -240  -291  -380  -477  -561  -626  -662  -662  -614  -515  -381  -248  -155  -139  -236  -433  -640  -769  -802  -756  -631  -457  -309  -237  -238  -288  -370  -464  -531  -560  -571  -578  -580  -564  -516  -452  -408  -393  -377  -323  -223  -117  -52  -34  -32  -33  -37  -49  -53  -11  110  282  423  479  416  188  -179  -533  -719  -727  -648  -576  -560  -605  -694  -792  -871  -935  -994  -1021  -971  -844  -687  -550  -430  -302  -181  -93  19  316  977  2031  3243  4257  4778  4624  3749  2247  396  -1324  -2447  -2809  -2580  -2075  -1565  -1179  -926  -795  -763  -775  -762  -664  -455  -201  -24  30  17  -10  -43  -82  -104  -75  10  133  270  410  538  631  685  717  756  831  944  1071  1188  1287  1366  1419  1455  1496  1556  1679  1939  2314  2649  2832  2907  2985  3124  3284  3390  3406  3338  3213  3068  2942  2845  2725  2494  2142  1776  1496  1287  1051  742  414  131  -96  -264  -361  -397  -412  -462  -565  -675  -745  -792  -838  -893  -951  -972  -940  -900  -889  -894  -896  -888  -875  -860  -844  -839  -870  -937  -1000  -1021  -1012  -1003  -986  -934  -854  -779  -724  -685  -659  -658  -680  -688  -628  -501  -391  -376  -469  -603  -684  -688  -662  -650  -656  -656  -623  -563  -535  -588  -693  -784  -828  -832  -822  -817  -813  -795  -750  -687  -632  -597  -590  -620  -696  -809  -905  -906  -799  -641  -502  -428  -436  -521  -645  -759  -835  -843  -767  -648  -555  -516  -517  -523  -505  -460  -401  -346  -310  -290  -260  -201  -116  -23  55  113  143  104  -38  -249  -424  -500  -503  -504  -559  -661  -745  -761  -729  -687  -657  -648  -647  -639  -633  -668  -785  -962  -1116  -1157  -1017  -669  -145  521  1299  2168  3135  4130  4834  4817  3895  2245  263  -1485  -2504  -2735  -2410  -1787  -1152  -737  -562  -505  -451  -354  -224  -108  -47  -36  -42  -38  -17  17  52  71  77  82  76  52  58  149  291  396  441  481  578  743  930  1066  1123  1150  1217  1346  1491  1595  1671  1768  1900  2069  2286  2558  2850  3082  3196  3214  3192  3159  3105  3003  2842  2659  2519  2434  2349  2186  1878  1437  973  599  330  125  -49  -201  -336  -484  -638  -743  -773  -761  -754  -774  -824  -908  -1011  -1079  -1064  -976  -864  -783  -753  -772  -843  -959  -1075  -1141  -1145  -1098  -1022  -942  -874  -814  -764  -732  -724  -727  -735  -759  -800  -842  -852  -781  -624  -449  -337  -335  -435  -593  -752  -861  -903  -892  -844  -772  -686  -606  -595  -698  -856  -960  -974  -938  -908  -904  -905  -894  -887  -894  -901  -870  -775  -644  -543  -499  -503  -561  -682  -798  -805  -705  -604  -559  -534  -478  -397  -333  -300  -267  -215  -156  -121  -140  -207  -288  -362  -423  -456  -454  -426  -410  -457  -591  -762  -870  -875  -823  -778  -762  -762  -767  -776  -789  -796  -766  -710  -690  -664  -439  124  1051  2229  3392  4297  4707  4397  3405  1949  258  -1313  -2421  -2941  -2880  -2339  -1589  -995  -748  -736  -763  -755  -721  -671  -598  -508  -413  -289  -128  16  91  102  91  87  103  139  194  263  330  392  452  487  496  549  678  831  973  1115  1268  1411  1507  1576  1710  1965  2278  2548  2757  2925  3038  3096  3136  3180  3220  3241  3212  3094  2898  2688  2507  2362  2258  2185  2099  1930  1613  1146  632  225  8  -58  -86  -158  -273  -369  -418  -442  -458  -470  -483  -502  -525  -547  -570  -592  -610  -627  -644  -658  -671  -687  -704  -715  -715  -708  -706  -715  -731  -740  -731  -709  -683  -658  -644  -645  -657  -667  -666  -655  -639  -626  -624  -629  -635  -640  -643  -629  -586  -521  -465  -439  -455  -529  -651  -772  -848  -879  -887  -887  -888  -889  -877  -842  -793  -764  -776  -815  -831  -798  -748  -720  -707  -677  -592  -450  -303  -212  -180  -180  -186  -183  -181  -212  -293  -406  -510  -575  -604  -631  -700  -836  -995  -1086  -1079  -1032  -1008  -988  -918  -816  -747  -732  -745  -756  -764  -798  -885  -971  -916  -729  -633  -674  -561  -3  1072  2493  3889  4831  4989  4278  2863  1043  -727  -1970  -2526  -2559  -2287  -1916  -1648  -1560  -1568  -1521  -1314  -994  -720  -589  -552  -521  -461  -387  -309  -243  -186  -127  -85  -81  -97  -109  -115  -117  -107  -70  1  124  314  524  660  698  715  790  945  1155  1387  1609  1797  1967  2157  2366  2547  2659  2707  2728  2737  2734  2711  2671  2629  2586  2510  2370  2182  1998  1861  1747  1540  1170  735  376  106  -128  -324  -455  -537  -594  -627  -638  -644  -647  -631  -590  -555  -556  -588  -650  -744  -845  -914  -942  -944  -935  -927  -918  -879  -773  -619  -489  -426  -418  -442  -491  -548  -578  -565  -529  -498  -487  -496  -522  -554  -577  -587  -592  -593  -570  -505  -423  -389  -441  -535  -593  -596  -604  -650  -691  -673  -606  -544  -520  -519  -518  -528  -571  -650  -741  -797  -793  -738  -644  -530  -432  -359  -302  -272  -287  -339  -401  -452  -494  -535  -566  -578  -572  -539  -456  -319  -173  -62  23  102  149  144  96  37  -2  -14  -9  -9  -37  -118  -268  -453  -597  -662  -680  -687  -688  -686  -699  -741  -787  -798  -753  -667  -587  -537  -511  -487  -425  -281  -36  350  1010  1998  3153  4224  4895  4803  3801  2079  106  -1516  -2391  -2517  -2160  -1637  -1199  -971  -904  -872  -801  -686  -570  -494  -458  -441  -430  -416  -396  -357  -270  -142  -22  43  61  58  56  70  114  187  268  330  372  428  533  706  930  1156  1337  1467  1558  1627  1701  1785  1853  1912  2035  2283  2594  2819  2887  2845  2770  2704  2645  2587  2535  2484  2416  2317  2176  1962  1631  1217  835  545  322  132  -26  -137  -213  -293  -404  -529  -627  -702  -802  -944  -1096  -1203  -1199  -1106  -1021  -985  -959  -918  -902  -952  -1037  -1100  -1124  -1122  -1108  -1082  -1040  -984  -919  -855  -807  -782  -776  -773  -766  -735  -663  -570  -502  -483  -496  -519  -553  -615  -702  -792  -860  -884  -857  -810  -773  -747  -726  -697  -644  -579  -545  -580  -689  -820  -900  -896  -824  -685  -473  -266  -208  -314  -443  -498  -499  -509  -552  -600  -607  -582  -565  -555  -535  -515  -514  -529  -545  -549  -550  -551  -548  -540  -526  -493  -429  -340  -231  -81  90  213  247  215  156  105  87  97  105  93  72  74  109  118  36  -133  -349  -550  -668  -683  -642  -604  -586  -562  -504  -409  -298  -210  -184  -266  -478  -700  -705  -413  18  389  667  1072  1902  3189  4539  5360  5233  4159  2537  885  -471  -1447  -2020  -2219  -2134  -1742  -1113  -572  -332  -303  -321  -305  -259  -225  -219  -229  -231  -216  -180  -119  -26  96  221  313  382  459  534  579  590  591  601  619  637  686  819  1032  1243  1392  1494  1602  1758  1953  2113  2180  2192  2269  2507  2839  3083  3153  3106  3028  2966  2921  2876  2823  2762  2676  2531  2313  2057  1815  1593  1359  1075  758  474  239  27  -167  -331  -456  -547  -610  -641  -647  -650  -663  -685  -702  -708  -706  -701  -693  -687  -680  -644  -550  -434  -379  -415  -471  -476  -443  -418  -410  -397  -373  -373  -448  -591  -717  -734  -619  -443  -315  -272  -279  -297  -314  -333  -352  -365  -370  -370  -364  -347  -315  -269  -219  -178  -165  -204  -295  -390  -434  -426  -400  -373  -350  -336  -336  -351  -387  -450  -527  -583  -605  -606  -600  -579  -537  -495  -486  -525  -595  -651  -663  -647  -627  -601  -549  -473  -403  -359  -346  -354  -368  -374  -371  -360  -347  -334  -316  -289  -266  -290  -413  -636  -884  -1073  -1166  -1185  -1187  -1212  -1258  -1294  -1289  -1233  -1151  -1091  -1101  -1199  -1354  -1475  -1441  -1138  -595]
