reading_id,reading_time,wire_id,result_classification,heart_rate,heart_rate_alert,firmware_version,device_app_version,hardware_version,waveform_samples
8ab68c90-580a-11ed-8080-808080808080,Sun Oct 30 04:23:01 UTC 2022,2101e3b12739,NSR,75,NONE,20001.171.50,2.10.0,Charge 5,[0  -266  -455  -540  -519  -404  -243  -107  -49  -72  -145  -226  -283  -314  -332  -345  -357  -371  -382  -387  -400  -439  -514  -591  -606  -546  -466  -407  -367  -340  -329  -350  -421  -530  -631  -695  -718  -687  -590  -469  -422  -540  -827  -1159  -1358  -1282  -878  -296  157  323  294  239  221  200  143  72  0  -129  -374  -676  -896  -978  -955  -863  -733  -604  -507  -457  -459  -499  -553  -594  -615  -630  -658  -725  -836  -956  -1037  -1093  -1191  -1372  -1563  -1484  -733  912  3364  6218  8719  10042  9796  8130  5538  2731  410  -1035  -1588  -1418  -817  -257  -116  -338  -618  -808  -954  -1086  -1145  -1115  -1059  -1022  -990  -910  -740  -513  -319  -205  -159  -150  -152  -148  -127  -88  -44  -13  7  67  223  436  600  695  790  908  993  1031  1077  1186  1356  1531  1660  1745  1833  1966  2173  2439  2698  2876  2931  2865  2717  2547  2384  2195  1947  1648  1319  993  740  603  537  450  297  118  -42  -229  -520  -885  -1180  -1320  -1351  -1355  -1367  -1381  -1385  -1376  -1331  -1234  -1103  -974  -860  -747  -638  -570  -571  -636  -726  -798  -838  -855  -862  -863  -854  -832  -799  -770  -761  -764  -748  -690  -601  -511  -442  -413  -464  -618  -798  -836  -632  -284  2  117  22  -336  -901  -1431  -1696  -1622  -1239  -726  -352  -224  -248  -299  -332  -354  -377  -394  -404  -418  -429  -430  -424  -404  -357  -303  -273  -273  -304  -356  -409  -447  -465  -467  -462  -458  -466  -492  -537  -603  -700  -807  -865  -842  -747  -600  -410  -215  -80  -42  -86  -188  -314  -419  -466  -423  -262  -14  224  393  475  446  320  179  102  94  118  115  17  -204  -465  -638  -687  -670  -644  -642  -688  -792  -910  -963  -905  -771  -644  -582  -575  -587  -589  -566  -536  -590  -817  -1149  -1349  -1051  123  2263  5025  7721  9523  9896  8832  6699  4140  1874  261  -735  -1235  -1376  -1376  -1391  -1398  -1312  -1096  -803  -538  -370  -294  -277  -286  -320  -398  -517  -644  -749  -820  -844  -796  -627  -337  -15  222  336  365  368  379  414  482  569  636  668  681  691  706  736  801  905  1022  1151  1324  1551  1778  1946  2062  2168  2272  2366  2461  2567  2644  2629  2515  2380  2283  2172  1914  1455  934  529  268  85  -42  -123  -200  -316  -480  -669  -855  -1035  -1205  -1342  -1430  -1472  -1484  -1485  -1483  -1449  -1341  -1173  -1034  -985  -993  -995  -988  -994  -1009  -1014  -1007  -1010  -1056  -1153  -1270  -1346  -1335  -1223  -1055  -903  -804  -756  -742  -731  -697  -663  -701  -842  -1011  -1085  -1016  -875  -766  -721  -702  -684  -690  -757  -879  -996  -1040  -1004  -951  -936  -947  -931  -876  -820  -799  -802  -811  -814  -807  -788  -762  -739  -715  -681  -634  -583  -547  -543  -592  -709  -859  -979  -1028  -1018  -962  -858  -729  -638  -623  -656  -663  -590  -469  -366  -280  -164  -17  108  183  213  177  8  -305  -639  -855  -943  -970  -970  -950  -927  -914  -902  -882  -851  -816  -791  -788  -829  -929  -1064  -1178  -1227  -1184  -1075  -1039  -1190  -1448  -1565  -1207  -120  1647  3836  6088  7855  8530  7849  5970  3397  909  -839  -1671  -1799  -1605  -1413  -1312  -1233  -1143  -1081  -1063  -1061  -1049  -1016  -952  -834  -680  -536  -400  -250  -114  -30  2  9  15  43  89  127  134  143  213  360  525  623  651  699  806  914  982  1036  1130  1288  1475  1625  1710  1744  1763  1842  2056  2353  2587  2703  2755  2784  2805  2825  2837  2800  2675  2482  2275  2055  1766  1365  901  503  235  39  -143  -305  -437  -568  -748  -965  -1149  -1254  -1279  -1256  -1243  -1238  -1197  -1144  -1126  -1126  -1087  -988  -901  -906  -974  -1028  -1046  -1037  -1013  -974  -930  -899  -883  -862  -827  -803  -816  -848  -871  -882  -887  -877  -823  -698  -519  -359  -278  -290  -375  -484  -560  -584  -579  -568  -562  -568  -596  -641  -686  -710  -710  -699  -700  -734  -817  -927  -1003  -979  -831  -618  -440  -340  -298  -316  -447  -726  -1073  -1327  -1401  -1327  -1157  -925  -699  -546  -452  -382  -336  -318  -305  -270  -187  -49  99  200  241  240  180  23  -184  -340  -413  -450  -465  -421  -332  -283  -328  -432  -520  -573  -625  -695  -767  -819  -834  -804  -737  -662  -605  -580  -624  -796  -1107  -1458  -1630  -1317  -304  1402  3630  6043  8093  9187  8945  7328  4670  1698  -711  -2002  -2228  -1822  -1219  -738  -545  -566  -632  -662  -658  -653  -665  -679  -669  -620  -546  -472  -402  -334  -275  -207  -106  3  71  75  38  -9  -60  -107  -95  43  283  506  647  741  833  939  1076  1260  1452  1587  1661  1731  1843  1993  2138  2218  2221  2194  2206  2298  2435  2539  2578  2579  2563  2514  2418  2287  2141  1974  1733  1375  936  471  0  -434  -764  -976  -1115  -1216  -1280  -1311  -1329  -1336  -1318  -1279  -1234  -1198  -1162  -1119  -1077  -1039  -995  -950  -937  -988  -1096  -1212  -1293  -1327  -1323  -1279  -1195  -1099  -1032  -1008  -1011  -1016  -1013  -1001  -985  -963  -939  -915  -890  -854  -796  -730  -686  -672  -672  -670  -669  -693  -767  -866  -924  -913  -868  -821  -770  -725  -707  -707  -704  -678  -634  -590  -555  -533  -537  -592  -715  -867  -983  -1030  -1028  -1011  -995  -982  -964  -944  -935  -938  -941  -913  -818  -673  -573  -549  -476  -296  -121  -44  -44  -62  -50  9  88  144  171  174  126  -6  -196  -360  -472  -589  -780  -1020  -1205  -1276  -1254  -1163  -1017  -861  -755  -716  -711  -708  -723  -821  -1007  -1139  -1116  -1034  -935  -582  383  2192  4679  7164  8760  8896  7582  5284  2718  629  -599  -1080  -1138  -1043  -882  -665  -474  -381  -360  -363  -379  -416  -467  -507  -523  -525  -530  -546  -552  -505  -400  -284  -156  38  278  463  553  596  649  727  805  857  880  894  928  990  1080  1208  1349  1453  1513  1574  1675  1823  2011  2214  2403  2590  2793  2969  3068  3088  3047  2951  2836  2769  2773  2777  2645  2291  1812  1385  1058  761  459  167  -88  -290  -427  -502  -528  -521  -513  -550  -677  -867  -1032  -1118  -1157  -1229  -1384  -1575  -1694  -1715  -1697  -1685  -1674  -1647  -1592  -1506  -1390  -1267  -1183  -1155  -1160  -1169  -1163  -1135  -1095  -1063  -1045  -1031  -1021  -1024  -1056  -1126  -1229  -1341  -1409  -1371  -1198  -959  -786  -742  -795  -887  -972  -1029  -1059  -1077  -1093  -1106  -1111  -1117  -1119  -1106  -1055  -947  -808  -706  -667  -664  -670  -682  -696  -718  -781  -921  -1108  -1239  -1225  -1055  -817  -635  -556  -561  -647  -789  -886  -854  -719  -576  -483  -429  -385  -353  -341  -344  -363  -399  -440  -461  -424  -275  -5  285  466  496  410  258  92  -53  -166  -252  -335  -444  -572  -667  -676  -607  -502  -374  -235  -134  -114  -181  -301  -409  -461  -483  -529  -616  -747  -954  -1257  -1601  -1806  -1546  -539  1250  3675  6424  8851  10139  9864  8144  5497  2787  757  -448  -1034  -1197  -1115  -969  -904  -930  -961  -957  -935  -908  -887  -880  -890  -898  -842  -643  -317  -8  160  193  156  95  34  -3  -19  -27  -28  9  126  301  454  525  525  504  527  657  891  1136  1315  1448  1602  1799  2008  2206  2388  2536  2625  2676  2747  2836  2877  2837  2772  2751  2752  2656  2383  2027  1777  1683  1610  1412  1075  694  358  77  -196  -480  -708  -816  -831  -821  -834  -865  -888  -936  -1068  -1240  -1357  -1384  -1338  -1249  -1141  -1044  -989  -998  -1069  -1166  -1237  -1265  -1270  -1258  -1201  -1083  -934  -818  -768  -762  -767  -776  -800  -853  -915  -929  -837  -655  -468  -354  -323  -359  -468  -631  -779  -855  -870  -863  -855  -841  -812  -772  -738  -718  -709  -713  -747  -815  -874  -897  -928  -995  -1059  -1086  -1092  -1101  -1109  -1063  -903  -658  -443  -337  -357  -512  -781  -1057  -1215  -1199  -1025  -779  -585  -499  -483  -490  -504  -527  -559  -591  -612  -617  -613  -607  -611  -640  -701  -756  -709  -485  -149  120  235  241  212  183  159  134  108  83  49  7  -17  -25  -62  -146  -258  -404  -600  -823  -1005  -1106  -1137  -1115  -1045  -930  -779  -617  -496  -454  -477  -548  -724  -1056  -1470  -1786  -1828  -1483  -695  574  2315  4428  6695  8602  9464  8930  7127  4589  2131  362  -622  -1054  -1217  -1272  -1218  -1027  -793  -646  -606  -617  -636  -653  -671  -682  -655  -553  -391  -237  -143  -101  -70  -12  70  137  162  153  135  127  129  136  154  212  344  533  715  842  907  962  1095  1356  1717  2084  2346  2455  2460  2435  2414  2405  2421  2476  2567  2680  2814  2950  3022  2972  2793  2506  2157  1834  1594  1400  1175  913  641  333  1  -248  -354  -362  -362  -439  -627  -911  -1225  -1466  -1549  -1468  -1322  -1219  -1164  -1092  -986  -875  -775  -681  -602  -572  -659  -911  -1249  -1500  -1587  -1556  -1450  -1296  -1138  -1016  -933  -869  -804  -739  -692  -668  -660  -662  -664  -654  -633  -618  -628  -670  -743  -835  -920  -984  -1043  -1106  -1148  -1152  -1136  -1128  -1128  -1107  -1034  -925  -833  -787  -777  -785  -796  -798  -797  -824  -889  -950  -973  -968  -958  -955  -955  -951  -934  -910  -885  -858  -826  -785  -725  -656  -605  -572  -530  -472  -411  -346  -269  -182  -106  -77  -121  -220  -317  -367  -393  -452  -569  -705  -812  -889  -957  -1018  -1061  -1088  -1106  -1104  -1046  -905  -699  -502  -397  -419  -549  -736  -914  -1038  -1102  -1164  -1268  -1292  -1000  -160  1401  3603  5932  7644  8123  7193  5198  2805  691  -744  -1494  -1744  -1702  -1554  -1379  -1154  -905  -726  -624  -517  -379  -266  -214  -209  -255  -369  -521  -636  -679  -675  -649  -594  -493  -323  -72  202  389  453  449  438  456  525  640  767  876  973  1085  1228  1377  1505  1613  1729  1862  1986  2074  2152  2281  2478  2687  2854  2962  3018  3037  3036  3006  2934  2837  2747  2662  2519  2199  1645  989  464  175  72  54  48  8  -100  -298  -561  -838  -1068  -1225  -1347  -1469  -1561  -1568  -1476  -1335  -1221  -1158  -1121  -1086  -1047  -1010  -983  -962  -952  -955  -965  -976  -988  -998  -1005  -1004  -979  -915  -813  -708  -642  -635  -679  -750  -822  -875  -901  -904  -897  -894  -909  -952  -1012  -1060  -1073  -1043  -973  -878  -785  -713  -671  -651  -648  -666  -705  -752  -775  -759  -725  -692  -646  -588  -553  -591  -717  -848  -862  -746  -580  -404  -234  -120  -96  -152  -253  -353  -415  -436  -439  -438  -436  -433  -432  -442  -480  -563  -688  -792  -793  -694  -582  -515  -498  -543  -684  -908  -1130  -1282  -1355  -1373  -1355  -1318  -1274  -1194  -1036  -770  -260  729  2313  4300  6246  7592  7843  6801  4752  2377  367  -918  -1513  -1653  -1570  -1453  -1370  -1245  -1059  -883  -732  -603  -525  -509  -535  -583  -631  -657  -641  -578  -495  -439  -429  -434  -402  -293  -104  110  301  470  628  744  803  828  845  858  863  869  901  988  1138  1320  1500  1649  1760  1875  2061  2345  2660  2896  3007  3050  3095  3143  3142  3053  2887  2690  2490  2274  2015  1731  1466  1225  960  619  242  -52  -203  -283  -396  -557  -708  -841  -985  -1135  -1272  -1400  -1511  -1558  -1508  -1382  -1230  -1105  -1032  -997  -959  -905  -858  -841  -849  -872  -897  -919  -949  -1007  -1094  -1173  -1171  -1053  -891  -796  -787  -813  -836  -844  -827  -776  -705  -650  -639  -687  -808  -967  -1077  -1058  -892  -660  -492  -458  -533  -658  -774  -856  -897  -890  -847  -801  -770  -750  -727  -691  -652  -623  -590  -536  -481  -457  -454  -429  -354  -256  -193  -194  -249  -322  -373  -391  -394  -402  -438  -535  -704  -885  -1002  -1036  -1007  -930  -825  -731  -670  -646  -651  -683  -755  -848  -896  -875  -818  -779  -823  -968  -1146  -1296  -1441  -1565  -1465  -871  356  2166  4314  6371  7852  8369  7734  6039  3702  1363  -447  -1490  -1770  -1544  -1201  -948  -780  -698  -712  -780  -850  -893  -906  -908  -891  -816  -665  -496  -386  -354  -370  -410  -456  -476  -430  -296  -116  40  158  261  350  424  502  592  664  699  712  727  785  942  1197  1464  1669  1822  1968  2128  2304  2475  2591  2632  2637  2669  2747  2806  2747  2556  2326  2151  2060  2003  1886  1664  1399  1137  805  339  -142  -459  -597  -674  -765  -861  -938  -986  -1015  -1042  -1073  -1096  -1098  -1082  -1060  -1044  -1038  -1038  -1039  -1043  -1055  -1072  -1086  -1089  -1076  -1049  -1026  -1018  -1016  -1010  -999  -972  -914  -830  -746  -680  -631  -613  -656  -741  -808  -829  -824  -819  -816  -794  -734  -660  -649  -765  -973  -1161  -1255  -1253  -1167  -1013  -855  -763  -726  -679  -603  -558  -600  -718  -862  -987  -1065  -1086  -1040  -911  -742  -619  -578  -584  -604  -626  -638  -619  -569  -512  -469  -444  -408  -324  -200  -77  18  86  131  157  160  132  66  -42  -170  -282  -367  -431  -475  -501  -518  -532  -550  -565  -569  -555  -519  -471  -441  -474  -603  -791  -956  -1061  -1126  -1175  -1212  -1241  -1277  -1330  -1297  -921  16  1542  3521  5671  7520  8544  8443  7194  5089  2779  892  -340  -1022  -1348  -1438  -1355  -1189  -1044  -960  -901  -841  -810  -829  -860  -851  -806  -757  -698  -604  -485  -385  -318  -276  -265  -284  -304  -289  -222  -111  15  120  193  266  382  538  672  741  768  790  831  915  1046  1192  1332  1485  1683  1916  2117  2248  2342  2456  2618  2796  2913  2903  2751  2524  2331  2217  2103  1889  1578  1268  1025  838  670  474  208  -80  -297  -416  -507  -641  -818  -983  -1106  -1211  -1311  -1389  -1447  -1494  -1525  -1538  -1543  -1533  -1456  -1251  -960  -716  -602  -603  -665  -754  -857  -957  -1021  -1043  -1045  -1042  -1018  -951  -858  -792  -779  -808  -842  -843  -786  -673  -544  -456  -441  -496  -609  -757  -900  -993  -1016  -974  -874  -743  -634  -581  -578  -602  -635  -674  -714  -737  -725  -698  -687  -694  -705  -716  -724  -730  -732  -729  -722  -709  -689  -665  -645  -634  -629  -628  -628  -632  -642  -658  -672  -678  -670  -642  -603  -572  -562  -584  -646  -736  -812  -839  -809  -752  -717  -717  -705  -609  -383  -72  192  320  339  323  300  254  175  85  20  3  25  47  42  22  8  -13  -79  -209  -390  -599  -784  -888  -901  -870  -839  -823  -818  -815  -806  -794  -784  -767  -728  -698  -770  -970  -1111  -925  -209  1188  3263  5693  7856  9086  9031  7732  5521  3042  1040  -152  -679  -819  -838  -899  -939  -827  -595  -375  -241  -192  -197  -234  -295  -366  -416  -425  -411  -404  -403  -377  -317  -264  -246  -228  -171  -80  16  120  263  451  642  784  847  858  869  897  923  952  1036  1231  1499  1719  1816  1834  1868  1986  2180  2373  2507  2592  2678  2791  2906  2978  2968  2844  2605  2287  1928  1577  1308  1140  981  740  435  161  -28  -177  -356  -598  -903  -1252  -1566  -1745  -1760  -1645  -1451  -1251  -1114  -1072  -1098  -1135  -1152  -1154  -1148  -1137  -1122  -1106  -1096  -1092  -1087  -1074  -1047  -1002  -946  -905  -889  -885  -881  -874  -873  -889  -921  -964  -1019  -1051  -1018  -928  -831  -774  -759  -749  -734  -736  -774  -833  -883  -923  -964  -996  -1006  -1011  -1015  -996  -940  -860  -803  -825  -917  -1001  -1029  -1013  -978  -921  -815  -678  -582  -596  -732  -926  -1085  -1171  -1190  -1118  -915  -640  -436  -377  -432  -557  -718  -866  -954  -971  -934  -850  -714  -541  -386  -286  -235  -224  -251  -282  -277  -238  -192  -168  -158  -116  -14  113  229  297  228  -16  -342  -622  -777  -785  -658  -447  -251  -173  -250  -435  -627  -748  -800  -818  -816  -815  -831  -847  -828  -779  -786  -939  -1188  -1301  -892  380  2526  5139  7505  8857  8775  7331  4988  2480  448  -863  -1457  -1502  -1300  -1034  -785  -659  -665  -706  -723  -710  -666  -590  -506  -448  -422  -406  -407  -449  -524  -578  -566  -502  -446  -421  -384  -265  -46  193  366  465  539  616  705  804  909  1029  1154  1251  1294  1293  1264  1222  1204  1290  1586  2092  2610  2920  3001  2965  2880  2757  2619  2509  2435  2369  2288  2177  2030  1857  1666  1405  1010  559  231  89  35  -34  -166  -378  -636  -856  -1014  -1137  -1232  -1290  -1320  -1352  -1414  -1485  -1522  -1505  -1443  -1371  -1300  -1199  -1068  -953  -885  -859  -856  -877  -929  -1000  -1049  -1047  -992  -914  -855  -828  -818  -814  -812  -812  -817  -828  -834  -798  -691  -541  -429  -390  -402  -439  -492  -554  -613  -664  -702  -714  -709  -725  -781  -841  -872  -872  -858  -844  -831  -811  -773  -727  -704  -693  -610  -436  -274  -207  -216  -247  -277  -328  -414  -478  -461  -394  -339  -304  -281  -277  -301  -352  -394  -401  -394  -398  -410  -405  -353  -251  -156  -134  -182  -266  -378  -507  -636  -760  -853  -902  -932  -969  -1002  -1004  -966  -922  -910  -924  -942  -1003  -1149  -1241  -947  13  1664  3765  5865  7446  8100  7630  6072  3771  1361  -493  -1453  -1642  -1457  -1271  -1228  -1273  -1295  -1220  -1028  -774  -562  -455  -423  -385  -292  -167  -80  -79  -154  -255  -337  -390  -411  -380  -283  -127  46  189  301  402  493  573  653  736  809  868  930  1020  1156  1330  1515  1693  1853  1992  2124  2248  2342  2412  2476  2535  2596  2689  2811  2913  2957  2910  2729  2419  2057  1723  1472  1326  1237  1116  914  637  299  -91  -530  -996  -1404  -1654  -1742  -1739  -1688  -1585  -1447  -1327  -1253  -1208  -1164  -1117  -1081  -1055  -1033  -1023  -1043  -1095  -1166  -1251  -1336  -1380  -1367  -1327  -1280  -1196  -1056  -891  -754  -681  -666  -672  -675  -673  -682  -729  -824  -935  -1011  -1024  -974  -873  -764  -696  -677  -682  -689  -693  -694  -690  -675  -656  -647  -659  -686  -713  -735  -765  -814  -863  -879  -847  -780  -717  -698  -730  -786  -796  -715  -593  -496  -403  -245  -30  152  239  234  156  1  -206  -395  -498  -518  -501  -490  -509  -571  -660  -738  -779  -788  -779  -747  -690  -628  -591  -588  -607  -626  -627  -617  -629  -692  -809  -926  -998  -1067  -1161  -1169  -903  -184  1081  2850  4936  6902  8115  8148  7048  5191  3069  1142  -322  -1279  -1726  -1654  -1219  -747  -465  -366  -351  -371  -439  -566  -716  -813  -787  -624  -397  -229  -171  -178  -186  -148  -46  97  232  318  361  393  425  450  463  471  465  428  386  423  589  833  1076  1302  1542  1774  1943  2055  2151  2234  2305  2427  2665  2963  3196  3290  3243  3059  2792  2556  2417  2349  2298  2198  1970  1593  1173  846  631  468  312  122  -154  -502  -823  -1037  -1129  -1128  -1073  -1002  -947  -918  -909  -931  -1018  -1169  -1316  -1383  -1373  -1333  -1273  -1173  -1045  -943  -900  -898  -907  -916  -921  -912  -869  -778  -672  -608  -607  -647  -708  -777  -833  -876  -909  -920  -897  -856  -833  -851  -896  -935  -952  -956  -961  -970  -961  -901  -783  -641  -507  -414  -428  -543  -661  -733  -796  -881  -973  -1021  -997  -924  -839  -771  -734  -731  -745  -749  -740  -750  -794  -846  -849  -755  -589  -447  -380  -363  -361  -363  -367  -371  -364  -332  -279  -239  -233  -247  -271  -341  -491  -682  -836  -921  -953  -934  -848  -705  -557  -475  -525  -736  -1020  -1224  -1287  -1267  -1242  -1269  -1372  -1514  -1588  -1470  -1133  -579  339  1819  3847  6089  7870  8486  7708  5847  3464  1205  -472  -1479  -1911  -1917  -1721  -1534  -1424  -1327  -1171  -989  -869  -834  -840  -851  -863  -892  -950  -1025  -1074  -1049  -919  -714  -502  -347  -276  -267  -269  -244  -195  -147  -107  -62  2  88  186  283  368  445  539  663  802  929  1038  1158  1335  1597  1926  2234  2419  2473  2464  2446  2418  2364  2298  2256  2236  2164  1960  1648  1372  1236  1166  976  544  -18  -449  -643  -723  -836  -1023  -1216  -1341  -1417  -1507  -1619  -1694  -1700  -1668  -1641  -1630  -1611  -1561  -1487  -1420  -1369  -1327  -1291  -1255  -1215  -1170  -1110  -1040  -993  -1004  -1087  -1206  -1304  -1362  -1398  -1421  -1397  -1268  -1029  -777  -624  -591  -639  -736  -847  -931  -970  -977  -967  -932  -857  -761  -691  -663  -662  -684  -749  -850  -943  -993  -1011  -1021  -1020  -990  -931  -861  -800  -745  -683  -611  -550  -527  -551  -598  -633  -642  -636  -628  -615  -584  -533  -459  -355  -212  -33  152  301  400  469  512  519  490  441  395  356  305  223  86  -124  -354  -503  -532  -483  -417  -371  -348  -328  -309  -312  -334  -350  -354  -380  -466  -605  -749  -845  -836  -722  -607  -520  -198  804  2697  5212  7700  9379  9702  8631  6554  4071  1793  94  -954  -1407  -1365  -1051  -717  -470  -306  -221  -201  -196  -154  -71  16  102  188  255  286  290  286  283  290  305  313  312  335  405  486  538  576  638  731  836  957  1112  1276  1404  1476  1497  1479  1464  1531  1746  2050  2295  2414  2467  2539  2655  2792  2917  3020  3113  3196  3250  3247  3152  2948  2668  2360  2034  1686  1308  880  452  144  -7  -103  -243  -425  -592  -731  -902  -1125  -1332  -1436  -1404  -1244  -1029  -873  -836  -908  -1046  -1186  -1271  -1294  -1278  -1229  -1150  -1055  -975  -943  -970  -1026  -1074  -1099  -1103  -1064  -951  -790  -644  -531  -425  -334  -306  -381  -540  -718  -871  -985  -1051  -1062  -1012  -905  -786  -731  -775  -886  -1002  -1084  -1122  -1126  -1112  -1094  -1075  -1052  -1027  -1008  -989  -959  -930  -940  -1003  -1090  -1160  -1195  -1196  -1157  -1070  -948  -812  -663  -509  -389  -324  -297  -303  -371  -535  -786  -1036  -1174  -1172  -1100  -1023  -940  -827  -689  -539  -400  -287  -187  -78  22  94  128  120  65  -26  -128  -218  -285  -331  -372  -416  -468  -544  -642  -723  -753  -739  -709  -685  -682  -705  -746  -776  -790  -819  -875  -941  -970  -922  -886  -972  -1031  -700  316  2110  4521  6986  8675  9069  8194  6350  3993  1671  -212  -1479  -2045  -1942  -1420  -842  -460  -316  -330  -417  -522  -606  -654  -664  -623  -518  -383  -285  -251  -268  -327  -414  -517  -639  -770  -861  -838  -646  -315  40  319  491  577  631  701  791  885  982  1072  1134  1165  1186  1224  1301  1436  1638  1875  2071  2169  2187  2189  2205  2221  2237  2279  2365  2466  2532  2510  2361  2094  1750  1355  936  542  219  -44  -297  -562  -834  -1105  -1333  -1460  -1491  -1479  -1469  -1470  -1468  -1428  -1324  -1186  -1087  -1054  -1055  -1056  -1058  -1085  -1138  -1190  -1224  -1247  -1269  -1296  -1337  -1392  -1435  -1410  -1281  -1090  -932  -853  -828  -813  -780  -723  -657  -626  -656  -708  -735  -740  -747  -764  -780  -800  -869  -1016  -1193  -1305  -1299  -1197  -1042  -888  -792  -768  -791  -839  -896  -931  -883  -712  -471  -296  -280  -419  -639  -842  -974  -1025  -996  -892  -749  -633  -604  -667  -774  -862  -905  -912  -880  -798  -687  -600  -561  -548  -524  -480  -428  -380  -336  -298  -260  -220  -191  -173  -149  -113  -87  -101  -161  -240  -329  -431  -535  -612  -639  -619  -600  -625  -670  -687  -663  -619  -591  -607  -671  -744  -785  -789  -761  -697  -638  -713  -1005  -1297  -1098  -22  1916  4315  6530  7920  8138  7205  5363  3078  993  -455  -1246  -1577  -1676  -1676  -1586  -1387  -1139  -942  -817  -719  -635  -587  -585  -597  -567  -456  -304  -185  -109  -24  86  172  196  173  142  124  118  111  98  95  152  325  586  838  1037  1217  1382  1486  1522  1550  1648  1855  2120  2345  2498  2610  2672  2647  2574  2538  2572  2688  2899  3145  3314  3352  3255  3029  2676  2225  1759  1374  1068  787  528  302  82  -148  -372  -550  -651  -673  -645  -617  -642  -753  -911  -1036  -1093  -1096  -1068  -1040  -1046  -1100  -1180  -1249  -1302  -1357  -1413  -1430  -1340  -1106  -798  -558  -457  -448  -469  -505  -575  -674  -738  -719  -645  -574  -542  -554  -592  -631  -675  -741  -820  -878  -898  -885  -845  -790  -746  -738  -791  -891  -972  -979  -925  -844  -766  -715  -691  -679  -680  -702  -729  -725  -679  -628  -623  -670  -731  -786  -831  -848  -804  -697  -575  -500  -484  -486  -461  -397  -318  -245  -164  -61  39  100  89  -2  -160  -360  -554  -677  -714  -704  -684  -672  -704  -819  -990  -1140  -1221  -1228  -1177  -1121  -1116  -1175  -1257  -1283  -1193  -1016  -899  -951  -1077  -1041  -535  757  2870  5347  7408  8337  7863  6186  3815  1441  -359  -1412  -1817  -1750  -1448  -1153  -990  -944  -934  -909  -870  -831  -774  -674  -550  -454  -409  -398  -401  -411  -422  -408  -340  -226  -116  -45  13  101  203  252  215  127  48  15  41  148  331  548  735  867  1001  1226  1526  1777  1898  1923  1935  2039  2318  2712  3035  3177  3185  3134  3037  2889  2718  2576  2482  2392  2207  1844  1365  925  564  226  -111  -414  -650  -809  -897  -925  -918  -901  -888  -903  -970  -1079  -1186  -1267  -1348  -1443  -1533  -1600  -1634  -1618  -1524  -1360  -1192  -1082  -1030  -1007  -990  -936  -797  -614  -511  -573  -751  -915  -975  -946  -895  -864  -851  -837  -817  -805  -795  -745  -645  -530  -432  -369  -350  -377  -460  -597  -753  -903  -1030  -1110  -1133  -1107  -1035  -939  -845  -745  -627  -523  -469  -461  -466  -462  -446  -432  -437  -486  -622  -851  -1092  -1237  -1247  -1155  -1023  -911  -846  -818  -798  -726  -549  -313  -135  -64  -63  -87  -119  -155  -179  -164  -117  -79  -80  -102  -94  -68  -105  -231  -381  -516  -633  -713  -749  -752  -713  -607  -458  -338  -276  -248  -237  -247  -282  -354  -473  -591  -631  -590  -530  -498  -576  -842  -1209  -1381  -952  362  2461  4870  6960  8202  8323  7327  5487  3294  1250  -286  -1138  -1376  -1267  -1049  -837  -683  -600  -559  -525  -486  -451  -418  -373  -309  -241  -198  -197  -234  -287  -329  -349  -342  -288  -172  -22  109  193  235  252  269  313  382  469  585  728  873  1007  1140  1264  1365  1466  1597  1738  1860  1984  2141  2332  2530  2705  2843  2946  3016  3039  2990  2859  2678  2493  2322  2165  1995  1750  1371  880  410  103  -27  -99  -217  -378  -520  -634  -756  -892  -1003  -1064  -1085  -1103  -1148  -1220  -1299  -1367  -1410  -1411  -1349  -1222  -1075  -964  -909  -894  -899  -901  -879  -821  -741  -670  -643  -670  -726  -775  -797  -797  -790  -786  -796  -829  -876  -913  -926  -911  -864  -801  -751  -729  -726  -726  -723  -712  -679  -635  -607  -601  -607  -613  -603  -569  -533  -511  -500  -492  -492  -511  -539  -548  -523  -482  -453  -444  -456  -499  -579  -684  -774  -814  -819  -836  -878  -907  -882  -800  -684  -562  -462  -410  -416  -471  -546  -607  -648  -679  -704  -725  -747  -777  -823  -874  -894  -855  -776  -700  -648  -591  -494  -357  -212  -97  -20  44  113  165  185  179  144  65  -54  -177  -266  -306  -292  -243  -214  -266  -416  -608  -749  -800  -793  -770  -745  -711  -673  -656  -676  -717  -749  -759  -759  -772  -810  -841  -804  -702  -564  -307  255  1374  3205  5514  7646  8882  8796  7406  5118  2568  412  -1003  -1727  -1884  -1567  -1026  -583  -382  -370  -449  -568  -679  -728  -676  -532  -352  -210  -155  -192  -294  -427  -543  -551  -360  10  387  597  602  465  282  149  103  135  239  390  525  602  658  761  944  1165  1341  1435  1496  1613  1856  2222  2602  2851  2956  3029  3115  3141  3044  2878  2753  2685  2601  2463  2312  2180  1995  1625  1088  603  354  313  348  349  219  -96  -536  -925  -1132  -1175  -1154  -1130  -1118  -1132  -1194  -1303  -1414  -1477  -1482  -1447  -1397  -1344  -1270  -1152  -1020  -959  -1015  -1140  -1248  -1297  -1292  -1235  -1111  -948  -813  -733  -679  -639  -650  -762  -958  -1145  -1241  -1238  -1172  -1088  -1029  -1004  -996  -994  -997  -1004  -1009  -987  -912  -799  -705  -660  -648  -651  -686  -780  -911  -1019  -1075  -1070  -967  -768  -577  -509  -609  -825  -1039  -1157  -1161  -1095  -1011  -950  -909  -865  -828  -824  -851  -892  -932  -967  -1013  -1071  -1117  -1131  -1116  -1080  -1016  -921  -820  -735  -656  -567  -476  -404  -359  -335  -317  -284  -225  -155  -107  -91  -91  -93  -94  -98  -119  -167  -228  -273  -301  -340  -398  -458  -500  -534  -599  -732  -902  -1020  -1031  -934  -749  -539  -399  -356  -377  -483  -772  -1235  -1647  -1777  -1576  -1021  -2  1541  3538  5777  7804  8997  8956  7705  5538  2963  627  -1019  -1846  -1869  -1334  -743  -470  -521  -698  -829  -867  -812  -662  -468  -329  -286  -300  -317  -301  -233  -118  16  131  202  235  237  217  201  218  265  330  417  521  616  685  748  827  918  988  1019  1038  1113  1296  1570  1877  2184  2482  2738  2903  2965  2968  2957  2954  2966  2992  3014  2986  2872  2693  2509  2341  2157  1935  1685  1401  1031  543  31  -363  -606  -764  -881  -949  -964  -952  -951  -995  -1096  -1215  -1297  -1324  -1320  -1311  -1307  -1311  -1327  -1351  -1376  -1399  -1418  -1434  -1449  -1449  -1382  -1198  -944  -744  -661  -656  -681  -704  -712  -706  -693  -684  -688  -712  -758  -814  -859  -886  -905  -929  -959  -983  -986  -973  -948  -904  -827  -737  -676  -653  -654  -693  -790  -911  -969  -929  -840  -742  -641  -579  -602  -681  -749  -772  -768  -776  -831  -931  -1023  -1037  -956  -822  -691  -613  -602  -640  -693  -729  -723  -666  -575  -473  -356  -217  -94  -30  -9  18  78  146  176  130  1  -160  -287  -370  -435  -498  -570  -662  -759  -825  -851  -849  -810  -715  -587  -496  -494  -583  -708  -802  -836  -825  -797  -816  -993  -1356  -1674  -1542  -716  719  2547  4560  6401  7547  7641  6612  4590  2103  29  -1128  -1576  -1692  -1671  -1609  -1494  -1242  -891  -579  -388  -317  -321  -349  -366  -366  -354  -332  -309  -290  -252  -161  -36  71  143  191  231  272  311  332  335  360  454  604  736  803  844  929  1062  1182  1253  1304  1362  1410  1456  1600  1946  2423  2812  2995  3042  3057  3072  3075  3059  3030  2969  2857  2737  2653  2536  2235  1748  1260  929  742  579  354  83  -163  -362  -540  -702  -836  -932  -985  -1009  -1032  -1059  -1097  -1172  -1281  -1368  -1372  -1279  -1133  -1018  -990  -1043  -1124  -1180  -1196  -1186  -1152  -1087  -988  -878  -785  -725  -698  -698  -729  -800  -905  -1008  -1052  -1015  -930  -841  -751  -661  -595  -565  -559  -573  -617  -684  -738  -759  -768  -801  -865  -946  -1009  -1036  -1041  -1045  -1054  -1046  -1001  -943  -914  -916  -893  -802  -668  -562  -517  -518  -549  -598  -656  -724  -798  -871  -932  -967  -962  -897  -776  -621  -465  -346  -268  -190  -85  16  78  98  99  102  103  73  -23  -197  -431  -677  -864  -949  -941  -867  -764  -678  -634  -625  -631  -647  -680  -734  -783  -802  -792  -789  -826  -899  -985  -1138  -1375  -1390  -692  915  3167  5503  7282  8016  7632  6400  4646  2676  855  -481  -1177  -1297  -1113  -941  -901  -897  -855  -805  -767  -700  -581  -456  -380  -353  -334  -298  -237  -145  -40  34  61  58  32  -16  -66  -74  -30  35  127  306  590  875  1037  1039  917  747  630  658  871  1197  1476  1614  1649  1660  1726  1936  2302  2690  2953  3071  3117  3138  3121  3049  2915  2737  2543  2350  2147  1909  1636  1373  1130  853  511  150  -159  -372  -484  -542  -596  -681  -805  -955  -1104  -1222  -1285  -1284  -1249  -1231  -1256  -1308  -1351  -1374  -1384  -1364  -1275  -1101  -893  -729  -653  -667  -750  -877  -999  -1072  -1095  -1093  -1080  -1048  -987  -913  -855  -827  -808  -775  -730  -692  -667  -660  -702  -833  -1026  -1190  -1258  -1205  -1020  -742  -493  -393  -476  -688  -925  -1089  -1139  -1098  -1023  -960  -913  -870  -836  -813  -789  -758  -729  -715  -738  -822  -954  -1074  -1130  -1120  -1068  -1012  -984  -984  -991  -1002  -1013  -998  -904  -703  -443  -200  -14  93  101  40  -21  -46  -48  -65  -152  -337  -567  -746  -849  -932  -1018  -1043  -952  -787  -646  -572  -537  -528  -564  -651  -767  -881  -964  -1002  -1005  -992  -994  -1034  -1080  -1045  -797  -124  1225  3339  5884  8105  9223  8819  6932  4136  1422  -429  -1289  -1436  -1256  -1109  -1086  -1041  -960  -957  -1021  -1066  -1065  -1028  -954  -826  -652  -492  -406  -390  -402  -407  -391  -356  -322  -305  -304  -301  -260  -156  -18  94  174  273  430  604  714  739  735  799  1022  1381  1721  1916  1977  1978  1985  2052  2216  2459  2702  2869  2957  3019  3092  3141  3095  2940  2750  2589  2447  2272  2029  1720  1371  1015  680  377  91  -184  -415  -559  -624  -684  -810  -980  -1113  -1180  -1211  -1232  -1240  -1235  -1225  -1215  -1195  -1170  -1169  -1222  -1314  -1401  -1447  -1442  -1367  -1200  -986  -832  -786  -807  -847  -886  -920  -948  -960  -950  -928  -898  -848  -786  -737  -708  -686  -655  -602  -537  -490  -470  -466  -468  -487  -545  -639  -734  -793  -817  -827  -834  -825  -787  -733  -691  -674  -665  -646  -625  -616  -614  -610  -603  -609  -647  -691  -679  -606  -523  -442  -321  -126  111  306  394  382  294  169  57  -25  -102  -178  -216  -192  -136  -107  -135  -200  -249  -262  -264  -302  -401  -548  -705  -819  -869  -881  -888  -900  -903  -885  -847  -807  -759  -710  -777  -1018  -1216  -1012  -134  1470  3562  5710  7418  8243  8013  6836  4889  2524  334  -1175  -1818  -1698  -1185  -733  -578  -658  -787  -840  -796  -693  -583  -501  -450  -411  -344  -226  -91  -6  -9  -103  -260  -419  -529  -563  -449  -111  364  741  906  942  963  1013  1082  1136  1168  1205  1265  1358  1488  1631  1764  1896  2025  2112  2140  2128  2121  2197  2424  2735  2967  3052  3045  3001  2944  2913  2929  2923  2727  2218  1523  925  543  285  68  -98  -234  -439  -766  -1148  -1463  -1627  -1640  -1560  -1455  -1379  -1355  -1389  -1488  -1611  -1669  -1614  -1494  -1390  -1323  -1272  -1250  -1284  -1363  -1429  -1430  -1374  -1315  -1288  -1286  -1289  -1293  -1303  -1324  -1338  -1320  -1275  -1238  -1218  -1187  -1119  -1042  -1015  -1048  -1120  -1211  -1288  -1317  -1292  -1222  -1143  -1097  -1084  -1074  -1069  -1098  -1178  -1281  -1357  -1368  -1303  -1192  -1134  -1191  -1295  -1354  -1363  -1354  -1351  -1360  -1386  -1421  -1444  -1439  -1399  -1343  -1304  -1302  -1329  -1346  -1263  -1006  -645  -357  -222  -193  -212  -246  -270  -287  -321  -389  -481  -585  -687  -790  -904  -1008  -1055  -1048  -1028  -1019  -1020  -1021  -1019  -1016  -1024  -1045  -1066  -1074  -1073  -1075  -1090  -1132  -1232  -1391  -1509  -1515  -1406  -1080  -342  970  2892  5151  7151  8271  8155  6830  4695  2393  458  -909  -1678  -1863  -1613  -1202  -902  -824  -886  -972  -1056  -1131  -1156  -1101  -953  -742  -555  -441  -356  -259  -173  -126  -118  -135  -157  -162  -125  -42  59  138  199  276  367  443  495  539  600  703  856  1037  1232  1476  1773  2035  2206  2318  2395  2417  2415  2451  2536  2639  2754  2897  3036  3080  2964  2733  2493  2291  2108  1938  1765  1497  1076  611  258  20  -197  -429  -640  -792  -885  -935  -957  -961  -956  -943  -929  -944  -1027  -1146  -1210  -1187  -1135  -1105  -1097  -1097  -1107  -1131  -1165  -1189  -1194  -1183  -1144  -1055  -937  -847  -807  -800  -812  -842  -880  -900  -892  -861  -819  -784  -770  -775  -778  -758  -725  -711  -717  -720  -690  -608  -490  -383  -306  -254  -235  -276  -398  -571  -714  -772  -767  -745  -727  -685  -593  -469  -361  -299  -265  -233  -222  -265  -349  -435  -505  -548  -539  -476  -391  -291  -138  84  321  495  560  526  443  361  290  220  153  100  63  25  -26  -92  -158  -200  -214  -216  -217  -221  -233  -257  -286  -312  -342  -367  -349  -294  -258  -269  -313  -371  -496  -768  -1075  -1146  -844  -131  1104  2984  5443  7935  9536  9620  8215  5817  3198  1135  -76  -654  -852  -792  -631  -524  -483  -445  -393  -363  -381  -426  -464  -492  -517  -520  -463  -339  -186  -54  21  34  13  -9  -5  46  133  206  242  256  271  289  298  295  309  389  581  878  1189  1407  1516  1579  1653  1762  1931  2172  2445  2672  2800  2857  2917  3028  3192  3371  3523  3600  3478  3014  2285  1611  1218  1064  1009  928  715  335  -104  -458  -694  -848  -932  -952  -943  -936  -946  -970  -990  -1010  -1056  -1125  -1183  -1211  -1213  -1209  -1219  -1235  -1242  -1241  -1241  -1245  -1252  -1262  -1283  -1310  -1317  -1249  -1075  -853  -694  -643  -664  -724  -802  -872  -910  -918  -914  -909  -904  -898  -901  -942  -1058  -1238  -1401  -1471  -1456  -1432  -1447  -1469  -1445  -1382  -1327  -1293  -1241  -1153  -1061  -1008  -1002  -1021  -1045  -1076  -1127  -1189  -1233  -1250  -1249  -1225  -1157  -1039  -900  -782  -713  -689  -692  -702  -698  -663  -589  -486  -385  -320  -295  -291  -301  -333  -392  -455  -494  -505  -502  -494  -481  -465  -467  -507  -587  -699  -827  -936  -995  -1007  -1004  -1003  -1000  -979  -957  -973  -1035  -1118  -1257  -1478  -1627  -1431  -678  713  2662  4850  6780  7925  7890  6565  4266  1696  -363  -1480  -1739  -1538  -1276  -1195  -1238  -1187  -1030  -915  -885  -880  -845  -764  -658  -537  -406  -289  -216  -185  -180  -197  -241  -299  -344  -365  -363  -319  -200  -15  158  246  253  253  334  524  765  977  1132  1226  1276  1327  1416  1566  1805  2123  2419  2589  2640  2642  2628  2579  2524  2549  2674  2805  2853  2809  2701  2506  2163  1728  1377  1193  1105  1004  789  397  -71  -421  -600  -726  -870  -1005  -1100  -1168  -1232  -1308  -1394  -1477  -1531  -1552  -1553  -1532  -1465  -1337  -1175  -1038  -961  -937  -939  -945  -943  -926  -900  -888  -884  -858  -808  -758  -732  -737  -744  -705  -631  -583  -609  -723  -897  -1058  -1136  -1103  -966  -786  -659  -612  -596  -583  -611  -724  -882  -991  -998  -919  -807  -724  -697  -724  -799  -897  -974  -1004  -988  -914  -781  -612  -441  -332  -362  -515  -680  -777  -813  -784  -613  -255  163  439  479  328  81  -158  -323  -400  -414  -407  -409  -440  -499  -561  -603  -621  -627  -631  -641  -659  -680  -697  -703  -674  -587  -478  -447  -576  -841  -1114  -1255  -1220  -1069  -827  -383  523  2143  4397  6725  8305  8474  7125  4764  2206  199  -936  -1391  -1471  -1354  -1170  -970  -748  -559  -464  -458  -502  -561  -621  -695  -784  -848  -838  -729  -548  -352  -190  -87  -35  1  42  73  88  102  127  171  239  333  452  597  760  906  999  1042  1066  1102  1161  1253  1415  1662  1940  2176  2380  2624  2900  3110  3197  3198  3165  3120  3053  2935  2746  2509  2272  2078  1904  1647  1248  810  472  270  151  55  -85  -322  -607  -812  -893  -923  -977  -1072  -1174  -1241  -1277  -1322  -1400  -1472  -1480  -1458  -1471  -1500  -1493  -1442  -1374  -1309  -1227  -1102  -967  -882  -855  -846  -824  -787  -745  -710  -680  -651  -624  -603  -601  -636  -704  -755  -765  -760  -778  -829  -885  -929  -968  -983  -951  -894  -825  -721  -592  -483  -422  -401  -413  -470  -574  -695  -801  -874  -913  -931  -953  -1008  -1095  -1180  -1226  -1172  -935  -525  -117  109  119  -16  -194  -322  -375  -393  -394  -372  -328  -289  -293  -322  -294  -188  -91  -84  -157  -226  -228  -187  -156  -138  -117  -113  -206  -470  -840  -1148  -1301  -1322  -1263  -1166  -1075  -1017  -981  -939  -926  -1031  -1231  -1307  -980  -62  1469  3481  5655  7447  8340  8121  6819  4662  2180  30  -1352  -1872  -1704  -1191  -709  -506  -560  -643  -616  -540  -498  -493  -497  -486  -450  -404  -374  -376  -406  -456  -511  -535  -479  -317  -104  55  113  109  114  172  277  390  480  539  567  601  703  905  1139  1297  1357  1399  1509  1707  1946  2148  2270  2325  2343  2337  2330  2391  2580  2845  3042  3079  2960  2740  2467  2148  1793  1427  1045  649  290  -4  -240  -432  -616  -820  -1028  -1203  -1358  -1528  -1694  -1799  -1835  -1838  -1827  -1778  -1672  -1559  -1514  -1509  -1458  -1349  -1227  -1123  -1052  -1015  -1013  -1069  -1209  -1392  -1534  -1590  -1581  -1531  -1453  -1356  -1253  -1163  -1101  -1068  -1051  -1028  -992  -949  -919  -927  -970  -1014  -1037  -1045  -1051  -1054  -1029  -953  -847  -764  -732  -740  -784  -859  -941  -1006  -1046  -1059  -1025  -932  -825  -787  -841  -933  -1010  -1056  -1082  -1096  -1068  -951  -758  -574  -475  -469  -493  -486  -450  -421  -421  -450  -493  -526  -537  -523  -472  -371  -246  -162  -165  -260  -398  -511  -560  -544  -466  -346  -245  -224  -294  -427  -599  -771  -891  -930  -904  -860  -827  -799  -773  -753  -736  -721  -711  -700  -681  -681  -789  -1086  -1393  -1250  -312  1432  3754  6194  8108  8942  8487  6870  4507  2047  72  -1123  -1506  -1234  -636  -116  98  66  -79  -285  -510  -694  -793  -797  -741  -652  -495  -236  51  248  313  303  287  289  322  426  584  709  757  755  730  682  621  586  629  781  1013  1243  1412  1540  1675  1820  1948  2050  2140  2246  2405  2647  2965  3281  3490  3572  3571  3516  3412  3266  3084  2872  2667  2528  2448  2346  2128  1729  1174  624  259  86  -32  -176  -320  -435  -565  -741  -919  -1045  -1109  -1136  -1148  -1131  -1059  -951  -861  -829  -861  -930  -992  -1020  -1022  -1018  -1023  -1032  -1026  -983  -895  -784  -693  -655  -665  -695  -751  -855  -990  -1095  -1140  -1136  -1104  -1057  -1013  -990  -992  -985  -920  -778  -599  -457  -392  -381  -388  -399  -427  -485  -576  -692  -797  -862  -891  -911  -933  -960  -985  -990  -963  -917  -861  -783  -679  -563  -483  -493  -599  -736  -836  -879  -882  -873  -872  -881  -896  -915  -938  -947  -878  -674  -396  -192  -119  -114  -109  -95  -91  -93  -90  -97  -124  -172  -260  -411  -596  -751  -822  -811  -757  -708  -681  -666  -644  -614  -592  -588  -594  -594  -599  -690  -941  -1271  -1486  -1500  -1395  -1303  -1289  -1263  -973  -131  1387  3464  5728  7560  8317  7681  5828  3352  978  -769  -1710  -2007  -1966  -1779  -1550  -1382  -1294  -1223  -1138  -1040  -908  -720  -513  -356  -288  -330  -485  -695  -842  -837  -676  -448  -274  -192  -152  -118  -97  -92  -71  14  187  409  609  755  856  926  974  1026  1135  1313  1498  1624  1704  1777  1844  1889  1928  2000  2113  2258  2449  2682  2893  3024  3067  3037  2955  2857  2777  2659  2377  1879  1245  636  184  -92  -241  -304  -339  -407  -511  -615  -731  -906  -1128  -1318  -1422  -1450  -1443  -1430  -1410  -1362  -1287  -1235  -1251  -1300  -1306  -1243  -1148  -1083  -1061  -1035  -952  -817  -692  -627  -623  -650  -673  -684  -690  -693  -678  -630  -566  -533  -563  -643  -735  -822  -905  -977  -1020  -1039  -1058  -1085  -1099  -1080  -1023  -928  -801  -658  -534  -477  -510  -606  -701  -754  -767  -774  -812  -890  -970  -1005  -991  -983  -1038  -1144  -1229  -1252  -1210  -1097  -902  -670  -497  -430  -435  -463  -477  -434  -301  -119  15  62  58  33  -8  -64  -124  -178  -224  -259  -290  -320  -337  -347  -409  -587  -839  -1042  -1128  -1131  -1079  -973  -836  -713  -595  -449  -294  -206  -298  -597  -872  -756  -41  1308  3211  5312  6981  7714  7376  6030  3946  1713  -134  -1423  -2068  -1982  -1405  -844  -618  -646  -679  -599  -454  -319  -235  -203  -199  -213  -258  -347  -479  -625  -728  -739  -610  -306  83  362  442  390  300  226  189  209  323  542  784  914  880  763  698  794  1063  1396  1680  1921  2176  2418  2578  2648  2680  2717  2762  2795  2806  2800  2783  2766  2758  2760  2747  2667  2471  2171  1809  1389  937  551  308  190  129  53  -73  -232  -409  -631  -883  -1077  -1177  -1224  -1248  -1268  -1307  -1353  -1378  -1383  -1381  -1367  -1333  -1289  -1255  -1227  -1178  -1076  -926  -780  -690  -660  -659  -663  -668  -676  -693  -715  -728  -713  -665  -613  -606  -664  -768  -901  -1056  -1206  -1307  -1331  -1268  -1111  -882  -655  -509  -455  -446  -454  -510  -662  -892  -1104  -1226  -1264  -1238  -1142  -1006  -900  -859  -861  -880  -912  -956  -999  -1037  -1074  -1078  -1003  -857  -731  -708  -772  -844  -885  -906  -914  -878  -767  -606  -453  -332  -259  -269  -351  -434  -480  -496  -487  -426  -278  -75  103  221  249  116  -195  -563  -832  -950  -971  -969  -988  -1032  -1088  -1130  -1137  -1095  -992  -860  -763  -719  -698  -696  -787  -1023  -1252  -1160  -503  789  2606  4652  6545  7937  8479  7844  5981  3317  619  -1381  -2303  -2235  -1622  -993  -663  -627  -701  -749  -745  -688  -578  -478  -479  -594  -728  -782  -724  -580  -376  -137  68  177  203  193  164  100  11  -50  -26  115  328  533  712  872  980  1008  984  951  934  955  1065  1314  1665  2021  2338  2602  2733  2671  2497  2375  2386  2473  2549  2596  2645  2694  2685  2563  2325  2002  1655  1359  1130  886  558  189  -133  -389  -604  -792  -938  -1043  -1142  -1272  -1424  -1548  -1605  -1611  -1603  -1604  -1613  -1604  -1536  -1405  -1280  -1233  -1237  -1238  -1251  -1298  -1371  -1462  -1508  -1447  -1315  -1184  -1092  -1066  -1102  -1150  -1156  -1085  -938  -777  -676  -655  -687  -746  -814  -877  -926  -951  -953  -949  -961  -1001  -1055  -1097  -1115  -1118  -1117  -1112  -1093  -1050  -984  -916  -875  -871  -897  -934  -964  -978  -986  -988  -968  -907  -800  -685  -610  -582  -576  -581  -616  -705  -829  -926  -965  -964  -936  -861  -723  -558  -432  -374  -356  -332  -265  -144  -11  72  85  50  1  -33  -44  -33  -2  39  58  9  -124  -301  -448  -527  -553  -558  -560  -557  -545  -532  -539  -568  -586  -585  -610  -681  -774  -897  -1093  -1334  -1477  -1411  -1150  -683  176  1642  3741  6191  8341  9368  8811  6875  4246  1727  -97  -1085  -1455  -1468  -1290  -1072  -895  -740  -598  -505  -470  -451  -400  -307  -226  -217  -272  -329  -349  -337  -309  -270  -208  -112  16  164  308  417  477  503  528  578  649  706  737  779  881  1040  1182  1261  1312  1416  1613  1853  2051  2171  2245  2320  2419  2551  2738  2973  3181  3296  3324  3301  3227  3074  2800  2407  2019  1769  1626  1448  1201  968  779  562  238  -169  -532  -731  -776  -750  -725  -744  -841  -1013  -1197  -1314  -1321  -1254  -1194  -1173  -1171  -1168  -1166  -1170  -1173  -1159  -1110  -1015  -896  -802  -755  -753  -814  -942  -1063  -1060  -928  -768  -654  -579  -507  -419  -333  -276  -252  -270  -389  -664  -1023  -1297  -1405  -1373  -1245  -1090  -986  -934  -860  -722  -565  -464  -444  -487  -568  -663  -741  -767  -713  -578  -396  -203]
