reading_id,reading_time,wire_id,result_classification,heart_rate,heart_rate_alert,firmware_version,device_app_version,hardware_version,waveform_samples
47a60d70-532a-11ed-8080-808080808080,Sun Oct 23 23:27:37 UTC 2022,2101e3b12739,UNREADABLE,0,NONE,20001.171.50,2.10.0,Charge 5,[0  -23  -318  -951  -1796  -2745  -3709  -4595  -5431  -6284  -7087  -7770  -8395  -9068  -9747  -10263  -10575  -10844  -11247  -11819  -12403  -12788  -12949  -13046  -13214  -13489  -13844  -14179  -14391  -14500  -14633  -14859  -15125  -15355  -15535  -15671  -15769  -15835  -15869  -15879  -15895  -15944  -16034  -16150  -16262  -16327  -16300  -16157  -15928  -15689  -15498  -15373  -15302  -15243  -15175  -15119  -15096  -15076  -14989  -14776  -14437  -14063  -13793  -13679  -13658  -13638  -13564  -13442  -13291  -13088  -12819  -12532  -12289  -12119  -12017  -11939  -11852  -11759  -11642  -11426  -11056  -10614  -10243  -9971  -9756  -9596  -9493  -9422  -9354  -9257  -9097  -8884  -8678  -8519  -8386  -8234  -8061  -7887  -7733  -7619  -7549  -7498  -7440  -7340  -7148  -6825  -6390  -5955  -5659  -5510  -5358  -5100  -4770  -4366  -3803  -3016  -1971  -712  507  1319  1400  591  -945  -2712  -4118  -4829  -4889  -4563  -4099  -3603  -3069  -2477  -1881  -1406  -1117  -982  -945  -950  -943  -892  -799  -686  -549  -358  -93  228  566  864  1093  1244  1320  1345  1352  1358  1377  1425  1506  1615  1767  1970  2204  2463  2773  3134  3496  3805  4040  4199  4288  4326  4360  4474  4730  5075  5402  5665  5883  6081  6252  6368  6426  6437  6370  6182  5914  5685  5557  5470  5341  5166  4988  4807  4590  4358  4167  4023  3845  3530  3102  2721  2532  2569  2788  3075  3278  3345  3324  3261  3179  3107  3078  3093  3109  3079  3005  2929  2892  2923  3036  3195  3325  3390  3401  3371  3296  3189  3083  3010  2978  2972  2975  2982  2992  3003  3013  3024  3039  3045  2990  2824  2582  2375  2276  2282  2378  2551  2748  2894  2954  2941  2880  2768  2592  2389  2227  2145  2115  2083  2021  1938  1860  1813  1813  1871  1972  2073  2134  2153  2150  2129  2086  2032  1995  1989  1999  2007  2014  2025  2030  1988  1864  1696  1576  1536  1527  1499  1446  1399  1387  1409  1446  1472  1481  1467  1418  1327  1219  1144  1119  1122  1134  1153  1177  1189  1164  1093  1020  1014  1102  1243  1375  1450  1468  1466  1478  1504  1508  1460  1366  1219  980  697  494  418  412  423  430  419  370  282  180  102  74  102  173  259  327  354  341  315  343  511  864  1390  2072  2888  3764  4562  5058  5000  4278  2951  1219  -511  -1764  -2303  -2253  -1927  -1575  -1274  -973  -609  -219  60  162  142  90  45  -7  -87  -181  -256  -310  -352  -367  -326  -192  49  331  552  659  647  554  443  360  317  331  427  611  847  1065  1202  1258  1283  1314  1366  1453  1573  1709  1856  2018  2183  2318  2403  2485  2628  2813  2946  2988  2977  2961  2958  2966  2960  2872  2628  2254  1880  1573  1278  949  628  369  183  52  -60  -205  -403  -624  -811  -932  -1010  -1104  -1224  -1329  -1392  -1421  -1438  -1464  -1494  -1493  -1427  -1292  -1123  -979  -900  -882  -901  -957  -1067  -1208  -1321  -1371  -1364  -1311  -1234  -1167  -1129  -1110  -1092  -1076  -1069  -1067  -1057  -1019  -935  -811  -684  -613  -626  -706  -829  -978  -1132  -1268  -1365  -1412  -1395  -1288  -1093  -891  -774  -765  -829  -930  -1052  -1169  -1249  -1289  -1328  -1388  -1449  -1474  -1433  -1323  -1189  -1065  -944  -842  -796  -813  -877  -955  -1008  -1028  -1027  -1020  -1010  -998  -981  -967  -971  -995  -1033  -1085  -1145  -1192  -1213  -1215  -1199  -1153  -1079  -1004  -955  -923  -888  -853  -837  -851  -899  -960  -1010  -1038  -1043  -1008  -925  -825  -758  -732  -710  -657  -572  -484  -415  -355  -303  -270  -260  -263  -267  -268  -266  -263  -265  -284  -334  -443  -630  -847  -1001  -1062  -1061  -1016  -920  -792  -688  -646  -673  -771  -925  -1081  -1162  -1051  -641  -16  564  933  1158  1477  2110  3016  3920  4483  4370  3415  1789  -72  -1659  -2605  -2869  -2698  -2382  -2068  -1748  -1397  -1046  -746  -509  -328  -218  -191  -230  -295  -346  -373  -380  -379  -377  -377  -364  -293  -127  93  284  404  473  523  576  636  698  749  780  797  809  818  816  817  873  1036  1318  1695  2108  2450  2640  2707  2741  2799  2882  2987  3136  3321  3481  3568  3588  3564  3508  3437  3351  3212  2986  2695  2404  2152  1891  1540  1113  734  485  341  214  38  -174  -355  -485  -573  -605  -582  -547  -531  -528  -524  -516  -529  -587  -679  -760  -814  -841  -848  -853  -859  -852  -793  -645  -449  -302  -255  -284  -351  -418  -478  -553  -635  -687  -691  -651  -591  -542  -518  -513  -514  -514  -513  -514  -513  -501  -472  -436  -419  -445  -520  -618  -706  -761  -774  -746  -698  -667  -677  -715  -753  -770  -767  -756  -738  -704  -651  -589  -530  -490  -485  -507  -519  -499  -467  -454  -462  -474  -477  -474  -471  -474  -486  -513  -557  -608  -648  -664  -656  -625  -573  -514  -473  -457  -456  -458  -462  -470  -485  -501  -512  -522  -538  -561  -585  -604  -624  -660  -707  -741  -745  -719  -668  -606  -535  -454  -409  -445  -541  -628  -664  -653  -621  -586  -556  -538  -530  -519  -503  -500  -519  -538  -532  -506  -485  -478  -482  -482  -464  -417  -349  -272  -174  -34  119  222  252  242  224  212  210  211  194  143  75  20  -25  -103  -230  -395  -565  -687  -735  -735  -731  -752  -796  -830  -829  -796  -723  -603  -479  -369  -265  -149  116  726  1717  2927  4044  4722  4717  3976  2650  1002  -667  -2008  -2752  -2906  -2676  -2247  -1758  -1347  -1074  -900  -790  -733  -708  -682  -637  -568  -476  -366  -254  -165  -111  -80  -55  -30  -12  -5  0  18  58  102  121  120  150  253  392  500  563  628  739  907  1108  1301  1453  1575  1708  1877  2070  2265  2446  2615  2792  2990  3193  3345  3400  3384  3362  3353  3310  3207  3089  3004  2934  2822  2654  2465  2244  1925  1514  1105  775  528  338  169  -11  -209  -398  -546  -643  -701  -739  -762  -762  -749  -750  -784  -852  -927  -977  -992  -982  -960  -933  -912  -898  -888  -883  -882  -875  -852  -819  -795  -787  -790  -796  -799  -784  -740  -679  -632  -615  -611  -603  -595  -596  -611  -630  -641  -643  -645  -658  -678  -678  -648  -611  -593  -591  -592  -592  -600  -628  -679  -745  -808  -848  -839  -759  -626  -501  -442  -456  -511  -576  -635  -687  -730  -764  -791  -816  -841  -852  -806  -665  -471  -323  -260  -248  -277  -397  -632  -895  -1041  -990  -772  -515  -331  -233  -199  -223  -302  -416  -536  -633  -682  -652  -526  -352  -229  -234  -371  -565  -708  -755  -723  -629  -484  -342  -279  -331  -466  -618  -733  -775  -734  -631  -505  -394  -331  -338  -405  -488  -535  -538  -520  -499  -480  -458  -421  -371  -326  -299  -278  -238  -164  -70  11  59  81  103  141  184  219  235  214  161  107  58  -20  -158  -337  -493  -577  -598  -569  -491  -388  -322  -335  -407  -489  -543  -568  -585  -604  -631  -647  -590  -391  -11  573  1369  2292  3225  4054  4571  4515  3793  2496  794  -953  -2230  -2773  -2691  -2234  -1672  -1247  -1039  -965  -918  -845  -752  -665  -570  -438  -294  -200  -164  -150  -138  -136  -153  -175  -178  -156  -117  -64  12  109  206  289  351  388  414  454  532  650  783  905  1006  1106  1228  1395  1613  1849  2045  2183  2307  2474  2683  2894  3080  3224  3304  3331  3358  3417  3484  3515  3503  3430  3267  3060  2898  2764  2536  2162  1746  1420  1183  934  647  373  129  -84  -229  -304  -376  -500  -651  -772  -837  -857  -850  -835  -829  -852  -915  -998  -1057  -1064  -1022  -954  -896  -865  -853  -848  -854  -871  -881  -855  -780  -683  -613  -579  -556  -530  -507  -496  -495  -496  -492  -479  -464  -455  -457  -464  -469  -469  -476  -512  -585  -681  -764  -797  -773  -714  -646  -613  -641  -710  -787  -860  -914  -942  -955  -957  -937  -880  -799  -732  -697  -681  -657  -616  -580  -576  -609  -657  -689  -683  -627  -512  -363  -243  -196  -238  -373  -573  -770  -899  -935  -908  -854  -783  -707  -649  -606  -565  -520  -478  -456  -463  -469  -430  -341  -260  -255  -347  -486  -599  -659  -689  -705  -711  -713  -714  -707  -686  -653  -605  -515  -365  -179  -10  93  121  106  78  37  -15  -59  -80  -80  -80  -97  -130  -163  -189  -219  -292  -448  -643  -771  -794  -767  -745  -737  -736  -736  -740  -748  -756  -757  -712  -542  -242  89  419  816  1345  2032  2855  3651  4085  3847  2882  1381  -309  -1683  -2376  -2500  -2350  -2085  -1803  -1556  -1312  -1051  -812  -631  -508  -433  -389  -361  -336  -308  -287  -295  -326  -339  -298  -225  -173  -127  3  218  393  458  454  438  427  415  405  434  552  761  978  1123  1198  1257  1332  1418  1506  1609  1731  1867  2038  2272  2575  2898  3148  3265  3280  3257  3228  3202  3176  3146  3098  3012  2861  2645  2425  2234  1997  1627  1173  758  440  218  62  -72  -206  -322  -395  -421  -439  -508  -652  -821  -941  -994  -1017  -1040  -1061  -1072  -1070  -1057  -1043  -1042  -1058  -1067  -1026  -913  -779  -695  -676  -686  -694  -692  -681  -662  -632  -598  -573  -555  -540  -537  -564  -637  -764  -889  -908  -785  -575  -362  -215  -152  -157  -225  -360  -518  -622  -634  -572  -484  -425  -425  -481  -558  -615  -634  -632  -626  -622  -620  -620  -625  -639  -654  -656  -643  -631  -638  -657  -651  -611  -580  -567  -546  -521  -521  -561  -623  -676  -706  -709  -670  -578  -485  -463  -498  -524  -524  -517  -504  -481  -445  -395  -334  -258  -174  -117  -105  -122  -152  -170  -136  -24  122  215  229  195  120  -19  -191  -315  -371  -410  -465  -532  -611  -695  -753  -765  -739  -700  -666  -656  -695  -810  -973  -1054  -941  -637  -163  471  1173  1845  2505  3181  3726  3827  3274  2135  633  -861  -1860  -2166  -2061  -1868  -1690  -1527  -1352  -1174  -1037  -931  -822  -712  -620  -539  -449  -339  -234  -170  -155  -161  -161  -142  -115  -95  -85  -67  -28  21  63  98  151  245  380  531  663  757  817  862  904  949  1035  1196  1404  1582  1704  1820  1967  2140  2316  2468  2587  2712  2860  2989  3064  3105  3156  3229  3283  3255  3102  2858  2597  2333  2033  1705  1390  1107  806  437  64  -177  -252  -233  -202  -210  -288  -431  -582  -689  -759  -846  -984  -1146  -1262  -1302  -1278  -1183  -1016  -837  -723  -690  -707  -740  -781  -832  -890  -917  -884  -817  -753  -705  -679  -677  -685  -690  -689  -693  -707  -728  -742  -749  -754  -755  -730  -663  -570  -497  -470  -494  -572  -683  -777  -822  -837  -852  -870  -878  -856  -805  -755  -734  -733  -722  -709  -721  -772  -827  -835  -787  -715  -634  -556  -508  -529  -633  -779  -883  -895  -827  -726  -642  -585  -551  -557  -615  -716  -839  -967  -1070  -1108  -1060  -943  -807  -691  -622  -610  -620  -608  -578  -546  -493  -402  -291  -193  -125  -76  -37  -15  -32  -100  -193  -261  -282  -277  -269  -272  -294  -333  -387  -472  -596  -744  -890  -1004  -1064  -1048  -930  -701  -443  -296  -313  -420  -521  -616  -740  -814  -648  -121  738  1828  2985  3955  4477  4423  3800  2665  1156  -457  -1827  -2680  -2975  -2816  -2276  -1515  -908  -696  -733  -783  -783  -759  -734  -697  -613  -480  -337  -212  -108  -38  -17  -35  -58  -58  -39  -18  3  31  70  112  154  218  336  497  659  817  967  1070  1125  1181  1263  1342  1400  1478  1639  1902  2185  2394  2547  2738  2985  3200  3310  3332  3315  3277  3211  3129  3056  2999  2947  2887  2801  2635  2334  1929  1516  1132  758  424  185  33  -85  -202  -294  -332  -326  -309  -314  -359  -443  -540  -610  -641  -646  -647  -644  -633  -625  -649  -727  -838  -924  -935  -867  -760  -665  -595  -530  -468  -429  -437  -482  -526  -543  -538  -525  -517  -515  -494  -433  -346  -281  -262  -273  -292  -318  -350  -363  -347  -339  -371  -426  -464  -473  -465  -465  -495  -560  -640  -703  -735  -741  -710  -630  -523  -446  -422  -432  -454  -479  -507  -534  -555  -568  -572  -573  -585  -616  -646  -634  -562  -444  -318  -229  -190  -182  -184  -214  -300  -423  -527  -588  -629  -665  -701  -745  -788  -807  -802  -777  -745  -714  -684  -649  -600  -524  -437  -395  -432  -502  -546  -558  -556  -555  -577  -636  -706  -722  -644  -501  -364  -267  -207  -172  -132  -54  49  125  154  156  157  166  163  102  -52  -272  -476  -600  -636  -602  -534  -490  -502  -540  -563  -550  -503  -443  -398  -371  -355  -374  -475  -655  -771  -668  -337  182  890  1762  2730  3670  4354  4543  4093  3019  1520  -81  -1417  -2249  -2579  -2522  -2193  -1741  -1261  -810  -506  -406  -432  -490  -539  -571  -573  -531  -443  -321  -189  -73  -4  0  -35  -56  -27  38  103  141  153  166  193  214  214  211  259  414  657  893  1049  1132  1196  1295  1461  1660  1816  1914  2029  2228  2484  2693  2800  2839  2871  2942  3068  3230  3371  3427  3355  3141  2856  2619  2497  2457  2422  2299  2010  1572  1114  752  497  287  69  -147  -312  -411  -474  -515  -546  -583  -633  -695  -766  -831  -863  -851  -814  -783  -772  -784  -818  -863  -898  -915  -916  -890  -824  -739  -677  -637  -578  -487  -405  -364  -357  -364  -377  -396  -411  -409  -395  -394  -423  -496  -624  -777  -877  -858  -706  -494  -341  -313  -393  -526  -640  -683  -644  -550  -450  -389  -375  -402  -471  -573  -655  -660  -597  -534  -501  -476  -448  -425  -414  -412  -417  -440  -479  -506  -508  -509  -528  -557  -576  -559  -509  -465  -452  -455  -440  -386  -311  -255  -237  -254  -299  -367  -449  -539  -624  -685  -722  -748  -743  -683  -581  -485  -437  -442  -479  -535  -603  -658  -680  -674  -652  -620  -568  -507  -460  -435  -409  -366  -322  -322  -370  -424  -451  -450  -438  -431  -434  -440  -440  -442  -472  -551  -643  -690  -690  -670  -634  -577  -500  -387  -241  -103  -12  35  65  75  51  6  -30  -42  -27  -3  13  20  22  13  -19  -78  -139  -184  -218  -251  -284  -314  -313  -286  -306  -404  -518  -588  -614  -624  -651  -706  -747  -661  -381  -7  352  763  1320  2052  2968  3915  4535  4528  3794  2424  696  -922  -1995  -2427  -2437  -2213  -1814  -1356  -1030  -890  -845  -822  -807  -789  -723  -557  -326  -139  -50  -29  -33  -44  -61  -83  -105  -127  -152  -175  -168  -85  79  259  384  442  479  546  669  823  956  1053  1150  1260  1347  1392  1424  1497  1651  1875  2119  2341  2536  2713  2866  2975  3055  3127  3187  3224  3247  3249  3220  3157  3041  2844  2612  2441  2330  2172  1920  1617  1291  939  580  247  -25  -203  -280  -293  -314  -389  -500  -590  -651  -715  -788  -842  -870  -892  -917  -934  -945  -963  -997  -1028  -1010  -918  -796  -723  -706  -694  -664  -626  -590  -556  -524  -504  -497  -493  -484  -475  -480  -510  -553  -578  -563  -521  -481  -457  -445  -429  -400  -360  -326  -316  -335  -353  -348  -332  -329  -340  -344  -350  -404  -528  -673  -770  -795  -779  -753  -712  -648  -579  -535  -529  -542  -557  -567  -573  -577  -575  -566  -551  -529  -504  -484  -479  -491  -514  -530  -523  -500  -468  -427  -405  -445  -554  -688  -774  -779  -749  -726  -700  -638  -552  -483  -452  -445  -444  -451  -497  -605  -746  -846  -853  -760  -606  -462  -385  -380  -438  -548  -669  -747  -772  -775  -776  -758  -702  -616  -519  -403  -276  -189  -187  -271  -390  -482  -523  -527  -512  -488  -458  -426  -407  -414  -443  -489  -533  -531  -467  -370  -261  -162  -100  -83  -98  -142  -221  -325  -400  -366  -198  27  213  323  368  374  354  310  251  193  125  16  -132  -277  -385  -446  -458  -429  -382  -353  -363  -425  -530  -628  -686  -716  -726  -695  -610  -498  -376  -194  119  567  1118  1748  2431  3131  3750  4112  4027  3372  2139  495  -1185  -2447  -3030  -2946  -2394  -1663  -1035  -682  -610  -672  -715  -680  -587  -485  -411  -362  -326  -305  -305  -312  -301  -241  -135  -31  25  37  41  62  100  143  189  243  308  389  474  550  643  791  982  1173  1319  1402  1453  1542  1700  1884  2052  2235  2479  2739  2912  2972  2990  3053  3175  3308  3408  3467  3479  3425  3300  3121  2919  2728  2587  2516  2450  2227  1729  1090  601  379  285  160  -10  -162  -268  -345  -402  -457  -544  -658  -756  -821  -879  -924  -919  -863  -799  -752  -715  -682  -661  -658  -677  -708  -712  -658  -571  -510  -486  -467  -439  -429  -462  -524  -573  -594  -596  -596  -601  -614  -624  -602  -516  -388  -294  -275  -297  -314  -318  -335  -394  -483  -553  -577  -574  -579  -608  -649  -679  -702  -721  -723  -705  -681  -657  -635  -619  -617  -632  -641  -617  -570  -529  -511  -510  -514  -518  -523  -522  -504  -465  -445  -497  -615  -719  -737  -663  -544  -433  -337  -248  -198  -229  -341  -473  -543  -527  -468  -429  -431  -438  -428  -417  -408  -402  -399  -430  -542  -712  -841  -872  -828  -753  -680  -623  -582  -543  -493  -439  -402  -387  -384  -382  -379  -375  -376  -385  -400  -402  -389  -392  -427  -479  -536  -591  -626  -628  -596  -539  -477  -429  -412  -426  -445  -444  -422  -386  -346  -320  -318  -336  -364  -362  -252  20  367  601  596  360  30  -205  -264  -188  -53  70  127  87  -60  -298  -550  -726  -795  -788  -733  -644  -540  -446  -380  -347  -345  -382  -471  -587  -626  -480  -185  152  566  1191  2085  3154  4143  4708  4580  3685  2183  424  -1156  -2200  -2589  -2460  -2068  -1652  -1357  -1202  -1121  -1038  -906  -709  -502  -369  -325  -317  -298  -264  -246  -259  -288  -310  -324  -330  -299  -195  -34  118  230  317  387  419  412  405  417  450  521  651  836  1045  1231  1363  1451  1520  1579  1639  1737  1924  2207  2521  2778  2932  3010  3061  3107  3173  3283  3414  3503  3532  3524  3483  3367  3122  2786  2484  2274  2055  1731  1344  987  683  426  217  18  -223  -477  -646  -698  -688  -669  -658  -656  -667  -698  -744  -791  -825  -844  -864  -899  -946  -986  -1007  -999  -944  -827  -679  -561  -514  -537  -613  -721  -832  -907  -934  -927  -892  -816  -701  -583  -506  -469  -439  -410  -402  -412  -422  -422  -414  -411  -435  -507  -614  -718  -790  -824  -817  -779  -731  -695  -665  -614  -546  -494  -475  -484  -508  -537  -558  -567  -567  -564  -560  -558  -572  -616  -685  -757  -812  -832  -809  -755  -686  -624  -583  -565  -552  -527  -495  -474  -468  -470  -475  -486  -506  -533  -562  -591  -632  -684  -732  -762  -770  -728  -610  -448  -327  -284  -289  -305  -319  -342  -385  -443  -496  -541  -584  -614  -613  -565  -478  -392  -355  -380  -441  -499  -539  -556  -542  -477  -353  -208  -101  -54  -41  -25  10  57  89  101  99  88  66  40  32  50  62  24  -71  -191  -309  -418  -506  -558  -574  -568  -554  -541  -532  -530  -536  -560  -606  -653  -672  -661  -620  -541  -409  -152  360  1157  2056  2810  3285  3431  3199  2604  1674  410  -986  -2083  -2582  -2520  -2133  -1659  -1248  -996  -927  -951  -963  -920  -801  -603  -396  -268  -225  -209  -187  -166  -155  -148  -136  -117  -90  -51  -6  40  98  161  206  225  236  257  302  388  506  622  732  850  975  1107  1248  1371  1459  1550  1714  1993  2356  2692  2895  2966  2979  3010  3102  3251  3417  3546  3614  3615  3504  3231  2841  2469  2216  2078  2001  1948  1882  1682  1233  614  91  -169  -239  -279  -365  -491  -619  -705  -739  -750  -759  -766  -769  -788  -855  -987  -1147  -1257  -1271  -1177  -1004  -833  -761  -817  -946  -1066  -1113  -1031  -778  -437  -190  -122  -186  -296  -391  -449  -479  -499  -516  -524  -497  -386  -176  56  197  176  -11  -283  -502  -601  -607  -575  -541  -534  -564  -613  -655  -681  -699  -711  -712  -695  -663  -625  -587  -547  -504  -468  -451  -470  -533  -614  -668  -679  -659  -603  -495  -368  -321  -420  -607  -762  -821  -798  -731  -643  -553  -481  -440  -433  -446  -463  -481  -506  -538  -568  -584  -585  -571  -551  -525  -495  -486  -522  -579  -617  -623  -606  -582  -569  -572  -583  -592  -594  -580  -543  -464  -334  -173  -18  102  184  242  273  268  221  141  41  -62  -165  -258  -329  -376  -419  -466  -502  -507  -496  -503  -540  -570  -534  -432  -325  -283  -333  -426  -492  -522  -563  -605  -546  -311  91  653  1389  2273  3200  3957  4285  3986  3029  1581  -51  -1475  -2335  -2538  -2298  -1897  -1542  -1341  -1269  -1215  -1086  -858  -596  -401  -317  -309  -320  -310  -280  -248  -233  -231  -227  -205  -166  -135  -133  -144  -137  -65  103  328  504  577  574  546  532  583  740  970  1168  1279  1339  1410  1530  1689  1849  2004  2160  2314  2481  2656  2799  2893  2982  3106  3247  3358  3411  3393  3310  3185  3049  2901  2723  2492  2224  1957  1671  1318  938  623  382  167  -40  -244  -464  -694  -870  -945  -932  -875  -825  -827  -876  -927  -957  -971  -979  -979  -966  -938  -907  -881  -866  -869  -884  -895  -904  -910  -902  -862  -786  -698  -636  -614  -614  -616  -613  -607  -599  -587  -568  -548  -539  -543  -556  -572  -586  -596  -596  -585  -567  -544  -517  -498  -498  -527  -573  -609  -606  -570  -534  -521  -529  -549  -577  -610  -640  -663  -659  -589  -435  -287  -296  -462  -643  -742  -763  -721  -612  -473  -370  -335  -348  -388  -438  -478  -493  -489  -491  -525  -587  -641  -657  -629  -575  -549  -582  -636  -649  -605  -536  -483  -458  -445  -432  -425  -438  -482  -543  -589  -607  -607  -599  -589  -574  -549  -513  -488  -497  -524  -526  -482  -408  -309  -201  -128  -123  -181  -264  -328  -359  -362  -331  -250  -126  -1  74  92  74  42  1  -46  -84  -95  -75  -49  -82  -234  -451  -607  -647  -623  -594  -581  -575  -573  -587  -631  -696  -748  -748  -671  -539  -435  -373  -228  109  647  1379  2313  3376  4307  4752  4483  3436  1765  -71  -1544  -2375  -2590  -2435  -2149  -1794  -1395  -1070  -893  -818  -786  -774  -767  -730  -617  -437  -271  -186  -174  -187  -190  -170  -131  -93  -66  -35  25  131  281  440  552  588  574  552  546  561  614  731  907  1110  1288  1398  1466  1572  1757  1998  2227  2376  2443  2494  2582  2731  2962  3249  3493  3613  3612  3534  3428  3336  3243  3108  2949  2832  2749  2587  2263  1828  1394  1029  754  564  428  292  111  -116  -353  -555  -689  -748  -762  -762  -761  -755  -741  -722  -709  -704  -700  -695  -689  -682  -672  -658  -659  -709  -808  -895  -910  -847  -762  -726  -746  -766  -761  -751  -736  -682  -586  -495  -450  -452  -476  -500  -510  -489  -443  -404  -396  -418  -453  -483  -503  -520  -549  -582  -570  -494  -410  -384  -437  -552  -680  -758  -772  -759  -750  -740  -707  -646  -578  -522  -491  -463  -409  -334  -275  -255  -270  -305  -343  -365  -377  -415  -505  -628  -722  -755  -732  -663  -572  -500  -470  -479  -502  -511  -512  -535  -600  -708  -819  -858  -796  -673  -552  -482  -463  -453  -420  -380  -370  -395  -424  -447  -483  -538  -594  -629  -633  -611  -599  -626  -672  -723  -784  -831  -807  -682  -512  -398  -374  -394  -424  -463  -506  -528  -514  -476  -442  -427  -426  -431  -440  -455  -473  -465  -382  -201  13  164  233  255  253  219  139  22  -82  -143  -175  -206  -242  -274  -297  -316  -328  -333  -339  -370  -440  -533  -606  -635  -611  -514  -363  -253  -275  -350  -234  280  1239  2561  3964  4987  5270  4688  3311  1402  -583  -2127  -2891  -2869  -2352  -1783  -1452  -1332  -1268  -1155  -978  -785  -612  -461  -338  -252  -206  -195  -232  -342  -498  -618  -628  -506  -303  -111  13  76  111  145  209  328  475  579  622  657  723  811  908  1027  1154  1255  1340  1465  1643  1822  1951  2043  2161  2365  2633  2866  3024  3170  3355  3531  3632  3659  3643  3589  3483  3328  3165  3027  2878  2621  2228  1811  1498  1292  1115  896  625  370  209  132  60  -55  -204  -360  -491  -570  -602  -629  -683  -770  -872  -967  -1027  -1024  -975  -938  -932  -955  -1003  -1052  -1059  -1001  -881  -719  -541  -411  -403  -499  -597  -640  -644  -643  -646  -633  -582  -505  -433  -384  -359  -353  -361  -380  -410  -447  -482  -493  -473  -460  -492  -551  -592  -599  -586  -576  -568  -546  -501  -444  -405  -409  -444  -487  -536  -578  -592  -582  -563  -550  -547  -550  -556  -564  -575  -584  -584  -565  -520  -470  -451  -456  -450  -431  -413  -401  -391  -382  -370  -355  -344  -341  -348  -359  -362  -362  -367  -377  -387  -402  -423  -439  -431  -409  -408  -437  -472  -494  -502  -501  -493  -477  -448  -404  -339  -259  -190  -169  -217  -305  -378  -416  -448  -494  -526  -509  -459  -414  -389  -382  -380  -371  -340  -291  -252  -234  -221  -205  -193  -193  -207  -226  -243  -254  -258  -240  -189  -112  -28  59  146  206  231  239  248  259  264  247  186  72  -67  -183  -263  -342  -431  -500  -537  -555  -565  -578  -604  -639  -666  -691  -731  -777  -796  -781  -765  -729  -539  -66  652  1448  2171  2818  3476  4084  4390  4142  3197  1578  -379  -2032  -2887  -2947  -2487  -1850  -1373  -1137  -978  -812  -679  -589  -516  -433  -330  -226  -153  -115  -98  -94  -92  -78  -49  -22  -11  -9  -5  4  21  49  99  192  323  462  582  673  722  741  758  786  815  842  906  1071  1348  1649  1885  2074  2275  2496  2714  2891  3000  3063  3120  3179  3228  3258  3268  3260  3221  3112  2916  2687  2498  2350  2137  1767  1311  954  790  742  675  518  287  47  -148  -309  -472  -644  -788  -884  -951  -1014  -1068  -1108  -1139  -1162  -1176  -1173  -1122  -1006  -866  -771  -744  -755  -770  -767  -723  -635  -540  -479  -460  -459  -463  -485  -542  -615  -661  -665  -649  -639  -639  -640  -633  -608  -560  -492  -429  -397  -418  -500  -617  -718  -770  -766  -698  -575  -434  -321  -277  -330  -482  -688  -867  -962  -980  -963  -939  -916  -889  -837  -747  -645  -569  -528  -508  -504  -531  -610  -719  -796  -801  -734  -640  -573  -557  -582  -627  -668  -689  -689  -678  -655  -610  -551  -508  -510  -568  -662  -745  -776  -747  -670  -561  -441  -343  -285  -268  -285  -319  -345  -355  -366  -392  -419  -422  -405  -392  -394  -404  -411  -420  -437  -446  -398  -261  -86  37  90  140  238  362  467  528  525  405  135  -193  -423  -496  -480  -454  -468  -542  -647  -723  -720  -635  -512  -415  -375  -403  -524  -690  -679  -306  304  860  1208  1451  1841  2517  3316  3845  3782  3048  1774  274  -1024  -1841  -2192  -2222  -2078  -1898  -1714  -1482  -1189  -861  -560  -353  -247  -201  -195  -221  -253  -259  -231  -188  -157  -147  -147  -147  -139  -123  -103  -80  -52  6  120  265  385  470  551  634  699  740  794  919  1100  1264  1369  1438  1513  1626  1784  1980  2215  2491  2768  2970  3066  3089  3085  3085  3106  3153  3227  3313  3381  3394  3301  3069  2745  2421  2114  1772  1390  1032  743  506  264  -10  -276  -480  -617  -706  -761  -804  -858  -925  -994  -1053  -1083  -1071  -1028  -976  -941  -929  -944  -990  -1059  -1128  -1175  -1186  -1155  -1086  -991  -883  -780  -722  -730  -763  -761  -709  -639  -605  -639  -703  -744  -760  -765  -769  -769  -744  -678  -586  -512  -480  -479  -488  -498  -513  -537  -559  -563  -550  -539  -541  -549  -560  -578  -604  -629  -649  -664  -675  -679  -672  -655  -636  -613  -568  -491  -406  -353  -352  -392  -441  -466  -460  -442  -425  -409  -394  -380  -379  -405  -455  -502  -531  -541  -541  -535  -526  -512  -488  -449  -402  -377  -386  -410  -441  -490  -551  -584  -567  -520  -481  -457  -441  -441  -476  -535  -589  -609  -591  -549  -506  -474  -457  -452  -450  -440  -418  -391  -351  -275  -171  -72  0  51  93  133  155  148  110  51  15  35  80  101  86  52  6  -72  -200  -336  -422  -448  -454  -492  -579  -673  -711  -692  -658  -633  -612  -598  -607  -642  -638  -424  124  945  1894  2833  3578  4005  4101  3813  3037  1748  113  -1437  -2428  -2712  -2492  -2075  -1688  -1404  -1179  -945  -713  -555  -490  -458  -409  -356  -331  -326  -297  -241  -195  -172  -147  -104  -61  -32  -19  4  70  163  236  272  287  296  316  377  496  637  738  797  875  1032  1264  1503  1693  1821  1905  1984  2109  2299  2506  2679  2795  2859  2905  2981  3099  3219  3308  3360  3369  3328  3215  3005  2743  2525  2363  2153  1814  1378  952  634  462  378  280  115  -99  -330  -558  -747  -854  -870  -836  -792  -741  -680  -626  -605  -627  -679  -733  -762  -765  -759  -755  -749  -739  -737  -750  -762  -746  -696  -631  -588  -582  -592  -595  -602  -605  -575  -509  -433  -372  -349  -380  -459  -554  -623  -650  -650  -641  -631  -601  -544  -494  -493  -540  -607  -655  -663  -650  -638  -628  -614  -598  -587  -583  -582  -582  -580  -577  -572  -574  -593  -625  -640  -618  -577  -544  -525  -516  -514  -522  -545  -578  -600  -588  -531  -443  -367  -347  -396  -478  -539  -561  -563  -561  -558  -563  -579  -593  -596  -595  -607  -645  -703  -755  -791  -811  -823  -830  -814  -731  -566  -378  -261  -248  -309  -405  -499  -560  -594  -629  -671  -702  -719  -735  -760  -779  -765  -701  -602  -487  -354  -214  -112  -74  -84  -129  -203  -279  -322  -305  -216  -85  32  109  152  175  169  114  23  -68  -142  -193  -229  -263  -305  -345  -377  -412  -455  -516  -611  -725  -808  -829  -793  -736  -688  -653  -629  -639  -672  -619  -341  221  1034  2044  3162  4167  4790  4816  4086  2639  822  -882  -2085  -2636  -2632  -2287  -1831  -1432  -1144  -960  -866  -834  -831  -836  -834  -810  -747  -636  -468  -232  30  223  296  285  246  204  155  104  65  45  55  115  232  383  517  592  631  696  817  964  1085  1160  1228  1319  1425  1541  1691  1869  2027  2158  2315  2526  2755  2978  3219  3471  3666  3735  3669  3504  3319  3183  3093  3005  2900  2791  2649  2393  2015  1623  1322  1134  1005  834  565  220  -131  -405  -543  -572  -565  -562  -563  -564  -580  -634  -718  -786  -805  -788  -765  -755  -758  -766  -767  -741  -673  -587  -536  -547  -593  -622  -607  -564  -520  -484  -463  -456  -460  -473  -496  -522  -527  -475  -348  -195  -90  -79  -162  -285  -390  -459  -498  -506  -490  -476  -482  -490  -488  -500  -543  -596  -643  -681  -693  -666  -613  -547  -464  -376  -309  -270  -245  -237  -255  -288  -316  -327  -323  -315  -328  -385  -469  -530  -528  -476  -426  -418  -437  -441  -421  -406  -416  -438  -455  -472  -495  -504  -467  -394  -335  -314  -315  -318  -325  -349  -402  -486  -580  -638  -625  -562  -493  -460  -477  -512  -533  -538  -542  -551  -561  -555  -527  -492  -464  -441  -418  -391  -358  -340  -361  -411  -475  -540  -592  -628  -649  -641  -595  -517  -433  -372  -346  -342  -347  -363  -394  -415  -380  -275  -147  -44  36  110  174  231  288  344  394  416  360  186  -70  -303  -442  -508  -548  -585  -613  -610  -555  -463  -382  -345  -368  -467  -630  -797  -901  -882  -681  -339  -25  178  403  842  1630  2756  3938  4691  4635  3712  2156  348  -1279  -2344  -2699  -2521  -2094  -1585  -1117  -809  -676  -639  -639  -651  -667  -681  -669  -595  -441  -249  -87  16  76  110  125  119  101  104  139  180  208  232  270  326  390  456  528  596  642  663  687  760  911  1116  1321  1480  1581  1656  1766  1947  2170  2384  2576  2753  2911  3027  3089  3126  3186  3267  3315  3296  3238  3188  3133  3005  2780  2501  2214  1926  1650  1412  1159  796  350  -26  -252  -366  -446  -531  -617  -684  -729  -762  -806  -870  -926  -928  -841  -705  -603  -574  -587  -599  -589  -573  -586  -656  -774  -907  -1002  -1008  -914  -758  -592  -471  -425  -436  -468  -487  -479  -461  -450  -455  -476  -504  -526  -537  -541  -544  -543  -537  -530  -524  -523  -527  -532  -533  -538  -553  -571  -581  -588  -603  -618  -611  -559  -469  -391  -379  -442  -550  -664  -747  -784  -789  -784  -771  -743  -708  -683  -672  -664  -650  -635  -626  -614  -588  -552  -523  -507  -497  -493  -505  -543  -590  -619  -627  -630  -633  -630  -629  -647  -684  -726  -765  -792  -788  -754  -713  -674  -621  -554  -498  -466  -455  -471  -516  -567  -608  -636  -654  -662  -648  -598  -520  -449  -413  -409  -413  -401  -352  -260  -144  -43  8  8  -26  -71  -101  -108  -102  -98  -118  -185  -287  -384  -452  -496  -521  -520  -486  -430  -412  -469  -566  -655  -724  -775  -810  -833  -824  -731  -521  -195  219  671  1168  1806  2612  3453  4029  3972  3142  1690  -41  -1551  -2392  -2485  -2133  -1732  -1475  -1329  -1204  -1061  -908  -767  -647  -562  -528  -548  -586  -590  -525  -392  -236  -112  -45  -27  -30  -30  -20  -1  23  67  135  219  327  475  632  724  723  673  627  605  605  639  731  888  1104  1383  1706  2005  2213  2346  2457  2564  2655  2725  2783  2851  2948  3060  3154  3205  3213  3191  3147  3053  2866  2564  2176  1760  1381  1104  951  844  682  452  192  -81  -336  -501  -564  -597  -644  -677  -678  -692  -747  -805  -831  -827  -816  -816  -825  -835  -836  -827  -816  -808  -805  -812  -836  -869  -896  -905  -888  -834  -745  -652  -596  -580  -576  -564  -549  -550  -571  -611  -666  -710  -705  -626  -490  -353  -262  -230  -262  -364  -503  -600  -583  -437  -232  -83  -49  -113  -236  -388  -557  -720  -837  -902  -939  -961  -955  -879  -702  -477  -313  -259  -284  -350  -429  -491  -519  -511  -471  -418  -379  -361  -347  -330  -327  -355  -402  -443  -475  -514  -558  -588  -594  -583  -566  -556  -549  -520  -475  -456  -488  -542  -571  -555  -522  -500  -487  -477  -470  -470  -474  -479  -472  -441  -381  -299  -203  -110  -42  -10  -2  -1  0  -9  -59  -150  -250  -317  -341  -337  -330  -345  -403  -496  -581  -633  -661  -684  -698  -684  -628  -551  -494  -475  -479  -486  -495  -491  -392  -78  517  1362  2297  3118  3719  4014  3829  3069  1794  178  -1366  -2362  -2670  -2438  -1926  -1452  -1164  -967  -782  -654  -612  -619  -627  -604  -533  -438  -369  -342  -334  -326  -313  -301  -298  -304  -303  -244  -75  153  327  401  419  428  444  480  547  627  683  700  689  664  647  693  870  1159  1457  1681  1826  1942  2119  2421  2794  3119  3316  3365  3278  3105  2938  2848  2855  2945  3074  3166  3130  2898  2506  2068  1669  1351  1120  923  715  509  320  138  -36  -189  -333  -491  -639  -726  -745  -743  -761  -810  -866  -895  -890  -868  -848  -841  -850  -876  -914  -947  -960  -941  -878  -781  -684  -610  -566  -561  -610  -695  -761  -780  -768  -743  -709  -647  -534  -386  -267  -218  -237  -305  -409  -519  -590  -613  -612  -608  -596  -563  -518  -481  -462  -458  -463  -478  -504  -536  -567  -594  -609  -611  -606  -606  -601  -567  -507  -459  -441  -439  -436  -432  -435  -456  -499  -552  -589  -603  -603  -600  -597  -591  -585  -586  -580  -538  -457  -369  -309  -287  -300  -353  -443  -536  -592  -607  -604  -600  -592  -573  -542  -502  -460  -431  -421  -427  -443  -463  -477  -482  -481  -479  -477  -473  -470  -471  -479  -496  -526  -572  -617  -634  -620  -599  -589  -589  -598  -613  -620  -571  -423  -221  -70  -13  -9  -21  -41  -54  -39  13  93  171  215  222  213  208  206  187  132  61  6  -54  -173  -335  -458  -509  -523  -536  -553  -569  -585  -618  -670  -709  -693  -626  -560  -518  -452  -327  -160  97  587  1406  2480  3580  4407  4654  4162  3050  1548  -84  -1477  -2317  -2561  -2354  -1947  -1589  -1308  -1015  -742  -588  -557  -591  -647  -705  -744  -734  -659  -526  -373  -246  -176  -167  -194  -223  -221  -170  -83  16  112  196  253  277  279  261  243  278  420  660  900  1042  1083  1102  1173  1298  1434  1583  1804  2073  2273  2358  2412  2526  2736  3001  3220  3327  3345  3323  3282  3221  3150  3086  3015  2901  2712  2419  2019  1573  1191  942  819  751  651  466  243  61  -91  -279  -499  -701  -845  -922  -950  -953  -953  -958  -966  -962  -924  -832  -682  -515  -400  -382  -473  -649  -835  -950  -985  -976  -932  -841  -706  -567  -464  -418  -438  -522  -634  -712  -718  -656  -558  -454  -342  -241  -193  -212  -271  -339  -404  -485  -600  -716  -782  -783  -729  -641  -545  -475  -454  -471  -495  -513  -534  -572  -607  -610  -581  -552  -541  -543  -546  -547  -549  -548  -542  -536  -541  -571  -628  -687  -721  -713  -660  -577  -486  -407  -382  -434  -516  -564  -570  -559  -548  -544  -558  -602  -663  -714  -747  -770  -783  -783  -768  -733  -664  -570  -487  -447  -442  -451  -456  -447  -421  -397  -400  -430  -473  -521  -572  -627  -683  -711  -654  -511  -367  -306  -329  -377  -411  -436  -435  -362  -212  -43  74  111  75  0  -74  -121  -134  -109  -47  31  90  102  44  -98  -297  -477  -567  -558  -497  -450  -448  -465  -478  -495  -528  -569  -606  -632  -648  -640  -562  -403  -245  -142  2  298  750  1358  2168  3156  4126  4743  4664  3730  2061  38  -1713  -2658  -2778  -2447  -1974  -1533  -1205  -948  -724  -582  -540  -545  -549  -544  -539  -537  -525  -484  -416  -348  -300  -256  -198  -133  -70  0  70  123  147  141  125  134  167  215  279  368  481  616  774  949  1122  1273  1377  1421  1437  1493  1625  1823  2061  2327  2603  2851  3037  3175  3294  3385  3417  3377  3288  3200  3137  3084  3022  2944  2815  2579  2241  1891  1590  1306  1011  770  622  475  193  -204  -548  -718  -748  -727  -706  -703  -726  -779  -853  -921  -956  -944  -886  -809  -753  -734  -735  -742  -756  -777  -788  -774  -751  -738  -738  -744  -747  -734  -694  -638  -597  -578  -563  -532  -487  -456  -469  -521  -574  -613  -641  -653  -632  -566  -468  -375  -316  -291  -286  -309  -377  -483  -578  -625  -628  -606  -575  -554  -576  -675  -836  -991  -1076  -1046  -855  -523  -190  4  38  -45  -212  -415  -579  -658  -667  -648  -629  -619  -614  -609  -608  -633  -703  -796  -866  -890  -866  -783  -645  -485  -351  -280  -270  -289  -303  -305  -310  -333  -381  -447  -517  -572  -605  -631  -660  -695  -742  -793  -827  -842  -847  -830  -750  -584  -387  -247  -195  -198  -214  -230  -252  -291  -342  -389  -441  -520  -612  -677  -676  -568  -346  -73  169  337  411  401  355  320  310  314  317  305  271  200  74  -117  -358  -585  -725  -768  -756  -711  -629  -520  -440  -442  -503  -548  -555  -581  -654  -718  -649  -373  -17  263  618  1283  2212  3191  4023  4476  4336  3563  2270  597  -1143  -2432  -2942  -2788  -2302  -1774  -1382  -1160  -1020  -888  -762  -658  -594  -574  -592  -637  -693  -732  -726  -646  -488  -307  -173  -108  -101  -125  -142  -121  -59  28  116  169  193  253  400  596  741  789  773  748  772  896  1110  1324  1467  1559  1659  1798  1981  2213  2458  2676  2879  3087  3260  3348  3366  3363  3377  3405  3423  3401  3324  3192  2986  2668  2237  1774  1396  1163  1014  827  544  248  61  -4  -58  -195  -398  -597  -782  -953  -1066  -1096  -1070  -1023  -978  -953  -960  -987  -995  -940  -811  -651  -541  -526  -589  -678  -740  -748  -713  -664  -629  -615  -615  -626  -650  -677  -690  -682  -655  -623  -607  -627  -672  -708  -684  -582  -478  -465  -517  -560  -577  -591  -620  -661  -692  -701  -702  -715  -740  -747  -715  -667  -620  -563  -503  -462  -444  -439  -440  -444  -446  -437  -404  -356  -315  -304  -345  -452  -587  -682  -714  -705  -681  -643  -584  -504  -419  -353  -300  -255  -230  -241  -286  -346  -397  -424  -430  -425  -415  -403  -393  -395  -419  -469  -523  -558  -569  -569  -564  -547  -517  -493  -484  -471  -441  -410  -394  -400  -441  -517  -607  -670  -690  -680  -647  -585  -502  -434  -408  -418  -439  -455  -464  -460  -427  -361  -277  -204  -161  -146  -147  -155  -159  -143  -94  -26  25  44  42  32  17  3  -5  -8  -12  -15  -7  5  -24  -148  -349  -539  -641  -656  -619  -560  -502  -466  -460  -484  -533  -604  -694  -802  -907  -930  -764  -403  82  749  1710  2856  3901  4599  4771  4299  3234  1763  90  -1498  -2618  -3048  -2881  -2375  -1816  -1418  -1220  -1131  -1062  -964  -817  -649  -527  -486  -487  -460  -364  -246  -186  -191  -203  -200  -198  -198  -171  -89  29  129  192  232  257  277  317  401  516  641  773  911  1029  1104  1155  1236  1392  1603  1799  1965  2165  2451  2762  2986  3080  3093  3091  3112  3175  3282  3402  3480  3482  3403  3272  3126  2971  2780  2532  2236  1922  1637  1414  1242  1056  777  405  26  -274  -470  -569  -601  -603  -610  -645  -709  -781  -844  -892  -924  -943  -955  -961  -944  -891  -813  -732  -675  -653  -655  -663  -668  -669  -663  -648  -627  -612  -607  -608  -610  -612  -613  -609  -602  -605  -623  -647  -652  -618  -555  -490  -441  -425  -465  -560  -672  -750  -778  -775  -767  -768  -776  -773  -742  -695  -662  -656  -662  -654  -619  -584  -576  -578  -579  -581  -577  -576  -605  -654  -687  -681  -643  -597  -567  -553  -541  -529  -523  -524  -527  -529  -531  -530  -522  -506  -494  -515  -575  -650  -714  -759  -787  -784  -734  -650  -569  -521  -503  -497  -492  -487  -486  -485  -481  -472  -466  -474  -494  -513  -529  -551  -583  -624  -673  -734  -801  -861  -886  -837  -691  -491  -329  -253  -240  -243  -236  -209  -167  -113  -39  43  104  132  141  140  112  39  -70  -175  -237  -261  -273  -291  -317  -348  -380  -411  -437  -453  -456  -469  -517  -586  -634  -648  -647  -653  -663  -652  -612  -577  -542  -409  -41  649  1631  2771  3861  4616  4753  4136  2839  1107  -651  -1965  -2549  -2475  -2101  -1777  -1589  -1424  -1209  -979  -799  -686  -596  -483  -367  -295  -275  -283  -297  -311  -309  -265  -178  -88  -38  -26  -33  -44  -57  -52  7  159  370  559  679  756  835  925  1002  1073  1162  1260  1333  1394  1487  1610  1738  1905  2167  2469  2683  2770  2817  2900  3025  3162  3283  3355  3362  3327  3290  3267  3243  3157  2940  2620  2321  2109  1923  1683  1333  883  463  213  116  36  -110  -296  -454  -553  -605  -647  -713  -817  -925  -975  -958  -933  -927  -893  -810  -735  -718  -745  -782  -805  -814  -818  -818  -802  -753  -686  -634  -615  -619  -627  -626  -601  -534  -429  -324  -258  -232  -232  -268  -361  -496  -614  -678  -696  -688  -671  -655  -644  -627  -591  -536  -488  -451  -411  -364  -325  -302  -289  -285  -304  -360  -438  -503  -548  -602  -668  -717  -731  -721  -707  -697  -690  -686  -685  -689  -696  -697  -682  -631  -523  -412  -420  -552  -667  -670  -596  -546  -563  -582  -553  -516  -516  -546  -573  -584  -583  -578  -575  -576  -583  -580  -554  -527  -536  -591  -646  -637  -565  -492  -454  -430  -374  -272  -153  -62  -20  -19  -42  -84  -136  -181  -209  -223  -224  -216  -204  -203  -232  -297  -403  -537  -661  -733  -742  -693  -594  -481  -403  -384  -429  -538  -680  -801  -856  -808  -636  -396  -134  230  794  1571  2519  3454  4035  3955  3138  1741  42  -1549  -2560  -2846  -2641  -2176  -1599  -1111  -859  -790  -764  -703  -612  -541  -538  -592  -640  -642  -591  -507  -419  -341  -277  -235  -216  -206  -182  -124  -20  108  208  250  254  250  262  304  368  433  485  555  690  871  1012  1076  1112  1199  1383  1654  1975  2289  2545  2714  2816  2898  2983  3063  3138  3202  3227  3195  3115  3015  2929  2864  2799  2699  2537  2299  1958  1488  969  551  302  181  117  47  -54  -175  -287  -385  -494  -639  -801  -924  -974  -972  -948  -924  -910  -905  -903  -902  -914  -949  -994  -1009  -959  -856  -751  -689  -669  -652  -622  -592  -577  -579  -585  -577  -556  -544  -546  -547  -539  -530  -527  -510  -459  -386  -334  -333  -381  -446  -498  -542  -609  -691  -742  -741  -712  -710  -752  -794  -802  -783  -751  -712  -655  -559  -440  -357  -345  -400  -488  -575  -638  -654  -608  -522  -448  -438  -512  -626  -711  -739  -732  -715  -697  -677  -648  -612  -588  -586  -597  -615  -645  -679  -690  -659  -605  -562  -547  -549  -561  -582  -603  -617  -614  -567  -422  -164  116  300  357  327  223  52  -124  -233  -260  -236  -189  -136  -103  -124  -217  -350  -474  -585  -702  -805  -866  -888  -878  -802  -638  -438  -307  -304  -415  -570  -666  -596  -297  221  924  1809  2827  3761  4235  3966  2999  1598  86  -1177  -1979  -2393  -2543  -2456  -2159  -1702  -1197  -818  -623  -532  -463  -399  -360  -373  -442  -537  -576  -499  -344  -181  -45  41  76  91  121  167  201  209  193  168  147  138  146  186  270  431  706  1026  1239  1288  1250  1210  1197  1212  1253  1343  1573  2027  2591  3004  3184  3263  3338  3385  3359  3280  3201  3144  3102  3082  3078  3033  2869  2588  2280  2007  1741  1416  1025  647  368  190  74  0  -45  -107  -223  -368  -492  -567  -598  -599  -586  -570  -559  -566  -604  -675  -761  -837  -882  -894  -890  -878  -859  -832  -800  -770  -743  -719  -701  -701  -726  -766  -785  -754  -664  -519  -355  -245  -223  -275  -366  -474  -578  -647  -643  -565  -459  -380  -343  -332  -332  -345  -376  -427  -480  -516  -529  -530  -515  -476  -421  -378  -360  -362  -373  -387  -406  -437  -477  -509  -503  -442  -354  -287  -266  -281  -307  -328  -344  -358  -364  -350  -322  -296  -280  -274  -293  -348  -411  -435  -406  -352  -299  -266  -259  -269  -295  -343  -401  -452  -471  -446  -389  -331  -294  -286  -292  -275  -201  -79  38  111  140  152  164  172  174  182  204  230  232  202  160]
