reading_id,reading_time,wire_id,result_classification,heart_rate,heart_rate_alert,firmware_version,device_app_version,hardware_version,waveform_samples
c8fc1a40-5654-11ed-8080-808080808080,Fri Oct 28 00:09:26 UTC 2022,4101e3b01d39,UNCLASSIFIABLE,102,NONE,20001.171.50,2.10.0,Charge 5,[-25220  -25738  -26393  -26989  -27318  -27545  -27865  -27971  -27425  -26526  -26683  -29732  -32768  -32768  -32768  -32768  -32768  -32768  -32768  -32768  -32768  -32768  -32768  -32768  -32768  -32768  -28947  -6633  13588  31638  32767  32767  32767  32767  32767  32767  32767  32767  32767  32767  32767  32767  32767  32767  32767  32767  32767  32767  32767  32767  32767  32767  32767  32767  32767  32767  32767  32767  32767  32767  32767  32767  32767  32767  32767  32767  32767  32767  32767  32767  32767  32767  32767  32767  32767  32767  32767  32767  32767  32767  32767  32767  32767  32767  32767  32767  32767  32767  32207  30814  29282  28017  27237  26810  26335  25374  23796  22016  20610  19708  19093  18626  18246  17810  17113  15994  14599  13362  12499  11897  11464  11164  10850  10375  9818  9429  9410  9847  10660  11547  12147  12104  10931  8389  5039  1888  -470  -1967  -2694  -2856  -2836  -3062  -3761  -4756  -5603  -6028  -6117  -6133  -6312  -6757  -7321  -7717  -7828  -7760  -7670  -7744  -8190  -9016  -9894  -10441  -10583  -10561  -10761  -11441  -12391  -13094  -13324  -13257  -13092  -12860  -12535  -12212  -12044  -12053  -12124  -12170  -12173  -12124  -12004  -11836  -11686  -11591  -11534  -11555  -11809  -12410  -13193  -13816  -14114  -14181  -14184  -14242  -14435  -14771  -15130  -15347  -15367  -15249  -15087  -14941  -14784  -14572  -14332  -14118  -13952  -13845  -13812  -13906  -14181  -14561  -14856  -14973  -14973  -14933  -14868  -14789  -14724  -14680  -14592  -14376  -14063  -13795  -13666  -13635  -13613  -13548  -13441  -13338  -13296  -13348  -13506  -13762  -14039  -14249  -14394  -14507  -14574  -14594  -14599  -14592  -14511  -14281  -13935  -13604  -13325  -13046  -12778  -12556  -12286  -11879  -11445  -11178  -11112  -11148  -11204  -11251  -11284  -11298  -11292  -11264  -11236  -11292  -11545  -11990  -12439  -12688  -12638  -12278  -11724  -11190  -10801  -10495  -10147  -9781  -9554  -9499  -9415  -8975  -7877  -6134  -4314  -3094  -2662  -2922  -3898  -5478  -7179  -8523  -9312  -9555  -9408  -9125  -8919  -8840  -8816  -8793  -8769  -8738  -8675  -8586  -8516  -8503  -8535  -8573  -8601  -8633  -8657  -8578  -8271  -7744  -7185  -6778  -6573  -6497  -6459  -6425  -6395  -6354  -6270  -6105  -5855  -5592  -5419  -5345  -5274  -5130  -4877  -4448  -3820  -3137  -2581  -2178  -1804  -1281  -570  165  731  1044  1116  941  474  -154  -650  -864  -883  -873  -994  -1333  -1789  -2134  -2241  -2110  -1772  -1359  -1066  -953  -934  -901  -777  -526  -186  157  422  595  733  884  1038  1167  1270  1371  1529  1863  2508  3472  4519  5295  5692  5957  6321  6712  6910  6839  6624  6434  6336  6303  6297  6327  6430  6606  6782  6882  6896  6849  6760  6663  6616  6649  6726  6805  6920  7143  7486  7869  8169  8313  8324  8291  8271  8262  8216  8088  7858  7574  7332  7190  7115  7058  7014  6977  6919  6842  6751  6595  6300  5953  5801  5943  6296  6826  7585  8797  10747  13177  15130  15547  13936  10777  7309  4754  3664  3709  4056  4127  3887  3541  3248  3010  2742  2389  1933  1414  924  524  203  -45  -188  -209  -129  11  149  244  301  314  248  5  -516  -1190  -1685  -1850  -1790  -1635  -1476  -1418  -1519  -1729  -1937  -2088  -2194  -2276  -2336  -2373  -2343  -2118  -1599  -936  -493  -593  -1331  -2412  -3300  -3727  -3821  -3796  -3771  -3762  -3749  -3742  -3831  -4143  -4678  -5273  -5773  -6123  -6336  -6501  -6752  -7118  -7475  -7740  -7956  -8153  -8290  -8366  -8453  -8644  -8966  -9313  -9530  -9586  -9571  -9595  -9718  -9917  -10130  -10336  -10542  -10721  -10831  -10869  -10866  -10856  -10876  -10958  -11137  -11432  -11785  -12068  -12210  -12234  -12168  -12017  -11809  -11593  -11418  -11319  -11291  -11296  -11309  -11288  -11141  -10781  -10205  -9560  -9070  -8791  -8518  -7941  -6861  -5329  -3580  -1939  -723  11  554  1205  1978  2663  3104  3406  3741  4094  4350  4497  4620  4770  4895  4882  4731  4678  5078  6130  7729  9641  11695  13727  15551  16827  16983  15707  13387  10729  8298  6641  6180  6703  7580  8289  8469  8092  7558  7228  7114  7061  6946  6733  6484  6298  6217  6212  6236  6265  6282  6237  6075  5820  5579  5432  5376  5368  5380  5411  5459  5497  5494  5472  5480  5548  5698  5919  6134  6284  6411  6579  6770  6904  6947  6929  6884  6835  6806  6808  6832  6864  6886  6854  6699  6415  6095  5831  5640  5500  5385  5245  5064  4895  4790  4737  4668  4526  4317  4119  4002  3971  3958  3877  3680  3375  3028  2740  2574  2519  2526  2557  2582  2539  2359  2074  1820  1697  1686  1722  1771  1819  1788  1527  973  337  -76  -194  -159  -100  -55  -40  -102  -291  -558  -780  -911  -995  -1076  -1163  -1275  -1455  -1691  -1886  -1959  -1914  -1800  -1679  -1606  -1619  -1739  -1947  -2169  -2345  -2463  -2550  -2686  -2959  -3312  -3581  -3682  -3660  -3568  -3452  -3422  -3649  -4118  -4448  -4280  -3590  -2482  -1163  88  1285  2616  3875  4433  3689  1459  -1735  -4744  -6512  -6741  -5951  -5034  -4574  -4632  -5031  -5538  -5948  -6176  -6278  -6393  -6592  -6830  -7052  -7210  -7215  -6978  -6505  -5945  -5475  -5097  -4713  -4294  -3781  -3077  -2253  -1480  -801  -202  253  558  800  1028  1264  1578  1996  2448  2896  3382  3908  4364  4650  4808  4956  5158  5377  5534  5585  5533  5403  5247  5124  5018  4847  4588  4289  3975  3635  3288  2984  2745  2554  2378  2214  2092  2021  1979  1955  1954  1975  2000  1983  1873  1677  1479  1337  1229  1109  968  836  758  745  760  748  661  506  348  243  189  156  106  -5  -176  -350  -477  -539  -547  -542  -579  -685  -828  -971  -1087  -1145  -1161  -1181  -1209  -1227  -1238  -1271  -1356  -1488  -1617  -1706  -1766  -1820  -1890  -2013  -2203  -2418  -2600  -2715  -2774  -2805  -2813  -2806  -2833  -2925  -3060  -3207  -3351  -3486  -3618  -3762  -3864  -3789  -3511  -3185  -2899  -2413  -1280  719  3235  5424  6331  5345  2700  -524  -3109  -4383  -4475  -4058  -3736  -3632  -3568  -3451  -3328  -3230  -3159  -3122  -3052  -2794  -2252  -1537  -887  -420  -58  265  495  609  693  796  889  942  969  1006  1053  1064  1060  1098  1150  1167  1163  1169  1188  1213  1265  1393  1582  1754  1865  1936  1996  2049  2120  2242  2401  2519  2532  2430  2231  1946  1581  1211  952  832  790  769  757  766  814  893  967  1005  1011  1009  1028  1088  1177  1231  1192  1053  835  581  363  219  119  40  5  51  171  323  451  525  547  527  453  307  102  -116  -299  -403  -417  -376  -331  -308  -300  -291  -287  -324  -442  -618  -772  -850  -851  -779  -631  -447  -294  -213  -204  -235  -275  -308  -319  -323  -354  -422  -515  -603  -661  -732  -920  -1254  -1613  -1835  -1851  -1667  -1346  -991  -710  -573  -610  -798  -1025  -1149  -1125  -912  -367  572  1912  3757  5950  7831  8705  8173  6223  3389  613  -1249  -1943  -1815  -1385  -1058  -987  -1126  -1416  -1764  -1998  -2007  -1805  -1524  -1337  -1321  -1410  -1490  -1532  -1570  -1576  -1530  -1486  -1481  -1491  -1498  -1498  -1478  -1416  -1308  -1179  -1040  -882  -715  -575  -478  -406  -333  -259  -179  -85  0  66  141  235  344  492  695  867  845  636  442  383  410  446  451  409  318  201  103  16  -113  -318  -582  -835  -1002  -1093  -1205  -1364  -1480  -1515  -1523  -1533  -1521  -1455  -1325  -1174  -1069  -1031  -1046  -1106  -1192  -1247  -1163  -863  -443  -142  -127  -382  -738  -992  -1080  -1082  -1063  -993  -824  -606  -456  -406  -394  -397  -494  -772  -1153  -1436  -1531  -1504  -1434  -1359  -1301  -1262  -1242  -1253  -1265  -1167  -846  -377  0  161  193  203  163  -89  -638  -1289  -1717  -1802  -1643  -1395  -1193  -1093  -1061  -1056  -1123  -1370  -1772  -1971  -1620  -852  -20  685  1197  1812  3192  5471  7813  9094  8621  6385  3068  -181  -2273  -2848  -2370  -1561  -949  -729  -796  -921  -972  -956  -895  -765  -592  -484  -563  -847  -1130  -1111  -769  -386  -174  -113  -109  -131  -209  -364  -566  -737  -802  -702  -441  -115  141  288  375  473  602  698  700  636  573  540  542  618  812  1092  1368  1581  1728  1793  1713  1500  1297  1188  1109  1013  916  841  803  778  699  510  224  -84  -334  -495  -597  -675  -724  -742  -741  -724  -685  -636  -604  -602  -606  -573  -466  -314  -204  -222  -394  -647  -836  -892  -867  -830  -784  -693  -546  -380  -208  1  219  352  356  277  196  161  159  155  128  89  63  56  59  60  57  50  45  39  29  25  72  210  399  540  575  525  426  285  99  -93  -232  -324  -423  -557  -701  -792  -803  -774  -754  -749  -724  -636  -502  -454  -575  -626  -198  896  2641  4902  7209  8823  9104  7741  5012  1848  -669  -1974  -2162  -1691  -1106  -818  -871  -1054  -1219  -1330  -1385  -1400  -1404  -1394  -1325  -1159  -936  -753  -663  -640  -637  -652  -713  -828  -952  -1028  -1045  -1019  -937  -770  -565  -426  -400  -457  -543  -611  -619  -513  -266  31  239  318  328  318  343  527  963  1509  1885  1976  1875  1711  1530  1304  1043  844  749  702  655  603  521  357  108  -149  -343  -444  -456  -392  -268  -124  -17  27  24  -8  -71  -159  -256  -323  -334  -304  -269  -229  -163  -83  -31  -24  -38  -48  -46  -26  18  86  157  209  217  139  -55  -316  -517  -588  -568  -554  -591  -657  -720  -752  -734  -657  -518  -352  -236  -218  -280  -370  -432  -440  -401  -339  -287  -268  -303  -403  -533  -624  -640  -599  -538  -495  -487  -518  -586  -680  -764  -799  -802  -878  -1131  -1491  -1750  -1798  -1582  -934  259  1929  4008  6356  8428  9410  8746  6503  3435  659  -980  -1324  -863  -318  -102  -208  -452  -659  -771  -833  -876  -884  -850  -818  -825  -848  -841  -792  -720  -648  -576  -499  -433  -398  -388  -385  -384  -395  -431  -483  -476  -355  -190  -89  -69  -75  -55  17  169  385  579  678  693  688  708  770  851  924  989  1052  1093  1088  1020  885  725  610  568  577  611  618  464  28  -564  -994  -1099  -970  -778  -648  -609  -631  -688  -759  -817  -843  -829  -775  -706  -661  -655  -663  -654  -617  -566  -517  -459  -363  -232  -108  -40  -54  -130  -204  -229  -213  -192  -203  -240  -258  -246  -228  -218  -220  -222  -207  -190  -199  -252  -338  -386  -324  -165  20  165  224  201  145  97  69  61  98  212  376  489  442  193  -150  -399  -478  -462  -437  -442  -488  -575  -675  -737  -725  -651  -559  -521  -683  -1177  -1799  -2053  -1630  -547  1063  3054  5215  7216  8621  8951  7874  5573  2798  304  -1464  -2261  -2190  -1700  -1222  -1019  -1112  -1290  -1352  -1265  -1098  -942  -843  -805  -816  -863  -925  -972  -992  -994  -995  -998  -1002  -1001  -1003  -1022  -1056  -1059  -939  -650  -301  -60  15  -28  -146  -291  -401  -437  -374  -182  129  493  846  1132  1279  1257  1119  952  826  744  670  613  576  512  384  206  26  -102  -156  -178  -259  -449  -686  -856  -920  -922  -907  -899  -902  -920  -946  -941  -851  -695  -586  -607  -722  -847  -938  -983  -980  -907  -764  -603  -503  -495  -556  -641  -702  -729  -727  -687  -571  -362  -122  43  101  102  90  64  22  -21  -71  -126  -127  -14  152  235  194  143  177  245  257  217  174  151  136  131  183  343  571  733  716  501  199  -16  -63  19  148  237  197  -21  -359  -646  -772  -777  -776  -874  -1070  -1220  -1209  -1011  -542  278  1504  3225  5385  7568  9075  9203  7646  4849  1813  -549  -1827  -2092  -1733  -1231  -915  -832  -856  -897  -954  -1016  -1052  -1061  -1063  -1061  -1043  -1001  -953  -910  -834  -693  -524  -402  -350  -331  -308  -276  -253  -254  -270  -274  -258  -227  -188  -148  -118  -82  -3  130  284  420  553  731  950  1138  1234  1242  1207  1165  1131  1093  1042  992  960  923  819  622  386  178  -11  -204  -363  -442  -458  -461  -477  -504  -534  -563  -586  -599  -598  -562  -482  -382  -318  -334  -446  -609  -724  -694  -476  -151  109  204  150  20  -113  -198  -219  -163  -15  159  200  5  -325  -578  -657  -630  -593  -587  -621  -688  -771  -828  -815  -705  -510  -283  -83  48  105  91  -8  -161  -278  -308  -266  -192  -114  -47  0  28  41  48  58  85  121  129  60  -89  -257  -375  -445  -497  -563  -680  -854  -992  -925  -555  14  696  1645  3081  5073  7320  9016  9297  7858  5200  2373  323  -624  -794  -755  -852  -1049  -1168  -1140  -1027  -893  -772  -698  -687  -721  -773  -814  -825  -783  -666  -493  -337  -276  -342  -503  -678  -788  -825  -834  -854  -874  -854  -753  -565  -363  -242  -185  -107  19  151  240  304  405  569  769  960  1087  1132  1141  1155  1159  1108  995  869  792  773  769  717  587  423  284  152  -31  -280  -529  -708  -790  -789  -746  -717  -710  -696  -672  -667  -705  -789  -901  -1001  -1048  -1015  -905  -739  -571  -466  -437  -428  -390  -328  -279  -262  -265  -270  -269  -256  -238  -224  -219  -225  -244  -272  -298  -322  -355  -412  -468  -457  -355  -231  -153  -105  -44  33  90  83  6  -101  -179  -203  -206  -232  -309  -413  -490  -519  -536  -590  -699  -842  -966  -1030  -1038  -1019  -992  -965  -939  -924  -945  -1051  -1270  -1480  -1427  -981  -246  536  1248  2189  3840  6199  8586  9928  9279  6563  2851  -320  -1935  -1977  -1237  -615  -532  -887  -1322  -1586  -1674  -1656  -1558  -1384  -1151  -921  -775  -726  -721  -729  -780  -882  -986  -1049  -1074  -1069  -1054  -1052  -1058  -1065  -1032  -883  -621  -340  -137  -43  -25  -22  14  97  206  304  388  524  773  1075  1308  1437  1500  1539  1583  1638  1677  1677  1635  1560  1441  1237  973  722  483  216  -42  -267  -515  -786  -975  -1016  -949  -848  -777  -770  -830  -938  -1046  -1103  -1095  -1043  -1000  -1017  -1078  -1123  -1134  -1139  -1155  -1156  -1105  -990  -828  -666  -561  -530  -552  -611  -689  -758  -799  -812  -803  -779  -743  -703  -673  -645  -588  -479  -328  -165  -2  161  315  425  460  419  331  224  113  22  -8  24  71  95  109  117  92  19  -80  -186  -275  -332  -371  -423  -487  -541  -569  -579  -596  -642  -721  -836  -926  -824  -439  185  1121  2546  4505  6834  9021  10183  9588  7276  4016  853  -1276  -2046  -1907  -1518  -1218  -1091  -1132  -1245  -1313  -1313  -1279  -1231  -1143  -986  -797  -660  -605  -608  -664  -792  -957  -1075  -1109  -1102  -1096  -1083  -1040  -961  -872  -774  -643  -490  -372  -312  -284  -262  -210  -99  53  211  369  522  619  644  657  691  747  831  927  1004  1052  1074  1070  1013  869  658  450  300  208  130  20  -130  -292  -415  -474  -484  -483  -529  -669  -860  -985  -985  -900  -805  -745  -714  -673  -606  -531  -495  -530  -617  -706  -732  -668  -561  -476  -429  -413  -436  -508  -605  -676  -700  -696  -683  -667  -667  -712  -799  -872  -873  -789  -660  -561  -520  -504  -476  -421  -348  -282  -240  -206  -157  -92  -63  -103  -175  -231  -275  -326  -380  -432  -482  -520  -540  -545  -543  -540  -536  -530  -541  -604  -725  -837  -877  -910  -1031  -1179  -1182  -821  174  1945  4318  6863  8921  9728  8872  6580  3600  889  -855  -1511  -1390  -992  -728  -686  -738  -788  -826  -850  -840  -800  -766  -774  -816  -853  -873  -908  -955  -965  -919  -843  -747  -625  -487  -372  -328  -369  -464  -559  -609  -552  -332  0  304  482  514  424  285  193  187  253  389  616  904  1163  1328  1400  1415  1413  1411  1395  1339  1236  1126  1020  853  556  167  -196  -452  -625  -787  -956  -1077  -1116  -1109  -1094  -1085  -1084  -1102  -1151  -1210  -1246  -1254  -1270  -1340  -1464  -1599  -1698  -1749  -1765  -1764  -1763  -1770  -1775  -1745  -1648  -1510  -1393  -1314  -1252  -1197  -1158  -1133  -1109  -1084  -1092  -1159  -1252  -1302  -1282  -1241  -1234  -1252  -1269  -1288  -1307  -1292  -1202  -1007  -719  -398  -95  156  339  439  443  360  238  128  49  4  1  33  77  105  104  81  67  104  211  348  437  440  391  355  385  593  1162  2194  3716  5730  8006  9909  10589  9523  6922  3635  804  -677  -760  -126  462  534  141  -271  -422  -364  -246  -167  -152  -197  -282  -375  -443  -478  -484  -465  -434  -412  -406  -413  -413  -389  -334  -264  -224  -241  -287  -317  -305  -231  -108  14  110  222  399  602  746  803  820  844  873  887  895  918  963  1037  1123  1171  1153  1093  1051  1060  1097  1123  1116  1055  929  723  421  81  -191  -376  -517  -635  -747  -865  -959  -1005  -1012  -984  -903  -781  -666  -601  -587  -585  -574  -592  -687  -835  -952  -990  -958  -873  -774  -706  -686  -685  -677  -665  -679  -726  -752  -695  -580  -492  -461  -454  -455  -507  -661  -880  -1045  -1055  -876  -568  -273  -120  -144  -324  -572  -741  -694  -384  56  365  354  18  -448  -781  -888  -868  -830  -813  -828  -882  -958  -1009  -993  -925  -933  -1114  -1326  -1368  -1190  -765  -86  788  1949  3658  5954  8300  9746  9459  7278  3956  800  -1183  -1889  -1806  -1437  -1170  -1167  -1298  -1407  -1455  -1441  -1381  -1299  -1205  -1095  -1000  -973  -1042  -1164  -1263  -1302  -1306  -1323  -1379  -1451  -1477  -1407  -1256  -1063  -858  -683  -582  -538  -493  -396  -225  -13  177  330  479  642  780  862  922  1022  1180  1351  1492  1599  1678  1724  1744  1753  1767  1780  1752  1620  1375  1077  779  509  298  161  90  66  66  62  22  -77  -253  -498  -748  -912  -977  -1009  -1033  -983  -788  -511  -310  -272  -366  -539  -731  -878  -950  -967  -969  -977  -980  -917  -727  -461  -270  -282  -514  -844  -1077  -1086  -879  -584  -378  -371  -548  -797  -979  -1051  -1049  -976  -802  -579  -443  -487  -677  -870  -915  -811  -657  -504  -372  -302  -328  -448  -605  -726  -820  -956  -1134  -1258  -1245  -1105  -956  -943  -1081  -1259  -1383  -1398  -1309  -1202  -1070  -707  107  1527  3642  6208  8544  9840  9452  7286  4100  1073  -930  -1666  -1515  -1113  -838  -752  -821  -998  -1227  -1435  -1555  -1567  -1484  -1333  -1174  -1062  -996  -953  -925  -907  -878  -833  -792  -763  -717  -631  -534  -495  -532  -577  -574  -542  -520  -497  -435  -333  -235  -153  -29  207  522  788  952  1056  1145  1205  1198  1126  1032  955  916  924  978  1056  1111  1093  972  785  610  496  428  363  275  167  34  -137  -315  -432  -468  -462  -442  -407  -360  -321  -309  -326  -362  -409  -475  -588  -753  -939  -1093  -1147  -1035  -767  -466  -274  -212  -213  -244  -314  -406  -470  -476  -440  -404  -397  -428  -514  -651  -778  -831  -800  -715  -610  -515  -448  -405  -372  -347  -338  -324  -264  -164  -85  -63  -81  -125  -223  -395  -603  -763  -818  -767  -655  -544  -480  -488  -588  -774  -975  -1107  -1119  -999  -823  -701  -556  -154  667  2020  3961  6213  8051  8648  7585  5078  1981  -546  -1838  -2072  -1799  -1455  -1227  -1106  -989  -782  -519  -322  -236  -215  -233  -315  -475  -642  -743  -789  -793  -731  -615  -501  -427  -396  -391  -394  -397  -406  -426  -448  -457  -455  -455  -458  -448  -403  -325  -254  -229  -235  -187  0  314  647  897  1043  1155  1326  1562  1758  1790  1681  1565  1518  1497  1403  1173  862  580  310  -55  -487  -806  -911  -859  -765  -717  -743  -813  -891  -973  -1045  -1079  -1076  -1063  -1047  -1038  -1061  -1130  -1198  -1192  -1107  -1013  -965  -953  -947  -937  -954  -1030  -1148  -1214  -1129  -924  -730  -625  -606  -659  -755  -847  -894  -895  -895  -930  -985  -1005  -972  -926  -911  -922  -926  -908  -826  -599  -215  176  402  424  310  155  38  -12  -15  -4  -18  -91  -213  -325  -372  -355  -310  -254  -139  81  278  216  -56  -138  324  1478  3290  5460  7450  8633  8420  6575  3572  426  -1827  -2649  -2311  -1586  -1111  -1042  -1193  -1379  -1531  -1610  -1599  -1527  -1455  -1417  -1396  -1350  -1252  -1133  -1045  -1008  -1017  -1088  -1234  -1407  -1529  -1582  -1597  -1597  -1575  -1511  -1415  -1328  -1261  -1158  -977  -771  -621  -543  -497  -428  -268  5  306  522  656  791  969  1218  1593  2074  2509  2749  2807  2811  2839  2866  2869  2876  2845  2563  1867  978  350  151  186  221  154  -16  -259  -535  -793  -967  -1019  -929  -705  -441  -268  -228  -271  -334  -377  -384  -348  -263  -143  -46  -35  -104  -181  -220  -227  -222  -202  -152  -65  58  202  333  425  480  531  606  699  767  800  823  830  771  629  462  309  170  102  159  290  425  547  639  676  626  457  199  -41  -183  -229  -232  -237  -266  -317  -383  -467  -584  -761  -958  -1033  -920  -721  -483  -68  733  2130  4229  6694  8678  9389  8537  6325  3410  762  -878  -1468  -1451  -1213  -954  -837  -905  -997  -990  -931  -890  -894  -926  -950  -964  -967  -941  -887  -825  -762  -664  -476  -221  -10  87  106  103  98  83  43  -36  -150  -265  -339  -353  -301  -165  17  172  281  405  589  807  999  1125  1186  1197  1163  1096  1038  1015  1012  1001  946  816  624  434  304  230  152  -29  -379  -813  -1162  -1360  -1468  -1528  -1516  -1390  -1176  -992  -915  -905  -929  -995  -1059  -1065  -1021  -970  -945  -945  -952  -948  -922  -864  -770  -664  -595  -599  -683  -806  -904  -948  -950  -932  -906  -871  -830  -798  -766  -710  -630  -542  -425  -249  -63  25  -20  -138  -232  -272  -271  -234  -143  -32  10  -83  -276  -443  -499  -467  -407  -362  -380  -507  -737  -994  -1161  -1166  -1018  -801  -655  -720  -1047  -1483  -1712  -1483  -773  302  1715  3578  5836  7988  9217  8769  6518  3321  465  -1162  -1419  -937  -571  -615  -869  -1158  -1411  -1572  -1636  -1628  -1541  -1364  -1147  -983  -911  -889  -829  -667  -437  -242  -135  -111  -195  -431  -750  -979  -998  -827  -579  -378  -254  -180  -149  -138  -52  208  606  958  1138  1188  1200  1213  1225  1231  1233  1231  1221  1201  1186  1207  1279  1368  1421  1435  1406  1283  1031  736  530  452  441  414  298  45  -324  -690  -913  -957  -872  -709  -515  -378  -387  -521  -649  -681  -634  -569  -514  -460  -413  -394  -401  -423  -464  -541  -638  -711  -743  -749  -729  -652  -512  -364  -271  -240  -237  -246  -281  -361  -469  -557  -596  -598  -590  -588  -593  -603  -609  -602  -574  -536  -508  -496  -492  -490  -508  -572  -678  -795  -898  -995  -1125  -1316  -1536  -1720  -1838  -1923  -2013  -2104  -2123  -2050  -2070  -2330  -2546  -2264  -1304  369  2766  5537  7855  8762  7675  4799  1154  -1879  -3318  -3212  -2485  -2029  -2104  -2454  -2750  -2871  -2874  -2844  -2814  -2776  -2708  -2597  -2470  -2374  -2328  -2313  -2310  -2345  -2460  -2642  -2808  -2887  -2868  -2765  -2599  -2424  -2308  -2259  -2234  -2212  -2183  -2133  -2055  -1936  -1763  -1568  -1387  -1194  -966  -738  -543  -377  -217  -36  158  332  508  720  938  1127  1302  1475  1634  1762  1843  1878  1895  1941  2073  2316  2626  2936  3199  3364  3366  3166  2812  2413  2052  1773  1587  1451  1337  1269  1252  1246  1221  1172  1105  1028  954  908  896  905  916  906  849  747  642  575  548  548  565  591  619  644  671  715  775  828  850  844  829  813  772  687  605  606  694  784  825  831  819  765  635  463  335  287  282  261  169  -22  -251  -393  -388  -294  -192  -130  -182  -422  -720  -752  -303  602  1782  3085  4553  6217  7777  8617  8112  6123  3253  519  -1197  -1621  -1200  -642  -357  -403  -647  -877  -975  -974  -947  -928  -914  -890  -851  -811  -779  -723  -598  -436  -323  -298  -326  -359  -376  -375  -360  -326  -270  -198  -129  -76  -44  -30  -32  -44  -44  4  122  298  490  669  826  964  1079  1159  1212  1262  1290  1246  1121  985  901  846  756  609  455  341  242  113  -53  -227  -361  -434  -471  -504  -546  -597  -644  -694  -779  -891  -981  -1020  -1002  -934  -851  -798  -781  -779  -779  -785  -805  -838  -868  -900  -940  -955  -908  -825  -758  -723  -694  -647  -586  -543  -562  -665  -816  -939  -999  -1019  -1018  -959  -795  -572  -410  -361  -387  -429  -453  -445  -403  -347  -306  -288  -274  -266  -312  -477  -749  -1018  -1197  -1290  -1325  -1317  -1275  -1214  -1156  -1091  -1009  -940  -876  -712  -355  212  1064  2421  4449  6899  8971  9626  8264  5283  1919  -542  -1497  -1245  -671  -576  -1052  -1549  -1642  -1475  -1316  -1200  -1095  -1023  -996  -1001  -1014  -1022  -1027  -1042  -1080  -1136  -1175  -1175  -1151  -1108  -1029  -915  -822  -796  -808  -801  -770  -731  -675  -594  -498  -407  -339  -283  -182  -1  214  391  503  578  664  785  906  981  1000  986  962  939  898  820  709  580  448  310  152  -10  -132  -204  -253  -298  -351  -412  -450  -443  -424  -439  -483  -534  -577  -607  -617  -582  -468  -294  -125  -9  24  -72  -323  -642  -879  -981  -1003  -999  -952  -808  -566  -334  -221  -215  -232  -237  -259  -350  -516  -687  -790  -814  -795  -764  -738  -725  -713  -675  -584  -458  -342  -251  -177  -123  -120  -210  -392  -614  -814  -961  -1059  -1113  -1128  -1102  -1019  -889  -758  -671  -662  -732  -843  -963  -1013  -806  -209  740  1950  3484  5483  7650  9133  9094  7261  4202  1118  -847  -1293  -768  -236  -229  -590  -951  -1189  -1347  -1440  -1473  -1472  -1467  -1460  -1431  -1357  -1224  -1033  -836  -704  -659  -682  -765  -889  -1004  -1059  -1044  -964  -812  -595  -380  -250  -207  -186  -130  -8  188  409  562  643  714  764  758  724  706  710  726  756  820  925  1037  1110  1134  1130  1112  1072  991  836  586  285  15  -202  -412  -631  -812  -921  -970  -992  -1009  -1039  -1072  -1089  -1084  -1077  -1074  -1060  -1024  -984  -952  -925  -879  -801  -716  -658  -641  -663  -721  -799  -859  -873  -819  -693  -541  -438  -407  -420  -447  -471  -487  -497  -509  -514  -478  -371  -233  -159  -175  -219  -240  -234  -216  -177  -97  2  70  87  87  102  137  149  88  -21  -94  -83  -42  -43  -97  -175  -275  -450  -707  -890  -790  -348  384  1466  3047  5144  7470  9354  9943  8750  6059  2803  66  -1455  -1783  -1453  -1028  -845  -964  -1201  -1348  -1380  -1364  -1340  -1304  -1244  -1170  -1106  -1068  -1052  -1057  -1083  -1120  -1146  -1148  -1136  -1110  -1054  -970  -882  -798  -708  -608  -488  -342  -183  -38  53  83  86  120  231  424  641  785  819  780  721  682  703  802  954  1098  1197  1266  1334  1399  1429  1406  1327  1176  920  559  173  -123  -291  -360  -378  -397  -458  -544  -601  -597  -545  -476  -406  -327  -238  -169  -143  -167  -250  -383  -534  -676  -783  -843  -865  -865  -829  -737  -615  -524  -488  -482  -481  -488  -511  -564  -658  -768  -837  -843  -812  -763  -677  -543  -408  -319  -271  -230  -188  -150  -131  -148  -207  -288  -351  -383  -411  -450  -488  -511  -538  -601  -690  -765  -828  -907  -971  -945  -827  -725  -777  -995  -1100  -711  323  1968  4071  6260  8013  8839  8353  6475  3755  1110  -802  -1748  -1830  -1431  -956  -632  -520  -552  -614  -663  -712  -752  -754  -696  -579  -447  -348  -297  -295  -369  -540  -760  -910  -900  -723  -476  -299  -254  -304  -388  -442  -390  -174  146  408  515  503  457  421  399  383  386  447  586  765  903  971  1005  1041  1080  1113  1135  1148  1150  1104  967  774  589  401  199  22  -104  -210  -305  -376  -449  -584  -763  -905  -972  -989  -984  -960  -901  -801  -689  -611  -581  -573  -567  -562  -573  -602  -632  -658  -691  -744  -801  -807  -730  -634  -585  -566  -555  -562  -600  -658  -689  -658  -598  -565  -577  -607  -628  -631  -618  -591  -535  -447  -360  -322  -354  -437  -533  -607  -651  -674  -687  -698  -694  -676  -678  -714  -754  -763  -741  -724  -750  -827  -946  -1108  -1293  -1368  -1125  -460  609  2106  4121  6513  8651  9611  8763  6240  2960  172  -1328  -1602  -1256  -902  -822  -942  -1070  -1125  -1132  -1124  -1099  -1042  -959  -881  -831  -808  -803  -802  -802  -798  -782  -742  -673  -600  -558  -547  -535  -495  -445  -440  -486  -517  -488  -434  -414  -428  -417  -325  -140  101  372  661  929  1128  1263  1349  1364  1291  1179  1123  1149  1185  1170  1124  1073  998  872  700  495  285  108  -22  -130  -238  -341  -415  -461  -508  -569  -627  -663  -669  -636  -554  -450  -376  -364  -403  -459  -499  -506  -480  -428  -358  -287  -254  -280  -340  -388  -403  -400  -404  -432  -485  -533  -534  -486  -421  -367  -350  -356  -326  -238  -146  -98  -99  -123  -145  -154  -156  -152  -135  -98  -48  0  23  10  -36  -120  -249  -414  -580  -712  -784  -795  -777  -770  -808  -895  -1023  -1216  -1420  -1410  -1030  -358  541  1705  3180  5074  7273  9116  9731  8631  6011  2750  40  -1370  -1597  -1272  -1011  -1067  -1232  -1232  -1101  -983  -909  -847  -787  -747  -732  -735  -743  -756  -778  -805  -827  -833  -813  -757  -672  -579  -490  -418  -392  -424  -482  -522  -530  -523  -518  -515  -493  -421  -266  -30  241  481  641  725  778  833  899  962  995  986  955  925  885  790  626  432  243  64  -93  -205  -260  -271  -257  -228  -217  -312  -596  -991  -1303  -1440  -1467  -1465  -1454  -1426  -1370  -1284  -1218  -1200  -1152  -1036  -922  -866  -842  -814  -776  -744  -719  -681  -632  -595  -583  -582  -581  -581  -600  -646  -689  -698  -724  -795  -829  -764  -649  -550  -477  -397  -305  -236  -207  -197  -180  -150  -127  -133  -183  -260  -331  -375  -399  -411  -427  -481  -615  -836  -1085  -1267  -1330  -1284  -1174  -1044  -939  -912  -956  -924  -625  -2  961  2376  4277  6467  8514  9717  9306  7137  3944  774  -1417  -2125  -1711  -991  -536  -497  -696  -879  -956  -976  -965  -896  -779  -710  -758  -865  -923  -900  -839  -794  -758  -699  -639  -614  -614  -586  -504  -397  -310  -251  -217  -198  -173  -122  -56  5  56  93  122  193  355  578  784  948  1078  1161  1206  1258  1330  1387  1412  1412  1386  1309  1142  891  616  375  197  99  54  -6  -122  -269  -393  -467  -506  -555  -649  -765  -846  -871  -850  -793  -724  -677  -663  -658  -630  -567  -485  -403  -320  -240  -206  -254  -359  -460  -531  -593  -667  -742  -788  -788  -746  -687  -632  -586  -541  -492  -439  -374  -284  -181  -102  -68  -80  -137  -231  -324  -378  -390  -378  -374  -427  -574  -763  -879  -865  -777  -702  -676  -691  -735  -791  -838  -875  -905  -879  -757  -649  -614  -463  -64  593  1711  3532  5888  8089  9189  8482  6048  2873  184  -1313  -1608  -1239  -872  -774  -839  -923  -968  -976  -975  -980  -992  -982  -891  -678  -423  -305  -406  -601  -721  -732  -707  -695  -699  -696  -655  -565  -460  -398  -387  -397  -397  -343  -186  62  311  467  511  490  446  407  398  470  655  898  1082  1153  1153  1137  1133  1151  1174  1141  995  772  573  447  371  294  183  42  -103  -238  -368  -503  -625  -704  -734  -737  -725  -685  -588  -449  -347  -351  -462  -621  -733  -756  -743  -725  -681  -617  -558  -510  -482  -498  -563  -636  -654  -609  -554  -528  -527  -533  -534  -534  -537  -536  -522  -496  -470  -441  -394  -335  -286  -260  -236  -180  -81  22  65  0  -203  -532  -887  -1126  -1199  -1156  -1052  -936  -875  -898  -966  -1016  -1027  -1024  -1048  -1120  -1226  -1360  -1450  -1267  -634  442  1984  4006  6297  8375  9521  9067  6911  3735  716  -1131  -1613  -1291  -777  -402  -314  -458  -634  -731  -746  -718  -722  -796  -894  -956  -957  -899  -814  -743  -697  -657  -617  -589  -584  -596  -611  -607  -542  -394  -241  -212  -316  -434  -491  -503  -483  -403  -237  -19  201  408  576  678  767  936  1168  1349  1422  1426  1416  1413  1406  1371  1295  1174  985  709  399  132  -52  -144  -158  -144  -167  -269  -430  -581  -683  -739  -759  -753  -727  -692  -663  -647  -639  -641  -674  -763  -879  -927  -819  -567  -299  -150  -159  -284  -429  -504  -505  -486  -476  -475  -471  -459  -444  -440  -455  -482  -533  -631  -760  -853  -856  -770  -637  -515  -422  -328  -208  -83  4  38  36  9  -36  -99  -183  -284  -375  -432  -483  -580  -695  -707  -534  -280  -158  -251  -403  -471  -558  -690  -545  111  1112  2318  3857  5728  7596  8886  8882  7192  4295  1309  -779  -1635  -1551  -1152  -989  -1179  -1442  -1529  -1425  -1236  -1080  -1034  -1105  -1226  -1317  -1346  -1330  -1288  -1244  -1220  -1206  -1151  -1017  -832  -661  -545  -485  -467  -468  -470  -464  -448  -437  -443  -441  -370  -191  37  204  271  299  349  425  525  684  920  1169  1346  1413  1383  1310  1237  1176  1124  1075  1020  943  819  634  421  250  149  60  -77  -246  -365  -418  -472  -573  -692  -766  -758  -668  -543  -455  -452  -532  -648  -728  -718  -609  -454  -344  -331  -408  -524  -618  -656  -651  -619  -570  -516  -476  -467  -490  -523  -545  -546  -513  -452  -395  -365  -360  -366  -373  -365  -336  -307  -290  -261  -164  22  239  375  349  143  -157  -416  -579  -675  -726  -746  -757  -767  -762  -739  -723  -764  -909  -1116  -1242  -1213  -1037  -671  -128  533  1521  3169  5442  7800  9374  9301  7327  4150  989  -1153  -1937  -1744  -1291  -1062  -1102  -1226  -1294  -1295  -1275  -1264  -1264  -1253  -1207  -1111  -965  -796  -660  -596  -575  -552  -514  -477  -447  -421  -402  -393  -392  -388  -373  -341  -307  -296  -322  -366  -370  -271  -50  257  559  759  831  814  743  665  658  781  1016  1262  1449  1574  1611  1523  1344  1128  912  743  652  634  663  676  547  183  -306  -670  -794  -772  -717  -667  -609  -537  -470  -441  -470  -556  -657  -740  -813  -876  -915  -926  -911  -860  -765  -651  -558  -498  -460  -431  -400  -375  -365  -361  -352  -348  -394  -539  -745  -897  -897  -734  -503  -339  -288  -294  -295  -277  -263  -259  -243  -205  -170  -167  -192  -221  -248  -323  -480  -662  -774  -777  -701  -603  -503  -395  -337  -402  -562  -753  -988  -1284  -1507  -1441  -983  -217  659  1584  2825  4642  6758  8377  8595  6927  3814  519  -1679  -2253  -1620  -749  -384  -531  -819  -1054  -1207  -1271  -1266  -1229  -1189  -1165  -1159  -1172  -1199  -1217  -1208  -1168  -1096  -990  -857  -723  -618  -561  -547  -555  -570  -584  -569  -490  -360  -241  -172  -138  -111  -60  36  201  436  682  842  913  974  1061  1141  1186  1204  1216  1243  1291  1326  1306  1224  1099  946  772  584  407  252  101  -57  -202  -290  -315  -314  -326  -391  -545  -748  -899  -956  -963  -968  -975  -959  -890  -764  -619  -489  -366  -255  -199  -211  -274  -377  -500  -599  -654  -696  -764  -856  -925  -950  -952  -957  -972  -981  -962  -885  -722  -495  -279  -131  -55  -38  -63  -97  -103  -80  -47  -17  -6  -83  -311  -630  -881  -993  -1017  -1014  -1019  -1041  -1072  -1079  -1039  -977  -929  -883  -824  -814  -939  -1088  -1008  -557  399  2048  4300  6649  8368  8726  7375  4690  1613  -825  -2019  -2073  -1549  -982  -714  -834  -1134  -1350  -1423  -1412  -1351  -1232  -1041  -800  -532  -256  -21  122  196  265  376  541  731  880  950  951  904  811  684  559  482  461  470  484  490  470  407  315  250  263  372  532  665  723  712  668  648  716  893  1121  1310  1417  1460  1476  1487  1498  1486  1405  1242  1049  858  615  292  -35  -277  -398  -420  -395  -356  -312  -284  -314  -434  -611  -755  -813  -802  -760  -697  -626  -579  -562  -533  -450  -332  -240  -196  -186  -210  -293  -436  -596  -719  -773  -766  -733  -703  -677  -640  -571  -479  -401  -349  -308  -273  -256  -258  -244  -167  -36  75  127  139  115  0  -263  -616  -894  -1007  -1008  -983  -969  -975  -998  -1027  -1058  -1107  -1176  -1199  -1137  -1113  -1216  -1259  -979  -311  721  2177  4132  6416  8418  9275  8365  5832  2655  1  -1488  -1822  -1500  -1189  -1183  -1293  -1320  -1285  -1244  -1205  -1171  -1150  -1141  -1113  -1039  -956  -913  -909  -921  -923  -897  -840  -774  -732  -725  -731  -713  -645  -545  -456  -390  -318  -238  -175  -138  -115  -86  -31  53  148  246  386  607  854  1010  1027  961  913  930  976  1011  1039  1072  1093  1060  938  731  485  260  97  -20  -133  -252  -355  -423  -474  -560  -705  -880  -1000  -962  -764  -544  -462  -564  -758  -909  -960  -928  -834  -710  -597  -517  -480  -484  -511  -576  -678  -744  -744  -738  -767  -807  -782  -672  -535  -413  -318  -272  -303  -418  -574  -694  -716  -645  -550  -502  -495  -482  -444  -393  -331  -249  -164  -126  -185  -342  -537  -698  -800  -854  -879  -889  -891  -884  -858  -815  -799  -874  -1074  -1357  -1541  -1418  -967  -262  688  1912  3467  5378  7368  8782  8906  7418  4714  1783  -420  -1497  -1643  -1346  -995  -748  -664  -736  -852  -915  -919  -901  -889  -890  -906  -932  -962  -983  -979  -936  -856  -755  -664  -608  -587  -570  -530  -465  -395  -328  -257  -190  -148  -139  -145  -140  -107  -44  42  158  310  483  643  759  836  897  969  1082  1239  1390  1477  1490  1450  1374  1250  1062  854  697  569  384  134  -112  -314  -470  -577  -623  -614  -586  -573  -580  -578  -551  -536  -577  -641  -671  -653  -610  -579  -585  -604  -621  -642  -664  -676  -676  -670  -657  -640  -615  -577  -536  -509  -508  -541  -604  -686  -754  -744  -654  -560  -512  -501  -502  -504  -530  -603  -695  -728  -659  -520  -380  -275  -210  -192  -249  -397  -581  -706  -745  -754  -786  -833  -861  -857  -839  -836  -893  -1064  -1330  -1569  -1645  -1454  -969  -262  639  1835  3486  5622  7781  9036  8603  6393  3161  181  -1542  -1888  -1440  -906  -718  -879  -1111  -1220  -1217  -1180  -1159  -1164  -1182  -1198  -1201  -1171  -1091  -974  -867  -782  -658  -423  -75  328  719  1015  1163  1195  1186  1182  1192  1190  1148  1055  917  760  623  545  527  541  562  590  642  729  857  1035  1235  1400  1493  1524  1520  1488  1422  1320  1210  1125  1047  915  725  524  306  13  -341  -647  -819  -867  -857  -847  -860  -894  -933  -958  -940  -839  -658  -484  -432  -539  -721  -856  -911  -943  -999  -1067  -1097  -1061  -996  -969  -980  -976  -921  -837  -773  -755  -769  -796  -828  -862  -881  -872  -837  -775  -689  -609  -561  -534  -500  -448  -392  -350  -328  -320  -332  -379  -460  -541  -599  -646  -698  -763  -858  -975  -1062  -1092  -1091  -1083  -1060  -993  -897  -849  -945  -1140  -1117  -548  626  2375  4609  6877  8462  8776  7554  5030  2032  -405  -1685  -1864  -1419  -907  -661  -682  -808  -911  -955  -946  -899  -840  -801  -790  -792  -783  -749  -701  -658  -629  -605  -582  -556  -532  -536  -586  -665  -728  -752  -727  -648  -532  -410  -296  -198  -139  -126  -140  -151  -115  12  234  492  706  832  898  972  1080  1184  1243  1264  1288  1328  1313  1136  786  390  74  -121  -205  -214  -212  -258  -371  -520  -651  -725  -743  -717  -647  -553  -486  -470  -489  -513  -521  -519  -522  -533  -550  -578  -618  -657  -675  -660  -633  -616  -608  -601  -595  -593  -593  -589  -576  -558  -538  -509  -464  -407  -347  -277  -193  -114  -46  27  93  123  126  125  131  131  102  40  -13  -31  -60  -160  -327  -502  -631  -716  -764  -755  -686  -591  -503  -426  -323  -209  -270  -609  -980  -1031  -513  756  2750  5187  7629  9385  9630  8000  4990  1683  -798  -1816  -1630  -1075  -731  -672  -771  -931  -1117  -1277  -1303  -1181  -1050  -1030  -1088  -1141  -1175  -1208  -1244  -1254  -1174  -988  -751  -547  -425  -384  -383  -395  -429  -494  -571  -608  -545  -367  -151  -5  43  51  68  105  150  204  277  354  421  531  780  1161  1520  1712  1714  1557  1300  1039  862  781  745  689  578  407  189  -33  -207  -307  -362  -399  -425  -455  -529  -662  -792  -833  -776  -685  -604  -535  -473  -425  -398  -391  -397  -418  -453  -489  -512  -519  -518  -514  -508  -498  -500  -537  -625  -768  -910  -941  -849  -728  -625  -515  -383  -253  -165  -129  -138  -182  -239  -273  -260  -210  -142  -78  -38  -24  -33  -72  -151  -287  -499  -751  -949  -1018  -944  -754  -532  -375  -331  -429  -699  -1074  -1340  -1262  -799  -134  559  1349  2506  4321  6704  8873  9729  8595  5719  2232  -511  -1803  -1887  -1458  -1025  -778  -751  -890  -1077  -1196  -1191  -1114  -1087  -1133  -1164  -1116  -1029  -984  -996  -992  -896  -725  -548  -418  -356  -346  -354  -351  -328  -286  -240  -206  -184  -165  -147  -137  -128  -89  10  179  393  607  789  929  1022  1076  1098  1094  1078  1071  1083  1114  1170  1247  1298  1233  992  651  382  257  201  135  52  -20  -83  -172  -313  -487  -631  -695  -685  -649  -617  -592  -562  -529  -514  -532  -561  -571  -564  -556  -553  -552  -548  -535  -512  -473  -402  -311  -246  -252  -327  -404  -406  -360  -355  -398  -419  -364  -256  -197  -269  -430  -568  -614  -546  -369  -152  15  88  37  -103  -227  -276  -284  -305  -378  -515  -673  -784  -841  -881  -903  -865  -774  -692  -641  -565  -400  -198  -121  -203  -180  330  1539  3445  5781  7902  8993  8461  6293  3246  481  -1148  -1533  -1185  -765  -627  -713  -820  -865  -872  -876  -891  -946  -1063  -1202  -1262  -1183  -1022  -868  -742  -634  -566  -549  -559  -555  -503  -405  -317  -311  -396  -512  -566  -511  -390  -257  -135  -37  45  138  240  351  499  678  826  898  907  896  890  890  895  900  902  899  889  869  823  725  584  452  374  354  353  283  90  -158  -364  -508  -601  -641  -642  -619  -578  -532  -490  -474  -527  -670  -851  -991  -1060  -1079  -1035  -902  -718  -580  -528  -529  -546  -572  -604  -625  -593  -475  -306  -186  -203  -376  -627  -835  -943  -946  -849  -704  -585  -526  -514  -523  -533  -521  -467  -379  -297  -249  -237  -266  -364  -547  -758  -903  -957  -976  -1009  -1048  -1062  -1060  -1073  -1098  -1127  -1177  -1273  -1392  -1374  -1016  -331  573  1773  3393  5340  7241  8468  8312  6530  3714  883  -1088  -1816  -1596  -1085  -797  -868  -1065  -1126  -1052  -979  -957  -970  -1007  -1052  -1084  -1078  -1021  -931  -847  -796  -768  -749  -730  -708  -686  -670  -651  -626  -604  -592  -590  -594  -599  -603  -596  -566  -487  -321  -78  158  316  386  403  418  493  678  929  1127  1214  1218  1171  1083  984  922  907  905  870  775  602  353  75  -150  -287  -370  -438  -494  -536  -585  -639  -665  -647  -612  -600  -641  -723  -768  -716  -601  -495  -446  -458  -499  -530  -536  -526  -541  -599  -654  -651  -603  -565  -555  -559  -556  -533  -496  -464  -454  -462  -472  -450  -377  -287  -226  -195  -178  -171  -173  -179  -185  -178  -130  -10  163  313  375  345  228  6  -271  -479  -562  -571  -564  -564  -574  -593  -631  -683  -694  -614  -502  -426  -381  -291  115  1208  3105  5557  7963  9528  9558  7813  4804  1603  -728  -1695  -1610  -1187  -910  -871  -954  -1036  -1094  -1133  -1146  -1143  -1142  -1157  -1201  -1256  -1261  -1140  -876  -558  -318  -203  -169  -151  -118  -82  -62  -60  -86  -136  -164  -187  -250  -289  -240  -162  -118  -76  72  397  790  1052  1130  1135  1176  1260  1340  1396  1438  1462  1439  1349  1227  1137  1110  1124  1147  1140  1051  861  642  490  421  385  350  309  245  130  -18  -155  -282  -428  -604  -787  -936  -1001  -917  -642  -272  -1  86  55  -26  -126  -203  -223  -214  -232  -282  -343  -397  -431  -443  -448  -456  -456  -428  -378  -324  -288  -286  -295  -281  -252  -236  -253  -302  -356  -387  -393  -388  -381  -370  -360  -360  -376  -399  -418  -443  -493  -557  -594  -592  -600  -705  -940  -1217  -1397  -1442  -1413  -1378  -1375  -1412  -1435  -1295  -853  -149  748  1970  3687  5791  7814  9050  8791  6792  3679  582  -1586  -2483  -2332  -1672  -1022  -691  -713  -929  -1162  -1318  -1387  -1405  -1407  -1415  -1426  -1404  -1312  -1166  -1031  -934  -851  -796  -824  -926  -1013  -1038  -1030  -1020  -983  -876  -729  -618  -565  -529  -480  -429  -408  -409  -362  -184  101  371  535  614  661  705  764  831  878  894  892  888  883  876  860  805  656  399  94  -178  -367  -458  -466  -436  -431  -496  -609  -664  -589  -450  -357  -344  -387  -466  -579  -706  -795  -825  -821  -804  -766  -696  -614  -559  -544  -550  -555  -542  -505  -457  -412  -374  -344  -333  -339  -345  -338  -340  -387  -494  -631  -732  -752  -675  -495  -268  -107  -68  -115  -188  -242  -259  -231  -144  -23  76  113  52  -132  -385  -580  -666  -690  -697  -678  -620  -543  -493  -500  -548  -602  -635  -628  -607  -583  -489  -264  199  1168  2866  5188  7598  9273  9425  7741  4761  1639  -640  -1705  -1732  -1264  -848  -676  -672  -762  -902  -1017  -1032  -927  -765  -645  -603  -601  -611  -635  -661  -657  -618  -576  -527  -437  -318  -228  -205  -241  -310  -382  -442  -485  -507  -486  -393  -210  31  255  392  445  463  474  484  498  531  590  656  697  716  761  868  1008  1129  1203  1216  1162  1055  881  623  347  146  12  -134  -347  -594  -815  -982  -1092  -1128  -1081  -987  -907  -866  -851  -835  -802  -752  -680  -587  -506  -461  -437  -422  -422  -443  -496  -612  -793  -981  -1095  -1108  -1035  -906  -765  -658  -622  -664  -742  -789  -760  -658  -517  -390  -323  -339  -434  -565  -659  -662  -559  -389  -236  -157  -138  -144  -166  -214  -275  -313  -322  -338  -415  -568  -725  -793  -778  -744  -724  -719  -747  -831  -955  -1068  -1129  -1107  -959  -632  -116  639  1894  3865  6295  8434  9342  8407  5853  2691  68  -1410  -1804  -1517  -1063  -823  -839  -950  -1045  -1113  -1157  -1158  -1106  -1014  -917  -856  -840  -848  -856  -847  -811  -757  -714  -695  -691  -686  -671  -633  -548  -424  -309  -267  -330  -459  -566  -570  -391  -6  438  727  807  802  827  902  1000  1111  1229  1322  1368  1381  1376  1353  1311  1260  1217  1174  1101  995  867  718  561  415  266  67  -197  -479  -709  -846  -890  -865  -793  -673  -523  -410  -374  -395  -428  -437  -393  -295  -199  -193  -309  -501  -689  -800  -792  -674  -509  -378  -318  -329  -401  -495  -558  -571  -543  -474  -353  -209  -105  -62  -35  28  131  243  335  370  333  262  202  166  160  197  287  435  615  778  884  928  923  871  777  651  503  339  168  0]
