reading_id,reading_time,wire_id,result_classification,heart_rate,heart_rate_alert,firmware_version,device_app_version,hardware_version,waveform_samples
29dba760-63cd-11ed-8080-808080808080,Mon Nov 14 03:33:54 UTC 2022,4101e3b01d39,NSR,75,NONE,20001.171.50,2.10.0,Charge 5,[2373  2447  2504  2532  2519  2444  2300  2127  2016  2061  2310  2677  2929  2789  2130  1212  529  301  386  603  835  1009  1127  1221  1285  1325  1370  1386  1213  690  -41  -570  -594  -116  574  1057  1042  510  -270  -912  -1239  -1334  -1327  -1269  -1107  -810  -569  -586  -659  -364  567  2341  5060  8275  10949  12039  10982  7950  3927  322  -1772  -2121  -1289  -147  521  345  -354  -963  -1234  -1302  -1311  -1283  -1200  -1086  -1002  -979  -1002  -1040  -1067  -1058  -989  -871  -756  -692  -679  -695  -726  -759  -770  -746  -702  -666  -646  -637  -631  -624  -614  -613  -657  -768  -900  -981  -979  -844  -509  -66  254  352  321  300  425  799  1359  1852  2041  1888  1542  1217  1049  1044  1173  1403  1666  1887  2032  2027  1675  833  -262  -1105  -1449  -1456  -1374  -1330  -1364  -1487  -1659  -1814  -1942  -2055  -2127  -2137  -2107  -2076  -2048  -1938  -1643  -1235  -939  -927  -1201  -1610  -1950  -2126  -2161  -2108  -2019  -1912  -1807  -1808  -1967  -2150  -2162  -1933  -1568  -1261  -1107  -1082  -1193  -1480  -1860  -2134  -2191  -2075  -1898  -1765  -1718  -1735  -1780  -1834  -1879  -1881  -1816  -1709  -1626  -1605  -1622  -1632  -1619  -1592  -1558  -1519  -1495  -1510  -1578  -1674  -1746  -1760  -1715  -1630  -1542  -1483  -1467  -1520  -1664  -1845  -1925  -1830  -1638  -1489  -1438  -1442  -1455  -1467  -1488  -1520  -1544  -1527  -1440  -1295  -1137  -1013  -944  -932  -973  -1060  -1167  -1261  -1334  -1382  -1391  -1373  -1363  -1377  -1403  -1401  -1339  -1242  -1155  -1091  -1038  -1000  -985  -1021  -1136  -1296  -1376  -1224  -787  -206  268  502  544  510  477  460  442  380  223  -6  -208  -310  -328  -333  -399  -552  -729  -823  -783  -631  -418  -266  -276  -295  -107  270  863  1944  3743  6203  8828  10598  10504  8373  5004  1650  -606  -1400  -1242  -955  -924  -951  -785  -527  -405  -470  -636  -808  -927  -964  -881  -656  -355  -89  92  166  52  -278  -682  -956  -1027  -930  -716  -463  -270  -182  -203  -346  -564  -756  -858  -848  -674  -284  312  1025  1688  2063  1915  1168  140  -597  -741  -398  143  600  874  1069  1309  1612  1927  2206  2428  2583  2703  2850  3031  3170  3205  3125  2938  2614  2108  1506  999  650  362  90  -132  -304  -463  -606  -700  -732  -696  -608  -498  -388  -317  -336  -440  -571  -661  -662  -599  -541  -524  -527  -502  -425  -331  -278  -274  -284  -289  -299  -327  -369  -401  -388  -307  -182  -98  -180  -507  -962  -1290  -1344  -1163  -897  -698  -627  -660  -764  -897  -1003  -1040  -976  -779  -496  -240  -80  -14  -27  -115  -267  -440  -580  -639  -601  -492  -339  -177  -62  -11  0  -39  -165  -352  -527  -662  -762  -839  -910  -968  -984  -946  -861  -702  -425  -80  185  275  144  -250  -846  -1429  -1774  -1800  -1612  -1382  -1190  -975  -650  -305  -127  -104  -75  0  14  -179  -638  -1192  -1552  -1526  -1101  -474  29  233  171  -65  -359  -570  -635  -573  -405  -160  95  295  382  278  -69  -539  -876  -960  -863  -720  -622  -586  -586  -624  -727  -872  -953  -856  -664  -731  -1149  -1360  -920  -24  1129  2681  4802  7395  9895  11348  10846  8280  4672  1447  -521  -1100  -744  -244  -120  -289  -484  -620  -725  -823  -899  -900  -789  -596  -410  -326  -356  -428  -493  -564  -634  -679  -705  -729  -757  -795  -846  -882  -846  -663  -315  86  368  458  407  305  215  153  122  149  264  428  553  597  592  594  645  787  1090  1588  2129  2477  2575  2543  2491  2467  2518  2708  3041  3399  3604  3494  3013  2348  1832  1589  1518  1501  1429  1191  792  358  2  -228  -327  -343  -335  -333  -335  -352  -431  -626  -891  -1105  -1218  -1270  -1298  -1303  -1276  -1218  -1153  -1093  -1028  -965  -929  -922  -931  -934  -919  -878  -808  -718  -637  -589  -567  -544  -530  -594  -783  -970  -940  -700  -483  -454  -559  -599  -456  -226  -43  65  140  235  369  496  574  592  555  498  477  486  439  288  73  -156  -375  -543  -637  -658  -602  -469  -304  -178  -122  -105  -81  -41  -8  -9  -68  -212  -428  -669  -894  -1075  -1177  -1202  -1191  -1179  -1181  -1199  -1228  -1260  -1284  -1267  -1144  -893  -605  -408  -340  -346  -371  -400  -419  -381  -235  -13  180  285  312  239  1  -381  -739  -936  -986  -969  -903  -764  -579  -440  -430  -579  -852  -1139  -1338  -1470  -1626  -1810  -1901  -1747  -1212  -111  1803  4569  7645  9966  10508  8859  5450  1496  -1508  -2776  -2689  -2061  -1434  -1079  -1055  -1235  -1447  -1578  -1611  -1593  -1548  -1481  -1417  -1394  -1407  -1439  -1504  -1615  -1742  -1828  -1837  -1763  -1598  -1350  -1056  -752  -494  -348  -314  -361  -471  -588  -571  -291  189  624  835  843  753  651  586  567  578  612  674  750  807  842  912  1079  1327  1591  1833  2012  2065  1999  1917  1901  1972  2111  2278  2426  2515  2505  2353  2035  1573  1048  585  263  68  -49  -133  -203  -270  -362  -504  -671  -817  -907  -929  -903  -879  -883  -911  -952  -997  -1040  -1072  -1070  -995  -812  -510  -152  138  290  329  321  309  307  309  309  316  353  437  563  696  787  819  795  711  573  409  268  187  167  176  188  191  174  127  54  -23  -81  -71  39  170  151  -120  -530  -838  -948  -944  -923  -911  -901  -896  -912  -938  -912  -798  -654  -557  -502  -459  -455  -542  -697  -858  -1001  -1095  -1073  -946  -826  -819  -950  -1148  -1293  -1295  -1125  -834  -561  -417  -395  -425  -458  -484  -512  -542  -535  -413  -139  135  198  69  -80  -158  -156  -169  -325  -591  -805  -886  -881  -856  -839  -836  -840  -849  -874  -926  -987  -1003  -913  -699  -504  -558  -737  -413  1018  3638  6948  9995  11627  11007  8243  4536  1358  -448  -874  -602  -455  -653  -884  -919  -830  -755  -728  -728  -762  -857  -1002  -1127  -1159  -1098  -1017  -958  -903  -840  -778  -721  -676  -638  -567  -431  -265  -148  -109  -115  -136  -176  -231  -264  -246  -200  -146  -78  0  86  194  314  394  420  435  497  624  781  931  1087  1250  1392  1530  1708  1909  2087  2219  2300  2341  2341  2242  1986  1631  1323  1101  874  616  391  142  -291  -885  -1399  -1667  -1731  -1700  -1639  -1576  -1528  -1501  -1497  -1511  -1521  -1504  -1470  -1445  -1438  -1438  -1441  -1473  -1567  -1703  -1812  -1856  -1861  -1856  -1833  -1734  -1526  -1279  -1109  -1049  -1047  -1054  -1058  -1060  -1062  -1057  -1032  -996  -994  -1038  -1074  -1049  -964  -877  -861  -937  -1087  -1300  -1532  -1705  -1782  -1756  -1573  -1168  -575  54  576  969  1295  1600  1903  2170  2295  2218  2012  1792  1593  1342  956  516  205  85  88  209  499  884  1148  1146  903  576  346  268  263  248  196  138  101  52  -46  -171  -263  -303  -310  -306  -285  -218  -87  74  192  229  200  130  32  -69  -136  -143  -98  -28  28  27  -84  -319  -589  -781  -865  -880  -849  -773  -673  -588  -523  -451  -378  -339  -359  -431  -569  -839  -1254  -1678  -1951  -1905  -1212  443  3077  6337  9451  11293  10951  8523  5079  1851  -289  -1091  -1043  -909  -1046  -1293  -1433  -1454  -1427  -1383  -1330  -1292  -1280  -1283  -1275  -1242  -1195  -1163  -1160  -1168  -1149  -1068  -932  -785  -668  -609  -645  -798  -1013  -1163  -1129  -883  -539  -280  -173  -156  -156  -143  -119  -76  8  113  163  111  1  -62  0  193  454  699  912  1132  1372  1621  1880  2117  2274  2326  2279  2156  2021  1932  1877  1816  1711  1525  1226  822  355  -132  -557  -809  -882  -866  -827  -776  -722  -682  -646  -580  -479  -350  -194  -49  15  -29  -153  -280  -351  -369  -373  -390  -419  -445  -439  -344  -121  161  368  439  397  265  73  -111  -220  -218  -137  -56  -39  -121  -304  -547  -784  -933  -916  -758  -584  -485  -454  -457  -488  -557  -637  -647  -522  -294  -55  140  280  344  332  270  144  -84  -385  -659  -843  -924  -914  -824  -673  -496  -351  -309  -391  -529  -650  -736  -761  -693  -573  -478  -429  -386  -330  -281  -256  -247  -248  -250  -228  -189  -185  -255  -370  -450  -458  -444  -477  -553  -617  -651  -678  -711  -738  -741  -703  -617  -488  -356  -268  -228  -171  -24  190  367  423  313  2  -427  -794  -1015  -1130  -1172  -1159  -1161  -1296  -1593  -1870  -1921  -1724  -1334  -824  -120  1190  3495  6581  9510  11115  10711  8457  5243  2237  169  -945  -1389  -1444  -1377  -1328  -1278  -1209  -1147  -1103  -1087  -1115  -1175  -1212  -1182  -1091  -956  -805  -704  -716  -853  -1054  -1219  -1279  -1180  -869  -414  10  297  446  494  482  445  403  375  367  377  400  412  345  134  -183  -469  -637  -701  -650  -381  158  784  1217  1397  1459  1528  1684  2008  2527  3117  3595  3883  3988  3867  3454  2870  2397  2162  2057  1982  1941  1886  1645  1105  400  -188  -525  -701  -830  -921  -954  -948  -936  -951  -1012  -1106  -1191  -1245  -1271  -1281  -1267  -1202  -1080  -957  -898  -903  -936  -973  -1001  -1011  -1002  -987  -975  -943  -854  -713  -558  -428  -348  -319  -334  -413  -561  -714  -789  -779  -731  -688  -692  -787  -984  -1222  -1400  -1464  -1386  -1155  -860  -692  -750  -952  -1149  -1272  -1336  -1368  -1381  -1383  -1352  -1265  -1145  -1059  -1054  -1124  -1222  -1289  -1311  -1319  -1343  -1382  -1413  -1414  -1368  -1276  -1175  -1109  -1084  -1089  -1139  -1251  -1372  -1416  -1362  -1236  -1069  -924  -828  -747  -652  -506  -294  -102  -19  -45  -147  -279  -385  -436  -450  -460  -498  -566  -645  -738  -861  -986  -1055  -1052  -1006  -952  -903  -867  -869  -970  -1214  -1512  -1676  -1649  -1575  -1535  -1175  281  3185  6801  9844  11168  10086  6847  2761  -550  -2135  -2070  -1122  -260  -139  -685  -1335  -1688  -1743  -1644  -1468  -1237  -1006  -862  -837  -873  -887  -850  -786  -729  -700  -690  -676  -648  -637  -668  -699  -669  -583  -472  -361  -264  -161  -12  205  466  663  686  593  569  717  990  1289  1548  1774  1982  2136  2212  2232  2252  2333  2488  2686  2891  3089  3273  3454  3634  3779  3831  3704  3349  2890  2538  2339  2185  2019  1806  1457  954  448  116  -5  4  77  186  305  355  180  -329  -1014  -1526  -1714  -1663  -1472  -1205  -938  -735  -619  -575  -565  -567  -563  -530  -451  -337  -212  -98  0  129  362  720  1096  1344  1433  1433  1378  1227  956  659  462  375  310  221  131  63  16  -16  -42  -58  -51  5  148  388  633  685  414  -59  -464  -648  -659  -594  -522  -499  -541  -568  -477  -265  -31  117  163  165  164  134  5  -254  -561  -782  -867  -878  -888  -921  -954  -963  -933  -856  -743  -609  -439  -261  -186  -298  -552  -801  -924  -868  -639  -336  -107  -1  15  -83  -385  -853  -1274  -1466  -1442  -1336  -1259  -1233  -1209  -1143  -1044  -963  -941  -1009  -1167  -1358  -1550  -1717  -1745  -1616  -1463  -1312  -976  -141  1501  4045  7131  9842  11009  9891  6755  2836  -362  -1935  -2013  -1462  -1113  -1178  -1363  -1452  -1498  -1529  -1497  -1470  -1533  -1604  -1557  -1409  -1268  -1196  -1169  -1154  -1167  -1229  -1308  -1361  -1372  -1326  -1158  -788  -285  120  267  157  -132  -462  -684  -741  -648  -429  -163  30  105  96  52  0  -42  -25  155  609  1267  1854  2152  2196  2140  2092  2115  2266  2543  2835  3025  3081  3006  2783  2459  2167  1987  1869  1723  1505  1186  775  363  56  -116  -191  -213  -213  -194  -171  -229  -483  -926  -1362  -1604  -1656  -1633  -1604  -1566  -1513  -1497  -1555  -1604  -1542  -1406  -1275  -1171  -1086  -980  -800  -575  -415  -360  -365  -379  -403  -451  -512  -552  -562  -579  -646  -757  -859  -910  -917  -893  -834  -720  -569  -483  -559  -766  -991  -1152  -1261  -1348  -1360  -1188  -825  -420  -139  -7  62  138  220  277  300  307  308  285  201  39  -155  -303  -363  -361  -331  -299  -281  -279  -268  -233  -187  -143  -103  -66  -44  -59  -133  -264  -413  -532  -575  -533  -446  -375  -347  -349  -356  -349  -321  -281  -233  -160  -58  33  57  -33  -248  -512  -718  -866  -1030  -1172  -1169  -1029  -900  -876  -933  -1038  -1204  -1409  -1561  -1564  -1443  -1394  -1480  -1478  -1219  -534  1046  3747  6941  9573  10694  9671  6753  3122  61  -1652  -2034  -1730  -1394  -1358  -1577  -1787  -1859  -1870  -1913  -1981  -1956  -1741  -1411  -1128  -968  -904  -869  -824  -763  -689  -624  -617  -682  -791  -926  -1064  -1154  -1176  -1151  -1115  -1111  -1151  -1200  -1226  -1232  -1238  -1223  -1101  -726  -24  832  1504  1838  1970  2061  2128  2142  2137  2200  2394  2663  2880  3012  3156  3427  3826  4197  4348  4220  3945  3702  3555  3436  3213  2772  2180  1678  1384  1206  1058  957  925  924  862  659  328  -10  -233  -301  -250  -146  -21  131  277  338  302  205  75  -33  -77  -86  -102  -123  -133  -137  -165  -220  -267  -281  -270  -276  -323  -287  -46  215  278  180  -100  -574  -958  -1181  -1651  -2575  -3636  -4371  -4443  -3787  -2718  -1665  -811  -94  612  1291  1758  1931  1935  1920  1909  1815  1551  1155  772  511  380  323  283  246  252  374  638  941  1150  1226  1194  1088  948  796  638  502  415  330  126  -272  -756  -1089  -1144  -972  -717  -540  -563  -824  -1227  -1572  -1736  -1751  -1684  -1544  -1320  -1057  -844  -713  -639  -596  -574  -562  -551  -557  -627  -786  -979  -1110  -1150  -1142  -1139  -1165  -1212  -1252  -1277  -1304  -1346  -1395  -1473  -1636  -1801  -1764  -1431  -772  324  2074  4594  7413  9480  9863  8310  5402  2267  -114  -1371  -1643  -1327  -876  -613  -625  -831  -1138  -1464  -1700  -1836  -1957  -2055  -2020  -1829  -1568  -1317  -1132  -1005  -878  -757  -660  -544  -402  -293  -232  -176  -111  -67  -62  -77  -84  -75  -52  -16  26  57  52  -5  -98  -160  -74  241  699  1092  1338  1497  1638  1802  1990  2186  2391  2567  2615  2483  2256  2079  1994  1934  1852  1773  1724  1691  1630  1481  1192  800  433  170  -19  -183  -344  -519  -692  -805  -846  -856  -876  -954  -1154  -1466  -1757  -1873  -1748  -1429  -1078  -862  -816  -864  -926  -964  -973  -961  -930  -879  -810  -709  -531  -284  -65  66  128  126  14  -227  -566  -916  -1201  -1424  -1614  -1761  -1855  -1914  -1947  -1963  -1980  -1998  -1966  -1815  -1546  -1262  -1072  -998  -992  -991  -960  -886  -754  -557  -353  -214  -125  -42  26  75  114  148  154  48  -237  -611  -882  -979  -946  -804  -557  -291  -121  -70  -82  -121  -199  -332  -480  -552  -490  -324  -125  47  159  204  193  117  -44  -307  -662  -1028  -1276  -1369  -1368  -1311  -1173  -927  -611  -298  -66  -49  -230  -196  604  2464  5248  8247  10342  10587  8754  5576  2316  1  -1068  -1294  -1236  -1154  -1071  -934  -730  -533  -420  -379  -317  -173  6  130  164  131  62  -26  -108  -160  -178  -176  -170  -162  -161  -185  -241  -310  -373  -409  -367  -213  16  250  430  542  608  640  618  531  443  420  441  432  400  461  666  933  1214  1535  1872  2119  2198  2151  2055  1894  1585  1113  564  72  -258  -409  -434  -417  -465  -663  -977  -1284  -1513  -1615  -1399  -615  615  1750  2412  2659  2641  2409  2040  1701  1511  1438  1391  1346  1321  1314  1293  1223  1088  893  649  375  98  -134  -269  -302  -286  -273  -294  -354  -414  -428  -422  -467  -587  -770  -981  -1191  -1415  -1652  -1830  -1880  -1807  -1689  -1597  -1545  -1533  -1574  -1656  -1738  -1782  -1787  -1778  -1751  -1699  -1674  -1782  -2073  -2432  -2675  -2748  -2742  -2747  -2776  -2771  -2697  -2597  -2535  -2526  -2541  -2546  -2528  -2505  -2531  -2688  -3005  -3378  -3644  -3743  -3744  -3745  -3808  -3925  -4011  -3999  -3907  -3700  -3304  -2809  -2474  -2479  -2810  -3270  -3607  -3752  -3805  -3843  -3864  -3855  -3825  -3768  -3642  -3434  -3207  -3047  -2984  -2997  -3057  -3175  -3378  -3517  -3117  -1718  621  3472  6530  9550  12037  13440  13402  11731  8737  5426  2804  1256  723  898  1369  1867  2215  2260  1917  1171  266  -368  -552  -405  -78  305  638  863  962  930  792  607  440  331  320  474  888  1613  2513  3266  3636  3653  3475  3241  3047  2932  2888  2888  2905  2915  2905  2875  2833  2796  2775  2798  2916  3167  3523  3878  4104  4141  3988  3685  3358  3150  3084  3096  3126  3152  3167  3172  3163  3105  2940  2620  2177  1666  1063  344  -341  -763  -884  -867  -868  -961  -1130  -1292  -1391  -1468  -1594  -1753  -1846  -1804  -1656  -1495  -1425  -1476  -1576  -1644  -1667  -1672  -1680  -1699  -1733  -1796  -1909  -2041  -2123  -2145  -2159  -2199  -2255  -2308  -2354  -2405  -2437  -2353  -2040  -1549  -1103  -865  -809  -836  -884  -924  -947  -969  -1030  -1127  -1208  -1242  -1247  -1246  -1249  -1249  -1226  -1155  -1034  -893  -781  -739  -767  -820  -862  -903  -955  -1014  -1070  -1124  -1199  -1324  -1506  -1716  -1890  -1980  -2016  -2066  -2136  -2175  -2145  -2065  -1960  -1827  -1685  -1582  -1500  -1353  -1111  -859  -712  -698  -777  -892  -1001  -1100  -1164  -1140  -1035  -921  -841  -787  -769  -844  -1062  -1383  -1667  -1808  -1832  -1819  -1776  -1592  -1168  -651  -389  -469  -517  97  1986  5146  8568  10830  10922  8740  5243  1948  29  -337  158  747  1014  843  447  157  75  101  127  101  17  -89  -169  -205  -187  -95  72  278  455  553  565  522  459  400  352  319  331  442  639  815  887  882  863  893  1046  1330  1637  1832  1892  1878  1839  1796  1771  1788  1871  2027  2239  2476  2699  2896  3108  3349  3574  3774  3960  4080  4051  3844  3549  3329  3262  3282  3258  3077  2718  2243  1690  1073  486  41  -259  -465  -575  -597  -589  -593  -620  -694  -830  -994  -1126  -1211  -1282  -1359  -1406  -1364  -1203  -951  -672  -423  -222  -55  122  325  490  566  573  547  499  440  380  312  232  159  110  78  54  51  137  371  681  901  941  827  651  514  470  500  526  422  91  -360  -691  -800  -793  -785  -805  -828  -838  -845  -864  -892  -912  -907  -879  -849  -843  -856  -863  -825  -693  -445  -133  130  242  168  -35  -284  -501  -630  -670  -704  -808  -965  -1091  -1128  -1062  -889  -674  -524  -469  -461  -469  -486  -524  -603  -721  -851  -977  -1094  -1187  -1239  -1233  -1154  -1014  -904  -948  -1146  -1351  -1447  -1446  -1420  -1396  -1341  -1231  -1147  -1271  -1601  -1796  -1434  -250  1873  4879  8235  10868  11720  10334  7089  3114  -185  -1873  -2075  -1580  -991  -626  -644  -915  -1181  -1333  -1363  -1293  -1203  -1183  -1263  -1397  -1502  -1532  -1511  -1478  -1448  -1441  -1520  -1744  -2049  -2277  -2345  -2284  -2123  -1861  -1530  -1248  -1118  -1131  -1204  -1265  -1287  -1250  -1134  -962  -761  -507  -201  55  178  188  168  208  359  572  732  809  875  986  1109  1230  1439  1819  2264  2548  2531  2231  1821  1532  1453  1501  1549  1458  1131  659  294  160  142  49  -190  -482  -686  -775  -791  -749  -635  -442  -226  -71  -12  -17  -40  -55  -47  -7  48  68  13  -89  -180  -227  -245  -275  -344  -457  -631  -858  -1070  -1181  -1150  -983  -759  -601  -565  -615  -690  -747  -775  -782  -789  -860  -1060  -1338  -1559  -1663  -1676  -1640  -1586  -1529  -1465  -1363  -1181  -934  -688  -470  -284  -177  -212  -402  -662  -853  -916  -887  -806  -706  -631  -604  -601  -571  -508  -455  -444  -471  -510  -535  -539  -545  -580  -634  -639  -552  -448  -419  -473  -572  -677  -744  -771  -792  -830  -869  -910  -977  -1071  -1174  -1304  -1490  -1642  -1552  -1247  -1076  -1179  -1217  -658  1017  3975  7445  9931  10251  8199  4594  976  -1219  -1648  -1130  -728  -911  -1418  -1754  -1750  -1543  -1292  -1110  -1052  -1097  -1178  -1218  -1148  -954  -720  -563  -517  -534  -580  -661  -776  -883  -938  -960  -993  -1054  -1127  -1167  -1095  -860  -540  -291  -171  -84  76  294  457  503  468  417  416  539  824  1181  1463  1636  1780  1965  2242  2597  2947  3252  3528  3745  3857  3879  3870  3868  3875  3855  3737  3436  2962  2462  2063  1718  1296  784  330  73  3  38  107  155  113  -60  -274  -365  -340  -339  -396  -454  -498  -546  -624  -754  -936  -1118  -1238  -1282  -1293  -1298  -1289  -1252  -1187  -1085  -914  -697  -562  -601  -744  -895  -1018  -1096  -1128  -1135  -1132  -1125  -1120  -1117  -1116  -1126  -1168  -1252  -1330  -1345  -1304  -1260  -1235  -1218  -1204  -1194  -1187  -1187  -1218  -1303  -1407  -1468  -1467  -1441  -1420  -1404  -1404  -1459  -1604  -1785  -1878  -1804  -1602  -1365  -1150  -996  -943  -991  -1057  -1076  -1055  -1019  -956  -875  -831  -866  -965  -1089  -1213  -1314  -1373  -1394  -1393  -1373  -1325  -1256  -1181  -1095  -995  -877  -709  -459  -155  33  -111  -617  -1266  -1701  -1526  -371  2021  5417  8905  11265  11517  9440  5865  2245  -194  -1067  -903  -500  -288  -325  -444  -455  -367  -286  -263  -324  -499  -736  -915  -969  -905  -750  -557  -395  -300  -276  -313  -374  -423  -453  -465  -447  -383  -284  -174  -49  117  335  570  757  853  874  868  857  834  801  786  788  764  715  715  808  1005  1323  1741  2137  2390  2513  2586  2656  2742  2837  2903  2903  2835  2728  2625  2539  2430  2213  1828  1297  745  332  106  -40  -197  -335  -435  -567  -773  -991  -1127  -1140  -1043  -917  -875  -938  -1033  -1102  -1150  -1196  -1215  -1170  -1075  -987  -941  -933  -945  -975  -1026  -1087  -1146  -1189  -1205  -1204  -1185  -1124  -1033  -966  -922  -828  -639  -419  -282  -293  -445  -656  -821  -897  -883  -755  -564  -506  -723  -1084  -1285  -1165  -858  -603  -498  -491  -513  -548  -602  -673  -743  -795  -811  -743  -546  -278  -83  -42  -136  -298  -462  -599  -696  -738  -741  -743  -775  -844  -922  -953  -894  -745  -533  -305  -121  -21  5  -14  -80  -199  -337  -432  -460  -450  -440  -456  -511  -597  -689  -748  -735  -667  -591  -528  -468  -410  -361  -356  -437  -613  -852  -1087  -1240  -1322  -1407  -1389  -967  109  2038  4902  8162  10662  11414  10109  7155  3557  545  -1099  -1444  -1048  -471  -151  -215  -470  -719  -907  -1018  -1028  -956  -849  -722  -572  -388  -188  -35  28  29  18  22  46  82  119  134  69  -131  -412  -622  -655  -502  -218  110  430  702  865  908  889  878  910  973  1028  1052  1060  1083  1136  1211  1298  1426  1655  1957  2204  2336  2432  2580  2755  2874  2918  2934  2947  2901  2687  2263  1740  1294  1028  934  939  948  848  534  22  -494  -815  -919  -914  -874  -793  -654  -503  -434  -478  -555  -587  -576  -555  -540  -535  -533  -530  -528  -544  -596  -665  -712  -727  -746  -806  -898  -974  -1002  -970  -869  -720  -581  -493  -453  -440  -440  -458  -514  -615  -730  -848  -995  -1148  -1206  -1109  -922  -770  -708  -720  -793  -921  -1060  -1163  -1217  -1227  -1197  -1152  -1122  -1114  -1116  -1105  -1062  -994  -915  -831  -748  -680  -664  -770  -995  -1242  -1439  -1570  -1615  -1561  -1430  -1263  -1088  -913  -790  -809  -973  -1160  -1248  -1214  -1110  -984  -841  -649  -394  -147  -34  -117  -336  -611  -918  -1223  -1456  -1588  -1635  -1609  -1515  -1389  -1298  -1268  -1270  -1256  -1201  -1105  -969  -846  -777  -623  -53  1334  3780  6985  9967  11442  10601  7609  3555  13  -1820  -1887  -1088  -328  37  -2  -338  -795  -1197  -1425  -1452  -1326  -1125  -918  -753  -648  -599  -603  -639  -628  -497  -290  -133  -96  -163  -304  -474  -613  -696  -737  -733  -633  -388  -58  193  256  175  69  6  2  84  294  588  840  974  1006  981  958  1022  1245  1575  1872  2058  2151  2208  2295  2439  2611  2755  2816  2780  2689  2559  2356  2065  1719  1358  1001  654  344  100  -78  -198  -273  -349  -484  -685  -898  -1066  -1160  -1161  -1075  -958  -883  -877  -912  -938  -915  -832  -710  -575  -445  -335  -270  -285  -424  -685  -988  -1234  -1389  -1489  -1560  -1570  -1439  -1099  -640  -286  -145  -129  -132  -142  -200  -307  -403  -448  -446  -443  -524  -750  -1056  -1287  -1366  -1325  -1204  -1049  -923  -847  -779  -685  -586  -525  -500  -470  -433  -417  -423  -431  -445  -506  -669  -929  -1222  -1468  -1604  -1601  -1489  -1349  -1223  -1056  -800  -511  -276  -138  -82  -62  -53  -75  -156  -289  -439  -588  -732  -843  -890  -891  -888  -893  -882  -835  -772  -720  -688  -665  -657  -703  -840  -1036  -1169  -1091  -578  671  2765  5434  8071  9839  9930  8098  5050  1986  -261  -1429  -1659  -1430  -1196  -1046  -936  -908  -931  -891  -766  -620  -522  -517  -609  -749  -857  -897  -902  -930  -1005  -1101  -1177  -1224  -1219  -1077  -726  -270  72  187  134  22  -69  -121  -152  -178  -188  -163  -95  -9  70  148  219  257  268  331  524  806  1036  1148  1218  1345  1540  1756  1976  2241  2538  2773  2881  2861  2746  2582  2411  2238  2004  1664  1307  1090  1027  962  714  231  -351  -809  -1016  -1022  -954  -902  -876  -849  -800  -744  -710  -702  -703  -690  -655  -612  -584  -571  -561  -559  -604  -756  -1012  -1263  -1411  -1433  -1289  -912  -403  -40  -9  -288  -685  -961  -998  -838  -613  -458  -416  -442  -480  -503  -508  -504  -498  -500  -521  -566  -621  -664  -673  -639  -575  -507  -462  -441  -435  -443  -469  -502  -526  -536  -535  -525  -503  -479  -474  -495  -523  -540  -577  -674  -811  -914  -935  -876  -757  -593  -406  -248  -159  -125  -119  -139  -205  -338  -540  -763  -927  -1000  -1017  -1027  -1040  -1041  -1016  -976  -947  -943  -960  -993  -1037  -1042  -933  -753  -693  -850  -947  -386  1415  4542  8199  10943  11456  9377  5681  2057  -268  -1038  -702  -78  174  15  -261  -502  -682  -784  -808  -793  -787  -818  -866  -890  -882  -878  -877  -817  -680  -525  -404  -323  -281  -275  -289  -308  -319  -324  -329  -335  -323  -264  -143  21  180  279  306  294  274  269  311  422  575  715  823  898  938  1015  1240  1609  1965  2186  2317  2451  2597  2704  2753  2768  2768  2726  2601  2398  2139  1781  1284  760  383  196  114  47  -38  -124  -176  -198  -230  -309  -419  -512  -555  -558  -565  -613  -689  -753  -783  -776  -741  -710  -696  -680  -637  -577  -531  -505  -477  -430  -380  -356  -363  -384  -411  -435  -445  -440  -426  -409  -401  -406  -421  -432  -436  -446  -453  -428  -380  -373  -446  -551  -599  -571  -524  -500  -495  -500  -519  -561  -636  -730  -808  -841  -836  -816  -801  -798  -802  -804  -794  -767  -734  -710  -682  -618  -518  -449  -522  -811  -1216  -1508  -1524  -1273  -906  -607  -435  -324  -230  -182  -222  -332  -456  -559  -644  -737  -840  -933  -1009  -1072  -1091  -1031  -922  -831  -807  -857  -936  -990  -998  -953  -846  -757  -853  -1128  -1296  -1016  52  2206  5321  8610  10900  11188  9205  5732  2231  -104  -947  -776  -388  -311  -526  -776  -959  -1118  -1277  -1407  -1468  -1453  -1349  -1148  -923  -751  -638  -591  -616  -663  -688  -690  -692  -718  -772  -824  -837  -801  -729  -650  -583  -507  -371  -160  69  246  339  360  345  319  288  265  289  393  564  749  929  1112  1299  1488  1690  1933  2205  2445  2620  2737  2781  2752  2687  2597  2441  2217  1972  1749  1541  1278  913  522  254  159  165  166  92  -65  -274  -477  -623  -695  -727  -770  -866  -1005  -1133  -1215  -1244  -1220  -1148  -1034  -894  -762  -648  -555  -485  -431  -411  -454  -537  -611  -660  -707  -763  -806  -814  -808  -834  -928  -1066  -1177  -1213  -1147  -972  -747  -585  -532  -559  -627  -697  -726  -693  -627  -576  -560  -564  -570  -568  -552  -521  -483  -443  -410  -391  -389  -408  -465  -567  -691  -799  -866  -875  -822  -739  -677  -654  -655  -668  -696  -727  -722  -687  -673  -661  -596  -513  -477  -491  -514  -520  -499  -426  -273  -91  -27  -166  -421  -623  -693  -653  -534  -382  -270  -242  -316  -487  -688  -821  -860  -852  -841  -836  -827  -800  -748  -714  -763  -832  -708  -171  1004  3026  5781  8654  10702  11008  9214  5838  2056  -823  -2018  -1709  -718  141  405  28  -639  -1144  -1325  -1293  -1147  -905  -636  -447  -371  -382  -508  -771  -1022  -1025  -763  -459  -277  -217  -219  -238  -262  -287  -303  -301  -275  -223  -137  7  217  433  575  611  553  413  238  109  94  232  525  920  1325  1633  1760  1705  1553  1414  1371  1464  1716  2083  2445  2700  2832  2859  2740  2410  1947  1550  1302  1139  968  722  394  67  -177  -331  -429  -488  -522  -552  -586  -612  -620  -613  -594  -568  -570  -680  -951  -1293  -1525  -1544  -1379  -1145  -968  -886  -860  -848  -842  -840  -831  -805  -772  -746  -723  -703  -690  -678  -669  -688  -761  -871  -961  -998  -989  -955  -903  -842  -797  -777  -763  -727  -674  -634  -619  -615  -611  -617  -666  -774  -897  -959  -916  -784  -612  -460  -390  -420  -504  -570  -593  -606  -602  -513  -323  -153  -161  -333  -501  -566  -566  -572  -623  -694  -722  -669  -575  -520  -546  -622  -690  -725  -738  -743  -743  -738  -736  -750  -794  -860  -893  -851  -768  -705  -679  -676  -701  -797  -985  -1176  -1103  -411  1174  3730  6810  9280  10014  8660  5788  2595  180  -1019  -1213  -973  -784  -743  -710  -597  -461  -382  -385  -484  -680  -901  -1042  -1057  -971  -845  -750  -708  -691  -678  -663  -633  -586  -543  -529  -547  -563  -529  -431  -303  -173  -24  159  338  485  604  685  732  770  803  819  817  807  803  831  917  1039  1165  1330  1617  2020  2398  2613  2664  2636  2607  2635  2759  2948  3098  3080  2782  2214  1563  1045  727  519  287  -42  -416  -701  -833  -881  -905  -869  -750  -627  -576  -591  -635  -707  -831  -991  -1149  -1323  -1510  -1593  -1454  -1128  -790  -590  -535  -553  -606  -690  -774  -790  -697  -538  -401  -336  -351  -457  -635  -810  -884  -833  -742  -699  -712  -733  -703  -618  -532  -481  -451  -429  -410  -391  -384  -406  -449  -487  -508  -523  -563  -656  -782  -866  -876  -856  -840  -819  -794  -784  -796  -827  -867  -910  -962  -1012  -1037  -1040  -1049  -1055  -992  -781  -450  -146  8  29  -9  -69  -140  -218  -311  -445  -639  -843  -972  -1007  -996  -983  -986  -1002  -1010  -974  -892  -839  -891  -1044  -1250  -1470  -1653  -1686  -1429  -911  -400  55  999  2984  5801  8596  10368  10271  8173  4992  2017  19  -890  -976  -713  -553  -599  -704  -741  -678  -576  -512  -512  -575  -732  -991  -1254  -1368  -1253  -964  -653  -451  -375  -373  -411  -492  -602  -703  -771  -800  -770  -631  -373  -76  146  259  293  274  208  110  20  11  195  627  1154  1518  1640  1631  1596  1548  1467  1367  1321  1393  1582  1819  2024  2160  2266  2416  2646  2875  2957  2858  2658  2403  2096  1759  1415  1060  708  356  -48  -476  -771  -874  -875  -861  -850  -830  -800  -799  -830  -858  -888  -929  -951  -960  -974  -977  -960  -921  -861  -797  -752  -733  -730  -732  -721  -684  -630  -589  -574  -572  -568  -570  -592  -630  -659  -653  -606  -540  -492  -476  -478  -480  -475  -471  -487  -541  -635  -762  -875  -906  -851  -753  -626  -473  -324  -212  -146  -126  -177  -336  -574  -796  -925  -927  -793  -546  -271  -92  -76  -197  -366  -483  -509  -470  -411  -367  -360  -405  -507  -630  -718  -728  -637  -446  -206  -11  79  90  81  58  -41  -271  -597  -927  -1155  -1196  -1066  -867  -655  -452  -311  -265  -310  -452  -702  -1024  -1328  -1515  -1489  -1163  -581  148  1164  2797  5187  8032  10406  11114  9643  6576  3152  570  -694  -976  -852  -782  -990  -1340  -1544  -1498  -1278  -1008  -806  -723  -718  -739  -767  -802  -834  -827  -753  -637  -543  -507  -542  -655  -815  -957  -1034  -1034  -946  -774  -578  -436  -325  -159  44  164  159  132  167  245  337  472  648  820  986  1186  1407  1566  1619  1622  1682  1865  2123  2344  2500  2619  2697  2723  2683  2557  2373  2216  2119  2034  1910  1744  1507  1151  743  424  223  70  -68  -199  -342  -516  -711  -884  -1002  -1074  -1123  -1151  -1160  -1146  -1078  -918  -712  -580  -572  -625  -673  -723  -797  -854  -855  -824  -826  -891  -979  -1036  -1056  -1066  -1090  -1121  -1113  -1019  -851  -693  -616  -608  -613  -599  -576  -569  -579  -579  -557  -533  -538  -603  -743  -912  -1031  -1076  -1086  -1081  -1032  -892  -672  -484  -445  -524  -603  -637  -665  -724  -808  -907  -1012  -1066  -1026  -937  -831  -669  -460  -313  -372  -697  -1159  -1486  -1474  -1113  -608  -236  -103  -119  -185  -248  -277  -256  -182  -68  35  67  -3  -136  -249  -302  -323  -356  -403  -443  -502  -628  -798  -925  -971  -967  -942  -901  -857  -860  -950  -1105  -1248  -1285  -1134  -812  -385  247  1286  2874  5119  7766  9930  10545  9119  6116  2711  100  -1117  -1178  -780  -479  -444  -574  -707  -790  -844  -873  -863  -824  -800  -838  -925  -1000  -1036  -1049  -1050  -1001  -868  -691  -569  -543  -559  -521  -356  -101  133  275  330  333  320  304  292  293  314  344  364  359  333  281  212  173  257  532  947  1365  1709  1998  2253  2428  2493  2490  2501  2578  2707  2824  2898  2954  2969  2789  2262  1526  939  651  529  408  212  -19  -182  -246  -287  -386  -551  -716  -818  -851  -846  -832  -821  -816  -814  -812  -805  -802  -819  -859  -902  -939  -975  -1020  -1086  -1123  -1016  -754  -511  -440  -530  -679  -780  -798  -773  -751  -753  -788  -852  -917  -954  -958  -947  -941  -943  -937  -882  -745  -557  -410  -383  -519  -811  -1154  -1399  -1475  -1371  -1092  -742  -502  -475  -626  -839  -994  -1061  -1081  -1058  -946  -724  -462  -276  -220  -267  -388  -576  -787  -937  -993  -972  -860  -626  -326  -105  -45  -142  -374  -658  -858  -921  -908  -886  -885  -910  -958  -1024  -1094  -1125  -1089  -1026  -974  -910  -832  -832  -972  -1144  -1086  -415  1251  3972  7195  9819  10634  9064  5717  2006  -799  -2096  -2024  -1314  -716  -489  -503  -587  -650  -668  -663  -657  -656  -651  -634  -608  -583  -568  -561  -559  -559  -567  -589  -616  -623  -598  -561  -541  -532  -479  -333  -132  24  85  87  94  140  210  266  295  319  377  501  657  761  777  759  817  1036  1367  1680  1938  2181  2396  2541  2643  2747  2842  2875  2806  2664  2528  2411  2244  1975  1622  1279  1057  941  764  382  -172  -699  -1005  -1072  -1019  -951  -911  -906  -911  -882  -813  -781  -861  -999  -1073  -1037  -951  -896  -891  -888  -841  -760  -693  -668  -673  -685  -692  -689  -676  -658  -639  -624  -627  -677  -764  -839  -872  -859  -818  -782  -762  -742  -715  -704  -730  -771  -787  -763  -714  -669  -646  -640  -643  -655  -685  -741  -816  -900  -995  -1093  -1156  -1127  -980  -768  -598  -513  -470  -435  -412  -407  -413  -423  -440  -466  -479  -462  -431  -426  -480  -577  -629  -588  -522  -476  -419  -356  -335  -375  -460  -542  -584  -589  -570  -512  -407  -307  -310  -473  -721  -899  -943  -931  -940  -967  -989  -1076  -1359  -1767  -1902  -1424  -309  1376  3613  6281  8931  10720  10781  8889  5725  2476  204  -752  -856  -783  -856  -977  -995  -939  -890  -867  -860  -861  -867  -872  -849  -774  -652  -520  -415  -411  -553  -758  -893  -930  -924  -920  -916  -873  -739  -509  -258  -67  63  165  232  254  242  206  168  166  241  393  572  704  749  745  764  898  1250  1779  2271  2556  2648  2652  2645  2648  2661  2681  2689  2622  2428  2169  1981  1885  1771  1563  1292  999  676  350  74  -137  -278  -324  -293  -254  -252  -283  -368  -565  -858  -1123  -1262  -1275  -1200  -1067  -907  -752  -630  -562  -550  -575  -609  -618  -598  -583  -598  -659  -782  -933  -1029  -1017  -897  -730  -608  -568  -590  -650  -724  -781  -805  -791  -718  -572  -377  -227  -238  -429  -692  -922  -1086  -1170  -1161  -1036  -787  -484  -278  -281  -499  -817  -1066  -1158  -1103  -929  -710  -556  -511  -533  -569  -591  -582  -532  -456  -401  -449  -656  -969  -1235  -1357  -1337  -1181  -917  -647  -494  -513  -690  -934  -1105  -1102  -911  -618  -350  -176  -78  -25  0  9  16  9  -54  -207  -392  -511  -543  -560  -658  -862  -1089  -1254  -1356  -1415  -1435  -1426  -1391  -1302  -1114  -846  -588  -312  301  1714  4219  7528  10537  11823  10619  7347  3373  216  -1290  -1346  -778  -327  -279  -531  -843  -1055  -1133  -1119  -1077  -1050  -1046  -1052  -1040  -960  -766  -491  -253  -136  -124  -167  -234  -312  -404  -528  -671  -771  -790  -733  -616  -466  -311  -174  -58  44  129  176  186  193  227  286  346  425  589  888  1289  1673  1906  1969  1963  1977  2026  2111  2257  2460  2641  2738  2768  2786  2819  2842  2796  2608  2236  1773  1405  1206  1103  965  645  108  -469  -859  -1012  -1023  -956  -836  -698  -574  -488  -466  -491  -514  -513  -504  -531  -638  -807  -958  -1030  -1038  -1026  -1018  -1020  -1032  -1038  -992  -852  -656  -482  -346  -229  -155  -180  -324  -527  -686  -760  -782  -784  -777  -762  -747  -744  -752  -759  -757  -757  -787  -855  -912  -881  -758  -623  -533  -500  -523  -603  -708  -783  -802  -779  -742  -703  -657  -609  -590  -619  -679  -731  -755  -755  -744  -736  -747  -787  -838  -878  -903  -910  -873  -758  -587  -442  -373  -364  -382  -410  -451  -515  -599  -657  -659  -624  -592  -580  -567  -513  -420  -311  -210  -157  -172  -233  -341  -498  -647  -752  -829  -882  -901  -894  -873  -850  -833  -822  -812  -818  -880  -1050  -1333  -1611  -1661  -1307  -527  617  2078  3837  5923  8123  9685  9763  8162  5433  2484  248  -783  -898  -710  -555  -526  -643  -818  -954  -1043  -1100  -1138  -1164  -1162  -1102  -978  -857  -814  -821  -815  -811  -829  -840  -813  -741  -635  -492  -304  -125  -50  -97  -161  -107  50  180  221  233  282  368  448  490  509  555  684  870  1017  1077  1079  1070  1067  1072  1100  1216  1510  2004  2569  2998  3191  3212  3161  3079  2985  2886  2733  2450  2056  1642  1182  583  -44  -451  -569  -539  -508  -555  -713  -931  -1088  -1091  -936  -699  -483  -336  -267  -295  -427  -617  -787  -890  -915  -864  -759  -647  -578  -566  -612  -718  -879  -1045  -1152  -1179  -1161  -1126  -1070  -967  -821  -674  -581  -574  -627  -697  -777  -863  -910  -884  -806  -730  -692  -685  -689  -696  -720  -777  -851  -911  -956  -1005  -1037  -1005  -881  -671  -445  -300  -270  -322  -419  -547  -707  -868  -984  -1036  -1041  -1048  -1091  -1137  -1113  -979  -762  -540  -380  -290  -251  -244  -257  -287  -325  -346  -312  -218  -134  -166  -322  -544  -807  -1078  -1250  -1221  -976  -632  -384  -345  -499  -754  -972  -1042  -927  -695  -522  -554  -794  -1140  -1383  -1122  120  2517  5682  8745  10553  10272  8028  4696  1394  -844  -1641  -1429  -840  -347  -257  -541  -867  -1011  -990  -895  -792  -724  -703  -728  -797  -888  -936  -870  -678  -444  -291  -269  -342  -445  -526  -573  -588  -539  -394  -203  -65  -22  -33  -48  -42  -12  50  177  390  638  819  882  856  796  751  802  1059  1518  1980  2238  2292  2290  2367  2563  2802  2966  3032  3068  3121  3194  3271  3311  3172  2684  1920  1215  798  618  515  336  -3  -405  -677  -760  -743  -705  -667  -632  -610  -616  -654  -706  -744  -755  -744  -723  -713  -744  -841  -1007  -1196  -1333  -1403  -1440  -1457  -1427  -1324  -1188  -1092  -1062  -1043  -980  -873  -763  -689  -668  -708  -792  -877  -927  -944  -951  -950  -912  -814  -682  -595  -633  -825  -1096  -1300  -1359  -1279  -1091  -868  -702  -626  -607  -612  -631  -664  -702  -729  -719  -648  -552  -504  -522  -563  -591  -604  -626  -662  -688  -683  -661  -669  -704  -692  -603  -544  -622  -796  -941  -999  -997  -959  -876  -759  -650  -564  -467  -348  -262  -265  -350  -431  -413  -325  -295  -376  -511  -645  -757  -823  -842  -837  -829  -820  -812  -830  -917  -1091  -1288  -1347  -1156  -875  -771  -802  -584  363  2437  5523  8664  10575  10473  8452  5339  2291  276  -506  -628  -653  -706  -718  -665  -588  -544  -598  -790  -1055  -1245  -1273  -1156  -979  -827  -723  -650  -593  -542  -486  -439  -418  -438  -509  -611  -705  -766  -765  -658  -431  -124  147  252  187  82  24  11  13  16  38  124  314  603  928  1218  1433  1578  1688  1811  1973  2141  2249  2278  2272  2298  2392  2526  2628  2663  2640  2571  2465  2304  2029  1653  1281  958  636  304  13  -229  -465  -683  -821  -860  -828  -747  -657  -619  -672  -780  -880  -947  -992  -1020  -1018  -976  -899  -817  -758  -717  -657  -536  -374  -239  -179  -195  -278  -412  -571  -720  -817  -854  -849  -796  -678  -543  -489  -549  -666  -773  -831  -845  -840  -834  -832  -835  -844  -864  -895  -925  -938  -909  -808  -656  -524  -457  -438  -445  -508  -671  -893  -1074  -1179  -1238  -1267  -1256  -1210  -1168  -1165  -1186  -1200  -1196  -1171  -1087  -887  -590  -297  -90  0  -57  -278  -577  -806  -904  -918  -902  -884  -883  -910  -964  -1015  -1040  -1048  -1041  -983  -835  -634  -472  -388  -341  -287  -232  -193  -168  -141  -117  -118  -154  -209  -261  -298  -325  -354  -403  -467  -546  -665  -811  -928  -991  -1013  -1004  -981  -976  -1015  -1068  -1042  -938  -865  -748  -247  1052  3448  6771  10099  12089  11781  9204  5375  1765  -418  -933  -569  -303  -452  -739  -902  -942  -916  -820  -669  -541  -490  -512  -586  -688  -792  -887  -970  -1025  -1054  -1074  -1074  -1000  -804  -556  -386  -318  -292  -276  -241  -134  66  283  380  311  183  125  173  277  334  303  268  314  451  636  846  1136  1513  1855  2078  2233  2367  2465  2534  2633  2794  2989  3147  3222  3211  3123  2946  2675  2346  2014  1690  1327  940  621  379  156  -30  -127  -144  -139  -157  -207  -270  -323  -382  -523  -803  -1132  -1351  -1415  -1387  -1331  -1246  -1099  -913  -753  -640  -546  -452  -336  -203  -113  -110  -177  -266  -339  -395  -452  -532  -654  -800  -893  -889  -849  -828  -805  -749  -687  -682  -737  -800  -829  -813  -752  -638  -496  -394  -393  -512  -706  -879  -947  -908  -817  -733  -687  -687  -732  -796  -842  -857  -854  -849  -848  -853  -864  -879  -893  -892  -844  -724  -561  -432  -407  -500  -677  -869  -988  -967  -799  -568  -400  -337  -335  -362  -434  -561  -698  -788  -816  -801  -765  -732  -715  -709  -713  -729  -754  -770  -726  -584  -389  -244  -196  -215  -271  -371  -512  -649  -721  -715  -669  -627  -610  -614  -625  -637  -667  -724  -805  -889  -959  -1012  -1046  -1026  -948  -923  -1021  -1099  -871  20  1923  4777  7852  10097  10622  9069  6026  2772  319  -1024  -1406  -1279  -1132  -1027  -804  -535  -379  -344  -409  -610  -920  -1203  -1350  -1369  -1311  -1192  -1007  -780  -574  -445  -423  -477  -507  -433  -289  -168  -122  -140  -185  -221  -235  -239  -252  -272  -275  -242  -169  -58  123  415  765  1059  1254  1392  1505  1587  1637  1692  1791  1934  2089  2211  2301  2395  2502  2585  2621  2618  2595  2579  2584  2557  2415  2159  1902  1678  1362  887  394  76  -43  -91  -185  -328  -445  -498  -515  -530  -575  -681  -843  -1023  -1168  -1210  -1119  -970  -867  -834  -834  -834  -828  -827  -833  -828  -768  -626  -450  -340  -339  -394  -424  -405  -382  -403  -456  -502  -528  -543  -569  -650  -835  -1090  -1274  -1242  -928  -437  -2  234  281  124  -292  -848  -1245  -1292  -1030  -653  -374  -283  -364  -594  -888  -1086  -1079  -900  -716  -718  -909  -1102  -1126  -918  -541  -171  42  80  -36  -305  -648  -916  -1013  -938  -738  -495  -299  -185  -127  -91  -56  -27  -39  -125  -278  -444  -538  -530  -481  -453  -447  -453  -484  -562  -670  -763  -813  -805  -712  -542  -346  -177  -83  -125  -353  -720  -1066  -1278  -1386  -1371  -996  22  1884  4602  7664  10052  10782  9407  6357  2815  -26  -1570  -1859  -1380  -753  -374  -296  -387  -511  -604  -662  -693  -701  -685  -638  -555  -448  -340  -275  -334  -537  -765  -897  -930  -890  -750  -470  -126  120  200  165  72  -36  -124  -176  -189  -161  -110  -62  -26  30  177  429  686  838  889  932  1054  1248  1412  1476  1469  1502  1674  1989  2365  2710  2961  3099  3130  3066  2924  2744  2555  2337  2033  1637  1257  962  654  224  -251  -619  -824  -906  -911  -875  -840  -843  -893  -970  -1047  -1113  -1165  -1181  -1127  -998  -844  -746  -779  -991  -1328  -1636  -1805  -1841  -1771  -1595  -1351  -1147  -1060  -1093  -1220  -1420  -1631  -1743  -1694  -1529  -1361  -1270  -1251  -1247  -1213  -1137  -1039  -960  -935  -997  -1170  -1399  -1577  -1656  -1661  -1622  -1559  -1501  -1466  -1444  -1412  -1370  -1338  -1322  -1310  -1304  -1347  -1498  -1753  -2011  -2160  -2190  -2160  -2122  -2096  -2078  -2063  -2061  -2092  -2167  -2267  -2338  -2322  -2184  -1960  -1757  -1648  -1594  -1517  -1391  -1268  -1206  -1207  -1236  -1229  -1104  -832  -522  -332  -295  -310  -237  -14  264  397  268  -39  -345  -552  -662  -692  -667  -634  -618  -616  -618  -629  -655  -673  -626  -507  -389  -367  -536  -893  -1306  -1578  -1381  -344  1722  4704  7998  10526  11278  9928  6992  3524  610  -1084  -1527  -1224  -775  -531  -610  -937  -1270  -1445  -1510  -1577  -1663  -1716  -1720  -1704  -1684  -1652  -1590  -1503  -1424  -1376  -1354  -1365  -1431  -1567  -1747  -1927  -2062  -2102  -2007  -1800  -1581  -1436  -1377  -1380  -1424  -1450  -1385  -1212  -1008  -873  -835  -855  -884  -891  -863  -793  -662  -421  -61  319  586  689  686  659  655  697  790  919  1048  1115  1064  869  531  78  -408  -855  -1264  -1657  -2023  -2333  -2543  -2633  -2648  -2663  -2720  -2804  -2879  -2928  -2962  -2991  -3017  -3077  -3220  -3413  -3560  -3630  -3659  -3652  -3586  -3471  -3356  -3301  -3331  -3381  -3371  -3319  -3283  -3275  -3276  -3276  -3275  -3286  -3326  -3396  -3472  -3513  -3488  -3382  -3241  -3142  -3117  -3126  -3101  -2997  -2846  -2726  -2668  -2649  -2648  -2676  -2762  -2916  -3081  -3154  -3081  -2917  -2768  -2696  -2689  -2707  -2716  -2681  -2568  -2389  -2193  -2027  -1910  -1843  -1819  -1832  -1873  -1927  -1960  -1945  -1873  -1745  -1592  -1475  -1421  -1417  -1432  -1405  -1232  -833  -321  42  109  -63  -318  -488  -471  -263  23  226  283  249  213  271  503  871  1243  1541  1801  2069  2311  2460  2497  2429  2256  2030  1865  1855  2038  2368  2695  2877  2909  2880  2870  2950  3212  3687  4243  4699  5015  5209  5275  5442  6404  8805  12213  15189  16682  16642  15341  13147  10808  9130  8375  8252  8345  8420  8435  8420]
