reading_id,reading_time,wire_id,result_classification,heart_rate,heart_rate_alert,firmware_version,device_app_version,hardware_version,waveform_samples
1f02b860-5bdf-11ed-8080-808080808080,Fri Nov 04 01:22:17 UTC 2022,4101e3b01d39,NSR,75,NONE,20001.171.50,2.10.0,Charge 5,[1387  1645  1491  394  -1900  -5114  -8708  -12212  -15372  -18065  -20187  -21877  -23673  -26198  -29919  -32768  -32768  -32768  -32768  -32768  -32768  -32768  -32768  -32768  -32768  -32768  -32768  -32768  -32768  -32768  -32768  -32768  -32768  -32768  -32768  -32768  -32768  -32768  -32768  -32768  -32768  -32768  -32768  -32768  -32768  -32768  -32768  -32768  -32768  -32768  -32085  -28057  -23444  -18396  -13275  -8456  -4171  -474  2666  5200  7013  8084  8711  9567  11279  13872  16725  19045  20396  20853  20761  20404  19965  19596  19382  19293  19221  19039  18656  18027  17161  16161  15183  14235  13195  12114  11193  10505  10017  9727  9606  9574  9569  9580  9583  9473  9160  8746  8456  8345  8229  7941  7545  7240  7127  7226  7619  8403  9449  10388  10941  11125  11066  10786  10260  9583  8945  8440  7998  7539  7084  6693  6344  5959  5559  5261  5121  5101  5163  5293  5457  5602  5673  5604  5338  4943  4578  4299  4000  3597  3096  2524  1965  1572  1417  1417  1418  1252  815  217  -268  -484  -505  -475  -467  -488  -548  -694  -975  -1370  -1763  -2010  -2050  -1956  -1824  -1629  -1284  -815  -330  130  659  1363  2140  2705  2893  2743  2362  1909  1504  1064  421  -388  -1140  -1671  -1988  -2174  -2291  -2346  -2329  -2260  -2174  -2014  -1661  -1018  -28  1303  2964  4926  6831  7933  7605  5770  2985  198  -1747  -2614  -2779  -2739  -2779  -2999  -3360  -3732  -3998  -4136  -4204  -4206  -4002  -3418  -2514  -1599  -917  -482  -229  -105  -63  -57  -49  -39  -99  -334  -739  -1149  -1398  -1464  -1412  -1313  -1173  -917  -484  116  831  1542  2089  2385  2482  2489  2470  2445  2419  2378  2308  2223  2160  2139  2151  2169  2168  2142  2115  2130  2219  2396  2679  3075  3493  3780  3867  3753  3420  2866  2138  1238  193  -785  -1438  -1734  -1834  -1869  -1873  -1845  -1807  -1779  -1760  -1745  -1727  -1675  -1559  -1361  -1059  -661  -244  81  258  327  343  248  -117  -778  -1476  -1899  -2008  -1977  -1942  -1934  -1955  -2008  -2078  -2128  -2133  -2098  -2044  -1999  -1982  -2017  -2128  -2284  -2405  -2427  -2326  -2118  -1851  -1578  -1362  -1255  -1260  -1341  -1454  -1575  -1714  -1880  -2055  -2216  -2334  -2425  -2547  -2710  -2880  -3035  -3142  -3173  -3092  -2833  -2407  -1982  -1735  -1712  -1898  -2247  -2628  -2898  -3053  -3219  -3507  -3874  -4156  -4267  -4273  -4258  -4240  -4160  -3961  -3696  -3498  -3422  -3432  -3506  -3661  -3883  -4121  -4373  -4714  -5217  -5845  -6433  -6822  -6994  -7023  -6976  -6826  -6480  -5916  -5252  -4685  -4276  -3732  -2560  -520  1939  3725  3743  1693  -1693  -5121  -7446  -8290  -8056  -7369  -6673  -6177  -5860  -5582  -5250  -4825  -4241  -3449  -2530  -1701  -1174  -969  -923  -889  -815  -684  -479  -228  -5  121  150  126  83  45  18  -41  -204  -464  -737  -940  -1044  -1041  -914  -667  -365  -87  162  520  1161  2013  2758  3205  3411  3485  3496  3493  3506  3541  3584  3604  3577  3498  3400  3340  3385  3573  3836  4031  4067  3945  3693  3294  2672  1858  1089  579  323  198  128  103  120  149  182  275  484  780  1070  1281  1391  1423  1410  1337  1173  964  810  747  723  707  734  845  1004  1142  1267  1440  1718  2134  2655  3167  3543  3740  3822  3864  3875  3842  3789  3755  3738  3701  3611  3468  3293  3127  3032  3031  3077  3121  3164  3243  3396  3597  3756  3810  3751  3574  3267  2808  2159  1344  528  -83  -398  -483  -475  -462  -462  -457  -436  -383  -267  -78  154  387  573  674  708  720  704  587  310  -74  -441  -733  -972  -1171  -1309  -1380  -1406  -1370  -1194  -849  -455  -170  -38  -17  -57  -2  375  1168  2414  4169  6235  8052  8939  8369  6280  3350  631  -1198  -2039  -2160  -1975  -1754  -1572  -1453  -1387  -1278  -1013  -593  -163  120  210  113  -171  -601  -1061  -1444  -1710  -1894  -2049  -2182  -2272  -2311  -2310  -2269  -2130  -1808  -1313  -780  -358  -65  190  543  1091  1764  2324  2594  2579  2343  1971  1614  1396  1295  1169  861  351  -172  -484  -515  -306  50  393  576  598  571  622  823  1112  1335  1368  1143  659  56  -445  -728  -851  -971  -1241  -1708  -2265  -2767  -3138  -3357  -3440  -3419  -3348  -3282  -3220  -3111  -2940  -2750  -2562  -2322  -1956  -1485  -1025  -674  -438  -279  -167  -96  -78  -97  -108  -116  -155  -213  -260  -300  -339  -365  -375  -381  -396  -416  -396  -255  60  531  1099  1673  2153  2508  2765  2962  3143  3304  3405  3446  3433  3330  3075  2622  2002  1360  883  644  567  524  419  226  5  -170  -295  -391  -448  -441  -374  -299  -226  -81  175  457  629  642  555  442  343  256  134  -84  -403  -738  -997  -1153  -1230  -1270  -1301  -1313  -1237  -954  -374  433  1236  1856  2310  2696  3052  3332  3474  3488  3446  3375  3195  2844  2447  2209  2282  2872  4178  6142  8272  9724  9683  7905  5058  2338  659  232  564  864  726  333  -6  -196  -267  -231  -79  143  317  336  230  124  121  292  662  1101  1399  1450  1255  867  421  88  -79  -166  -266  -384  -482  -540  -570  -577  -525  -343  -35  267  436  465  418  346  286  316  556  1043  1619  2046  2224  2220  2126  2002  1885  1794  1725  1671  1621  1573  1547  1536  1486  1334  1074  771  512  354  285  214  39  -285  -712  -1121  -1425  -1671  -1930  -2171  -2335  -2428  -2493  -2548  -2585  -2587  -2539  -2447  -2346  -2288  -2310  -2425  -2584  -2705  -2750  -2745  -2722  -2696  -2681  -2715  -2833  -3011  -3165  -3253  -3280  -3221  -3031  -2759  -2548  -2490  -2562  -2690  -2817  -2957  -3167  -3441  -3684  -3797  -3767  -3641  -3489  -3367  -3293  -3253  -3250  -3320  -3507  -3761  -3962  -4060  -4093  -4074  -3988  -3859  -3738  -3622  -3473  -3267  -3021  -2793  -2640  -2564  -2531  -2527  -2586  -2762  -3063  -3396  -3620  -3673  -3567  -3320  -2982  -2666  -2431  -2169  -1714  -1051  -331  258  653  952  1315  1798  2272  2552  2547  2256  1756  1177  617  162  -114  -264  -419  -635  -846  -952  -938  -849  -693  -463  -229  -84  -79  -248  -597  -1020  -1245  -1006  -272  834  2262  3955  5643  6827  6963  5854  3913  1861  316  -447  -675  -847  -1101  -1267  -1240  -1078  -921  -878  -968  -1152  -1353  -1492  -1544  -1524  -1447  -1326  -1168  -959  -698  -444  -227  0  247  441  546  598  627  634  626  626  659  733  834  926  978  987  973  952  919  885  934  1234  1862  2602  3123  3322  3340  3356  3494  3777  4112  4388  4562  4625  4516  4180  3732  3411  3309  3304  3227  2948  2393  1646  983  611  469  410  395  428  488  533  518  470  444  416  345  258  178  105  40  -23  -104  -201  -299  -381  -437  -475  -543  -683  -863  -985  -955  -741  -424  -172  -83  -122  -197  -240  -231  -195  -146  -95  -83  -149  -255  -304  -222  -14  276  604  900  1111  1228  1257  1217  1154  1113  1090  1021  821  468  48  -313  -561  -713  -790  -770  -636  -419  -165  84  293  429  494  508  465  332  120  -82  -206  -264  -313  -417  -618  -908  -1211  -1437  -1546  -1565  -1550  -1533  -1520  -1517  -1531  -1542  -1466  -1228  -880  -574  -381  -280  -241  -232  -196  -87  85  245  316  281  158  -34  -263  -466  -580  -605  -615  -708  -910  -1138  -1304  -1421  -1571  -1767  -1851  -1691  -1351  -841  -43  1050  2448  4259  6347  8131  8937  8384  6518  3903  1466  -105  -732  -755  -699  -898  -1198  -1307  -1213  -1056  -910  -767  -604  -432  -276  -149  -56  0  28  36  16  -64  -241  -481  -696  -825  -890  -947  -1032  -1122  -1141  -1062  -961  -896  -832  -719  -548  -348  -171  -65  -9  65  201  389  570  678  704  692  690  723  796  901  1032  1193  1382  1580  1758  1899  2012  2106  2184  2243  2262  2179  1921  1493  981  469  -7  -444  -840  -1188  -1450  -1593  -1632  -1623  -1610  -1612  -1615  -1566  -1414  -1187  -974  -841  -783  -739  -655  -548  -485  -514  -648  -890  -1216  -1528  -1712  -1744  -1670  -1541  -1410  -1315  -1248  -1182  -1100  -1021  -974  -966  -976  -987  -995  -1003  -1013  -1035  -1079  -1139  -1200  -1254  -1290  -1278  -1169  -951  -695  -487  -340  -233  -157  -98  -29  61  165  244  263  223  141  51  -19  -84  -171  -304  -500  -705  -768  -624  -398  -234  -121  43  300  604  911  1201  1431  1550  1550  1461  1327  1195  1087  989  861  635  273  -131  -411  -504  -463  -352  -227  -145  -107  -66  -2  34  -9  -93  -133  -116  -108  -170  -328  -543  -718  -787  -792  -841  -989  -1193  -1380  -1540  -1636  -1445  -739  474  2096  4061  6122  7733  8255  7337  5205  2578  354  -833  -1033  -860  -832  -1002  -1195  -1308  -1340  -1324  -1270  -1190  -1117  -1077  -1056  -1003  -864  -623  -348  -147  -43  18  67  97  103  75  -9  -165  -382  -616  -799  -896  -924  -901  -811  -624  -351  -48  211  392  568  902  1488  2232  2920  3372  3551  3550  3469  3358  3236  3091  2879  2616  2400  2296  2277  2285  2271  2201  2079  1940  1804  1668  1534  1406  1277  1157  1076  1010  848  494  -17  -525  -898  -1139  -1328  -1490  -1582  -1579  -1507  -1402  -1305  -1250  -1236  -1219  -1161  -1079  -1016  -975  -919  -840  -773  -743  -745  -755  -758  -742  -708  -676  -672  -700  -745  -807  -916  -1086  -1280  -1444  -1564  -1647  -1669  -1593  -1419  -1191  -981  -844  -777  -747  -741  -754  -766  -743  -671  -570  -479  -428  -416  -421  -424  -423  -420  -419  -415  -403  -373  -313  -235  -183  -237  -452  -765  -1021  -1142  -1169  -1160  -1144  -1116  -1046  -894  -638  -340  -124  -37  -21  -26  -58  -141  -257  -350  -396  -425  -489  -615  -783  -939  -1035  -1066  -1040  -956  -821  -672  -598  -657  -730  -613  -118  931  2630  4844  7079  8564  8624  7066  4396  1608  -382  -1225  -1229  -994  -880  -868  -855  -867  -970  -1158  -1364  -1498  -1506  -1383  -1165  -901  -642  -449  -366  -376  -425  -454  -462  -506  -604  -693  -726  -714  -687  -671  -663  -656  -650  -649  -624  -501  -218  158  480  690  842  972  1078  1150  1177  1176  1179  1206  1260  1317  1362  1456  1679  1981  2211  2308  2343  2394  2482  2573  2569  2371  2021  1686  1465  1328  1232  1173  1108  958  707  433  194  -39  -334  -690  -1005  -1180  -1223  -1201  -1161  -1116  -1072  -1031  -981  -923  -876  -841  -791  -717  -648  -612  -617  -657  -713  -749  -729  -636  -507  -413  -381  -387  -405  -426  -423  -357  -233  -130  -121  -225  -402  -582  -717  -793  -827  -859  -903  -919  -877  -812  -759  -707  -632  -548  -487  -463  -463  -489  -552  -647  -744  -818  -863  -882  -892  -914  -962  -1033  -1083  -1049  -935  -815  -734  -687  -664  -674  -712  -751  -773  -792  -832  -891  -931  -928  -915  -932  -950  -916  -836  -738  -599  -399  -197  -82  -105  -264  -483  -635  -635  -484  -273  -123  -87  -138  -221  -301  -354  -377  -380  -394  -446  -532  -572  -492  -315  -58  360  1063  2263  4144  6422  8274  8806  7589  4978  1971  -317  -1248  -1021  -339  239  520  510  278  -74  -415  -633  -682  -600  -503  -483  -521  -554  -565  -570  -578  -586  -590  -583  -561  -531  -506  -494  -486  -456  -360  -173  63  275  430  539  608  644  657  654  659  727  888  1094  1264  1374  1459  1551  1661  1784  1916  2047  2146  2183  2148  2073  2001  1973  2047  2273  2587  2827  2886  2745  2430  2010  1548  1072  603  147  -276  -585  -733  -799  -904  -1095  -1326  -1508  -1597  -1606  -1559  -1458  -1301  -1116  -953  -847  -803  -810  -852  -907  -957  -997  -1035  -1062  -1070  -1065  -1055  -1051  -1062  -1088  -1115  -1110  -1041  -914  -767  -644  -576  -559  -573  -634  -767  -940  -1072  -1117  -1055  -874  -633  -438  -327  -281  -296  -366  -453  -518  -531  -486  -402  -289  -139  23  122  35  -305  -778  -1121  -1195  -1055  -834  -658  -578  -557  -528  -456  -357  -278  -245  -271  -382  -581  -792  -920  -942  -898  -827  -756  -702  -673  -674  -703  -747  -789  -810  -792  -728  -646  -589  -573  -585  -607  -618  -565  -400  -166  14  70  -14  -238  -550  -827  -971  -981  -917  -838  -782  -754  -734  -711  -680  -654  -642  -649  -702  -805  -859  -732  -368  223  1046  2193  3774  5700  7498  8356  7645  5486  2698  311  -934  -1001  -514  -198  -332  -711  -1037  -1200  -1232  -1195  -1137  -1078  -1015  -947  -881  -812  -716  -584  -453  -375  -368  -408  -464  -500  -498  -456  -397  -348  -309  -249  -151  -41  53  159  302  445  525  532  494  443  435  559  862  1238  1508  1634  1722  1855  2001  2091  2120  2137  2173  2226  2280  2319  2341  2348  2332  2284  2220  2163  2084  1869  1426  831  279  -90  -284  -419  -601  -820  -1020  -1202  -1379  -1517  -1589  -1604  -1569  -1489  -1389  -1308  -1271  -1277  -1315  -1367  -1402  -1378  -1272  -1119  -1004  -995  -1120  -1351  -1587  -1716  -1661  -1405  -1048  -768  -640  -606  -603  -605  -606  -603  -599  -596  -601  -625  -680  -761  -837  -858  -796  -689  -602  -546  -483  -380  -253  -140  -49  59  217  389  503  539  518  450  347  233  125  27  -46  -81  -86  -87  -104  -136  -163  -176  -174  -145  -64  56  168  223  223  214  227  242  228  203  187  167  117  44  -22  -64  -83  -86  -77  -87  -171  -355  -572  -712  -731  -664  -571  -509  -497  -515  -529  -485  -337  -127  34  91  69  14  -45  -105  -178  -256  -312  -346  -393  -478  -582  -659  -689  -689  -665  -605  -508  -415  -383  -427  -504  -564  -617  -716  -859  -947  -862  -565  -133  354  1042  2225  4024  6196  8020  8561  7423  5129  2640  751  -169  -277  -116  -79  -126  -147  -210  -335  -455  -577  -744  -927  -1054  -1099  -1094  -1074  -1035  -945  -820  -718  -662  -606  -495  -332  -170  -45  34  58  21  -53  -125  -164  -161  -104  3  118  193  216  205  187  198  292  502  772  999  1170  1361  1596  1825  2017  2175  2295  2362  2380  2375  2367  2351  2316  2262  2202  2148  2100  2019  1824  1503  1171  943  824  751  671  545  359  138  -70  -227  -323  -389  -456  -543  -652  -785  -932  -1062  -1148  -1198  -1222  -1200  -1127  -1033  -956  -898  -838  -779  -748  -749  -753  -722  -659  -621  -663  -778  -949  -1155  -1334  -1424  -1416  -1340  -1242  -1173  -1146  -1140  -1128  -1074  -922  -643  -322  -104  -42  -89  -199  -344  -506  -677  -834  -942  -1016  -1119  -1282  -1456  -1571  -1601  -1557  -1449  -1309  -1185  -1097  -1038  -1012  -1010  -989  -909  -779  -671  -652  -731  -851  -941  -987  -1031  -1086  -1135  -1168  -1151  -1058  -949  -877  -816  -728  -633  -574  -561  -571  -584  -589  -580  -550  -506  -461  -405  -305  -155  14  184  355  513  639  733  802  878  995  1124  1198  1179  1060  875  676  486  327  235  209  208  196  158  107  67  37  -10  -72  -118  -130  -114  -89  -61  -33  -17  -46  -142  -270  -264  112  946  2142  3590  5131  6467  7239  7080  5811  3736  1536  -161  -1080  -1278  -1042  -730  -556  -548  -662  -792  -847  -832  -792  -754  -732  -756  -859  -1035  -1226  -1350  -1351  -1255  -1133  -1018  -905  -810  -743  -690  -639  -589  -530  -442  -320  -200  -137  -156  -239  -374  -548  -720  -811  -720  -392  68  462  737  956  1125  1222  1301  1450  1718  2075  2412  2618  2689  2702  2695  2663  2617  2590  2572  2465  2141  1608  1064  699  516  387  230  82  -5  -46  -78  -126  -192  -264  -339  -430  -527  -601  -639  -643  -628  -598  -532  -413  -277  -187  -159  -162  -163  -158  -149  -135  -122  -113  -109  -117  -142  -171  -188  -191  -183  -170  -161  -160  -176  -228  -320  -416  -473  -484  -468  -457  -490  -598  -749  -864  -896  -848  -729  -559  -388  -268  -216  -220  -258  -313  -370  -397  -371  -316  -260  -210  -176  -176  -236  -357  -498  -613  -707  -791  -849  -868  -867  -864  -860  -845  -811  -768  -719  -653  -579  -531  -512  -488  -426  -353  -319  -327  -358  -410  -492  -605  -737  -881  -1059  -1271  -1462  -1584  -1641  -1656  -1623  -1502  -1295  -1089  -968  -931  -921  -895  -842  -757  -627  -463  -346  -395  -658  -999  -1211  -1187  -821  22  1390  3291  5575  7640  8624  7984  5878  3081  610  -765  -999  -655  -285  -141  -260  -513  -724  -822  -842  -838  -840  -863  -922  -1019  -1120  -1182  -1145  -947  -603  -258  -42  46  73  86  129  248  426  580  662  688  692  692  692  685  654  601  543  501  479  470  471  494  562  667  770  874  1053  1363  1731  2029  2230  2393  2525  2567  2539  2522  2548  2591  2605  2487  2131  1574  987  479  19  -392  -652  -714  -652  -563  -508  -496  -509  -527  -542  -558  -577  -600  -628  -659  -678  -684  -687  -702  -734  -785  -847  -881  -811  -581  -266  -30  59  55  -12  -162  -355  -497  -541  -513  -457  -411  -382  -355  -337  -342  -362  -373  -358  -328  -306  -296  -284  -256  -220  -200  -208  -234  -279  -376  -559  -804  -1030  -1179  -1266  -1332  -1379  -1384  -1350  -1303  -1240  -1139  -1003  -878  -816  -824  -862  -894  -908  -910  -907  -897  -885  -886  -896  -888  -857  -830  -822  -808  -746  -612  -444  -316  -263  -262  -276  -286  -289  -284  -270  -248  -214  -155  -54  69  163  205  218  216  170  31  -189  -435  -675  -886  -1023  -1074  -1088  -1106  -1124  -1104  -992  -777  -522  -329  -263  -391  -725  -1025  -886  -160  1015  2539  4349  6248  7897  8756  8222  6197  3338  630  -1132  -1735  -1556  -1153  -900  -853  -872  -884  -903  -909  -894  -888  -900  -922  -942  -946  -934  -920  -923  -945  -956  -951  -993  -1101  -1197  -1199  -1095  -944  -819  -732  -647  -538  -395  -242  -130  -60  7  84  145  167  151  128  138  221  382  581  779  969  1166  1391  1625  1814  1952  2104  2316  2578  2850  3084  3239  3280  3153  2783  2212  1647  1258  992  705  348  6  -203  -262  -247  -226  -223  -240  -272  -312  -346  -360  -359  -373  -434  -540  -642  -691  -680  -640  -602  -566  -497  -395  -314  -304  -356  -420  -452  -450  -441  -436  -428  -402  -344  -256  -181  -178  -258  -387  -518  -617  -659  -617  -474  -282  -145  -107  -136  -180  -208  -217  -213  -199  -169  -126  -85  -61  -56  -66  -93  -142  -199  -238  -257  -289  -372  -492  -579  -581  -485  -315  -116  55  156  183  162  113  54  15  16  57  114  161  193  215  229  235  236  234  223  197  156  101  39  8  46  144  263  366  426  423  333  151  -81  -286  -411  -467  -506  -578  -693  -820  -941  -1067  -1209  -1353  -1454  -1444  -1257  -928  -605  -317  146  1065  2620  4792  7207  9099  9629  8401  5761  2660  170  -1067  -1186  -915  -891  -1180  -1502  -1665  -1676  -1609  -1511  -1383  -1202  -1002  -865  -820  -818  -802  -767  -766  -839  -955  -1052  -1096  -1098  -1088  -1085  -1094  -1128  -1211  -1324  -1409  -1419  -1342  -1192  -976  -705  -447  -295  -255  -265  -255  -134  182  648  1069  1296  1360  1380  1417  1472  1536  1611  1718  1881  2075  2225  2292  2286  2240  2184  2130  2052  1861  1478  989  589  361  240  130  -32  -272  -530  -705  -773  -786  -785  -779  -775  -796  -861  -960  -1058  -1135  -1202  -1264  -1300  -1275  -1168  -1019  -910  -888  -939  -1025  -1100  -1137  -1138  -1111  -1043  -920  -775  -671  -628  -623  -646  -709  -803  -900  -992  -1083  -1168  -1236  -1289  -1331  -1348  -1303  -1199  -1087  -1020  -1013  -1041  -1058  -1040  -969  -827  -647  -510  -449  -438  -464  -544  -696  -906  -1128  -1304  -1391  -1369  -1246  -1080  -963  -947  -1022  -1138  -1217  -1167  -939  -603  -307  -114  1  64  83  52  -46  -198  -328  -379  -371  -372  -442  -586  -751  -885  -967  -998  -996  -996  -1042  -1132  -1165  -1008  -613  -12  821  2009  3636  5581  7341  8111  7330  5151  2373  -29  -1392  -1591  -1018  -335  -43  -201  -564  -879  -1051  -1089  -1034  -925  -800  -692  -630  -611  -594  -533  -425  -300  -184  -96  -51  -40  -38  -32  -18  8  43  75  93  95  74  22  -45  -68  32  296  643  926  1074  1146  1220  1308  1395  1523  1762  2100  2420  2607  2652  2619  2555  2494  2487  2565  2683  2741  2675  2517  2362  2267  2198  2080  1868  1556  1154  685  190  -231  -480  -567  -591  -619  -658  -698  -736  -762  -779  -804  -841  -876  -886  -860  -801  -721  -634  -564  -524  -505  -486  -463  -431  -377  -307  -259  -290  -441  -676  -876  -955  -934  -885  -847  -814  -790  -802  -863  -952  -1014  -1006  -917  -732  -457  -197  -91  -186  -390  -561  -633  -643  -661  -742  -898  -1076  -1202  -1253  -1268  -1295  -1338  -1361  -1343  -1306  -1252  -1118  -864  -575  -379  -321  -370  -495  -653  -789  -904  -1034  -1180  -1310  -1399  -1436  -1411  -1309  -1120  -879  -672  -561  -520  -480  -391  -250  -101  -18  -87  -354  -728  -1020  -1141  -1143  -1099  -1054  -1044  -1113  -1283  -1500  -1665  -1698  -1540  -1170  -775  -694  -1020  -1408  -1366  -573  1004  3176  5573  7660  8865  8706  7043  4402  1729  -205  -1134  -1310  -1232  -1241  -1348  -1410  -1381  -1319  -1248  -1163  -1066  -935  -738  -497  -291  -172  -147  -223  -389  -576  -701  -746  -740  -679  -541  -361  -224  -161  -118  -29  113  263  377  480  658  991  1434  1837  2096  2229  2289  2302  2292  2320  2458  2709  2982  3182  3290  3351  3416  3502  3596  3714  3867  4015  4114  4148  4112  3998  3809  3556  3239  2899  2626  2446  2283  2082  1809  1423  984  670  551  541  546  534  515  502  480  412  291  148  29  -35  -58  -64  -58  -19  76  205  297  318  300  279  272  290  353  475  627  725  675  436  108  -129  -207  -193  -163  -144  -145  -186  -280  -393  -444  -365  -161  69  211  221  133  12  -69  -76  -18  64  127  149  127  60  -33  -116  -184  -266  -366  -472  -599  -742  -859  -923  -941  -935  -927  -927  -924  -888  -804  -694  -598  -529  -481  -453  -444  -444  -441  -431  -428  -471  -602  -822  -1090  -1351  -1536  -1596  -1505  -1276  -1005  -820  -758  -773  -837  -951  -1113  -1319  -1538  -1705  -1785  -1810  -1825  -1829  -1806  -1767  -1742  -1746  -1787  -1912  -2160  -2433  -2543  -2377  -1912  -1144  -25  1552  3563  5577  6810  6524  4609  1778  -951  -2796  -3448  -3230  -2808  -2607  -2660  -2837  -3020  -3129  -3125  -3038  -2946  -2886  -2834  -2754  -2629  -2482  -2368  -2317  -2318  -2345  -2378  -2403  -2408  -2373  -2280  -2136  -1987  -1881  -1810  -1716  -1563  -1373  -1207  -1089  -948  -697  -386  -149  -22  57  148  292  505  754  1008  1251  1469  1653  1814  1992  2205  2411  2552  2624  2662  2698  2751  2815  2873  2900  2861  2723  2509  2251  1905  1446  951  517  198  -13  -165  -303  -462  -653  -846  -999  -1094  -1098  -993  -856  -786  -790  -816  -823  -802  -768  -742  -728  -717  -708  -721  -780  -897  -1060  -1231  -1352  -1376  -1296  -1167  -1052  -963  -891  -847  -845  -878  -932  -975  -996  -1014  -1029  -1002  -895  -691  -430  -207  -72  8  70  96  47  -87  -282  -493  -673  -800  -883  -947  -1007  -1045  -1027  -909  -678  -395  -177  -85  -86  -118  -145  -158  -161  -164  -202  -335  -565  -803  -961  -1031  -1042  -1011  -947  -863  -785  -747  -755  -763  -675  -416  -56  228  357  390  402  419  432  418  364  276  178  82  -30  -190  -391  -571  -676  -708  -703  -666  -579  -467  -385  -338  -248  -26  289  557  669  599  446  460  831  1477  2229  3163  4511  6242  7873  8619  7893  5818  3197  1023  -77  -164  208  511  569  471  369  307  217  43  -170  -326  -385  -386  -373  -365  -365  -376  -396  -418  -432  -429  -408  -374  -305  -184  -50  9  -43  -150  -210  -175  -78  32  161  316  456  542  588  613  615  630  757  1063  1444  1702  1770  1750  1779  1957  2282  2625  2830  2844  2696  2465  2258  2142  2101  2083  2058  2012  1902  1643  1190  612  84  -229  -316  -296  -304  -409  -586  -754  -868  -928  -944  -935  -917  -899  -888  -881  -873  -864  -852  -834  -811  -783  -745  -693  -629  -569  -524  -492  -463  -443  -441  -445  -417  -326  -196  -88  -35  -29  -66  -154  -266  -365  -450  -550  -663  -750  -795  -818  -836  -854  -868  -860  -814  -746  -688  -653  -615  -542  -439  -331  -228  -149  -117  -124  -138  -148  -158  -171  -179  -177  -177  -204  -279  -373  -421  -381  -275  -155  -65  -36  -73  -141  -198  -232  -256  -266  -249  -223  -208  -206  -209  -210  -211  -211  -212  -212  -208  -196  -167  -120  -67  -33  -35  -63  -81  -49  43  157  232  241  201  146  95  23  -107  -297  -509  -685  -766  -744  -678  -641  -670  -747  -821  -858  -854  -815  -759  -728  -782  -947  -1141  -1213  -1009  -393  642  1929  3455  5342  7270  8458  8224  6344  3325  343  -1493  -1844  -1185  -339  91  9  -306  -560  -659  -661  -636  -616  -605  -616  -659  -727  -779  -786  -741  -648  -535  -454  -417  -401  -399  -430  -488  -533  -534  -491  -427  -368  -323  -273  -187  -65  47  114  155  203  251  276  277  302  406  602  846  1078  1261  1383  1471  1577  1722  1880  2005  2078  2109  2108  2078  2010  1879  1664  1384  1099  853  666  534  429  316  168  -28  -286  -594  -875  -1025  -1023  -947  -876  -848  -860  -885  -893  -870  -818  -748  -677  -631  -617  -637  -693  -767  -819  -822  -780  -720  -667  -621  -603  -626  -621  -529  -378  -232  -138  -128  -216  -367  -502  -574  -604  -642  -711  -792  -853  -880  -876  -855  -825  -787  -747  -717  -704  -703  -691  -647  -581  -521  -488  -481  -500  -542  -591  -630  -649  -620  -496  -273  -40  109  161  121  -57  -388  -745  -963  -1002  -934  -845  -786  -769  -772  -781  -791  -795  -765  -677  -561  -507  -576  -742  -908  -997  -1001  -943  -847  -739  -655  -625  -653  -707  -746  -756  -745  -712  -664  -631  -674  -840  -1090  -1319  -1470  -1559  -1588  -1507  -1242  -734  104  1406  3242  5398  7226  7874  6868  4490  1619  -704  -1854  -1915  -1420  -908  -671  -689  -782  -842  -863  -867  -874  -908  -986  -1099  -1203  -1270  -1307  -1331  -1354  -1388  -1434  -1482  -1518  -1535  -1519  -1446  -1297  -1065  -773  -480  -255  -131  -89  -75  -34  43  109  125  115  139  256  451  641  760  814  843  881  934  1020  1224  1624  2152  2615  2879  2976  3011  3040  3059  3024  2870  2592  2254  1918  1605  1299  946  540  175  -60  -196  -319  -487  -704  -909  -1007  -962  -841  -743  -702  -702  -742  -840  -967  -1059  -1095  -1107  -1125  -1158  -1209  -1276  -1322  -1268  -1065  -790  -584  -501  -489  -487  -484  -483  -462  -374  -202  0  152  225  256  286  320  345  366  403  490  668  909  1111  1200  1182  1104  1007  924  878  863  844  779  647  457  248  82  2  12  100  236  370  459  487  448  344  199  44  -113  -288  -453  -559  -583  -514  -339  -94  120  236  275  291  300  284  225  145  87  69  71  69  56  56  125  309  569  803  942  971  931  885  868  862  850  823  776  702  622  562  522  474  406  331  250  172  112  70  45  33  9  -46  -99  -88  -13  63  107  120  143  302  709  1445  2730  4670  6821  8360  8604  7291  4779  2094  241  -520  -520  -264  -187  -413  -763  -1022  -1133  -1154  -1131  -1088  -1051  -1027  -991  -938  -919  -984  -1099  -1189  -1227  -1221  -1174  -1094  -997  -902  -825  -763  -702  -623  -508  -383  -303  -279  -286  -284  -223  -92  68  227  359  436  468  486  531  654  874  1127  1326  1465  1585  1693  1776  1866  2019  2217  2372  2443  2450  2370  2141  1782  1402  1062  727  373  -1  -429  -889  -1253  -1437  -1503  -1561  -1655  -1769  -1914  -2120  -2347  -2503  -2551  -2515  -2389  -2151  -1860  -1665  -1642  -1727  -1838  -1940  -2011  -2040  -2037  -2026  -2044  -2131  -2285  -2447  -2552  -2570  -2479  -2269  -1996  -1760  -1631  -1605  -1682  -1874  -2111  -2222  -2112  -1868  -1649  -1508  -1406  -1323  -1273  -1255  -1251  -1253  -1264  -1289  -1318  -1339  -1356  -1381  -1412  -1412  -1346  -1227  -1106  -1018  -958  -914  -898  -912  -924  -911  -889  -891  -925  -964  -969  -938  -889  -833  -773  -734  -739  -790  -859  -903  -900  -828  -666  -459  -309  -254  -256  -287  -358  -468  -577  -653  -700  -736  -764  -777  -768  -741  -721  -727  -746  -757  -757  -760  -780  -810  -827  -813  -782  -754  -716  -634  -494  -345  -249  -218  -228  -269  -347  -448  -547  -636  -716  -777  -811  -830  -848  -862  -863  -877  -957  -1124  -1243  -1099  -638  28  879  2042  3674  5761  7879  9199  8974  7132  4362  1692  -2  -475  -215  138  290  249  140  25  -117  -249  -266  -162  -27  90  185  263  349  473  607  685  668  575  468  397  363  344  333  347  397  469  536  586  622  655  736  926  1202  1455  1622  1764  1994  2323  2627  2789  2821  2796  2768  2770  2839  2993  3181  3335  3447  3580  3793  4058  4279  4405  4461  4490  4506  4468  4295  3958  3556  3199  2870  2519  2148  1765  1417  1191  1077  946  710  432  255  275  491  789  1010  1087  1050  906  638  322  108  66  139  242  327  387  433  469  484  457  381  310  339  500  705  847  899  893  834  712  565  462  408  347  252  159  86  -6  -167  -373  -552  -669  -735  -763  -756  -699  -585  -448  -341  -272  -222  -184  -140  -64  30  101  127  103  19  -129  -326  -543  -729  -833  -856  -846  -836  -833  -833  -829  -820  -807  -790  -761  -719  -667  -610  -555  -518  -514  -538  -589  -691  -858  -1045  -1186  -1260  -1296  -1335  -1393  -1451  -1483  -1489  -1483  -1478  -1482  -1503  -1540  -1579  -1606  -1618  -1617  -1594  -1541  -1474  -1427  -1411  -1413  -1413  -1404  -1391  -1379  -1359  -1340  -1385  -1568  -1850  -2086  -2202  -2236  -2242  -2242  -2244  -2244  -2226  -2172  -2092  -2050  -2103  -2249  -2440  -2596  -2657  -2625  -2429  -1864  -796  773  2799  4943  6440  6541  5033  2450  -190  -2003  -2723  -2693  -2475  -2475  -2750  -3072  -3235  -3193  -2964  -2616  -2303  -2151  -2148  -2210  -2278  -2351  -2467  -2650  -2852  -2985  -2990  -2837  -2553  -2259  -2070  -1963  -1859  -1733  -1609  -1491  -1354  -1167  -938  -740  -639  -627  -657  -697  -725  -708  -606  -417  -204  -42  58  176  391  662  883  1036  1180  1350  1543  1728  1852  1899  1907  1928  1992  2094  2194  2252  2210  1988  1571  1076  653  343  49  -302  -644  -877  -991  -1030  -1007  -900  -711  -515  -399  -370  -386  -412  -438  -455  -460  -451  -424  -383  -356  -387  -454  -474  -391  -219  -29  98  139  135  135  161  216  290  357  400  428  463  503  527  524  509  502  504  503  505  520  543  560  565  570  591  641  722  815  883  911  892  817  706  605  523  427  294  151  53  22  38  81  136  179  199  202  201  193  165  106  40  22  84  193  282  334  369  381  354  308  274  256  234  201  183  201  236  267  296  327  350  346  304  235  173  138  102  31  -66  -162  -247  -317  -367  -403  -418  -408  -379  -316  -183  4  168  261  405  951  2284  4490  7112  9236  9898  8613  5780  2506  -71  -1284  -1169  -409  239  460  330  75  -107  -159  -135  -98  -77  -76  -88  -105  -121  -126  -105  -44  32  64  19  -69  -135  -150  -135  -113  -102  -122  -197  -321  -457  -571  -641  -660  -633  -571  -465  -275  -20  227  437  622  776  893  995  1107  1241  1403  1596  1783  1908  1961  1984  2024  2084  2130  2124  2047  1916  1772  1642  1530  1428  1325  1176  887  445  6  -266  -380  -432  -486  -564  -653  -715  -734  -738  -746  -752  -761  -804  -909  -1048  -1154  -1193  -1174  -1104  -993  -886  -831  -845  -900  -954  -1008  -1093  -1197  -1281  -1335  -1367  -1378  -1365  -1321  -1248  -1166  -1098  -1061  -1053  -1059  -1064  -1057  -1034  -1002  -978  -970  -972  -978  -983  -986  -989  -993  -995  -991  -986  -987  -996  -1002  -998  -991  -989  -990  -998  -1021  -1051  -1062  -1016  -890  -708  -537  -428  -383  -388  -434  -499  -549  -568  -562  -530  -463  -365  -276  -242  -289  -396  -520  -626  -701  -761  -820  -872  -911  -925  -870  -703  -470  -301  -258  -278  -316  -435  -723  -1076  -1120  -527  644  2248  4273  6491  8326  9143  8443  6190  3140  508  -854  -978  -532  -212  -320  -634  -776  -708  -607  -569  -610  -732  -894  -1011  -1044  -1010  -942  -867  -803  -746  -687  -615  -507  -356  -206  -109  -80  -97  -128  -158  -186  -199  -175  -116  -39  57  192  376  580  751  863  947  1059  1238  1470  1696  1863  1961  2021  2065  2110  2198  2361  2569  2742  2831  2850  2822  2747  2624  2455  2215  1888  1533  1249  1082  997  889  654  307  -34  -302  -517  -687  -788  -817  -801  -766  -714  -629  -525  -451  -426  -430  -441  -450  -451  -442  -437  -449  -463  -443  -371  -274  -194  -123  -20  104  193  201  110  -62  -261  -429  -549  -630  -679  -704  -688  -587  -383  -141  47  154  197  194  147  54  -100  -338  -603  -782  -842  -846  -837  -787  -659  -500  -406  -395  -413  -421  -414  -390  -340  -274  -222  -215  -258  -322  -391  -468  -534  -571  -595  -623  -647  -657  -646  -608  -550  -500  -472  -460  -467  -519  -634  -777  -884  -931  -937  -927  -923  -948  -1018  -1120  -1218  -1280  -1271  -1132  -879  -707  -702  -480  549  2616  5382  7961  9191  8357  5758  2465  -354  -1921  -2127  -1525  -793  -309  -225  -480  -819  -1066  -1218  -1318  -1409  -1500  -1557  -1557  -1516  -1474  -1462  -1469  -1459  -1420  -1356  -1290  -1241  -1173  -1024  -821  -670  -619  -632  -662  -686  -694  -680  -639  -577  -514  -466  -440  -414  -337  -185  -5  122  199  333  631  1053  1421  1615  1686  1726  1761  1788  1803  1812  1826  1841  1842  1814  1743  1627  1473  1293  1069  754  335  -111  -486  -761  -961  -1101  -1179  -1207  -1220  -1256  -1319  -1378  -1399  -1376  -1337  -1311  -1301  -1297  -1300  -1328  -1389  -1446  -1439  -1355  -1222  -1044  -851  -721  -689  -727  -789  -845  -881  -893  -891  -894  -933  -1026  -1146  -1235  -1265  -1241  -1168  -1073  -994  -949  -928  -921  -935  -982  -1067  -1178  -1288  -1376  -1441  -1481  -1475  -1430  -1387  -1362  -1342  -1320  -1310  -1320  -1338  -1347  -1350  -1355  -1358  -1339  -1273  -1147  -998  -901  -906  -1023  -1206  -1366  -1447  -1448  -1375  -1237  -1078  -966  -928  -931  -908  -817  -687  -583  -529  -494  -480  -551  -771  -1079  -1326  -1439  -1440  -1366  -1268  -1191  -1135  -1083  -1008  -869  -671  -506  -441  -405  -232  353  1666  3744  6172  8214  9057  8158  5728  2806  529  -619  -810  -573  -451  -602  -801  -850  -788  -723  -684  -653  -632  -628  -638  -649  -655  -659  -661  -651  -610  -530  -434  -361  -336  -363  -430  -503  -530  -464  -304  -96  109  274  374  414  427  437  473  562  698  845  983  1122  1257  1378  1489  1606  1724  1836  1968  2134  2297  2425  2530  2623  2695  2744  2780  2803  2815  2827  2843  2826  2679  2333  1846  1359  956  661  463  319  194  94  30  -4  -26  -64  -144  -251  -327  -324  -241  -128  -49  -19  5  76  179  240  210  144  127  195  316  427  493  518  518  504  484  466  457  459  466  470  466  456  453  480  561  674  755  745  632  469  348  322  401  563  737  846  869  841  789  729  664  592  527  491  487  497  510  519  520  518  533  600  735  902  1040  1099  1072  995  890  765  671  632  605  541  428  307  279  399  604  801  950  1063  1150  1201  1208  1178  1124  1071  1040  1037  1047  1053  1051  1051  1060  1063  1025  927  789  676  634  648  655  592  431  238  106  52  42  90  253  492  624  589  609  921  1627  2861  4735  7003  8975  9794  8861  6338  3235  791  -284  -215  134  136  -144  -348  -339  -260  -249  -286  -313  -318  -320  -334  -369  -429  -513  -610  -696  -744  -759  -784  -845  -913  -937  -913  -867  -822  -794  -782  -775  -772  -770  -759  -721  -641  -526  -400  -289  -208  -158  -137  -136  -141  -137  -111  -63  -11  19  24  57  219  543  902  1142  1250  1314  1386  1473  1567  1625  1495  983  133  -693  -1201  -1435  -1587  -1745  -1931  -2185  -2495  -2759  -2912  -2975  -3004  -3043  -3119  -3258  -3444  -3588  -3607  -3539  -3496  -3518  -3561  -3588  -3601  -3603  -3562  -3443  -3282  -3160  -3109  -3099  -3100  -3100  -3099  -3097  -3098  -3111  -3136  -3161  -3163  -3144  -3119  -3096  -3078  -3070  -3074  -3083  -3067  -2989  -2850  -2708  -2631  -2638  -2716  -2823  -2896  -2897  -2825  -2720  -2639  -2611  -2634  -2697  -2775  -2832  -2853  -2839  -2788  -2703  -2596  -2485  -2386  -2311  -2253  -2188  -2115  -2061  -2059  -2116  -2207  -2265  -2182  -1886  -1481  -1185  -1083  -1085  -1083  -1034  -959  -901  -869  -847  -818  -788  -766  -759  -778  -845  -960  -1083  -1167  -1194  -1144  -984  -743  -528  -418  -403  -433  -457  -439  -360  -251  -193  -221  -239  -107  296  1116  2516  4543  6880  8775  9325  8048  5307  2153  -246  -1185  -786  159  881  1089  900  586  350  232  194  194  198  185  160  138  127  131  171  274  413  501  481  375  255  176  146  165  277  512  802  1032  1156  1206  1229  1262  1319  1399  1487  1569  1640  1696  1744  1800  1880  2005  2180  2409  2694  2993  3227  3371  3448  3480  3499  3564  3701  3866  3997  4075  4075  3906  3512  3013  2629  2440  2358  2271  2115  1833  1386  882  533  415  422  448  461  476  503  524  515  470  409  361  334  318  304  296  305  338  383  419  444  482  539  596  620  584  479  342  239  197  192  187  167  140  116  97  82  70  51  10  -46  -93  -119  -146  -199  -265  -296  -243  -99  75  197  238  211  128  7  -109  -187  -226  -234  -214  -187  -172  -174  -184  -193  -201  -212  -225  -233  -232  -225  -218  -205  -180  -152  -160  -233  -343  -427  -476  -554  -707  -887  -1002  -1012  -942  -848  -783  -750  -718  -675  -644  -637  -638  -618  -564  -512  -527  -619  -724  -780  -786  -782  -786  -790  -779  -754  -733  -742  -797  -899  -1017  -1102  -1147  -1186  -1244  -1312  -1374  -1427  -1486  -1563  -1647  -1675  -1558  -1282  -888  -342  478  1829  3893  6320  8210  8653  7288  4611  1714  -400  -1351  -1430  -1232  -1145  -1176  -1237  -1325  -1453  -1566  -1568  -1435  -1236  -1055  -955  -962  -1065  -1209  -1318  -1341  -1253  -1049  -783  -562  -470  -504  -599  -695  -770  -821  -850  -864  -868  -840  -737  -529  -262  -40  74  98  92  134  295  554  803  964  1063  1205  1465  1779  2008  2108  2154  2212  2284  2334  2310  2181  1990  1838  1774  1751  1706  1623  1528  1433  1336  1206  981  633  219  -174  -517  -804  -1008  -1113  -1147  -1152  -1151  -1152  -1156  -1157  -1137  -1090  -1045  -1045  -1073  -1067  -1006  -923  -860  -830  -824  -812  -773  -714  -667  -654  -666  -685  -703  -718  -725  -723  -709  -682  -644  -594  -534  -504  -564  -694  -804  -834  -803  -759  -726  -698  -666  -612  -520  -428  -390  -396  -402  -393  -376  -358  -339  -309  -269  -249  -277  -357  -457  -535  -572  -577  -568  -552  -532  -497  -436  -357  -283  -222  -170  -136  -128  -137  -153  -162  -152  -115  -62  -18  3  3  -42  -171  -395  -642  -803  -836  -780  -692  -600  -489  -360  -251  -191  -169  -156  -125  -74  -32  -33  -67  -85  -69  -43  -34  -32  -1  92  224  328  370  348  244  37  -256  -570  -807  -912  -892  -776  -608  -458  -370  -339  -336  -336  -313  -270  -258  -269  -119  360  1167  2307  3909  5930  7888  9008  8683  6891  4233  1660  -4  -580  -510  -318  -242  -251  -239  -196  -201  -291  -428  -542  -609  -656  -706  -737  -711  -635  -560  -513  -487  -465  -436  -399  -347  -286  -242  -222  -203  -161  -92  -4  87  165  214  235  241  250  274  324  419  580  788  978  1099  1177  1270  1395  1518  1616  1714  1841  1996  2165  2324  2428  2457  2454  2454  2429  2340  2198  2013  1792  1560  1322  1028  634  200  -133  -289  -316  -304  -299  -324  -404  -535  -688  -830  -945  -1031  -1100  -1172  -1247  -1296  -1306  -1298  -1296  -1310  -1330  -1336  -1306  -1202  -1004  -784  -646  -640  -741  -880  -978  -990  -925  -817  -710  -645  -661  -783  -988  -1191  -1312  -1346  -1342  -1333  -1311  -1254  -1171  -1090  -1024  -971  -943  -949  -977  -999  -1002  -995  -960  -871  -765  -715  -755  -854  -948  -996  -1016  -1060  -1147  -1249  -1333  -1390  -1427  -1449  -1436  -1333  -1110  -831  -611  -539  -632  -810  -958  -1037  -1067  -1059  -1002  -900  -783  -698  -688  -768  -922  -1091  -1207  -1247  -1232  -1162  -1017  -818  -630  -498  -426  -395  -377  -339  -273  -190  -122  -112  -192  -367  -600  -806  -912  -921  -873  -805  -748  -746  -870  -1147  -1444  -1497  -1152  -464  479  1713  3355  5400  7471  8860  8874  7300  4641  1858  -134  -916  -781  -361  -58  18  -102  -298  -461  -555  -597  -612  -613  -593  -539  -458  -384  -338  -325  -339  -372  -423  -495  -559  -560  -475  -328  -157  0  99  119  106  116  155  210  284  371  456  539  629  727  817  888  941  975  994  1030  1136  1340  1605  1874  2110  2288  2402  2483  2575  2687  2782  2811  2764  2676  2571  2427  2186  1828  1420  1052  756  508  280  51  -167  -332  -432  -501  -568  -626  -657  -664  -693  -785  -914  -1007  -1027  -992  -935  -879  -845  -837  -845  -859  -857  -803  -676  -519  -400  -352  -358  -396  -449  -505  -554  -584  -591  -585  -578  -567  -547  -519  -495  -493  -517  -572  -664  -773  -854  -887  -890  -882  -861  -825  -800  -824  -878  -899  -863  -811  -785  -786  -780  -754  -725  -712  -718  -730  -727  -710  -701  -712  -743  -795  -858  -904  -922  -923  -907  -865  -804  -751  -741  -778  -834  -875  -875  -801  -670  -560  -505  -472  -438  -414  -406  -406  -401  -388  -378  -391  -447  -538  -624  -665  -620  -466  -257  -107  -87  -183  -327  -448  -522  -558  -552  -500  -427  -373  -345  -334  -361  -483  -719  -1009  -1243  -1285  -1040  -553  53  748  1648  2972  4854  6998  8602  8818  7355  4718  1905  -151  -1032  -1003  -696  -565  -666  -817  -889  -891  -870  -848  -831  -831  -835  -801  -713  -624  -608  -698  -865  -1011  -1062  -1019  -911  -772  -627  -469  -311  -207  -178  -187  -185  -145  -74  1  55  80  78  56  39  88  272  580  913  1172  1302  1324  1325  1405  1611  1905  2197  2433  2604  2719  2801  2852  2841  2774  2699  2626  2527  2398  2254  2090  1889  1649  1343  927  430  -14  -305  -450  -501  -504  -492  -485  -495  -532  -602  -696  -780  -828  -841  -837  -821  -778  -700  -601  -510  -440  -388  -348  -328  -346  -414  -501  -559  -576  -578  -582  -585  -582  -559  -495  -369  -191  -18  77  31  -177  -461  -665  -731  -714  -677  -640  -607  -581  -567  -564  -553  -524  -486  -465  -459  -448  -427  -420  -480  -643  -856  -1014  -1071  -1065  -1022  -934  -807  -673  -561  -475  -392  -304  -245  -272  -421  -648  -836  -921  -932  -933  -950  -953  -895  -776  -649  -557  -515  -520  -566  -639  -720  -791  -830  -817  -749  -622  -459  -314  -225  -179  -159  -183  -272  -400  -495  -509  -461  -415  -425  -503  -610  -687  -707  -647  -476  -240  -75  -111  -385  -773  -1067  -1171  -1125  -986  -797  -617  -499  -477  -565  -789  -1129  -1360  -1184  -586  181  815  1198  1759  3203  5526  7776  8819  8049  5651  2585  122  -1032  -1151  -948  -907  -1072  -1172  -1011  -728  -560  -597  -845  -1225  -1561  -1723  -1694  -1509  -1252  -1051  -978  -1003  -1055  -1079  -1042  -917  -702  -471  -321  -280  -323  -429  -545  -564  -411  -146  97  263  375  451  504  549  596  661  774  943  1123  1267  1377  1510  1686  1846  1933  1962  2022  2207  2507  2801  2981  3028  2982  2898  2810  2704  2495  2136  1717  1348  1023  725  517  418  340  188  -46  -319  -595  -824  -925  -877  -758  -666  -634  -631  -627  -612  -579  -529  -466  -399  -381  -490  -726  -984  -1164  -1249  -1266  -1223  -1089  -857  -599  -396  -262  -179  -151  -232  -469  -788  -1025  -1115  -1111  -1052  -927  -758  -613  -548  -576  -679  -790  -835  -800  -740  -695  -656  -620  -602  -599  -603  -609  -621  -635  -649  -675  -714  -736  -712  -651  -582  -531  -506  -503  -505  -494  -468  -448  -457  -500  -577  -677  -774  -857  -930  -987  -1006  -952  -796  -586  -433  -382  -391  -414  -436  -459  -485  -514  -548  -567  -538  -454  -342  -240  -179  -180  -252  -386  -532  -625  -650  -640  -621  -604  -601  -621  -654  -644  -529  -346  -205  -156  -158  -165  -160  -152  -169  -235  -322  -359  -313  -244  -241  -328  -450  -549  -603  -634  -664  -675  -643  -644  -798  -1072  -1260  -1178  -863  -578  -451  -246  265  1074  2236  3954  6134  8149  9116  8381  6025  2956  376  -914  -945  -437  -99  -111  -250  -329  -383  -504  -699  -902  -1040  -1093  -1089  -1031  -902  -732  -591  -518  -502  -515  -520  -468  -331  -158  -30  31  69  127  221  326  391  365  231  41  -98  -116  0  215  462  694  891  1050  1189  1330  1464  1582  1707  1880  2103  2322  2477  2581  2708  2900  3099  3228  3282  3289  3247  3113  2842  2450  2050  1768  1625  1532  1409  1246  1051  776  387  -14  -270  -350  -337  -307  -294  -325  -424  -561  -664  -700  -694  -677  -666  -675  -709  -753  -775  -744  -651  -507  -353  -247  -206  -204  -213  -223  -230  -233  -229  -225  -241  -295  -377  -452  -492  -488  -438  -367  -312  -288  -291  -341  -466  -635  -763  -806  -782  -718  -643  -594  -578  -571  -556  -540  -541  -555  -561  -546  -509  -434  -309  -169  -82  -110  -284  -552  -784  -902  -926  -896  -819  -691  -534  -395  -324  -331  -377  -410  -411  -392  -372  -360  -355  -355  -353  -337  -297  -240  -198  -207  -289  -428  -581  -704  -779  -810  -808  -782  -749  -731  -729  -730  -720  -690  -648  -611  -590  -578  -532  -403  -215  -46  70  151  181  102  -125  -436  -699  -848  -922  -970  -1008  -1028  -1002  -948  -930  -954  -978  -995  -1024  -1036  -897  -433  378  1464  2828  4355  5659  6404  6492  5804  4207  2060  230  -706  -930  -922  -956  -1089  -1270  -1405  -1453  -1442  -1413  -1372  -1312  -1230  -1136  -1054  -1014  -1019  -1032  -1000  -871  -623  -338  -150  -83]
