reading_id,reading_time,wire_id,result_classification,heart_rate,heart_rate_alert,firmware_version,device_app_version,hardware_version,waveform_samples
1d1caae0-6ba4-11ed-8080-808080808080,Thu Nov 24 03:00:12 UTC 2022,4101e3b01d39,UNCLASSIFIABLE,115,NONE,20001.171.50,2.10.0,Charge 5,[0  256  687  1219  1669  2011  2356  2762  3144  3370  3423  3489  3865  4745  6201  8259  10808  13418  15350  15841  14545  11881  8920  6744  5767  5716  6105  6459  6459  6195  5982  5923  5957  6060  6239  6478  6723  6897  6986  7042  7086  7095  7089  7088  7049  6953  6857  6802  6772  6743  6705  6664  6638  6630  6643  6682  6723  6737  6726  6722  6755  6827  6912  6984  7030  7036  6973  6816  6594  6399  6301  6289  6286  6208  6021  5754  5434  5036  4530  3997  3609  3447  3415  3365  3238  3067  2874  2656  2444  2303  2246  2225  2191  2118  1972  1723  1438  1221  1101  1048  1028  1026  1056  1119  1181  1221  1246  1265  1277  1260  1181  1037  865  701  568  470  377  245  77  -80  -173  -197  -185  -168  -159  -178  -252  -365  -461  -516  -550  -570  -569  -563  -603  -734  -916  -1050  -1081  -1029  -946  -890  -923  -1084  -1330  -1552  -1680  -1719  -1727  -1806  -2028  -2306  -2436  -2302  -1963  -1427  -462  1189  3462  5864  7564  7687  5871  2655  -763  -3188  -4048  -3611  -2664  -1985  -1894  -2177  -2504  -2743  -2901  -3005  -3078  -3116  -3096  -3009  -2889  -2803  -2777  -2791  -2817  -2832  -2807  -2717  -2585  -2471  -2410  -2392  -2373  -2312  -2208  -2100  -2010  -1921  -1841  -1800  -1765  -1681  -1574  -1483  -1402  -1326  -1274  -1238  -1195  -1147  -1125  -1145  -1189  -1220  -1219  -1200  -1206  -1302  -1522  -1820  -2109  -2342  -2516  -2631  -2694  -2718  -2722  -2725  -2732  -2740  -2750  -2761  -2763  -2748  -2728  -2719  -2728  -2742  -2754  -2781  -2850  -2941  -2977  -2891  -2690  -2460  -2273  -2149  -2093  -2118  -2234  -2398  -2515  -2502  -2331  -2060  -1807  -1654  -1604  -1626  -1685  -1734  -1733  -1695  -1639  -1576  -1558  -1609  -1686  -1753  -1807  -1830  -1798  -1707  -1576  -1425  -1247  -1040  -849  -744  -754  -884  -1137  -1475  -1812  -2078  -2246  -2277  -2127  -1857  -1670  -1683  -1773  -1733  -1417  -699  598  2635  5215  7586  8737  7973  5453  2266  -278  -1554  -1809  -1661  -1598  -1733  -1844  -1767  -1619  -1553  -1596  -1711  -1849  -1952  -1971  -1842  -1529  -1145  -881  -802  -820  -845  -842  -805  -722  -591  -449  -360  -342  -350  -310  -164  65  275  378  386  367  373  400  404  388  423  531  655  761  869  1001  1150  1290  1390  1431  1403  1279  1036  688  328  79  -38  -128  -285  -472  -544  -452  -306  -223  -232  -296  -361  -406  -442  -476  -505  -517  -502  -470  -444  -453  -530  -659  -767  -807  -790  -746  -666  -521  -335  -183  -109  -114  -190  -298  -386  -435  -447  -405  -286  -111  61  188  247  223  112  -37  -150  -189  -167  -92  19  125  169  134  59  -5  -38  -40  -26  -20  -58  -165  -311  -437  -536  -598  -547  -374  -161  175  1012  2709  5237  8059  10175  10542  8798  5527  1901  -795  -1870  -1639  -880  -217  14  -133  -354  -471  -511  -531  -549  -552  -519  -445  -333  -202  -103  -67  -72  -84  -68  -7  78  143  166  158  127  81  47  84  257  543  811  950  965  921  869  836  831  856  919  1038  1205  1336  1343  1241  1123  1053  1032  1035  1047  1066  1080  1038  872  593  297  50  -149  -322  -465  -565  -615  -629  -626  -618  -614  -623  -648  -676  -685  -677  -666  -649  -612  -546  -472  -452  -508  -585  -651  -737  -849  -933  -939  -852  -695  -520  -377  -297  -276  -282  -288  -287  -279  -264  -242  -222  -211  -223  -280  -386  -492  -528  -501  -514  -633  -802  -951  -1061  -1099  -1037  -931  -852  -804  -756  -716  -760  -989  -1326  -1466  -1212  -600  460  2250  4806  7613  9646  9796  7658  3967  213  -2207  -2797  -2154  -1295  -810  -712  -810  -965  -1087  -1142  -1173  -1231  -1312  -1367  -1354  -1278  -1173  -1069  -966  -857  -765  -714  -705  -722  -728  -707  -671  -637  -611  -583  -532  -464  -393  -297  -130  84  263  368  434  516  659  837  974  1036  1058  1057  1013  909  758  613  528  499  457  314  16  -380  -746  -1013  -1190  -1294  -1345  -1374  -1380  -1311  -1110  -837  -650  -629  -737  -914  -1121  -1319  -1444  -1464  -1437  -1449  -1483  -1456  -1335  -1155  -976  -838  -748  -690  -642  -600  -593  -637  -705  -755  -784  -824  -889  -964  -1033  -1077  -1044  -861  -531  -192  16  92  116  124  58  -152  -448  -672  -754  -750  -720  -679  -626  -571  -542  -606  -849  -1179  -1259  -872  -190  564  1407  2560  4297  6498  8344  8756  7239  4317  1199  -948  -1648  -1271  -558  -89  -53  -275  -487  -558  -523  -463  -426  -403  -350  -239  -76  91  187  199  217  291  368  398  390  377  382  417  469  530  627  791  988  1143  1227  1264  1276  1281  1314  1399  1515  1606  1645  1629  1540  1379  1232  1210  1319  1482  1666  1888  2101  2141  1858  1319  800  508  416  380  299  170  53  -9  -24  -18  -10  -12  -31  -68  -112  -151  -179  -195  -199  -193  -169  -94  65  267  403  423  373  315  275  242  193  111  17  -48  -72  -76  -68  -28  71  241  452  651  778  761  553  247  17  -60  -43  -7  16  25  23  4  -45  -134  -254  -382  -507  -629  -740  -858  -974  -934  -578  200  1552  3517  5813  7798  8512  7280  4441  1163  -1324  -2335  -2095  -1500  -1229  -1298  -1415  -1422  -1383  -1379  -1393  -1384  -1346  -1298  -1279  -1301  -1316  -1280  -1239  -1263  -1338  -1397  -1421  -1465  -1593  -1781  -1922  -1919  -1740  -1439  -1118  -822  -554  -359  -279  -291  -332  -363  -386  -414  -460  -549  -700  -860  -935  -906  -844  -799  -779  -813  -966  -1244  -1527  -1692  -1747  -1798  -1897  -2007  -2082  -2155  -2298  -2505  -2690  -2788  -2805  -2770  -2698  -2610  -2533  -2468  -2397  -2270  -2031  -1733  -1536  -1517  -1598  -1671  -1694  -1690  -1688  -1703  -1731  -1752  -1756  -1770  -1810  -1853  -1888  -1922  -1958  -1967  -1886  -1666  -1368  -1123  -977  -881  -789  -688  -625  -693  -910  -1196  -1461  -1642  -1725  -1743  -1723  -1665  -1590  -1562  -1672  -1902  -1975  -1681  -1196  -730  -244  394  1368  2895  4941  6943  8000  7482  5458  2670  174  -1250  -1577  -1356  -1061  -793  -561  -438  -426  -453  -488  -527  -563  -591  -593  -517  -307  0  266  394  426  448  492  536  574  622  686  753  819  907  1003  1063  1083  1110  1181  1338  1611  1942  2196  2316  2367  2425  2493  2547  2579  2600  2623  2648  2653  2615  2519  2380  2258  2197  2183  2169  2123  2040  1929  1817  1742  1718  1725  1739  1751  1762  1771  1758  1682  1521  1319  1158  1073  1044  1051  1084  1125  1165  1216  1273  1315  1336  1347  1350  1323  1227  1065  900  793  722  620  480  379  362  397  432  434  389  314  243  199  174  137  36  -172  -459  -748  -1014  -1252  -1414  -1461  -1405  -1331  -1396  -1662  -1982  -2113  -1814  -938  522  2488  4809  7013  8205  7665  5509  2563  -135  -1713  -2009  -1665  -1372  -1340  -1511  -1796  -2078  -2232  -2240  -2173  -2093  -2023  -1958  -1892  -1819  -1734  -1632  -1504  -1352  -1210  -1124  -1111  -1144  -1179  -1188  -1160  -1092  -998  -908  -832  -745  -645  -567  -532  -522  -511  -471  -346  -87  243  492  587  580  547  520  504  486  457  440  449  439  339  142  -87  -302  -509  -693  -809  -854  -872  -876  -842  -774  -707  -663  -625  -569  -480  -372  -281  -236  -229  -236  -242  -243  -235  -217  -182  -138  -108  -112  -143  -198  -281  -380  -456  -462  -384  -242  -74  70  157  186  175  143  118  131  182  215  213  236  266  213  89  -37  -140  -196  -200  -188  -200  -256  -338  -382  -354  -296  -276  -198  239  1299  3141  5745  8496  10262  10186  8208  5026  1791  -385  -1106  -816  -245  103  100  -99  -279  -352  -355  -347  -350  -361  -382  -423  -483  -556  -646  -738  -792  -784  -713  -595  -461  -359  -319  -348  -430  -508  -531  -475  -338  -146  38  160  223  266  316  391  484  569  624  654  678  732  825  916  980  1012  977  866  731  609  518  479  489  502  439  240  -39  -287  -490  -712  -933  -1062  -1067  -1001  -929  -870  -815  -750  -679  -602  -505  -393  -309  -275  -270  -282  -351  -521  -747  -904  -942  -925  -972  -1161  -1444  -1676  -1770  -1731  -1587  -1390  -1213  -1089  -1007  -959  -942  -942  -945  -943  -937  -938  -973  -1083  -1275  -1488  -1638  -1694  -1671  -1593  -1480  -1344  -1208  -1144  -1306  -1770  -2275  -2346  -1656  -130  2064  4493  6575  7772  7627  5898  2995  7  -2058  -2835  -2464  -1537  -905  -910  -1190  -1376  -1393  -1308  -1214  -1162  -1154  -1181  -1238  -1306  -1354  -1366  -1329  -1222  -1025  -775  -550  -384  -265  -194  -161  -137  -108  -81  -65  -60  -62  -59  -34  14  70  109  131  151  170  164  139  139  231  465  784  1036  1131  1073  887  615  337  126  -2  -89  -187  -310  -459  -640  -823  -952  -998  -973  -913  -864  -840  -823  -790  -745  -710  -700  -706  -703  -669  -609  -580  -631  -729  -784  -728  -562  -364  -224  -171  -165  -165  -162  -153  -127  -74  -6  55  97  121  129  107  35  -79  -204  -304  -358  -365  -342  -285  -173  -15  135  224  229  140  -42  -279  -500  -658  -738  -693  -511  -294  -26  598  1878  3805  6045  7881  8439  7326  4900  2035  -258  -1377  -1407  -881  -381  -199  -242  -305  -325  -334  -345  -365  -406  -457  -490  -499  -520  -587  -687  -766  -781  -713  -566  -379  -215  -116  -75  -72  -93  -116  -124  -123  -126  -119  -56  99  315  509  616  633  609  630  752  941  1091  1112  1015  875  747  632  493  288  25  -244  -456  -569  -597  -579  -530  -442  -317  -189  -107  -89  -112  -155  -231  -366  -537  -669  -745  -804  -860  -897  -908  -904  -889  -864  -838  -825  -826  -826  -804  -742  -650  -548  -463  -413  -391  -377  -357  -343  -355  -409  -484  -550  -602  -658  -716  -756  -754  -715  -690  -720  -776  -795  -743  -667  -659  -718  -759  -755  -739  -711  -621  -464  -402  -631  -1025  -1217  -944  -7  1743  4075  6381  8006  8365  7201  4902  2288  113  -1241  -1786  -1771  -1507  -1190  -899  -734  -744  -869  -1017  -1118  -1158  -1157  -1103  -964  -755  -543  -385  -293  -243  -198  -156  -125  -99  -68  -44  -62  -149  -291  -448  -583  -674  -710  -653  -424  -28  408  757  967  1044  1057  1092  1169  1249  1301  1322  1279  1077  675  215  -97  -223  -268  -327  -423  -529  -610  -672  -732  -782  -816  -859  -916  -962  -976  -961  -932  -907  -891  -881  -881  -913  -1003  -1151  -1314  -1446  -1528  -1570  -1581  -1568  -1524  -1443  -1327  -1199  -1099  -1055  -1049  -1056  -1099  -1218  -1370  -1468  -1488  -1466  -1438  -1408  -1359  -1300  -1248  -1202  -1144  -1039  -846  -603  -429  -405  -521  -712  -894  -1012  -1045  -1000  -916  -837  -779  -752  -801  -983  -1265  -1519  -1566  -1160  -76  1748  4148  6672  8637  9321  8350  6006  3120  704  -567  -762  -447  -169  -161  -280  -314  -307  -376  -496  -591  -601  -480  -277  -84  71  188  250  273  298  359  487  691  921  1091  1166  1172  1139  1073  992  931  902  889  890  933  1039  1182  1347  1552  1768  1918  1966  1935  1844  1726  1646  1667  1812  2023  2183  2195  2009  1636  1167  753  516  447  436  407  358  308  266  232  206  169  92  -40  -198  -319  -376  -391  -388  -352  -252  -104  30  109  126  95  44  9  0  -3  -27  -99  -223  -360  -456  -501  -525  -551  -577  -601  -614  -603  -560  -496  -445  -401  -320  -217  -145  -110  -90  -79  -87  -144  -259  -387  -473  -531  -614  -717  -789  -847  -963  -1152  -1347  -1474  -1551  -1694  -1914  -1987  -1658  -867  406  2252  4607  7099  9045  9629  8381  5555  2155  -567  -1942  -2123  -1697  -1254  -1050  -1012  -1029  -1078  -1167  -1286  -1398  -1475  -1513  -1503  -1425  -1286  -1147  -1063  -997  -866  -671  -481  -326  -204  -134  -145  -240  -373  -466  -472  -397  -288  -199  -144  -77  49  239  449  628  738  774  764  742  732  744  792  882  995  1078  1089  1011  854  638  393  157  -52  -252  -453  -657  -842  -963  -1000  -967  -886  -791  -727  -715  -742  -780  -807  -804  -764  -699  -632  -590  -586  -610  -654  -716  -784  -861  -966  -1067  -1116  -1122  -1113  -1083  -1007  -885  -761  -681  -640  -607  -563  -511  -474  -483  -569  -722  -877  -963  -951  -838  -644  -439  -312  -301  -384  -515  -643  -734  -780  -787  -775  -768  -802  -903  -1031  -1107  -1112  -1087  -1062  -1061  -1117  -1191  -1157  -902  -367  477  1766  3719  6231  8568  9676  8850  6181  2636  -370  -1903  -2046  -1515  -1057  -1075  -1411  -1654  -1679  -1616  -1541  -1425  -1203  -895  -600  -366  -196  -112  -119  -169  -214  -251  -303  -368  -418  -440  -445  -442  -426  -383  -307  -205  -96  3  101  228  392  549  655  710  750  807  900  1023  1142  1217  1236  1206  1128  1013  888  765  654  564  484  400  321  258  204  125  -23  -250  -495  -664  -705  -648  -553  -460  -400  -381  -400  -451  -515  -560  -572  -564  -548  -536  -535  -556  -608  -674  -724  -726  -658  -526  -381  -294  -291  -359  -463  -561  -628  -635  -586  -549  -555  -545  -467  -336  -197  -94  -50  -51  -70  -81  -45  71  238  364  379  260  41  -185  -342  -426  -466  -471  -441  -365  -232  -64  76  115  -2  -220  -360  -273  110  835  1967  3565  5515  7341  8307  7803  5723  2703  -88  -1698  -1968  -1420  -690  -208  -131  -310  -506  -616  -628  -541  -406  -322  -332  -384  -413  -425  -488  -652  -857  -985  -1006  -938  -780  -589  -453  -396  -377  -338  -239  -68  125  254  287  283  327  471  687  879  980  1006  1013  1015  973  881  809  817  896  988  1046  1057  1013  894  697  476  303  186  85  -11  -94  -150  -188  -222  -243  -256  -279  -307  -308  -275  -232  -210  -206  -199  -181  -158  -136  -115  -107  -145  -259  -420  -546  -580  -503  -320  -102  56  126  143  148  152  120  54  29  82  171  235  227  155  71  11  -15  -30  -64  -128  -218  -344  -516  -696  -815  -832  -767  -664  -559  -475  -445  -477  -521  -556  -572  -530  -462  -403  -210  423  1824  4053  6604  8461  8624  6714  3369  50  -1939  -2299  -1573  -583  -32  -169  -676  -1080  -1215  -1177  -1066  -922  -788  -733  -789  -904  -1004  -1058  -1070  -1037  -972  -915  -889  -870  -819  -735  -640  -564  -549  -578  -584  -528  -397  -224  -42  148  288  330  352  424  526  621  672  655  585  488  394  340  327  330  329  313  263  178  80  -14  -104  -193  -302  -462  -645  -780  -839  -863  -889  -919  -937  -947  -951  -953  -953  -947  -931  -910  -900  -909  -919  -890  -806  -720  -691  -723  -771  -786  -786  -805  -791  -701  -578  -469  -379  -283  -170  -76  -39  -57  -102  -141  -156  -161  -168  -184  -212  -267  -370  -537  -736  -897  -979  -984  -934  -876  -855  -873  -903  -928  -952  -975  -957  -842  -603  -148  821  2537  4777  6882  7990  7379  5030  1866  -835  -2275  -2419  -1777  -1008  -559  -529  -781  -1133  -1447  -1622  -1600  -1393  -1101  -870  -758  -722  -725  -761  -817  -863  -879  -860  -807  -721  -613  -508  -428  -365  -307  -265  -235  -181  -77  78  264  429  539  602  641  664  671  661  635  601  568  547  539  544  564  604  653  668  590  414  212  67  -5  -48  -101  -188  -327  -498  -652  -756  -810  -821  -781  -693  -590  -519  -490  -477  -467  -458  -448  -436  -428  -426  -429  -444  -502  -619  -768  -891  -963  -994  -1000  -980  -922  -807  -637  -467  -352  -307  -313  -337  -340  -302  -234  -160  -98  -58  -51  -97  -227  -476  -797  -1071  -1239  -1310  -1274  -1132  -976  -973  -1133  -1203  -1011  -635  -55  992  2748  5130  7512  8854  8366  6155  3149  509  -974  -1320  -1117  -847  -740  -866  -1071  -1164  -1135  -1056  -971  -889  -792  -658  -512  -418  -402  -433  -477  -524  -550  -502  -340  -117  49  105  74  -17  -154  -275  -289  -162  72  365  668  925  1081  1129  1118  1094  1078  1073  1078  1090  1111  1137  1168  1202  1210  1164  1074  967  866  767  636  478  345  278  254  193  23  -215  -392  -443  -409  -349  -302  -280  -284  -328  -426  -541  -593  -540  -427  -335  -291  -280  -309  -396  -514  -605  -654  -688  -697  -606  -354  -23  214  292  273  228  186  148  109  76  56  29  -41  -154  -264  -338  -381  -442  -574  -793  -1026  -1140  -1070  -895  -735  -644  -640  -750  -900  -859  -317  952  2913  5315  7689  9176  8963  6999  3975  882  -1314  -2130  -1880  -1284  -840  -662  -655  -701  -758  -816  -859  -880  -884  -878  -877  -894  -924  -925  -838  -642  -416  -292  -309  -387  -436  -436  -403  -337  -245  -130  29  216  346  347  226  62  -46  -73  -60  -41  -14  43  141  267  401  527  643  749  832  870  813  598  249  -91  -295  -366  -410  -517  -689  -858  -974  -1027  -1031  -1011  -993  -985  -980  -973  -967  -982  -1035  -1119  -1198  -1245  -1256  -1237  -1194  -1140  -1076  -969  -797  -613  -501  -474  -487  -502  -516  -540  -582  -629  -660  -668  -665  -665  -680  -701  -707  -687  -641  -567  -491  -439  -409  -393  -385  -381  -383  -406  -443  -438  -365  -343  -563  -1077  -1610  -1599  -601  1365  3929  6501  8273  8491  6937  4138  1159  -946  -1755  -1618  -1230  -1044  -1033  -997  -914  -860  -854  -868  -885  -895  -883  -824  -711  -571  -454  -403  -422  -472  -509  -519  -515  -503  -460  -366  -248  -149  -56  79  249  400  495  528  514  479  447  435  468  572  718  847  924  943  912  862  826  817  837  870  871  781  576  332  157  75  38  4  -44  -105  -159  -212  -279  -348  -396  -430  -472  -526  -569  -584  -563  -503  -425  -369  -351  -355  -363  -369  -374  -378  -372  -350  -328  -337  -380  -430  -456  -437  -354  -200  -7  160  282  394  503  577  592  531  372  114  -150  -300  -338  -357  -392  -429  -468  -493  -490  -523  -655  -851  -1027  -1012  -464  941  3149  5634  7651  8486  7650  5261  2222  -315  -1679  -1846  -1267  -636  -463  -696  -980  -1150  -1265  -1365  -1398  -1328  -1211  -1121  -1068  -1036  -1026  -1027  -999  -909  -769  -636  -533  -421  -280  -159  -113  -138  -183  -195  -160  -90  17  182  378  524  577  549  453  324  225  191  220  315  476  682  880  995  958  752  473  275  215  224  213  130  -23  -219  -420  -579  -652  -644  -601  -567  -553  -544  -530  -528  -577  -678  -779  -839  -845  -802  -740  -694  -665  -627  -556  -466  -404  -381  -360  -303  -219  -143  -107  -118  -176  -279  -402  -488  -511  -486  -443  -404  -395  -462  -646  -922  -1176  -1304  -1283  -1157  -976  -778  -580  -394  -245  -237  -458  -807  -1097  -1122  -555  791  2774  5089  7197  8293  7763  5654  2695  -31  -1653  -1978  -1497  -925  -718  -849  -1028  -1090  -1045  -931  -794  -696  -662  -663  -675  -700  -753  -828  -892  -906  -816  -583  -287  -95  -65  -106  -141  -181  -242  -294  -316  -299  -212  16  414  848  1124  1202  1185  1155  1116  1045  953  887  866  870  877  870  841  796  740  649  472  186  -148  -418  -551  -577  -580  -607  -633  -606  -530  -448  -369  -266  -145  -42  3  -22  -74  -103  -133  -192  -273  -369  -469  -551  -615  -673  -722  -759  -788  -794  -745  -615  -419  -222  -73  22  76  103  142  231  355  446  444  337  160  -42  -259  -465  -604  -656  -670  -728  -894  -1137  -1342  -1460  -1529  -1454  -1005  -77  1291  3146  5518  7928  9415  9247  7301  4136  969  -991  -1461  -1107  -725  -647  -797  -994  -1153  -1269  -1305  -1227  -1084  -965  -903  -852  -745  -578  -413  -325  -351  -447  -511  -490  -410  -336  -310  -274  -146  27  155  207  193  107  -50  -225  -329  -343  -309  -235  -92  91  228  272  265  280  357  468  555  598  630  673  709  680  534  266  -94  -512  -891  -1113  -1175  -1159  -1102  -987  -837  -731  -726  -813  -927  -997  -1007  -991  -975  -963  -925  -825  -683  -584  -608  -773  -989  -1111  -1079  -925  -712  -528  -441  -427  -429  -425  -424  -436  -487  -599  -739  -840  -891  -949  -1037  -1099  -1089  -1044  -1001  -940  -833  -701  -597  -555  -554  -572  -649  -837  -1097  -1304  -1273  -787  307  2102  4505  6944  8456  8214  6113  3045  331  -1214  -1562  -1227  -870  -826  -972  -1076  -1089  -1064  -1039  -1026  -1026  -1032  -1039  -1042  -1029  -990  -928  -854  -762  -627  -476  -434  -586  -821  -944  -892  -750  -612  -471  -289  -93  59  164  260  383  519  619  652  639  624  632  663  699  723  733  733  715  670  615  589  602  600  470  142  -277  -578  -682  -664  -604  -525  -441  -384  -383  -434  -506  -577  -646  -724  -824  -936  -996  -932  -775  -639  -566  -508  -430  -348  -277  -226  -190  -176  -228  -344  -450  -510  -540  -551  -531  -467  -375  -292  -224  -167  -142  -176  -262  -366  -450  -502  -544  -606  -684  -738  -719  -607  -446  -331  -342  -478  -618  -661  -636  -456  183  1587  3862  6669  9085  9994  8816  5917  2454  -280  -1612  -1733  -1354  -1139  -1259  -1374  -1179  -839  -638  -601  -615  -612  -590  -538  -428  -293  -230  -294  -430  -536  -573  -568  -552  -533  -509  -490  -492  -496  -429  -228  44  244  323  354  407  485  560  605  618  613  599  579  572  624  773  956  1051  1024  948  881  811  682  475  253  98  10  -59  -111  -103  -58  -44  -76  -115  -170  -310  -553  -807  -961  -1004  -1002  -1000  -1005  -999  -968  -917  -865  -813  -765  -728  -676  -563  -390  -215  -95  -73  -176  -373  -577  -713  -750  -691  -565  -430  -341  -298  -274  -258  -270  -348  -519  -732  -874  -869  -736  -592  -575  -694  -850  -985  -1108  -1218  -1286  -1242  -943  -249  908  2595  4749  6835  7905  7242  4893  1756  -822  -1928  -1736  -1135  -793  -836  -1091  -1303  -1317  -1158  -938  -770  -706  -721  -775  -851  -934  -1009  -1074  -1121  -1113  -1016  -832  -597  -382  -240  -153  -77  -9  21  4  -34  -34  39  143  204  209  189  166  153  179  300  525  760  891  918  917  897  815  693  578  490  427  360  237  38  -187  -364  -467  -533  -625  -789  -980  -1066  -976  -816  -758  -836  -937  -965  -919  -845  -793  -776  -776  -772  -769  -799  -893  -1024  -1117  -1121  -1044  -940  -857  -755  -563  -316  -131  -62  -82  -166  -291  -415  -494  -508  -496  -510  -555  -611  -664  -698  -707  -719  -773  -886  -1024  -1151  -1313  -1549  -1731  -1681  -1395  -940  -405  149  976  2483  4647  6842  8119  7664  5413  2276  -449  -1859  -1843  -1068  -408  -272  -496  -783  -1016  -1161  -1146  -985  -795  -658  -566  -500  -457  -441  -459  -529  -654  -773  -781  -625  -380  -191  -115  -107  -117  -128  -133  -106  0  195  413  557  611  633  678  748  810  851  877  893  899  899  897  889  875  865  878  898  861  702  422  82  -239  -474  -582  -563  -479  -425  -451  -522  -590  -649  -704  -743  -753  -742  -719  -670  -598  -533  -470  -377  -261  -172  -150  -210  -330  -426  -429  -344  -197  -54  -27  -126  -249  -332  -389  -443  -499  -534  -492  -329  -104  46  63  5  -46  -74  -112  -183  -270  -335  -363  -380  -421  -491  -564  -643  -775  -984  -1213  -1286  -949  -12  1551  3624  5866  7686  8428  7639  5399  2616  487  -498  -678  -607  -630  -786  -879  -795  -677  -683  -803  -949  -1054  -1111  -1144  -1153  -1106  -954  -677  -364  -146  -55  -42  -60  -83  -89  -55  25  122  194  227  229  211  191  194  243  364  551  733  836  858  858  883  935  984  996  941  811  648  518  448  421  413  382  279  113  -37  -113  -122  -102  -81  -92  -184  -371  -587  -739  -795  -768  -688  -601  -565  -606  -705  -825  -930  -985  -943  -780  -559  -399  -343  -345  -362  -396  -459  -506  -467  -347  -229  -167  -143  -142  -213  -416  -697  -900  -914  -748  -512  -348  -321  -402  -516  -594  -617  -610  -600  -603  -632  -699  -815  -957  -1057  -1061  -988  -958  -1080  -1176  -840  136  1756  3967  6383  8201  8667  7462  4909  1929  -430  -1621  -1799  -1509  -1238  -1164  -1184  -1156  -1080  -1016  -962  -907  -846  -782  -746  -748  -754  -763  -801  -856  -901  -912  -883  -808  -670  -493  -347  -281  -280  -299  -293  -224  -91  61  186  275  345  411  486  579  677  743  765  758  733  688  626  554  470  381  311  289  355  539  772  887  766  453  89  -221  -446  -573  -620  -631  -630  -626  -630  -661  -714  -756  -771  -772  -779  -797  -820  -830  -800  -712  -596  -513  -485  -488  -499  -517  -548  -582  -591  -559  -498  -442  -411  -400  -400  -405  -415  -427  -414  -336  -204  -86  -26  -23  -81  -205  -360  -498  -576  -570  -485  -363  -280  -302  -450  -659  -814  -849  -770  -618  -481  -437  -429  -284  213  1297  3071  5370  7707  9238  9115  7161  4096  1143  -716  -1327  -1260  -1148  -1206  -1301  -1273  -1125  -957  -814  -694  -649  -720  -840  -904  -888  -842  -814  -788  -715  -598  -468  -336  -209  -122  -93  -123  -212  -334  -429  -444  -344  -113  222  562  796  896  911  887  834  755  677  644  713  917  1187  1372  1358  1142  839  609  498  450  401  302  114  -134  -353  -475  -504  -463  -355  -207  -85  -35  -63  -163  -325  -507  -650  -716  -720  -708  -705  -709  -705  -690  -678  -678  -685  -692  -696  -698  -700  -704  -700  -671  -607  -528  -477  -471  -498  -519  -504  -477  -472  -492  -512  -484  -364  -185  -35  42  70  71  30  -109  -372  -667  -862  -921  -909  -891  -897  -936  -983  -983  -906  -837  -946  -1187  -1220  -810  -32  965  2206  3831  5824  7694  8484  7465  4849  1655  -870  -1883  -1549  -802  -381  -442  -779  -1087  -1214  -1208  -1142  -1036  -902  -784  -720  -706  -711  -719  -730  -749  -775  -787  -724  -539  -290  -112  -53  -43  -15  24  33  43  97  159  189  215  255  303  354  422  538  690  785  767  698  650  634  653  732  850  906  818  619  392  197  80  39  -6  -146  -374  -586  -706  -751  -767  -789  -843  -917  -937  -855  -727  -666  -725  -837  -886  -810  -651  -510  -445  -435  -443  -455  -485  -541  -600  -633  -639  -648  -689  -761  -827  -858  -846  -808  -760  -670  -479  -220  7  160  254  293  268  194  106  12  -113  -295  -497  -653  -746  -795  -810  -808  -818  -835  -850  -892  -1012  -1174  -1192  -959  -695  -625  -591  -240  692  2409  4813  7193  8590  8407  6592  3678  695  -1343  -2079  -1850  -1193  -631  -584  -1003  -1442  -1613  -1540  -1331  -1067  -822  -656  -591  -588  -577  -494  -335  -182  -125  -158  -189  -155  -78  -15  9  8  -4  -30  -65  -98  -116  -101  -15  154  373  597  794  946  1076  1224  1374  1472  1495  1450  1350  1222  1094  947  743  508  312  165  13  -174  -360  -483  -527  -524  -499  -449  -384  -350  -344  -301  -244  -248  -302  -347  -373  -405  -462  -543  -626  -682  -699  -690  -691  -717  -745  -753  -733  -684  -599  -502  -435  -421  -444  -478  -507  -533  -557  -573  -578  -579  -583  -589  -576  -515  -398  -238  -61  99  201  167  -55  -389  -661  -795  -837  -849  -850  -844  -837  -825  -771  -642  -506  -525  -768  -1016  -818  140  1840  4059  6390  8189  8816  7886  5507  2474  -107  -1492  -1584  -900  -228  -48  -316  -713  -984  -1091  -1096  -1049  -987  -930  -873  -822  -793  -774  -719  -587  -415  -292  -255  -264  -274  -268  -247  -222  -200  -163  -87  27  141  218  254  275  312  377  448  503  536  573  641  747  860  938  970  976  972  956  897  766  582  405  272  177  89  -20  -157  -310  -461  -606  -752  -894  -994  -1003  -885  -676  -467  -323  -275  -319  -395  -469  -571  -698  -794  -823  -798  -744  -691  -647  -603  -569  -555  -550  -550  -595  -726  -906  -1038  -1067  -1018  -936  -831  -674  -480  -320  -227  -174  -137  -113  -96  -68  -24  37  126  212  189  -28  -375  -704  -967  -1183  -1327  -1376  -1342  -1235  -1069  -906  -849  -978  -1201  -1278  -988  -101  1617  4081  6795  9073  10114  9282  6647  3120  -45  -1900  -2235  -1659  -1069  -938  -1152  -1382  -1456  -1400  -1304  -1232  -1198  -1186  -1177  -1136  -1030  -886  -768  -684  -589  -475  -386  -343  -330  -316  -276  -210  -156  -138  -146  -152  -126  -38  119  316  493  615  687  724  739  745  745  743  753  796  872  952  1008  1037  1049  1061  1076  1058  941  693  385  135  -11  -96  -166  -222  -270  -359  -520  -708  -841  -888  -870  -819  -755  -693  -653  -648  -666  -689  -708  -723  -728  -711  -677  -655  -664  -682  -698  -723  -734  -705  -662  -654  -695  -759  -809  -828  -825  -801  -749  -676  -597  -503  -371  -220  -101  -57  -98  -223  -398  -564  -679  -760  -852  -961  -1043  -1062  -1033  -994  -981  -1000  -1021  -972  -811  -647  -567  -335  461  2095  4540  7276  9254  9419  7504  4248  909  -1354  -2083  -1735  -1141  -829  -862  -1024  -1132  -1168  -1170  -1153  -1126  -1091  -1048  -1012  -1005  -1027  -1061  -1083  -1079  -1051  -1017  -980  -934  -878  -819  -771  -758  -761  -703  -514  -233  30  211  312  360  384  400  404  403  426  509  640  756  802  792  793  890  1116  1389  1575  1613  1504  1256  887  469  115  -105  -217  -278  -322  -351  -362  -361  -361  -371  -392  -400  -373  -343  -351  -380  -379  -325  -243  -201  -239  -300  -323  -314  -303  -300  -297  -290  -285  -302  -350  -422  -507  -576  -587  -560  -551  -559  -552  -509  -414  -279  -144  -34  50  126  210  282  281  160  -63  -310  -492  -613  -739  -877  -969  -987  -968  -968  -983  -910  -737  -602  -556  -430  105  1360  3336  5658  7685  8643  7980  5751  2647  -271  -2051  -2425  -1885  -1152  -671  -562  -746  -999  -1153  -1216  -1221  -1156  -1028  -887  -792  -762  -760  -756  -733  -663  -549  -440  -365  -318  -284  -245  -200  -163  -142  -134  -131  -123  -75  66  299  522  644  676  688  718  760  798  828  856  894  940  969  967  944  924  926  906  783  554  276  -5  -248  -403  -483  -540  -589  -615  -615  -604  -595  -589  -585  -586  -603  -642  -713  -816  -921  -967  -920  -809  -694  -598  -506  -437  -443  -524  -611  -642  -599  -519  -456  -410  -345  -269  -233  -271  -343  -377  -384  -423  -493  -554  -585  -590  -581  -573  -573  -576  -575  -575  -593  -641  -698  -733  -742  -731  -710  -708  -720  -696  -597  -417  -113  483  1617  3372  5426  6996  7221  5798  3256  620  -1165  -1774  -1600  -1210  -898  -756  -719  -647  -542  -495  -515  -563  -626  -702  -790  -892  -996  -1065  -1058  -934  -680  -375  -156  -79  -91  -114  -94  -8  110  193  211  208  245  359  521  668  768  818  853  924  1041  1163  1246  1275  1271  1275  1293  1282  1207  1105  1039  1018  1000  929  774  563  357  196  85  -24  -200  -432  -628  -739  -798  -826  -780  -623  -422  -337  -438  -615  -718  -706  -649  -620  -614  -595  -570  -578  -630  -696  -737  -741  -729  -712  -659  -528  -341  -177  -83  -50  -64  -96  -108  -87  -55  -48  -84  -147  -236  -389  -594  -779  -895  -947  -958  -942  -913  -885  -871  -874  -887  -878  -878  -962  -1004  -642  381  2088  4299  6550  8127  8348  6952  4386  1628  -404  -1362  -1485  -1263  -1097  -1118  -1186  -1135  -997  -873  -797  -761  -752  -754  -765  -794  -841  -895  -941  -960  -936  -880  -817  -765  -706  -577  -355  -123  22  79  121  206  297  318  276  243  246  257  262  272  299  338  372  407  445  465  460  484  570  688  782  815  778  644  371  20  -260  -433  -577  -715  -802  -835  -868  -939  -1044  -1145  -1193  -1177  -1134  -1098  -1037  -891  -674  -478  -360  -319  -333  -393  -521  -723  -936  -1068  -1087  -1016  -892  -759  -673  -695  -833  -1017  -1159  -1224  -1230  -1190  -1068  -816  -491  -231  -110  -101  -148  -200  -236  -280  -367  -507  -672  -824  -940  -1023  -1045  -996  -988  -1107  -1267  -1319  -1056  -264  1094  2963  5206  7361  8621  8223  6090  3099  492  -906  -1039  -560  -232  -276  -479  -668  -814  -910  -941  -925  -909  -928  -940  -857  -660  -440  -286  -208  -186  -195  -214  -229  -235  -242  -261  -267  -200  -24  193  343  388  380  375  385  399  421  478  569  655  704  717  702  656  589  554  603  730  889  1037  1112  1009  647  147  -235  -388  -396  -366  -340  -326  -321  -325  -339  -359  -372  -387  -445  -582  -759  -898  -964  -988  -1011  -1044  -1073  -1056  -967  -841  -747  -691  -627  -544  -479  -443  -409  -365  -336  -340  -371  -405  -425  -431  -434  -439  -441  -418  -353  -265  -196  -170  -183  -233  -323  -443  -560  -632  -650  -644  -646  -671  -709  -752  -815  -922  -1037  -1003  -599  359  2052  4453  7028  8931  9386  7979  5103  1870  -668  -1971  -2079  -1549  -975  -625  -534  -618  -765  -932  -1103  -1240  -1310  -1298  -1186  -983  -773  -651  -621  -619  -596  -560  -544  -554  -564  -563  -543  -456  -258  -9  164  221  217  204  201  221  278  362  438  486  520  574  672  795  897  954  984  1008  1023  1015  984  949  906  777  486  121  -138  -239  -260  -253  -240  -259  -326  -402  -451  -467  -448  -393  -322  -273  -256  -249  -222  -164  -96  -69  -124  -249  -384  -455  -439  -372  -286  -187  -83  0  -5  -151  -353  -458  -397  -233  -67  53  132  182  226  275  276  155  -74  -305  -448  -510  -542  -560  -557  -530  -494  -464  -423  -353  -284  -286  -411  -626  -746  -487  445  2239  4745  7327  9011  8901  6821  3603  561  -1290  -1746  -1376  -930  -767  -786  -779  -731  -720  -745  -765  -759  -718  -640  -547  -478  -456  -485  -566  -664  -701  -627  -480  -341  -243  -182  -164  -211  -322  -451  -533  -529  -438  -287  -113  78  262  379  408  392  380  415  523  681  836  953  1003  977  906  798  629  429  279  215  185  114  -43  -292  -582  -802  -884  -863  -822  -800  -777  -740  -705  -673  -631  -574  -514  -473  -455  -458  -483  -529  -602  -708  -835  -945  -988  -954  -889  -843  -820  -810  -796  -767  -709  -615  -504  -418  -372  -340  -297  -246  -197  -155  -127  -115  -121  -152  -219  -322  -432  -499  -502  -474  -469  -536  -701  -945  -1244  -1590  -1865  -1806  -1239  -131  1500  3565  5788  7636  8492  7920  5879  2989  297  -1403  -1932  -1644  -1133  -851  -852  -933  -972  -1005  -1065  -1123  -1141  -1125  -1101  -1073  -1029  -974  -934  -923  -928  -934  -924  -888  -837  -782  -705  -578  -403  -226  -93  -23  -5  -9  3  58  145  248  373  508  610  673  726  745  678  581  586  708  817  812  706  582  514  511  520  462  272  -8  -253  -397  -486  -587  -706  -795  -803  -749  -692  -664  -654  -649  -648  -648  -635  -596  -541  -498  -479  -478  -486  -505  -532  -563  -592  -607  -599  -577  -563  -568  -584  -579  -514  -381  -222  -95  -24  13  41  31  -108  -437  -843  -1117  -1171  -1065  -907  -771  -675  -629  -660  -768  -887  -925  -924  -1020  -1170  -1033  -179  1644  4348  7335  9570  10082  8511  5319  1714  -940  -2026  -1810  -946  -207  -179  -755  -1326  -1528  -1436  -1229  -1007  -820  -696  -620  -543  -457  -418  -470  -586  -693  -747  -757  -760  -776  -784  -745  -632  -446  -239  -71  94  335  615  809  847  783  712  677  659  628  571  504  451  440  506  606  645  616  595  644  746  787  652  375  89  -126  -302  -502  -709  -848  -895  -891  -861  -800  -718  -652  -621  -615  -621  -639  -674  -719  -750  -756  -755  -762  -789  -837  -894  -932  -922  -856  -762  -679  -618  -567  -530  -526  -545  -539  -486  -411  -328  -227  -128  -68  -73  -169  -348  -546  -690  -770  -815  -846  -872  -895  -909  -913  -932  -1016  -1163  -1271  -1273  -1225  -1169  -983  -365  1058  3447  6428  9116  10394  9455  6483  2733  -320  -1848  -1873  -1107  -491  -494  -907  -1349  -1642  -1772  -1777  -1709  -1616  -1527  -1441  -1304  -1059  -757  -534  -427  -350  -243  -126  -35  18  46  56  31  -64  -229  -385  -456  -438  -357  -190  83  388  590  652  637  608  593  625  735  908  1074  1181  1218  1204  1177  1165  1156  1120  1033  869  602  250  -134  -496  -763  -872  -845  -765  -707  -693  -704  -722  -737  -732  -667  -523  -352  -237  -201  -202  -210  -240  -311  -397  -425  -363  -283  -291  -388  -482  -517  -516  -520  -560  -645  -750  -824  -847  -838  -791  -680  -538  -446  -414  -344  -140  155  384  435  285  -29  -403  -714  -900  -974  -982  -972  -951  -904  -847  -890  -1141  -1507  -1652  -1203  116  2402  5346  8140  9758  9480  7288  3959  725  -1363  -1944  -1458  -732  -348  -425  -766  -1095  -1267  -1310  -1303  -1287  -1252  -1170  -1040  -891  -744  -621  -529  -457  -393  -350  -337  -336  -324  -296  -272  -268  -254  -165  19  224  344  353  303  270  299  380  468  548  642  762  902  1057  1168  1133  954  750  606  529  501  501  517  544  565  557  489  338  129  -62  -186  -254  -303  -367  -445  -506  -544  -579  -615  -640  -663  -704  -743  -737  -684  -633  -612  -595  -532  -393  -214  -76  -46  -141  -319  -511  -649  -684  -635  -566  -515  -474  -425  -352  -278  -253  -286  -330  -342  -323  -298  -289  -329  -450  -643  -833  -942  -948  -881  -784  -705  -663  -658  -709  -852  -1060  -1195  -1072  -576  371  1886  3935  6128  7810  8219  6818  3894  597  -1789  -2604  -2125  -1208  -565  -380  -463  -597  -705  -779  -793  -745  -675  -613  -567  -538  -545  -618  -747  -862  -895  -857  -811  -796  -799  -782  -719  -632  -572  -550  -519  -421  -264  -107  35  202  381  502  540  532  514  503  535  646  833  1040  1210  1314  1330  1209  907  492  139  -48  -103  -107  -123  -203  -366  -561  -708  -778  -795  -764  -666  -518  -402  -376  -420  -485  -549  -600  -630  -658  -713  -788  -817  -743  -602  -488  -444  -444  -468  -525  -611  -693  -728  -677  -513  -273  -36  139  220  173  -6  -241  -410  -461  -431  -356  -256  -168  -133  -189  -353  -571  -744  -832  -860  -841  -789  -752  -769  -834  -878  -809  -650  -501  -326  109  1139  2952  5301  7531  8878  8728  6905  3992  1101  -864  -1572  -1241  -532  -117  -207  -569  -902  -1076  -1110  -1046  -906  -738  -626  -589  -553  -450  -306  -201  -170  -181  -202  -213  -185  -87  63  205  291  314  289  247  218  207  211  235  308  436  582  706  795  869  957  1064  1157  1213  1241  1261  1280  1286  1250  1144  976  800  661  560  460  324  163  20  -88  -193  -342  -543  -755  -938  -1061  -1113  -1081  -936  -694  -457  -325  -298  -313  -312  -280  -259  -290  -357  -426  -485  -525  -548  -578  -623  -670  -707  -726  -726  -712  -693  -668  -634  -601  -582  -571  -559  -542  -505  -418  -267  -100  19  86  138  197  244  210  15  -339  -751  -1088  -1268  -1293  -1237  -1177  -1149  -1170  -1274  -1437  -1486  -1240  -720  -33  866  2204  4160  6596  8871  9935  9013  6269  2700  -358  -1951  -2123  -1620  -1099  -881  -984  -1188  -1291  -1268  -1166  -1043  -960  -936  -947  -959  -936  -858  -752  -677  -650  -633  -592  -527  -463  -400  -317  -217  -142  -115  -116  -118  -106  -76  -40  -14  6  45  105  175  250  325  381  417  454  514  590  649  698  766  833  825  711  536  362  213  84  -34  -153  -291  -474  -675  -817  -877  -890  -874  -829  -782  -777  -840  -946  -1017  -992  -889  -784  -740  -758  -790  -806  -814  -829  -849  -838  -754  -630  -567  -602  -667  -707  -728  -760  -818  -880  -919  -928  -925  -921  -924  -930  -939  -944  -930  -880  -802  -724  -664  -624  -587  -530  -465  -426  -441  -525  -668  -850  -1059  -1257  -1379  -1383  -1257  -1031  -803  -676  -681  -769  -814  -707  -467  -45  875  2619  5158  7916  9779  9659  7286  3555  66  -1954  -2361  -1799  -1074  -716  -747  -927  -1106  -1245  -1332  -1356  -1272  -1050  -768  -573  -537  -620  -739  -823  -848  -832  -783  -703  -606  -523  -471  -438  -396  -334  -264  -178  -57  103  279  429  530  585  635  738  920  1135  1304  1388  1380  1284  1145  999  826  640  546  627  850  1111  1327  1437  1381  1137  801  525  339  170  5  -96  -124  -137  -196  -312  -456  -609  -781  -973  -1147  -1242  -1229  -1108  -917  -723  -575  -474  -374  -237  -82  61  186  266  273  193  26  -189  -402  -611  -810  -943  -968  -887  -732  -578  -513  -567  -680  -739  -641  -367  -35  192  278  298  307  287  197  41  -133  -276  -361  -356  -270  -237  -391  -691  -991  -1224  -1390  -1473  -1459  -1307  -864  43  1472  3416  5814  8189  9552  9080  6747  3383  315  -1378  -1570  -991  -472  -381  -610  -866  -996  -1050  -1094  -1110  -1068  -994  -938  -898  -831  -722  -607  -524  -489  -487  -484  -444  -354  -248  -178  -174  -185  -86  138  334  418  456  488  486  444  399  391  405  413  433  492  586  716  903  1096  1174  1122  1057  1039  1038  1036  1022  932  680  283  -111  -364  -455  -454  -429  -416  -441  -524  -637  -718  -741  -727  -708  -706  -729  -777  -824  -828  -791  -756  -753  -767  -776  -776  -783  -797  -808  -801  -767  -738  -750  -802  -866  -902  -876  -806  -745  -719  -715  -716  -717  -728  -763  -811  -832  -787  -677  -565  -523  -556  -615  -676  -756  -856  -935  -963  -948  -913  -881  -884  -945  -1047  -1125  -1130  -1070  -1007  -1012  -988  -652  244  1813  3972  6215  7643  7542  5829  3045  178  -1786  -2475  -2204  -1502  -819  -460  -478  -675  -838  -913  -965  -1046  -1131  -1163  -1141  -1103  -1068  -1038  -988  -867  -686  -519  -416  -351  -276  -185  -119  -102  -112  -102  -23  142  350  517  595  606  596  581  557  535  574  726  940  1105  1175  1187  1180  1169  1158  1150  1133  1083  979  805  544  241  -4  -139  -194  -218  -218  -186  -154  -188  -305  -425  -435  -341  -259  -266  -365  -506  -619  -667  -670  -658  -642  -623  -607  -599  -605  -629  -667  -708  -748  -774  -767  -709  -577  -382  -206  -132  -163  -240  -315  -373  -390  -351  -281  -227  -209  -209  -204  -189  -180  -200  -250  -325  -421  -519  -588  -611  -602  -581  -557  -536  -525  -537  -584  -656  -691  -616  -445  -209  236  1167  2811  5148  7604  9125  8828  6609  3330  327  -1451  -1857  -1387  -757  -422  -395  -498  -636  -803  -950  -1008  -993  -972  -966  -947  -879  -766  -650  -570  -535  -533  -542  -550  -540  -499  -425  -329  -226  -143  -93  -49  26  153  297  402  450  492  588  736  874  960  998  1003  990  976  971  972  975  973  958  924  853  729  566  417  310  192  16  -148  -220  -252  -306  -354  -350  -281  -205  -192  -238  -304  -368  -422  -475  -529  -567  -571  -544  -500  -466  -450  -446  -443  -446  -476  -541  -602  -595  -520  -436  -376  -335  -311  -304  -307  -312  -315  -316  -318  -320  -316  -291  -230  -133  -33  18  9  -40  -104  -155  -189  -222  -255  -286  -329  -396  -489  -618  -786  -958  -1046  -972  -764  -593  -566  -535  -207  782  2661  5153  7606  9257  9329  7555  4566  1475  -779  -1800  -1791  -1328  -987  -988  -1131  -1183  -1167  -1157  -1119  -1017  -880  -789  -788  -850  -943  -1043  -1115  -1112  -992  -740  -406  -144  -115  -290  -472  -543  -531  -493  -453  -416  -375  -294  -129  115  347  486  550  611  702  778  785  738  702  711  745  773  788  794  803  818  821  769  621  392  157  2  -50  -45  -65  -186  -406  -622  -740  -763  -741  -711  -695  -693  -673  -601  -488  -393  -359  -374  -404  -433  -476  -534  -583  -607  -609  -602  -593  -590  -590  -591  -593  -601  -614  -629  -638  -626  -572  -469  -345  -235  -154  -104  -84  -85  -92  -91  -86  -108  -195  -339  -474  -551  -601  -693  -846  -1015  -1147  -1218  -1232  -1200  -1118  -983  -851  -863  -997  -868  -45  1601  3879  6368  8463  9421  8684  6388  3381  695  -960  -1486  -1344  -1089  -961  -958  -1057  -1246  -1448  -1526  -1421  -1239  -1109  -1033  -931  -732  -473  -289  -257  -327  -420  -497  -537  -533  -488  -414  -346  -302  -270  -245  -258  -320  -354  -274  -77  176  436  660  821  936  1047  1156  1208  1171  1096  1049  1034  1007  940  858  809  793  750  619  404  186  44  -15  -56  -130  -222  -283  -300  -310  -352  -429  -507  -550  -560  -571  -611  -673  -729  -761  -773  -774  -768  -748  -699  -628  -593  -631  -697  -726  -717  -701  -696  -701  -705  -687  -631  -556  -503  -492  -500  -482  -404  -278  -152  -58  -1  17  -13  -102  -212  -279  -279  -263  -335  -576  -913  -1162  -1226  -1142  -984  -792  -600  -483  -525  -709  -852  -610  354  2139  4511  6994  8928  9584  8490  5856  2614  -91  -1538  -1781  -1426  -1044  -874  -854  -836  -783  -734  -703  -681  -660  -645  -655  -707  -792  -847  -762  -460  -37  273  340  193  -61  -292  -413  -418  -341  -208  -51  83  152  141  88  66  127  289  563  882  1099  1167  1190  1278  1430  1570  1650  1681  1679  1629  1510  1342  1174  1019  849  658  473  318  205  124  44  -57  -169  -279  -385  -484  -567  -619  -626  -542  -329  -57  134  187  149  64  -56  -177  -252  -272  -264  -252  -248  -264  -310  -372  -413  -416  -403  -428  -539  -704  -821  -823  -754  -720  -735  -678  -491  -282  -163  -135  -154  -195  -247  -303  -366  -467  -625  -810  -954  -1024  -1041  -1034  -1020  -1024  -1068  -1135  -1147  -991  -568  259  1685  3572  5260  6167  6162  5208  3378  1276  -292  -1070  -1357  -1469  -1488  -1426  -1378  -1425  -1523  -1586  -1587  -1556  -1533  -1531  -1539  -1547  -1554  -1557  -1538  -1470  -1335  -1137  -930  -798  -767  -787  -809  -815  -801  -757  -671  -543  -402  -299  -251  -217  -144  -38  38  50  26  0]
