reading_id,reading_time,wire_id,result_classification,heart_rate,heart_rate_alert,firmware_version,device_app_version,hardware_version,waveform_samples
9835c070-6179-11ed-8080-808080808080,Fri Nov 11 04:30:39 UTC 2022,4101e3b01d39,NSR,67,NONE,20001.171.50,2.10.0,Charge 5,[130  3859  7007  9267  10765  11751  12342  12632  12742  12708  12425  11784  10901  10076  9481  9126  9166  9829  11072  12694  14592  16663  18600  19837  19764  18186  15588  12957  11244  10769  11102  11490  11366  10642  9657  8704  7696  6286  4316  2214  686  -55  -317  -371  -297  -131  55  194  272  303  236  -61  -649  -1407  -2165  -2826  -3297  -3491  -3384  -2962  -2155  -886  800  2714  4588  6233  7715  9120  10245  10861  11034  10986  10842  10635  10411  10219  10005  9664  9185  8678  8282  8104  8253  8798  9558  10141  10262  9813  8802  7437  6048  4896  4124  3715  3470  3217  2924  2575  2127  1632  1234  977  755  469  155  -73  -185  -229  -249  -291  -426  -717  -1174  -1716  -2176  -2442  -2563  -2662  -2789  -2901  -2956  -3000  -3144  -3423  -3738  -4080  -4578  -5223  -5766  -5851  -5368  -4659  -4152  -4295  -5533  -7650  -9780  -11227  -11707  -11214  -9992  -8324  -6433  -4567  -2866  -1311  87  1277  2235  2942  3460  4003  4773  5734  6609  7155  7378  7432  7446  7490  7585  7717  7847  7928  7952  7948  7942  7942  7948  7959  7973  7981  7965  7886  7723  7517  7350  7270  7256  7266  7265  7220  7102  6908  6668  6441  6251  6001  5536  4907  4387  4129  4045  3992  3910  3813  3725  3632  3513  3383  3269  3172  3049  2769  2257  1713  1482  1801  2779  4401  6479  8573  9912  9624  7267  3205  -1540  -5706  -8257  -8975  -8483  -7525  -6625  -6127  -6010  -5995  -5878  -5596  -5167  -4668  -4217  -3916  -3740  -3597  -3463  -3363  -3280  -3135  -2852  -2441  -2029  -1756  -1656  -1652  -1641  -1544  -1321  -1012  -712  -493  -366  -293  -214  -88  91  336  645  967  1261  1532  1779  1981  2121  2205  2252  2284  2306  2313  2310  2301  2289  2292  2356  2515  2717  2831  2785  2621  2400  2133  1856  1650  1542  1475  1367  1158  824  431  108  -75  -150  -176  -224  -358  -590  -881  -1152  -1320  -1374  -1375  -1366  -1334  -1253  -1155  -1100  -1097  -1106  -1098  -1086  -1115  -1214  -1341  -1455  -1608  -1869  -2177  -2402  -2534  -2706  -3010  -3382  -3703  -3945  -4129  -4246  -4296  -4299  -4258  -4151  -3970  -3725  -3419  -3096  -2849  -2719  -2652  -2602  -2581  -2608  -2695  -2836  -2973  -3039  -3031  -2979  -2911  -2832  -2724  -2589  -2481  -2435  -2422  -2398  -2349  -2272  -2134  -1888  -1566  -1282  -1095  -960  -825  -705  -665  -744  -891  -1013  -1058  -1047  -1022  -1000  -969  -927  -894  -882  -889  -895  -873  -784  -611  -408  -268  -223  -222  -225  -243  -340  -564  -846  -1051  -1165  -1293  -1468  -1626  -1746  -1875  -2031  -2172  -2262  -2299  -2306  -2318  -2379  -2503  -2618  -2595  -2326  -1758  -902  277  1891  3807  5503  6324  5734  3625  595  -2289  -4168  -4811  -4555  -4043  -3815  -3895  -3988  -3982  -3993  -4109  -4287  -4425  -4481  -4485  -4456  -4388  -4294  -4211  -4145  -4073  -3993  -3920  -3864  -3829  -3829  -3857  -3876  -3821  -3633  -3328  -3017  -2789  -2610  -2384  -2077  -1760  -1527  -1384  -1274  -1140  -957  -764  -594  -425  -278  -191  -125  -13  154  337  491  610  718  836  984  1190  1451  1702  1901  2071  2219  2318  2322  2146  1707  1075  458  4  -291  -503  -684  -844  -1004  -1205  -1465  -1754  -1981  -2077  -2061  -2003  -1956  -1932  -1927  -1947  -2006  -2088  -2151  -2177  -2191  -2229  -2319  -2465  -2622  -2729  -2783  -2827  -2880  -2910  -2901  -2877  -2847  -2763  -2580  -2326  -2046  -1737  -1425  -1180  -981  -716  -387  -150  -124  -293  -535  -712  -772  -750  -687  -599  -485  -337  -172  -18  125  266  380  469  576  704  802  841  844  870  972  1150  1346  1499  1579  1597  1587  1579  1579  1588  1600  1611  1618  1623  1625  1626  1630  1642  1660  1678  1703  1764  1893  2078  2244  2346  2448  2635  2882  3074  3140  3079  2907  2693  2543  2495  2507  2536  2563  2574  2550  2484  2386  2279  2185  2118  2067  2020  1992  2010  2074  2138  2159  2140  2093  2001  1887  1907  2262  2917  3553  3954  4389  5435  7389  9865  11856  12297  10770  7752  4408  1964  960  1136  1850  2475  2734  2743  2697  2673  2658  2580  2336  1904  1442  1153  1075  1098  1132  1156  1176  1198  1213  1218  1217  1212  1204  1205  1252  1373  1533  1650  1693  1706  1731  1754  1743  1713  1702  1710  1706  1693  1725  1890  2233  2671  3044  3262  3365  3445  3536  3602  3585  3448  3213  2956  2749  2590  2373  1921  1020  -457  -2373  -4454  -6553  -8539  -10121  -11074  -11502  -11677  -11782  -11863  -11914  -11930  -11886  -11742  -11492  -11132  -10618  -9960  -9256  -8577  -7940  -7390  -7046  -7068  -7639  -8815  -10403  -12047  -13348  -14044  -14213  -14140  -14031  -13915  -13729  -13413  -12952  -12381  -11705  -10888  -9970  -9053  -8234  -7618  -7211  -6830  -6188  -4997  -3175  -1093  482  817  -283  -2361  -4701  -6660  -7854  -8296  -8213  -7756  -7073  -6322  -5489  -4451  -3214  -1938  -807  97  842  1555  2362  3278  4132  4799  5328  5773  6183  6663  7243  7797  8201  8446  8583  8672  8788  8979  9219  9437  9604  9725  9778  9693  9409  9014  8732  8731  9013  9418  9721  9801  9652  9316  8930  8664  8562  8547  8555  8574  8599  8588  8449  8135  7752  7486  7391  7383  7376  7364  7369  7391  7348  7122  6752  6446  6381  6704  7596  9197  11451  13857  15584  16011  14894  12403  9297  6605  5036  4720  5265  6054  6535  6362  5609  4762  4219  3983  3897  3914  4076  4356  4620  4753  4719  4532  4263  4025  3857  3744  3719  3848  4147  4540  4924  5240  5393  5012  3546  874  -2388  -5268  -7025  -7624  -7591  -7377  -7094  -6732  -6307  -5833  -5329  -4884  -4570  -4315  -3963  -3424  -2755  -2085  -1477  -943  -489  -98  217  410  492  556  670  815  908  913  862  791  702  601  523  485  476  470  406  221  -48  -271  -360  -323  -205  -36  146  290  360  372  362  355  353  347  338  339  388  526  766  1044  1245  1319  1319  1309  1318  1357  1438  1543  1619  1638  1607  1545  1480  1448  1498  1667  1933  2216  2409  2389  2159  1940  2031  2611  3610  4640  5036  4206  2068  -995  -4439  -7681  -10268  -11961  -12695  -12662  -12250  -11760  -11283  -10745  -10033  -9204  -8428  -7730  -7068  -6513  -6089  -5672  -5152  -4558  -3963  -3392  -2876  -2493  -2261  -2112  -1965  -1776  -1550  -1337  -1169  -1042  -938  -816  -632  -398  -175  -3  128  234  297  310  295  273  245  213  191  209  298  448  588  646  608  507  393  291  196  94  -34  -221  -448  -644  -776  -853  -844  -739  -520  -31  920  2290  3665  4571  4911  4784  4031  2477  509  -1095  -1912  -2124  -2128  -2210  -2482  -2881  -3236  -3446  -3558  -3642  -3719  -3832  -4038  -4320  -4610  -4857  -5034  -5146  -5220  -5258  -5251  -5222  -5207  -5212  -5239  -5346  -5626  -6066  -6495  -6776  -6912  -6962  -6989  -7042  -7143  -7281  -7426  -7563  -7712  -7845  -7843  -7615  -7194  -6636  -5933  -5098  -4362  -4269  -5444  -8053  -11572  -15118  -17896  -19554  -20239  -20288  -20001  -19520  -18831  -17998  -17204  -16600  -16216  -15922  -15513  -14921  -14239  -13526  -12748  -11883  -10992  -10163  -9444  -8773  -7956  -6837  -5450  -3995  -2772  -2014  -1716  -1748  -2111  -2945  -4270  -5734  -6783  -7206  -7216  -7005  -6577  -6001  -5485  -5127  -4828  -4473  -4035  -3574  -3194  -2962  -2855  -2814  -2807  -2813  -2816  -2809  -2800  -2792  -2786  -2795  -2844  -2961  -3147  -3376  -3587  -3694  -3576  -3142  -2525  -2049  -1981  -2447  -3374  -4378  -5022  -5197  -4984  -4371  -3308  -1845  -115  1676  3340  4835  6137  7097  7699  8126  8452  8618  8700  9017  9920  11397  13075  14585  15695  16322  16602  16763  16960  17271  17701  18163  18550  18834  19026  19135  19184  19207  19208  19194  19188  19196  19176  19056  18809  18504  18247  18069  17903  17672  17379  17086  16849  16687  16532  16255  15817  15349  15003  14803  14669  14500  14247  13971  13775  13670  13561  13355  13045  12671  12259  11821  11378  10925  10424  9881  9384  9011  8753  8521  8232  7865  7464  7109  6863  6729  6593  6284  5760  5189  4767  4525  4393  4295  4226  4305  4627  5185  6067  7453  9246  10922  11779  11253  9229  6230  3257  1236  451  536  929  1147  929  389  -124  -424  -558  -621  -654  -650  -608  -592  -704  -979  -1327  -1607  -1747  -1771  -1723  -1619  -1489  -1431  -1553  -1872  -2248  -2492  -2542  -2462  -2335  -2224  -2178  -2264  -2535  -2909  -3177  -3201  -2995  -2688  -2438  -2325  -2350  -2496  -2684  -2783  -2722  -2549  -2343  -2131  -1941  -1826  -1797  -1809  -1824  -1821  -1788  -1729  -1666  -1627  -1646  -1761  -1972  -2231  -2515  -2845  -3204  -3507  -3702  -3832  -3964  -4118  -4261  -4355  -4395  -4411  -4418  -4418  -4432  -4485  -4576  -4682  -4795  -4899  -4965  -4983  -4972  -4953  -4934  -4915  -4893  -4873  -4881  -4924  -4961  -4943  -4874  -4798  -4740  -4692  -4644  -4606  -4601  -4630  -4662  -4673  -4654  -4600  -4509  -4402  -4327  -4301  -4304  -4307  -4291  -4247  -4195  -4185  -4252  -4364  -4451  -4483  -4473  -4432  -4349  -4193  -3948  -3675  -3476  -3385  -3350  -3285  -3087  -2687  -2187  -1809  -1654  -1654  -1710  -1778  -1852  -1917  -1941  -1916  -1863  -1824  -1826  -1861  -1906  -1946  -1977  -1974  -1906  -1782  -1646  -1555  -1522  -1515  -1510  -1503  -1496  -1482  -1463  -1462  -1505  -1573  -1615  -1606  -1569  -1539  -1524  -1516  -1505  -1497  -1509  -1554  -1620  -1671  -1677  -1653  -1619  -1567  -1489  -1398  -1320  -1273  -1251  -1240  -1232  -1222  -1215  -1240  -1330  -1471  -1597  -1646  -1591  -1446  -1275  -1161  -1125  -1135  -1169  -1217  -1240  -1185  -1070  -962  -879  -787  -689  -629  -629  -676  -753  -844  -918  -956  -972  -992  -1027  -1073  -1141  -1239  -1324  -1351  -1322  -1246  -1118  -941  -752  -652  -663  -626  -404  78  1062  2818  5229  7714  9446  9600  7837  4771  1605  -658  -1569  -1280  -448  246  480  245  -265  -763  -1044  -1070  -906  -641  -370  -158  -20  40  0  -140  -295  -348  -247  -47  151  304  416  498  552  571  540  444  283  110  42  174  476  793  995  1089  1139  1171  1201  1264  1374  1502  1609  1670  1689  1737  1939  2324  2736  2979  3007  2892  2739  2632  2599  2616  2659  2711  2749  2740  2650  2478  2272  2076  1854  1533  1101  661  361  227  148  18  -156  -305  -409  -525  -688  -850  -956  -1005  -1010  -971  -907  -828  -733  -644  -590  -565  -535  -486  -423  -366  -330  -314  -315  -351  -445  -563  -602  -491  -282  -100  -16  -12  -62  -165  -313  -436  -443  -334  -192  -65  34  86  82  39  -11  -46  -49  -6  82  185  254  256  176  25  -136  -250  -305  -328  -333  -307  -233  -109  27  120  153  150  125  68  -10  -71  -101  -126  -179  -254  -306  -308  -295  -298  -306  -305  -304  -336  -432  -565  -666  -706  -709  -708  -723  -748  -745  -668  -540  -440  -420  -469  -541  -587  -585  -548  -513  -498  -492  -494  -527  -606  -699  -763  -784  -769  -720  -649  -582  -534  -505  -491  -497  -555  -686  -845  -955  -993  -988  -972  -936  -864  -758  -626  -495  -434  -452  -482  -482  -456  -397  -296  -184  -127  -168  -294  -466  -641  -798  -949  -1107  -1238  -1288  -1233  -1089  -918  -792  -735  -728  -764  -854  -986  -1116  -1188  -1115  -805  -257  515  1696  3458  5562  7491  8668  8492  6817  4276  1787  62  -605  -486  -172  -62  -161  -291  -355  -378  -412  -478  -571  -667  -733  -751  -713  -611  -468  -321  -168  9  184  292  304  242  133  14  -73  -114  -117  -74  28  163  261  300  329  442  704  1040  1284  1366  1350  1326  1342  1402  1489  1585  1666  1713  1753  1846  2018  2240  2467  2655  2759  2789  2804  2845  2869  2797  2632  2474  2389  2355  2308  2183  1974  1741  1508  1222  893  627  485  426  381  281  89  -155  -356  -428  -369  -256  -174  -144  -135  -123  -114  -125  -152  -172  -138  -26  116  204  180  52  -113  -234  -286  -283  -206  -24  213  387  441  417  363  288  182  59  -40  -77  -40  49  146  219  270  303  304  265  188  65  -104  -275  -381  -410  -395  -367  -342  -343  -384  -444  -486  -500  -506  -534  -597  -690  -780  -832  -843  -836  -829  -831  -834  -815  -750  -654  -571  -526  -511  -524  -581  -685  -795  -864  -884  -878  -870  -885  -938  -1016  -1079  -1106  -1110  -1105  -1097  -1086  -1072  -1051  -1025  -1000  -971  -916  -811  -678  -567  -500  -481  -532  -666  -843  -1015  -1186  -1354  -1469  -1510  -1512  -1504  -1471  -1389  -1281  -1202  -1157  -1096  -997  -890  -826  -851  -979  -1156  -1304  -1369  -1344  -1229  -997  -617  43  1293  3339  5864  7991  8742  7622  4964  1836  -597  -1761  -1830  -1439  -1205  -1302  -1489  -1532  -1412  -1229  -1104  -1116  -1271  -1491  -1646  -1653  -1520  -1331  -1200  -1178  -1246  -1343  -1410  -1420  -1382  -1320  -1260  -1222  -1208  -1202  -1169  -1092  -987  -871  -747  -628  -532  -448  -356  -276  -235  -224  -204  -147  -65  15  89  191  360  572  760  913  1072  1261  1482  1718  1928  2084  2183  2232  2243  2225  2184  2132  2071  1972  1782  1458  1031  641  401  304  276  252  189  69  -98  -293  -463  -530  -471  -362  -286  -255  -226  -167  -90  -43  -65  -137  -203  -232  -235  -237  -268  -355  -490  -619  -692  -699  -665  -620  -589  -578  -578  -591  -624  -668  -693  -668  -594  -506  -446  -418  -406  -401  -408  -433  -468  -496  -507  -508  -502  -493  -487  -494  -518  -541  -543  -509  -438  -357  -322  -381  -500  -587  -597  -550  -472  -359  -198  -20  93  85  -37  -204  -326  -388  -442  -502  -530  -510  -474  -451  -417  -313  -130  56  169  203  200  189  179  172  172  194  250  328  382  368  265  112  5  -4  37  73  87  86  79  64  39  10  -6  -10  -6  -2  1  0  -8  -25  -65  -157  -326  -551  -758  -884  -926  -927  -906  -853  -778  -740  -793  -931  -1090  -1214  -1279  -1257  -1098  -764  -241  537  1745  3542  5801  7936  9066  8509  6363  3495  919  -654  -1085  -826  -460  -270  -239  -265  -288  -269  -203  -143  -124  -130  -122  -76  -11  35  50  47  41  40  69  150  262  355  413  472  555  651  726  769  796  837  891  924  923  908  914  959  1039  1139  1254  1381  1495  1560  1584  1628  1769  2022  2295  2471  2521  2512  2526  2632  2860  3150  3380  3485  3499  3449  3300  3012  2663  2411  2294  2199  2022  1724  1298  813  398  95  -134  -306  -428  -528  -621  -689  -706  -670  -618  -584  -570  -560  -547  -538  -530  -496  -414  -298  -199  -158  -192  -308  -464  -575  -584  -499  -373  -282  -286  -407  -606  -789  -883  -890  -837  -748  -637  -523  -434  -377  -343  -327  -324  -326  -328  -340  -382  -475  -619  -753  -795  -741  -671  -636  -629  -629  -624  -620  -640  -708  -811  -903  -952  -960  -942  -909  -872  -831  -778  -724  -723  -806  -910  -965  -973  -982  -1021  -1080  -1125  -1140  -1139  -1131  -1103  -1033  -923  -818  -773  -802  -864  -909  -934  -987  -1094  -1199  -1225  -1178  -1121  -1090  -1073  -1043  -999  -964  -951  -955  -974  -1005  -1036  -1040  -1010  -987  -1059  -1282  -1590  -1831  -1915  -1857  -1713  -1557  -1454  -1406  -1383  -1380  -1424  -1547  -1772  -2084  -2402  -2587  -2484  -1991  -1195  -339  534  1755  3603  5802  7512  7813  6341  3614  744  -1226  -1901  -1700  -1327  -1119  -1050  -1061  -1139  -1247  -1340  -1406  -1456  -1495  -1513  -1498  -1453  -1384  -1291  -1184  -1081  -990  -907  -823  -751  -708  -693  -690  -687  -669  -625  -572  -527  -500  -517  -570  -603  -587  -530  -450  -359  -252  -113  35  147  211  262  337  450  592  739  867  966  1055  1179  1373  1591  1746  1807  1811  1809  1827  1844  1836  1802  1715  1502  1146  780  549  436  334  205  93  36  20  -6  -94  -233  -363  -448  -489  -502  -507  -523  -549  -575  -601  -630  -656  -669  -666  -640  -583  -491  -372  -256  -176  -140  -135  -139  -146  -161  -184  -203  -210  -204  -191  -182  -178  -171  -159  -144  -121  -82  -34  -9  -30  -74  -116  -155  -165  -120  -60  -43  -83  -147  -198  -227  -245  -242  -200  -135  -77  -34  6  50  94  131  151  147  129  121  138  166  180  158  93  -1  -92  -146  -163  -162  -153  -124  -78  -61  -100  -157  -183  -181  -173  -168  -162  -156  -159  -189  -254  -340  -430  -507  -558  -579  -577  -551  -483  -381  -319  -348  -422  -443  -261  359  1656  3670  6098  8274  9323  8607  6233  3079  273  -1364  -1704  -1264  -711  -441  -500  -697  -829  -807  -636  -401  -235  -220  -348  -539  -693  -764  -779  -763  -699  -566  -384  -197  -29  103  174  190  178  155  126  97  89  132  218  296  327  320  306  327  424  588  753  870  942  997  1057  1139  1237  1330  1394  1439  1520  1709  2001  2290  2466  2513  2491  2441  2369  2267  2139  1986  1787  1521  1214  901  613  372  177  8  -125  -199  -237  -291  -377  -467  -530  -571  -614  -672  -726  -762  -779  -799  -835  -874  -910  -947  -958  -901  -801  -741  -775  -868  -944  -988  -1031  -1070  -1084  -1072  -1050  -1024  -992  -954  -923  -893  -852  -802  -741  -654  -546  -456  -412  -404  -415  -452  -521  -597  -645  -658  -656  -654  -649  -632  -594  -537  -474  -430  -419  -440  -482  -528  -559  -573  -587  -605  -601  -554  -485  -438  -423  -424  -426  -430  -449  -481  -515  -535  -546  -564  -599  -646  -694  -729  -744  -736  -712  -688  -665  -647  -642  -641  -637  -635  -637  -638  -633  -623  -611  -603  -603  -609  -616  -604  -549  -453  -356  -294  -273  -282  -316  -369  -439  -520  -596  -645  -688  -771  -888  -978  -1009  -1006  -999  -997  -999  -1007  -1040  -1105  -1169  -1180  -1062  -714  -80  905  2360  4318  6519  8393  9219  8435  6121  3124  548  -878  -1106  -657  -232  -239  -536  -741  -705  -522  -320  -191  -168  -216  -286  -349  -406  -462  -507  -547  -598  -653  -678  -659  -614  -565  -517  -462  -413  -385  -372  -338  -261  -157  -56  34  127  222  301  348  374  405  462  581  805  1085  1285  1348  1338  1330  1364  1466  1642  1852  2024  2129  2202  2298  2417  2505  2517  2441  2300  2162  2081  2034  1908  1595  1125  649  284  52  -84  -188  -300  -422  -531  -608  -639  -645  -677  -782  -929  -1034  -1045  -972  -870  -797  -764  -743  -720  -706  -706  -708  -708  -709  -713  -709  -687  -644  -578  -473  -343  -252  -260  -374  -532  -646  -676  -652  -614  -578  -538  -479  -416  -377  -367  -369  -368  -362  -354  -346  -343  -363  -423  -510  -581  -617  -626  -629  -637  -645  -646  -647  -648  -626  -564  -488  -451  -464  -491  -502  -497  -492  -513  -579  -665  -705  -664  -575  -501  -458  -429  -415  -451  -570  -734  -855  -885  -840  -754  -655  -576  -559  -625  -728  -783  -738  -614  -476  -375  -326  -318  -323  -329  -334  -342  -346  -336  -312  -301  -343  -463  -649  -844  -989  -1067  -1107  -1138  -1152  -1129  -1083  -1046  -1045  -1093  -1160  -1205  -1234  -1297  -1446  -1610  -1610  -1313  -655  407  1912  3858  5994  7730  8387  7561  5403  2618  94  -1494  -2008  -1860  -1542  -1301  -1245  -1361  -1525  -1647  -1723  -1769  -1792  -1791  -1772  -1745  -1723  -1707  -1697  -1694  -1705  -1736  -1778  -1816  -1847  -1864  -1821  -1650  -1353  -1053  -881  -843  -865  -899  -928  -948  -954  -946  -919  -870  -775  -597  -364  -164  -36  58  150  241  344  482  653  825  992  1187  1418  1638  1808  1934  2022  2065  2065  2038  2002  1960  1878  1686  1338  913  579  405  328  268  177  43  -130  -318  -465  -532  -538  -523  -513  -526  -572  -636  -683  -696  -676  -631  -571  -525  -526  -569  -614  -634  -627  -588  -502  -365  -212  -93  -20  24  54  70  70  56  34  17  5  -7  -14  0  47  116  177  220  256  290  311  318  319  312  302  305  344  423  531  653  763  833  864  886  912  936  944  942  941  949  959  968  982  1005  1031  1039  1020  1001  1019  1071  1122  1141  1134  1144  1201  1298  1414  1531  1626  1683  1722  1778  1859  1943  1990  1988  1967  1953  1945  1928  1903  1891  1905  1930  1958  2018  2167  2410  2663  2838  2901  2870  2770  2615  2425  2259  2156  2086  1982  1798  1559  1361  1272  1268  1291  1302  1293  1271  1245  1220  1204  1213  1271  1340  1356  1379  1652  2500  4167  6557  9060  10766  10926  9327  6535  3640  1560  659  711  1060  1140  896  588  407  365  386  411  421  404  352  275  209  185  243  413  643  802  780  563  262  46  -24  -11  27  90  217  424  646  794  855  888  932  976  1003  1032  1112  1274  1472  1614  1660  1642  1605  1573  1549  1533  1545  1613  1739  1898  2055  2190  2293  2354  2372  2358  2311  2238  2171  2137  2108  1996  1718  1297  836  384  -52  -415  -658  -814  -963  -1159  -1409  -1675  -1898  -2024  -2057  -2054  -2066  -2120  -2220  -2339  -2430  -2473  -2478  -2459  -2433  -2424  -2464  -2573  -2715  -2817  -2852  -2850  -2842  -2826  -2790  -2747  -2731  -2764  -2822  -2861  -2873  -2896  -2968  -3069  -3145  -3173  -3177  -3183  -3208  -3256  -3305  -3336  -3349  -3344  -3332  -3331  -3353  -3414  -3527  -3678  -3828  -3926  -3955  -3943  -3921  -3909  -3908  -3922  -3961  -4039  -4138  -4216  -4258  -4267  -4261  -4265  -4286  -4309  -4331  -4368  -4418  -4457  -4477  -4483  -4470  -4416  -4316  -4205  -4121  -4070  -4035  -3991  -3921  -3838  -3773  -3740  -3726  -3704  -3661  -3606  -3559  -3526  -3494  -3438  -3331  -3177  -3026  -2931  -2893  -2877  -2868  -2861  -2852  -2841  -2830  -2801  -2732  -2641  -2574  -2551  -2556  -2569  -2582  -2594  -2619  -2685  -2778  -2781  -2561  -2066  -1288  -201  1301  3319  5600  7444  8081  7095  4723  1814  -648  -2041  -2321  -1926  -1400  -1067  -987  -1071  -1185  -1248  -1244  -1173  -1030  -842  -671  -572  -538  -517  -472  -417  -398  -425  -452  -428  -352  -252  -151  -59  23  104  184  278  410  593  814  1030  1183  1266  1322  1385  1458  1528  1582  1630  1705  1820  1959  2082  2177  2266  2361  2446  2533  2687  2953  3272  3525  3663  3707  3669  3545  3376  3232  3147  3095  3021  2889  2677  2370  1996  1606  1210  845  612  545  574  610  576  411  143  -95  -188  -124  23  159  225  222  176  116  75  77  130  218  308  374  411  421  408  385  364  359  383  441  514  584  636  677  723  775  819  846  857  855  843  824  813  816  827  836  834  828  831  850  869  876  877  881  881  855  780  679  607  588  597  590  534  430  316  222  145  80  42  31  30  28  29  40  67  99  120  127  123  113  101  93  89  89  93  106  120  119  87  39  0  -18  -18  18  113  233  296  272  206  140  73  24  24  69  128  170  185  184  190  215  257  320  421  541  615  619  587  549  500  444  393  342  280  219  170  110  21  -49  -48  -11  -6  -43  -94  -137  -173  -212  -250  -294  -374  -501  -623  -659  -515  -105  592  1548  2858  4713  6981  8951  9655  8549  5971  2953  637  -355  -280  69  99  -221  -542  -608  -500  -405  -377  -382  -401  -435  -476  -506  -519  -535  -579  -642  -684  -657  -551  -429  -373  -369  -332  -218  -46  122  222  235  200  145  70  -7  -60  -74  -42  41  162  283  398  523  665  829  1023  1242  1464  1664  1820  1913  1946  1941  1940  2005  2186  2442  2650  2733  2707  2626  2531  2422  2265  2026  1716  1391  1085  786  497  271  112  -54  -264  -461  -592  -661  -699  -723  -736  -741  -743  -744  -737  -714  -690  -709  -780  -851  -885  -896  -903  -901  -876  -826  -769  -728  -704  -680  -653  -634  -628  -628  -626  -614  -594  -582  -591  -612  -627  -635  -647  -666  -687  -705  -719  -723  -686  -583  -441  -325  -258  -226  -215  -238  -309  -406  -485  -531  -541  -520  -495  -492  -501  -508  -509  -509  -510  -514  -516  -513  -502  -486  -475  -469  -465  -463  -479  -531  -607  -672  -703  -714  -725  -742  -758  -758  -734  -700  -667  -627  -574  -509  -441  -396  -385  -399  -420  -432  -431  -418  -411  -451  -571  -737  -861  -908  -905  -867  -779  -649  -534  -479  -479  -500  -520  -525  -503  -444  -369  -310  -273  -251  -237  -235  -261  -335  -459  -591  -664  -646  -557  -438  -318  -217  -145  -103  -102  -172  -324  -506  -641  -712  -743  -755  -755  -742  -721  -711  -733  -787  -841  -868  -885  -923  -986  -1068  -1162  -1271  -1364  -1316  -959  -160  1153  2988  5191  7305  8649  8627  7076  4517  1897  -11  -912  -984  -705  -475  -407  -430  -464  -485  -503  -529  -556  -577  -590  -581  -539  -498  -488  -502  -516  -519  -491  -408  -278  -158  -106  -130  -183  -204  -172  -110  -52  -14  7  24  46  71  86  89  123  256  511  813  1047  1155  1168  1158  1189  1289  1439  1578  1681  1778  1903  2048  2202  2364  2518  2640  2719  2749  2730  2669  2576  2454  2259  1923  1486  1097  834  642  439  184  -110  -386  -574  -646  -642  -623  -640  -715  -822  -904  -931  -913  -862  -798  -752  -732  -729  -740  -764  -780  -763  -696  -577  -435  -333  -316  -364  -423  -465  -484  -490  -497  -520  -560  -600  -621  -616  -598  -580  -568  -559  -546  -531  -523  -520  -506  -465  -409  -378  -387  -418  -442  -463  -507  -584  -665  -697  -668  -638  -667  -739  -799  -822  -822  -812  -785  -737  -674  -604  -539  -496  -487  -517  -584  -662  -711  -725  -731  -759  -806  -846  -867  -873  -853  -789  -704  -652  -660  -698  -728  -740  -746  -749  -731  -684  -635  -628  -661  -686  -669  -620  -570  -544  -565  -648  -769  -876  -940  -955  -908  -796  -655  -542  -490  -498  -528  -536  -513  -483  -461  -440  -423  -419  -420  -412  -396  -384  -379  -378  -380  -386  -396  -398  -375  -323  -252  -181  -142  -181  -330  -537  -695  -753  -753  -742  -740  -741  -738  -733  -732  -738  -746  -763  -819  -954  -1159  -1319  -1285  -1025  -616  -75  751  2113  4101  6396  8276  8916  7869  5442  2542  167  -1112  -1356  -1016  -633  -552  -724  -906  -985  -996  -994  -995  -994  -991  -987  -985  -987  -996  -1008  -1001  -952  -870  -789  -706  -605  -493  -391  -315  -278  -273  -269  -247  -219  -195  -163  -127  -97  -58  11  116  222  296  351  442  620  866  1088  1215  1261  1300  1384  1531  1747  2022  2290  2458  2510  2527  2576  2633  2631  2565  2477  2368  2224  2051  1849  1579  1236  900  670  535  413  264  116  -13  -160  -364  -591  -762  -844  -866  -867  -869  -858  -788  -640  -470  -377  -404  -500  -583  -619  -627  -627  -626  -633  -649  -656  -613  -511  -392  -303  -263  -263  -277  -286  -291  -299  -306  -292  -243  -180  -149  -165  -210  -265  -316  -351  -379  -417  -458  -498  -544  -584  -603  -605  -602  -598  -593  -588  -585  -591  -607  -618  -604  -569  -534  -492  -419  -326  -259  -236  -239  -245  -248  -251  -256  -268  -289  -335  -422  -524  -589  -615  -627  -618  -577  -525  -485  -456  -441  -451  -494  -554  -597  -601  -567  -513  -464  -432  -419  -426  -453  -493  -524  -544  -573  -620  -669  -670  -587  -467  -375  -315  -263  -214  -169  -131  -99  -78  -81  -126  -231  -390  -558  -665  -694  -684  -676  -675  -669  -656  -665  -705  -751  -806  -919  -1094  -1226  -1170  -835  -244  556  1699  3386  5549  7681  8943  8593  6575  3643  893  -835  -1335  -1048  -608  -352  -319  -429  -562  -645  -679  -673  -645  -625  -632  -664  -705  -725  -709  -670  -632  -598  -559  -515  -481  -467  -468  -478  -492  -505  -502  -463  -384  -294  -213  -130  -22  95  188  249  310  402  533  669  756  786  807  866  977  1126  1301  1506  1721  1895  1996  2054  2156  2364  2621  2803  2867  2840  2730  2525  2253  1979  1765  1628  1517  1360  1114  787  420  60  -247  -477  -627  -704  -726  -719  -704  -701  -727  -780  -833  -864  -872  -867  -853  -820  -756  -673  -613  -596  -604  -614  -619  -622  -624  -619  -604  -591  -605  -663  -744  -784  -736  -632  -549  -525  -531  -529  -520  -523  -540  -558  -572  -587  -593  -580  -559  -550  -546  -518  -448  -355  -283  -253  -256  -289  -364  -460  -527  -549  -554  -569  -593  -602  -565  -474  -373  -320  -309  -302  -295  -308  -335  -361  -381  -393  -395  -394  -393  -395  -401  -409  -414  -411  -398  -378  -363  -350  -310  -216  -101  -42  -74  -177  -284  -323  -288  -238  -214  -214  -223  -244  -288  -345  -387  -399  -393  -381  -371  -368  -381  -419  -465  -479  -437  -361  -302  -280  -284  -285  -258  -194  -127  -114  -157  -205  -226  -231  -242  -261  -275  -280  -278  -272  -264  -258  -278  -353  -479  -603  -671  -689  -707  -758  -809  -797  -722  -647  -603  -583  -614  -769  -1067  -1364  -1412  -1092  -506  225  1217  2742  4862  7170  8884  9165  7659  4877  1886  -323  -1244  -1044  -429  -64  -121  -406  -716  -939  -1037  -1051  -1025  -958  -838  -690  -579  -535  -544  -585  -648  -718  -770  -774  -711  -586  -446  -355  -330  -339  -344  -317  -247  -143  -20  116  245  342  410  460  493  504  504  504  514  544  598  675  783  929  1113  1333  1575  1799  1960  2046  2087  2145  2250  2357  2403  2366  2267  2145  2040  1952  1849  1713  1527  1264  920  558  268  68  -107  -337  -652  -976  -1183  -1241  -1222  -1193  -1177  -1176  -1188  -1198  -1158  -1017  -804  -622  -542  -549  -603  -681  -773  -857  -902  -908  -919  -958  -997  -1000  -947  -845  -722  -607  -522  -471  -444  -420  -394  -372  -360  -360  -385  -455  -578  -715  -791  -771  -684  -585  -507  -460  -435  -418  -408  -412  -432  -461  -491  -514  -535  -575  -645  -721  -768  -775  -757  -727  -679  -599  -475  -312  -159  -84  -101  -162  -216  -262  -308  -330  -316  -318  -368  -433  -480  -492  -443  -317  -163  -74  -92  -168  -231  -255  -258  -258  -247  -212  -165  -166  -246  -345  -403  -420  -420  -418  -420  -424  -419  -388  -328  -275  -260  -249  -197  -125  -88  -93  -121  -165  -216  -252  -257  -237  -209  -192  -190  -186  -160  -98  -8  83  142  159  147  119  80  39  -7  -81  -185  -298  -401  -478  -508  -493  -454  -419  -388  -346  -291  -247  -230  -250  -307  -384  -467  -551  -615  -646  -619  -420  111  1094  2648  4786  7152  8993  9492  8267  5712  2803  522  -644  -850  -635  -468  -490  -584  -626  -622  -616  -623  -636  -649  -641  -590  -510  -445  -418  -418  -434  -460  -472  -431  -320  -160  -4  91  110  77  29  -9  -20  21  132  276  382  429  449  490  577  684  764  814  874  957  1043  1140  1295  1509  1709  1843  1922  1977  2033  2098  2179  2300  2475  2673  2847  2965  2994  2888  2637  2304  1990  1733  1466  1127  727  306  -84  -395  -614  -769  -884  -979  -1073  -1173  -1286  -1445  -1660  -1865  -1988  -2026  -2027  -2023  -2006  -1955  -1887  -1839  -1827  -1825  -1803  -1751  -1693  -1653  -1623  -1581  -1529  -1490  -1472  -1463  -1457  -1454  -1459  -1470  -1481  -1474  -1424  -1320  -1180  -1043  -947  -905  -905  -931  -964  -984  -968  -902  -810  -741  -718  -723  -734  -741  -743  -739  -732  -728  -750  -817  -913  -987  -1002  -949  -834  -683  -540  -439  -383  -358  -343  -332  -326  -341  -393  -471  -532  -544  -519  -492  -482  -480  -463  -415  -360  -347  -384  -420  -416  -390  -376  -380  -392  -401  -403  -401  -396  -394  -406  -441  -481  -488  -455  -413  -381  -340  -272  -187  -111  -69  -67  -110  -208  -355  -507  -586  -541  -399  -241  -117  -23  39  53  34  20  14  -9  -70  -152  -207  -179  -42  156  315  371  325  197  42  -71  -125  -156  -195  -237  -270  -286  -267  -214  -160  -123  -101  -127  -267  -533  -792  -856  -650  -232  302  971  2019  3690  5870  8042  9397  9153  7189  4253  1408  -512  -1186  -957  -520  -312  -298  -292  -257  -252  -303  -400  -515  -614  -675  -697  -696  -688  -687  -705  -743  -777  -761  -661  -482  -265  -67  70  141  158  136  57  -96  -280  -384  -342  -185  21  229  395  483  505  514  558  672  852  1040  1170  1250  1360  1569  1864  2147  2313  2351  2326  2304  2333  2442  2593  2703  2725  2672  2585  2505  2438  2330  2086  1682  1248  934  716  481  217  -43  -321  -614  -831  -920  -929  -922  -924  -916  -885  -845  -805  -752  -696  -655  -633  -622  -626  -646  -673  -690  -695  -697  -706  -720  -731  -735  -736  -737  -737  -729  -708  -674  -635  -604  -590  -587  -587  -578  -557  -542  -570  -658  -764  -826  -822  -784  -753  -741  -729  -706  -682  -677  -692  -704  -683  -645  -636  -657  -667  -644  -613  -605  -602  -565  -510  -475  -462  -452  -437  -430  -444  -466  -480  -497  -535  -595  -657  -707  -738  -750  -750  -750  -772  -821  -858  -822  -712  -592  -517  -502  -536  -596  -675  -765  -823  -779  -593  -332  -146  -133  -281  -493  -647  -697  -666  -576  -449  -337  -311  -385  -472  -488  -436  -362  -308  -295  -303  -300  -293  -300  -324  -359  -396  -428  -466  -523  -589  -631  -615  -529  -400  -292  -267  -394  -713  -1142  -1484  -1541  -1205  -506  473  1773  3540  5727  7816  9019  8738  6871  4014  1298  -358  -807  -521  -132  -55  -290  -566  -731  -821  -858  -827  -779  -782  -832  -878  -902  -912  -910  -861  -733  -565  -441  -399  -408  -425  -433  -428  -399  -336  -256  -189  -139  -83  -17  45  99  146  176  182  177  175  190  256  404  608  798  934  1019  1072  1162  1382  1733  2072  2271  2336  2355  2399  2489  2605  2706  2760  2759  2720  2634  2440  2081  1596  1119  722  388  107  -113  -282  -403  -478  -527  -569  -623  -711  -842  -969  -1010  -945  -831  -749  -749  -806  -849  -856  -868  -892  -872  -794  -718  -687  -690  -700  -705  -705  -695  -671  -635  -590  -550  -535  -543  -546  -527  -500  -486  -481  -479  -479  -487  -496  -494  -478  -468  -471  -474  -467  -453  -440  -435  -445  -478  -522  -538  -482  -347  -189  -80  -45  -92  -246  -489  -719  -842  -845  -751  -600  -448  -338  -273  -245  -246  -273  -325  -399  -479  -550  -602  -631  -621  -559  -471  -408  -388  -396  -409  -417  -422  -433  -450  -466  -477  -488  -503  -526  -563  -601  -615  -584  -516  -451  -417  -408  -399  -382  -363  -349  -342  -340  -347  -374  -419  -465  -493  -492  -472  -451  -435  -410  -361  -296  -241  -216  -238  -318  -420  -476  -452  -387  -331  -292  -257  -226  -211  -219  -247  -276  -290  -292  -296  -319  -381  -491  -614  -698  -727  -711  -672  -665  -728  -820  -869  -852  -802  -786  -804  -725  -408  143  915  2093  3898  6198  8356  9459  8835  6539  3450  769  -716  -1011  -722  -489  -488  -541  -543  -531  -528  -530  -539  -562  -602  -649  -702  -770  -845  -871  -813  -729  -691  -699  -706  -659  -540  -394  -271  -167  -74  -27  -60  -150  -244  -286  -251  -155  -29  102  226  329  411  512  661  822  938  1001  1055  1156  1295  1409  1469  1522  1657  1916  2231  2475  2601  2655  2701  2775  2884  2986  3003  2881  2622  2269  1879  1459  1026  659  397  206  60  -52  -150  -229  -279  -305  -317  -325  -368  -497  -693  -860  -935  -939  -922  -911  -897  -858  -779  -679  -606  -580  -583  -590  -595  -608  -639  -678  -703  -707  -702  -690  -661  -613  -564  -513  -438  -348  -275  -234  -223  -251  -334  -457  -564  -616  -618  -602  -594  -607  -626  -633  -625  -621  -635  -655  -661  -643  -625  -634  -651  -622  -543  -467  -432  -428  -437  -446  -435  -387  -320  -288  -325  -400  -452  -455  -435  -422  -425  -434  -440  -442  -441  -442  -445  -447  -439  -411  -367  -329  -328  -385  -462  -475  -412  -339  -304  -302  -312  -336  -402  -537  -708  -842  -902  -888  -803  -661  -496  -359  -285  -285  -335  -387  -417  -431  -433  -420  -404  -398  -401  -413  -441  -501  -587  -644  -634  -585  -534  -475  -405  -355  -339  -341  -344  -340  -329  -307  -267  -215  -178  -189  -255  -346  -411  -430  -422  -418  -447  -531  -643  -727  -772  -804  -833  -839  -827  -827  -859  -908  -916  -835  -659  -372  127  1087  2757  5074  7492  9162  9337  7796  5054  2101  -126  -1165  -1156  -635  -130  65  -70  -386  -746  -1067  -1265  -1316  -1269  -1174  -1072  -994  -932  -863  -805  -780  -773  -766  -766  -764  -749  -713  -659  -607  -573  -552  -525  -478  -398  -295  -191  -94  0  82  145  196  252  314  368  421  497  605  738  883  1009  1075  1095  1177  1455  1927  2390  2657  2727  2711  2687  2679  2684  2699  2702  2639  2458  2196  1954  1752  1521  1238  947  636  280  -31  -191  -208  -191  -254  -443  -681  -844  -904  -936  -1009  -1122  -1202  -1163  -998  -793  -634  -556  -541  -550  -558  -562  -572  -590  -603  -594  -551  -482  -434  -469  -573  -665  -699  -694  -685  -689  -708  -735  -760  -769  -734  -630  -486  -383  -364  -413  -487  -542  -565  -567  -561  -551  -532  -493  -440  -409  -430  -486  -555  -632  -707  -754  -745  -675  -573  -483  -432  -421  -437  -467  -498  -528  -562  -587  -586  -572  -564  -565  -558  -525  -484  -495  -584  -680  -720  -707  -677  -651  -631  -617  -617  -631  -646  -641  -602  -553  -523  -516  -506  -465  -395  -327  -292  -281  -273  -269  -288  -335  -392  -426  -411  -337  -234  -161  -148  -185  -240  -282  -295  -275  -216  -141  -103  -138  -227  -319  -386  -444  -503  -544  -565  -587  -624  -669  -707  -726  -728  -735  -764  -804  -812  -787  -731  -516  67  1193  3000  5399  7820  9368  9286  7438  4477  1495  -573  -1391  -1261  -784  -434  -366  -491  -648  -731  -734  -693  -645  -614  -603  -602  -606  -622  -653  -685  -696  -665  -590  -509  -460  -439  -425  -401  -348  -266  -171  -67  28  93  136  178  218  236  232  237  269  320  394  503  630  737  814  900  1035  1197  1336  1484  1719  2022  2280  2417  2458  2477  2526  2623  2765  2921  3027  3015  2826  2470  2062  1745  1561  1412  1140  698  242  -44  -161  -253  -433  -677  -872  -955  -971  -978  -989  -999  -993  -954  -880  -809  -784  -808  -847  -874  -879  -870  -847  -798  -734  -688  -685  -727  -794  -852  -877  -864  -804  -704  -600  -538  -529  -553  -584  -605  -616  -631  -651  -667  -681  -706  -743  -770  -771  -753  -739  -734  -726  -719  -740  -778  -796  -772  -718  -667  -644  -638  -622  -585  -543  -530  -565  -628  -676  -698  -709  -723  -736  -743  -747  -752  -753  -736  -683  -604  -536  -511  -536  -605  -689  -749  -770  -766  -752  -740  -734  -732  -732  -732  -729  -721  -711  -702  -680  -631  -572  -539  -534  -533  -515  -467  -376  -277  -243  -325  -503  -691  -809  -846  -825  -737  -572  -375  -221  -144  -126  -130  -131  -128  -144  -210  -332  -468  -585  -686  -789  -883  -943  -956  -939  -913  -881  -836  -787  -767  -812  -918  -1016  -1031  -878  -456  248  1229  2657  4675  6988  8855  9455  8343  5821  2831  409  -852  -1029  -654  -269  -129  -210  -377  -529  -634  -702  -762  -812  -797  -684  -501  -319  -211  -223  -350  -523  -648  -692  -684  -647  -579  -490  -406  -361  -370  -382  -316  -148  57  213  286  301  300  325  402  512  607  664  702  758  864  1016  1180  1345  1529  1714  1854  1977  2159  2397  2603  2729  2814  2893  2953  2980  2980  2970  2951  2893  2724  2393  1952  1503  1087  721  430  180  -55  -232  -312  -329  -330  -336  -343  -346  -347  -345  -339  -334  -340  -378  -456  -572  -713  -852  -955  -999  -964  -835  -655  -512  -451  -451  -465  -465  -450  -424  -391  -372  -417  -568  -779  -932  -948  -831  -655  -513  -453  -448  -466  -499  -546  -591  -616  -622  -618  -621  -652  -726  -805  -834  -811  -766  -714  -667  -633  -603  -577  -567  -572  -569  -544  -503  -458  -413  -374  -350  -354  -411  -530  -670  -764  -772  -683  -517  -352  -278  -315  -405  -475  -500  -498  -482  -453  -421  -424  -491  -603  -702  -756  -780  -782  -741  -632  -484  -373  -329  -326  -342  -384  -465  -573  -668  -703  -678  -656  -693  -782  -876  -934  -933  -867  -747  -612  -510  -467  -474  -507  -560  -648  -751  -796  -721  -550  -381  -286  -260  -259  -251  -242  -273  -382  -535  -648  -691  -698  -705  -717  -730  -742  -740  -728  -732  -774  -847  -908  -933  -942  -948  -890  -641  -78  913  2456  4566  6908  8770  9392  8396  6048  3154  643  -857  -1267  -977  -447  -9  106  -112  -440  -675  -775  -790  -781  -775  -756  -684  -542  -379  -276  -248  -257  -270  -270  -241  -166  -71  -23  -48  -111  -162  -173  -144  -87  -4  90  155  178  182  193  213  243  298  415  612  844  1037  1165  1248  1298  1324  1343  1387  1501  1706  1988  2324  2645  2857  2940  2953  2945  2915  2839  2713  2517  2192  1772  1426  1263  1215  1129  894  530  138  -201  -450  -611  -721  -820  -915  -988  -1035  -1062  -1076  -1077  -1063  -1030  -969  -883  -794  -728  -694  -697  -744  -829  -914  -953  -935  -870  -766  -676  -655  -688  -723  -736  -729  -716  -706  -694  -667  -615  -538  -457  -402  -376  -375  -416  -526  -676  -790  -834  -827  -778  -683  -570  -494  -480  -525  -606  -685  -727  -728  -707  -669  -606  -528  -463  -419  -388  -371  -382  -414  -446  -463  -479  -499  -519  -539  -564  -603  -664  -727  -760  -753  -725  -696  -677  -672  -674  -667  -640  -604  -574  -560  -558  -564  -571  -575  -580  -594  -612  -621  -614  -592  -566  -545  -529  -527  -559  -626  -684  -709  -732  -768  -797  -812  -814  -813  -807  -775  -717  -656  -590  -499  -375  -235  -98  10  76  85  4  -195  -457  -662  -758  -787  -790  -772  -759  -784  -844  -910  -963  -981  -907  -687  -378  -145  -148  -459  -970  -1375  -1381  -897  34  1386  3212  5490  7815  9358  9321  7536  4642  1728  -242  -981  -905  -580  -346  -308  -433  -606  -718  -742  -727  -736  -782  -820  -806  -739  -659  -603  -577  -558  -529  -505  -506  -523  -524  -489  -426  -360  -302  -242  -159  -55  33  66  39  -8  -18  51  210  402  558  668  766  858  912  928  953  1048  1223  1429  1616  1778  1930  2079  2245  2432  2607  2724  2785  2823  2855  2871  2854  2803  2712  2526  2165  1653  1165  861  734  672  568  325  -65  -465  -716  -796  -789  -781  -811  -866  -909  -911  -870  -805  -738  -674  -618  -593  -626  -718  -847  -966  -1013  -958  -849  -762  -731  -734  -742  -740  -724  -700  -663  -595  -510  -446  -417  -405  -394  -384  -374  -370  -392  -460  -556  -619  -616  -585  -577  -603  -626  -604  -542  -489  -461  -443  -420  -398  -378  -347  -306  -310  -422  -613  -757  -752  -589  -363  -202  -154  -195  -298  -422  -509  -537  -532  -526  -529  -539  -551  -564  -585  -607  -599  -506  -305  -69  76  36  -206  -538  -779  -851  -803  -703  -586  -464  -353  -274  -231  -209  -189  -176  -197  -251  -300  -314  -306  -306  -348  -442  -554  -635  -677  -702  -714  -695  -644  -571  -498  -451  -433  -427  -430  -465  -546  -648  -748  -825  -818  -684  -417  64  1009  2682  5019  7447  9095  9177  7456  4557  1675  -210  -876  -751  -442  -319  -399  -501  -515  -477  -451  -481  -590  -747  -889  -994  -1055  -1038  -931  -785  -661  -585  -538  -483  -408  -341  -303  -265  -178  -49  62  119  134  136  146  172  205  232  250  274  328  409  500  605  737  881  1027  1199  1406  1623  1828  1997  2119  2221  2331  2446  2563  2680  2793  2888  2912  2817  2645  2477  2346  2221  2034  1738  1372  1032  776  598  472  379  300  190  -22  -352  -712  -977  -1091  -1083  -1007  -914  -849  -841  -896  -1001  -1116  -1194  -1218  -1203  -1174  -1141  -1101  -1059  -1027  -1016  -1020  -1026  -1029  -1033  -1047  -1071  -1086  -1078  -1054  -1018  -971  -942  -955  -996  -1040  -1069  -1066  -1031  -987  -945  -892  -824  -776  -797  -878  -961  -1012  -1048  -1097  -1161  -1217  -1238  -1183  -1019  -800  -648  -616  -651  -694  -731  -782  -864  -962  -1037  -1066  -1040  -957  -838  -733  -676  -666  -698  -777  -879  -953  -977  -971  -958  -945  -937  -940  -952  -963  -935  -845  -719  -617  -564  -537  -519  -528  -590  -688  -783  -857  -911  -925  -860  -705  -525  -401  -352  -342  -345  -372  -442  -542  -615  -605  -497  -334  -205  -176  -255  -399  -529  -589  -590  -577  -578  -599  -626  -653  -686  -727  -763  -785  -784  -757  -713  -679  -700  -796  -893  -880  -650  -80  884  2208  3937  6062  8140  9387  9137  7293  4471  1647  -352  -1188  -1103  -651  -250  -60  -111  -333  -562  -669  -655  -603  -584  -601  -617  -622  -633  -650  -632  -534  -376  -251  -228  -286  -361  -413  -446  -471  -501  -524  -501  -388  -196  -6  99  128  167  286  465  621  700  714  705  706  724  760  842  1021  1297  1594  1818  1947  2025  2107  2223  2369  2514  2625  2686  2710  2711  2680  2593  2467  2352  2248  2067  1702  1177  674  366  252  213  143  21  -119  -254  -384  -478  -505  -503  -541  -622  -724  -824  -890  -914  -932  -988  -1098  -1224  -1305  -1307  -1223  -1077  -932  -839  -797  -771  -733  -667  -585  -518  -487  -482  -487  -493  -515  -579  -683  -760  -773  -770  -787  -809  -834  -866  -883  -856  -788  -715  -675  -679  -699  -705  -683  -634  -571  -508  -459  -441  -469  -531  -594  -634  -653  -662  -668  -679  -706  -762  -825  -858  -854  -830  -793  -748  -703  -660  -608  -540  -469  -415  -386  -371  -357  -346  -358  -401  -444  -440  -397  -373  -390  -412  -411  -399  -399  -417  -447  -486  -521  -544  -552  -551  -543  -533  -536  -561  -597  -626  -636  -639  -658  -707  -759  -756  -687  -602  -546  -543  -571  -564  -482  -343  -176  -23  70  103  103  74  -9  -169  -398  -648  -839  -920  -917  -889  -869  -845  -800  -746  -732  -790  -897  -1020  -1184  -1414  -1603  -1571  -1226  -608  230  1353  2924  4983  7169  8730  8948  7587  5084  2364  294  -816  -1178  -1141  -989  -869  -794  -763  -799  -878  -968  -1046  -1090  -1091  -1071  -1038  -985  -921  -864  -815  -770  -745  -756  -788  -784  -685  -518  -370  -279  -232  -227  -270  -338  -393  -413  -410  -399  -367  -281  -140  20  176  332  499  656  760  807  830  859  930  1070  1255  1428  1614  1902  2292  2673  2935  3016  2911  2684  2438  2249  2140  2083  1998  1812  1521  1189  867  548  228  -56  -296  -500  -648  -717  -729  -728  -741  -756  -754  -741  -740  -754  -753  -695  -590  -505  -469]
