reading_id,reading_time,wire_id,result_classification,heart_rate,heart_rate_alert,firmware_version,device_app_version,hardware_version,waveform_samples
fc67e490-57f3-11ed-8080-808080808080,Sun Oct 30 01:41:34 UTC 2022,4101e3b01d39,NSR,68,NONE,20001.171.50,2.10.0,Charge 5,[10590  11023  11071  10431  9430  8979  9621  11274  13836  16982  19592  20606  20014  18281  15814  13296  11481  10475  9927  9796  10080  10302  10033  9306  8364  7487  6870  6511  6349  6382  6654  7213  8039  9059  10128  10951  11253  11028  10531  10028  9595  9206  8881  8564  8020  7056  5803  4637  3809  3325  3097  3055  3233  3706  4368  4981  5484  5919  6240  6413  6485  6496  6400  6124  5694  5131  4346  3425  2664  2145  1777  1596  1667  1918  2310  2917  3657  4234  4470  4399  4109  3704  3290  2881  2432  1907  1273  545  -166  -726  -1119  -1470  -1848  -2180  -2396  -2443  -2281  -1975  -1646  -1433  -1438  -1572  -1636  -1638  -1739  -1981  -2294  -2660  -3159  -3806  -4413  -4762  -4861  -4848  -4792  -4663  -4472  -4376  -4493  -4684  -4732  -4572  -4312  -4147  -4170  -4279  -4386  -4578  -5014  -5711  -6439  -6892  -6958  -6755  -6528  -6457  -6488  -6480  -6399  -6295  -6202  -6108  -5992  -5853  -5688  -5521  -5408  -5370  -5376  -5401  -5446  -5499  -5547  -5608  -5703  -5775  -5739  -5587  -5400  -5267  -5204  -5116  -4904  -4631  -4472  -4476  -4542  -4612  -4737  -4978  -5276  -5494  -5568  -5523  -5394  -5218  -5037  -4857  -4690  -4579  -4540  -4536  -4533  -4530  -4536  -4534  -4449  -4186  -3778  -3404  -3210  -3172  -3191  -3217  -3247  -3261  -3167  -2858  -2374  -1900  -1595  -1523  -1657  -1843  -1887  -1740  -1560  -1536  -1682  -1877  -2059  -2244  -2415  -2537  -2638  -2752  -2855  -2914  -2970  -3116  -3317  -3331  -2996  -2368  -1476  -256  1370  3467  5809  7786  8638  7765  5185  1781  -1174  -2865  -3406  -3460  -3483  -3580  -3732  -3852  -3891  -3857  -3744  -3581  -3450  -3402  -3385  -3239  -2847  -2296  -1794  -1434  -1200  -1119  -1214  -1407  -1567  -1653  -1736  -1834  -1880  -1870  -1846  -1785  -1607  -1225  -678  -194  56  124  133  173  326  635  1005  1274  1361  1265  1014  705  502  526  794  1183  1502  1664  1712  1720  1762  1896  2116  2352  2538  2656  2710  2706  2648  2543  2397  2225  2061  1925  1764  1458  874  -14  -975  -1654  -1932  -1975  -1982  -2020  -2035  -1971  -1875  -1817  -1800  -1793  -1786  -1779  -1776  -1783  -1801  -1824  -1847  -1866  -1871  -1822  -1680  -1495  -1390  -1427  -1538  -1603  -1562  -1458  -1370  -1337  -1368  -1460  -1591  -1718  -1827  -1912  -1992  -2096  -2204  -2260  -2209  -2005  -1679  -1352  -1113  -967  -883  -824  -753  -653  -505  -258  61  276  139  -467  -1303  -1913  -2113  -2067  -1959  -1870  -1837  -1869  -1922  -1852  -1455  -712  66  521  590  434  235  111  90  130  153  47  -269  -703  -1035  -1139  -995  -620  -152  182  302  299  304  409  627  865  1020  1095  1148  1199  1215  1177  1118  1085  1062  956  681  298  -21  -186  -235  -233  -221  -212  -213  -244  -297  -311  -245  -131  39  340  753  1104  1184  947  689  879  1687  2992  4764  6962  9218  10731  10512  8290  4997  2024  373  152  645  1079  1185  1133  1172  1273  1273  1182  1074  928  733  553  428  335  249  167  95  40  18  55  162  282  342  359  365  307  184  119  205  376  470  402  229  51  -118  -342  -660  -1020  -1316  -1485  -1557  -1589  -1548  -1321  -870  -333  127  482  789  1097  1401  1638  1761  1798  1805  1816  1822  1794  1722  1642  1575  1492  1371  1235  1135  1109  1187  1397  1684  1883  1891  1761  1649  1645  1675  1616  1470  1311  1159  1015  914  851  720  413  0  -329  -537  -728  -925  -1056  -1084  -1018  -859  -614  -322  -35  207  365  417  385  308  212  111  16  -76  -202  -365  -527  -652  -749  -842  -924  -970  -987  -1012  -1080  -1179  -1250  -1216  -1033  -752  -503  -365  -326  -339  -370  -403  -426  -448  -481  -496  -480  -486  -573  -762  -1068  -1403  -1551  -1358  -899  -428  -135  -15  28  72  134  172  134  10  -160  -306  -376  -378  -344  -312  -360  -591  -1000  -1415  -1642  -1619  -1391  -1088  -877  -817  -852  -911  -945  -906  -765  -566  -408  -354  -426  -654  -1006  -1344  -1531  -1536  -1404  -1214  -1047  -919  -801  -712  -695  -726  -713  -587  -377  -192  -105  -107  -216  -504  -951  -1393  -1683  -1807  -1810  -1708  -1533  -1365  -1265  -1221  -1196  -1180  -1190  -1232  -1284  -1293  -1213  -1022  -710  -290  94  131  -397  -1305  -1934  -1447  586  3850  7384  9943  10571  9017  5892  2478  -50  -1258  -1352  -882  -481  -509  -822  -1042  -1052  -979  -879  -718  -508  -329  -215  -140  -96  -96  -121  -121  -69  33  207  460  720  878  909  863  792  707  585  445  348  306  260  155  -18  -247  -479  -637  -700  -678  -505  -101  409  765  881  900  955  1035  1079  1112  1223  1450  1709  1857  1847  1744  1613  1499  1423  1358  1286  1269  1373  1541  1641  1570  1255  683  -9  -585  -928  -1106  -1214  -1293  -1375  -1511  -1694  -1844  -1908  -1903  -1875  -1861  -1866  -1860  -1814  -1731  -1644  -1589  -1568  -1553  -1530  -1534  -1575  -1567  -1434  -1212  -915  -467  120  654  971  1090  1111  1101  1088  1079  1079  1099  1145  1193  1201  1170  1135  1135  1232  1485  1828  2096  2205  2210  2178  2116  2004  1866  1786  1858  2138  2607  3150  3587  3764  3614  3149  2475  1795  1298  1070  1111  1314  1492  1508  1336  1084  946  1007  1199  1443  1673  1812  1821  1617  1097  412  -85  -265  -303  -390  -569  -776  -943  -1047  -1132  -1245  -1359  -1401  -1347  -1249  -1181  -1164  -1167  -1145  -1087  -1044  -1102  -1271  -1469  -1616  -1694  -1709  -1634  -1425  -1143  -928  -855  -913  -1072  -1266  -1402  -1475  -1559  -1689  -1856  -2057  -2270  -2440  -2549  -2614  -2649  -2659  -2660  -2664  -2679  -2718  -2870  -3258  -3816  -4195  -4071  -3485  -2672  -1602  30  2398  5173  7448  8164  6762  3660  178  -2313  -3198  -2717  -1625  -709  -408  -643  -1057  -1426  -1725  -1970  -2162  -2287  -2329  -2281  -2149  -1973  -1827  -1755  -1709  -1583  -1318  -972  -650  -414  -293  -281  -303  -272  -208  -182  -179  -117  50  308  581  775  869  947  1100  1337  1606  1855  2098  2378  2665  2866  2950  2977  3034  3209  3563  4003  4292  4212  3700  2983  2473  2427  2808  3359  3766  3900  3855  3765  3705  3693  3707  3695  3573  3245  2673  1969  1360  983  783  617  389  88  -254  -586  -858  -1067  -1236  -1383  -1536  -1725  -1924  -2060  -2116  -2146  -2186  -2214  -2185  -2087  -1988  -1998  -2142  -2335  -2484  -2540  -2466  -2254  -1961  -1697  -1536  -1451  -1373  -1251  -1027  -626  -89  391  678  787  803  783  737  648  521  389  267  131  -30  -173  -258  -265  -152  107  423  638  709  724  776  893  1028  1112  1119  1060  961  821  611  365  162  -6  -214  -450  -625  -690  -647  -502  -283  -66  74  131  145  154  195  283  377  448  516  556  515  411  233  -82  -475  -779  -919  -912  -776  -546  -293  -86  41  95  56  -169  -651  -1298  -1849  -1971  -1445  -351  943  2187  3462  4876  6351  7617  8061  7070  4730  1866  -459  -1516  -1350  -635  -97  -153  -708  -1273  -1532  -1563  -1507  -1394  -1249  -1145  -1124  -1167  -1220  -1240  -1216  -1160  -1089  -1037  -1021  -1027  -1023  -975  -851  -629  -352  -137  -76  -162  -305  -408  -449  -462  -470  -463  -422  -352  -288  -254  -228  -168  -36  180  434  633  734  789  926  1237  1659  2022  2224  2282  2246  2141  2002  1910  1970  2239  2623  2912  2962  2739  2301  1822  1485  1321  1219  1081  897  707  539  393  241  19  -342  -819  -1267  -1549  -1673  -1708  -1669  -1558  -1435  -1361  -1338  -1301  -1183  -1004  -851  -760  -705  -661  -606  -513  -414  -411  -570  -805  -958  -977  -936  -892  -848  -817  -850  -980  -1171  -1369  -1560  -1721  -1759  -1593  -1248  -842  -513  -370  -439  -639  -856  -1055  -1236  -1343  -1331  -1220  -1037  -829  -668  -588  -605  -783  -1154  -1585  -1872  -1963  -1944  -1876  -1769  -1671  -1657  -1728  -1817  -1878  -1889  -1852  -1794  -1747  -1717  -1691  -1666  -1651  -1644  -1655  -1680  -1682  -1649  -1603  -1536  -1422  -1286  -1215  -1264  -1394  -1521  -1592  -1617  -1625  -1620  -1558  -1395  -1168  -991  -924  -937  -968  -958  -840  -604  -343  -184  -184  -314  -490  -618  -663  -659  -640  -612  -575  -531  -486  -459  -523  -771  -1213  -1677  -1906  -1723  -1015  288  2109  4179  6235  8098  9478  9860  8826  6548  3756  1302  -145  -377  185  888  1325  1299  737  -125  -898  -1368  -1474  -1188  -660  -195  55  156  196  200  138  -35  -308  -572  -714  -708  -597  -442  -285  -146  -31  53  115  144  113  13  -138  -251  -204  -14  169  266  294  259  149  18  7  225  599  942  1141  1212  1257  1384  1630  1951  2298  2620  2846  2942  2952  2937  2929  2947  3001  3076  3131  3150  3141  3097  2956  2631  2125  1532  961  523  296  245  274  316  322  242  69  -128  -282  -388  -483  -588  -692  -756  -705  -484  -148  149  307  335  281  175  58  -22  -55  -52  0  120  246  250  79  -186  -413  -524  -509  -396  -246  -129  -74  -55  -55  -92  -192  -325  -405  -363  -211  -28  106  162  142  84  61  70  6  -151  -306  -400  -437  -442  -461  -538  -655  -735  -722  -626  -516  -457  -460  -495  -535  -569  -594  -622  -662  -703  -724  -719  -699  -686  -708  -792  -920  -1031  -1078  -1066  -1031  -999  -979  -982  -1043  -1187  -1365  -1489  -1518  -1465  -1363  -1256  -1196  -1237  -1411  -1658  -1841  -1844  -1626  -1258  -910  -705  -630  -614  -626  -688  -815  -960  -1070  -1131  -1121  -1037  -951  -940  -1042  -1232  -1422  -1529  -1534  -1466  -1365  -1278  -1254  -1344  -1558  -1744  -1646  -1121  -277  613  1390  2266  3702  5789  7853  8872  8178  5784  2451  -532  -2131  -2266  -1627  -913  -480  -420  -600  -818  -980  -1084  -1189  -1368  -1576  -1684  -1656  -1558  -1440  -1311  -1188  -1076  -963  -830  -657  -444  -251  -144  -121  -135  -156  -177  -182  -140  -34  73  98  58  42  78  160  292  446  582  717  897  1124  1343  1490  1548  1553  1545  1539  1533  1533  1558  1636  1782  1953  2081  2159  2245  2379  2540  2698  2870  3081  3263  3293  3151  2887  2488  1974  1480  1120  914  836  835  856  833  693  420  111  -87  -113  -6  156  311  431  485  372  -1  -534  -951  -1098  -1021  -827  -621  -488  -443  -447  -461  -452  -415  -384  -416  -545  -731  -877  -928  -872  -702  -478  -318  -304  -427  -619  -819  -1020  -1209  -1330  -1374  -1403  -1446  -1454  -1383  -1274  -1194  -1162  -1163  -1172  -1170  -1138  -1084  -1056  -1088  -1144  -1149  -1047  -843  -623  -484  -443  -455  -479  -492  -459  -378  -295  -244  -212  -173  -118  -61  -26  -47  -150  -306  -441  -498  -484  -434  -350  -209  -43  74  114  95  41  -41  -155  -302  -466  -609  -691  -721  -741  -780  -817  -815  -776  -753  -817  -1031  -1405  -1920  -2578  -3191  -3239  -2335  -690  1120  2674  4030  5510  7122  8356  8476  7047  4394  1507  -580  -1435  -1423  -1205  -1178  -1436  -1775  -1859  -1698  -1554  -1507  -1476  -1403  -1306  -1238  -1216  -1208  -1175  -1100  -1031  -1042  -1136  -1221  -1216  -1115  -991  -925  -919  -900  -824  -732  -682  -646  -578  -516  -502  -525  -534  -445  -188  170  458  579  572  500  404  319  308  491  936  1489  1869  1985  1969  1968  2052  2199  2340  2430  2466  2464  2440  2413  2393  2375  2334  2233  2041  1763  1448  1179  1001  877  746  588  380  106  -199  -459  -630  -744  -831  -870  -855  -834  -847  -884  -906  -874  -780  -657  -554  -490  -463  -459  -459  -438  -377  -275  -158  -54  11  36  42  39  -6  -132  -305  -432  -466  -430  -372  -332  -356  -477  -665  -830  -895  -837  -669  -451  -258  -124  -40  2  4  -38  -108  -171  -210  -228  -244  -290  -400  -582  -774  -892  -920  -899  -879  -906  -1017  -1195  -1379  -1513  -1579  -1572  -1499  -1383  -1260  -1154  -1071  -1019  -999  -998  -1009  -1042  -1097  -1153  -1190  -1208  -1214  -1218  -1232  -1260  -1289  -1306  -1307  -1290  -1250  -1191  -1125  -1068  -1050  -1089  -1152  -1179  -1134  -1017  -877  -783  -781  -881  -1055  -1224  -1328  -1373  -1393  -1398  -1366  -1264  -1097  -904  -741  -678  -746  -866  -931  -877  -687  -433  -237  -112  27  200  313  273  99  -23  146  687  1544  2734  4334  6322  8508  10366  10995  9760  6910  3458  641  -758  -844  -313  161  262  64  -166  -283  -314  -313  -321  -411  -651  -981  -1215  -1205  -942  -578  -320  -230  -208  -130  75  387  682  837  811  636  407  246  192  192  197  200  230  306  403  469  494  535  636  767  853  863  841  879  1062  1363  1609  1653  1540  1431  1422  1496  1627  1828  2081  2291  2410  2531  2764  3065  3279  3311  3160  2873  2517  2147  1814  1529  1222  853  493  239  126  121  157  162  57  -210  -601  -1003  -1327  -1540  -1618  -1562  -1436  -1330  -1286  -1293  -1329  -1354  -1290  -1069  -750  -487  -380  -457  -714  -1050  -1288  -1335  -1235  -1091  -989  -951  -952  -963  -956  -900  -791  -656  -530  -452  -444  -525  -707  -941  -1109  -1137  -1035  -859  -671  -521  -434  -408  -438  -538  -701  -868  -965  -977  -951  -923  -919  -957  -1003  -993  -896  -748  -608  -481  -362  -283  -269  -312  -377  -425  -440  -434  -433  -469  -569  -750  -993  -1234  -1411  -1492  -1480  -1386  -1245  -1109  -1015  -971  -959  -942  -883  -779  -651  -537  -463  -435  -468  -607  -853  -1124  -1343  -1512  -1657  -1769  -1855  -1949  -2052  -2095  -1960  -1599  -1148  -836  -748  -817  -984  -1217  -1431  -1507  -1433  -1290  -1122  -950  -823  -762  -734  -719  -730  -791  -910  -1073  -1237  -1349  -1391  -1389  -1365  -1302  -1199  -1112  -1092  -1090  -940  -513  67  489  602  628  1106  2587  5156  8192  10548  11008  9021  5265  1282  -1467  -2266  -1411  -3  896  1006  719  464  355  306  275  297  376  446  465  448  430  431  470  550  627  634  576  548  628  784  934  1041  1088  1040  867  633  457  389  381  396  456  600  796  964  1079  1186  1306  1408  1467  1483  1474  1456  1440  1435  1471  1604  1886  2297  2731  3060  3218  3241  3223  3224  3244  3268  3300  3343  3332  3111  2561  1781  1057  594  387  331  317  202  -150  -706  -1218  -1483  -1524  -1471  -1409  -1385  -1411  -1452  -1478  -1505  -1572  -1670  -1734  -1723  -1677  -1637  -1600  -1558  -1556  -1665  -1908  -2193  -2366  -2304  -1978  -1533  -1214  -1127  -1193  -1296  -1359  -1354  -1284  -1187  -1117  -1095  -1115  -1170  -1239  -1281  -1232  -1055  -811  -630  -561  -559  -571  -573  -553  -517  -500  -531  -605  -687  -759  -824  -876  -897  -849  -707  -521  -390  -347  -338  -305  -250  -204  -175  -136  -84  -41  -30  -59  -137  -263  -405  -507  -519  -401  -126  226  486  575  545  453  321  147  -69  -283  -415  -448  -429  -407  -417  -495  -649  -837  -1000  -1104  -1170  -1210  -1143  -841  -206  832  2332  4212  6176  7804  8616  8131  6266  3610  967  -1054  -2050  -2074  -1711  -1445  -1314  -1225  -1150  -1083  -1030  -998  -985  -988  -1006  -1039  -1073  -1080  -1019  -862  -643  -470  -441  -520  -596  -638  -657  -650  -630  -629  -644  -623  -477  -178  159  367  363  165  -125  -383  -526  -467  -138  349  771  1013  1097  1082  1022  973  978  1031  1092  1162  1278  1456  1656  1824  1978  2178  2427  2673  2868  2979  2977  2832  2536  2103  1575  1044  620  351  198  81  -48  -180  -296  -400  -511  -654  -847  -1094  -1326  -1421  -1331  -1145  -1002  -958  -967  -973  -964  -949  -934  -919  -908  -911  -934  -980  -1036  -1084  -1102  -1082  -1044  -1013  -980  -903  -766  -613  -484  -397  -352  -328  -293  -243  -204  -181  -143  -69  9  34  -13  -107  -211  -280  -279  -226  -171  -140  -131  -133  -143  -166  -205  -253  -302  -327  -326  -343  -401  -469  -526  -577  -617  -646  -670  -681  -670  -648  -621  -580  -527  -474  -417  -344  -274  -242  -267  -341  -444  -564  -675  -750  -791  -821  -833  -811  -776  -754  -734  -693  -635  -591  -576  -575  -550  -477  -384  -352  -430  -566  -670  -726  -783  -860  -922  -946  -948  -969  -1055  -1215  -1410  -1614  -1817  -1907  -1694  -1110  -297  555  1424  2552  4259  6428  8359  9221  8483  6240  3329  844  -566  -953  -780  -527  -449  -550  -722  -861  -917  -892  -808  -707  -639  -617  -623  -642  -667  -695  -727  -767  -802  -778  -644  -427  -205  -42  41  85  165  301  439  515  520  479  416  351  293  252  245  277  331  390  468  579  714  855  973  1064  1160  1272  1371  1456  1588  1832  2182  2522  2745  2845  2869  2856  2839  2827  2800  2746  2683  2629  2523  2255  1814  1362  1083  995  994  957  753  327  -170  -502  -602  -581  -540  -516  -527  -573  -632  -693  -750  -772  -730  -631  -525  -460  -444  -470  -533  -611  -667  -685  -681  -675  -675  -683  -692  -679  -616  -500  -380  -304  -269  -249  -236  -231  -235  -251  -313  -453  -636  -769  -814  -809  -797  -786  -767  -743  -725  -718  -717  -718  -721  -736  -763  -794  -821  -826  -773  -629  -450  -366  -460  -678  -883  -981  -955  -830  -662  -525  -453  -441  -462  -470  -441  -399  -368  -353  -374  -476  -674  -884  -975  -893  -716  -567  -498  -475  -458  -444  -439  -446  -471  -542  -687  -875  -1012  -1011  -820  -473  -135  2  -104  -333  -516  -585  -578  -554  -537  -522  -476  -375  -252  -163  -121  -84  -25  37  46  -77  -366  -719  -961  -1037  -1022  -997  -987  -994  -1006  -997  -936  -825  -688  -541  -412  -365  -479  -798  -1265  -1683  -1706  -1077  41  1220  2289  3567  5456  7748  9478  9558  7556  4093  637  -1359  -1499  -570  287  373  -217  -851  -1093  -998  -798  -666  -675  -820  -1024  -1177  -1220  -1151  -980  -759  -583  -505  -499  -517  -528  -514  -465  -397  -343  -320  -320  -329  -340  -330  -269  -143  17  158  245  282  285  253  179  87  30  45  161  397  706  996  1220  1401  1568  1721  1866  2019  2177  2313  2386  2402  2419  2496  2633  2772  2858  2875  2797  2583  2239  1861  1569  1404  1264  993  578  181  -61  -193  -333  -509  -656  -740  -782  -803  -810  -818  -840  -874  -892  -862  -770  -638  -506  -404  -351  -356  -428  -547  -660  -721  -733  -723  -716  -723  -748  -779  -799  -818  -869  -966  -1060  -1091  -1062  -1013  -979  -990  -1045  -1098  -1118  -1110  -1091  -1070  -1053  -1043  -1038  -1037  -1039  -1055  -1087  -1122  -1134  -1119  -1092  -1077  -1076  -1079  -1080  -1095  -1139  -1201  -1251  -1271  -1254  -1196  -1104  -997  -887  -801  -762  -758  -789  -888  -1055  -1215  -1293  -1279  -1176  -963  -634  -271  -35  -32  -254  -575  -822  -918  -910  -856  -782  -693  -594  -498  -439  -424  -432  -431  -397  -310  -170  -11  118  184  166  51  -146  -381  -587  -700  -717  -690  -660  -644  -673  -804  -1046  -1280  -1281  -946  -497  -194  37  517  1599  3490  5956  8260  9464  8899  6584  3357  437  -1279  -1592  -958  -127  331  260  -145  -562  -806  -887  -890  -875  -864  -852  -821  -775  -748  -750  -709  -556  -297  18  317  497  490  310  61  -121  -181  -142  -32  106  197  184  65  -79  -144  -73  165  557  946  1160  1192  1147  1101  1076  1069  1084  1143  1258  1439  1684  1934  2105  2172  2174  2160  2165  2200  2274  2417  2621  2760  2728  2588  2467  2406  2309  2019  1510  982  646  521  484  430  319  136  -121  -393  -587  -696  -787  -890  -972  -1008  -1009  -1007  -1040  -1129  -1250  -1346  -1384  -1358  -1239  -1019  -766  -588  -522  -530  -569  -618  -673  -733  -784  -811  -818  -810  -767  -671  -554  -483  -495  -577  -678  -757  -801  -820  -833  -852  -860  -787  -571  -280  -81  -49  -114  -205  -335  -520  -698  -780  -751  -680  -644  -661  -707  -767  -838  -908  -965  -976  -904  -758  -590  -494  -551  -706  -816  -831  -804  -786  -785  -795  -807  -822  -845  -874  -874  -782  -599  -416  -316  -345  -509  -716  -842  -855  -813  -778  -772  -783  -790  -772  -726  -670  -623  -586  -559  -547  -542  -530  -501  -449  -373  -278  -183  -107  -49  -7  19  33  36  13  -62  -186  -318  -415  -461  -487  -559  -716  -914  -1067  -1138  -1153  -1153  -1180  -1264  -1355  -1295  -967  -393  377  1407  2923  5107  7676  9785  10438  9145  6302  2953  209  -1277  -1534  -1110  -638  -430  -412  -409  -397  -423  -470  -527  -622  -740  -822  -855  -901  -1015  -1155  -1211  -1149  -1030  -915  -818  -737  -671  -624  -603  -610  -641  -674  -664  -584  -443  -276  -138  -68  -45  -9  87  259  454  592  659  705  760  805  823  822  818  823  854  939  1113  1374  1694  2055  2422  2738  2985  3171  3287  3310  3227  3035  2766  2498  2233  1878  1426  1021  760  596  450  312  209  135  46  -92  -272  -436  -523  -526  -481  -425  -392  -394  -412  -427  -433  -434  -434  -449  -494  -554  -599  -616  -620  -620  -606  -556  -472  -385  -327  -309  -333  -403  -503  -592  -627  -589  -498  -402  -342  -334  -384  -499  -661  -816  -910  -924  -883  -837  -821  -826  -814  -769  -701  -627  -567  -521  -486  -483  -542  -663  -822  -980  -1086  -1133  -1158  -1178  -1174  -1117  -1022  -971  -1020  -1098  -1083  -923  -688  -504  -432  -448  -526  -661  -838  -1000  -1066  -992  -839  -714  -674  -695  -729  -756  -783  -824  -878  -907  -869  -771  -651  -545  -476  -429  -381  -339  -328  -360  -426  -504  -589  -700  -833  -935  -971  -938  -855  -787  -789  -837  -875  -889  -890  -888  -892  -901  -898  -881  -894  -1037  -1363  -1714  -1822  -1587  -1082  -307  879  2623  4895  7287  8994  9218  7687  4921  2009  -45  -897  -889  -656  -635  -828  -982  -976  -930  -961  -1047  -1141  -1230  -1287  -1272  -1151  -952  -761  -646  -596  -558  -479  -351  -221  -139  -118  -142  -181  -207  -197  -124  15  169  269  306  314  318  312  297  303  333  359  363  359  378  439  535  663  852  1109  1364  1548  1674  1820  2042  2294  2473  2544  2577  2632  2695  2737  2759  2773  2764  2658  2389  2005  1670  1499  1455  1425  1294  953  399  -175  -531  -636  -641  -669  -749  -874  -1033  -1182  -1254  -1217  -1117  -1031  -988  -966  -946  -926  -904  -883  -871  -869  -877  -901  -938  -966  -956  -878  -727  -529  -343  -246  -291  -441  -581  -632  -613  -586  -585  -606  -626  -640  -680  -767  -838  -796  -648  -502  -419  -383  -366  -361  -374  -431  -563  -754  -905  -920  -807  -668  -592  -596  -643  -708  -783  -857  -920  -971  -999  -981  -911  -818  -745  -706  -659  -568  -451  -338  -246  -185  -168  -231  -409  -642  -789  -785  -692  -604  -536  -449  -341  -260  -228  -222  -229  -276  -391  -565  -748  -885  -949  -950  -930  -951  -1072  -1285  -1527  -1765  -1827  -1370  -350  968  2515  4412  6609  8694  9900  9494  7415  4389  1410  -718  -1657  -1677  -1332  -986  -816  -896  -1099  -1236  -1266  -1228  -1142  -1037  -958  -931  -955  -1028  -1124  -1180  -1145  -1000  -761  -520  -427  -556  -790  -915  -826  -612  -437  -375  -410  -520  -668  -783  -789  -620  -269  134  415  523  533  520  492  434  369  354  423  544  680  852  1084  1349  1592  1769  1858  1883  1909  2008  2220  2500  2769  2985  3057  2856  2458  2130  2001  1950  1775  1342  726  183  -118  -227  -255  -263  -268  -275  -288  -308  -331  -373  -464  -591  -697  -747  -753  -733  -716  -728  -753  -759  -751  -766  -847  -967  -1030  -968  -824  -686  -599  -570  -640  -854  -1148  -1359  -1374  -1199  -940  -726  -611  -562  -538  -541  -593  -687  -798  -904  -988  -1037  -1047  -1021  -959  -863  -750  -648  -598  -614  -647  -655  -648  -645  -652  -666  -686  -713  -728  -701  -632  -550  -483  -438  -418  -445  -541  -671  -762  -775  -736  -689  -651  -614  -583  -572  -575  -584  -591  -596  -593  -576  -550  -529  -523  -526  -532  -528  -489  -403  -317  -316  -409  -525  -604  -638  -640  -622  -578  -499  -391  -282  -188  -137  -194  -379  -623  -845  -996  -1050  -963  -698  -336  -45  82  17  -325  -969  -1696  -2171  -2254  -1984  -1355  -378  872  2505  4724  7295  9371  10018  8845  6207  3071  587  -610  -783  -625  -525  -547  -709  -918  -1040  -1058  -1024  -984  -956  -913  -831  -719  -597  -458  -307  -203  -183  -209  -235  -243  -217  -142  -43  29  57  65  75  88  96  96  86  79  100  161  230  276  324  398  490  597  723  862  1027  1217  1373  1446  1474  1534  1660  1822  1956  2025  2037  2027  2022  2047  2137  2340  2650  2953  3134  3200  3218  3199  3080  2775  2257  1623  1056  665  396  155  -67  -249  -410  -599  -832  -1076  -1240  -1226  -1064  -888  -765  -683  -638  -632  -649  -668  -676  -666  -647  -642  -684  -796  -943  -1066  -1157  -1233  -1261  -1173  -955  -738  -696  -819  -943  -981  -962  -928  -893  -854  -813  -755  -651  -531  -484  -532  -625  -729  -821  -876  -898  -904  -908  -912  -915  -918  -919  -912  -889  -850  -809  -776  -765  -791  -860  -945  -999  -981  -876  -727  -611  -566  -585  -651  -737  -806  -835  -837  -832  -814  -786  -780  -804  -830  -839  -800  -699  -581  -494  -439  -384  -314  -237  -185  -211  -347  -525  -613  -571  -511  -535  -625  -738  -873  -1005  -1064  -991  -784  -516  -277  -114  -25  14  34  45  35  -9  -110  -286  -512  -728  -882  -964  -985  -956  -899  -841  -761  -614  -426  -293  -271  -336  -423  -477  -487  -484  -503  -579  -722  -885  -989  -1012  -1015  -1099  -1333  -1639  -1748  -1382  -457  933  2666  4716  7003  9001  9821  8902  6440  3301  639  -772  -979  -585  -237  -260  -522  -739  -830  -847  -837  -820  -798  -763  -711  -648  -588  -541  -511  -503  -511  -515  -472  -346  -179  -72  -77  -149  -217  -243  -208  -102  38  134  128  36  -67  -108  -74  32  226  488  735  886  961  1063  1245  1444  1565  1591  1565  1538  1542  1600  1726  1921  2158  2375  2508  2558  2564  2555  2538  2512  2490  2477  2461  2405  2239  1919  1533  1222  1013  829  616  370  113  -139  -373  -568  -727  -883  -1039  -1161  -1208  -1170  -1075  -962  -830  -684  -572  -534  -577  -694  -827  -901  -903  -885  -893  -950  -1036  -1110  -1155  -1166  -1101  -914  -651  -435  -330  -320  -433  -727  -1120  -1403  -1450  -1298  -1068  -889  -810  -803  -840  -921  -1036  -1148  -1208  -1158  -976  -742  -573  -508  -512  -577  -723  -910  -1050  -1100  -1080  -1002  -875  -744  -649  -602  -603  -628  -638  -649  -691  -748  -798  -832  -848  -849  -825  -761  -682  -636  -629  -630  -624  -612  -595  -575  -561  -563  -590  -633  -672  -698  -715  -726  -731  -721  -690  -651  -652  -721  -813  -885  -924  -897  -791  -642  -460  -235  -10  135  177  155  103  42  -27  -134  -296  -466  -574  -605  -595  -563  -515  -483  -573  -844  -1052  -794  -15  1023  2183  3557  5336  7477  9304  9731  8180  5124  1712  -856  -1980  -1946  -1416  -931  -777  -848  -866  -792  -738  -721  -691  -632  -558  -482  -397  -303  -234  -245  -365  -539  -677  -735  -732  -700  -650  -580  -487  -375  -256  -140  -44  14  46  81  132  201  307  453  592  670  683  663  661  746  967  1244  1402  1356  1190  1041  986  1064  1306  1639  1922  2114  2277  2444  2591  2683  2711  2705  2703  2719  2748  2774  2737  2518  2036  1388  772  272  -129  -434  -611  -672  -676  -675  -670  -618  -496  -369  -326  -376  -497  -692  -929  -1130  -1231  -1219  -1111  -957  -820  -730  -684  -674  -682  -696  -730  -772  -781  -734  -636  -518  -431  -392  -380  -373  -383  -444  -569  -724  -859  -958  -1031  -1083  -1117  -1141  -1158  -1152  -1091  -952  -776  -650  -616  -644  -688  -716  -702  -633  -533  -448  -405  -407  -473  -621  -802  -924  -943  -881  -794  -731  -701  -689  -689  -713  -776  -862  -913  -892  -842  -814  -796  -757  -712  -715  -771  -833  -866  -869  -827  -722  -593  -514  -503  -509  -491  -458  -463  -550  -716  -886  -966  -948  -903  -884  -881  -823  -631  -322  -33  123  163  144  58  -147  -443  -707  -866  -934  -958  -1000  -1107  -1253  -1358  -1388  -1378  -1372  -1375  -1345  -1212  -976  -806  -860  -999  -937  -534  325  1805  3883  6296  8544  9818  9328  7019  3774  820  -935  -1275  -734  -181  -100  -348  -576  -649  -623  -558  -462  -357  -324  -430  -628  -793  -850  -831  -803  -800  -812  -818  -807  -773  -712  -615  -475  -335  -280  -323  -359  -281  -96  108  242  271  237  198  181  186  225  333  505  678  795  864  928  1020  1138  1285  1501  1762  1964  2074  2163  2271  2362  2405  2420  2436  2459  2478  2483  2479  2472  2480  2518  2594  2682  2704  2494  1924  1153  548  278  225  216  146  -32  -282  -508  -660  -740  -750  -709  -655  -604  -556  -509  -455  -398  -358  -346  -351  -356  -347  -317  -284  -299  -398  -544  -653  -693  -693  -681  -662  -644  -658  -718  -758  -715  -621  -541  -502  -507  -546  -612  -702  -764  -753  -694  -645  -623  -603  -546  -459  -426  -498  -610  -689  -732  -751  -743  -706  -619  -465  -294  -185  -171  -226  -311  -405  -515  -635  -718  -719  -623  -465  -322  -249  -238  -253  -275  -298  -313  -318  -316  -309  -300  -305  -353  -451  -557  -615  -617  -594  -579  -570  -542  -481  -440  -494  -631  -758  -820  -833  -833  -842  -875  -929  -987  -1016  -1004  -956  -880  -789  -707  -646  -614  -639  -720  -812  -886  -943  -994  -1040  -1059  -1040  -1010  -1004  -1045  -1155  -1322  -1483  -1566  -1535  -1387  -1185  -1032  -979  -1012  -1109  -1241  -1358  -1439  -1501  -1564  -1600  -1572  -1451  -1097  -206  1425  3671  6137  8136  8771  7578  4969  1900  -608  -1864  -1905  -1392  -966  -810  -827  -939  -1106  -1257  -1336  -1342  -1272  -1113  -907  -733  -626  -589  -642  -745  -769  -620  -360  -140  -30  9  34  54  55  41  31  29  31  38  74  175  352  550  689  737  726  712  763  919  1146  1355  1492  1558  1582  1593  1593  1591  1635  1778  2013  2286  2562  2807  2973  3058  3106  3147  3181  3191  3148  3029  2839  2616  2404  2223  2038  1777  1411  1018  708  506  345  155  -72  -292  -453  -540  -567  -550  -497  -426  -370  -350  -381  -475  -603  -696  -707  -635  -520  -429  -399  -396  -390  -377  -363  -347  -312  -265  -246  -267  -308  -350  -371  -365  -357  -371  -405  -441  -472  -510  -559  -626  -720  -829  -920  -991  -1047  -1057  -984  -867  -811  -862  -954  -1007  -995  -942  -883  -835  -778  -690  -587  -508  -479  -529  -682  -902  -1096  -1206  -1239  -1212  -1132  -1031  -957  -931  -941  -970  -1001  -1018  -1010  -980  -921  -815  -691  -633  -686  -800  -888  -906  -870  -824  -803  -811  -830  -839  -831  -825  -826  -809  -749  -631  -443  -230  -84  -59  -141  -305  -545  -847  -1129  -1291  -1329  -1306  -1271  -1239  -1218  -1232  -1304  -1370  -1231  -695  302  1809  3845  6180  8249  9381  9135  7489  4935  2302  261  -904  -1314  -1395  -1434  -1400  -1278  -1167  -1097  -1005  -839  -634  -481  -427  -451  -526  -614  -674  -702  -727  -762  -784  -771  -722  -660  -613  -588  -584  -596  -613  -624  -610  -514  -272  53  300  388  379  355  365  426  518  593  627  627  610  592  597  650  760  920  1115  1321  1540  1786  2039  2256  2410  2520  2610  2669  2662  2575  2440  2334  2296  2291  2235  2040  1683  1252  864  563  320  103  -84  -238  -362  -451  -491  -489  -482  -524  -665  -918  -1205  -1378  -1347  -1142  -886  -714  -683  -766  -892  -979  -995  -963  -923  -894  -872  -860  -855  -840  -815  -802  -818  -852  -876  -889  -903  -909  -891  -854  -820  -802  -795  -794  -799  -818  -850  -864  -819  -701  -547  -425  -368  -351  -341  -338  -387  -530  -725  -871  -927  -924  -889  -815  -711  -609  -525  -456  -413  -401  -404  -409  -410  -403  -393  -394  -440  -553  -705  -829  -886  -893  -884  -878  -878  -881  -881  -862  -788  -643  -469  -343  -325  -425  -596  -763  -863  -868  -805  -737  -690  -656  -618  -579  -562  -594  -668  -739  -748  -646  -452  -253  -138  -150  -283  -479  -655  -777  -852  -887  -898  -927  -989  -1042  -1051  -1033  -1010  -986  -993  -1091  -1306  -1488  -1374  -846  99  1549  3550  5950  8341  9964  9985  8134  5013  1790  -413  -1156  -883  -375  -94  -128  -343  -527  -599  -614  -617  -611  -596  -581  -573  -564  -545  -525  -523  -546  -587  -630  -651  -613  -472  -240  5  191  288  320  319  281  180  41  -68  -119  -121  -56  109  336  513  582  572  534  496  489  577  817  1147  1432  1632  1773  1843  1860  1943  2202  2566  2835  2913  2865  2786  2731  2710  2703  2691  2673  2643  2574  2431  2213  1956  1686  1379  1040  749  561  449  368  278  96  -272  -762  -1148  -1285  -1201  -1005  -816  -712  -690  -683  -612  -464  -338  -326  -388  -434  -441  -437  -449  -485  -522  -532  -522  -520  -543  -580  -605  -596  -551  -502  -482  -486  -496  -528  -611  -714  -756  -717  -659  -635  -642  -648  -618  -534  -443  -441  -574  -807  -1053  -1220  -1240  -1076  -737  -355  -121  -148  -428  -815  -1087  -1123  -952  -695  -482  -369  -341  -362  -413  -500  -652  -858  -1050  -1174  -1229  -1225  -1137  -939  -689  -507  -460  -523  -648  -784  -865  -811  -579  -255  -22  10  -136  -359  -534  -605  -602  -578  -565  -601  -714  -867  -975  -1002  -985  -962  -931  -882  -827  -773  -703  -631  -586  -570  -561  -537  -478  -387  -294  -236  -213  -200  -202  -273  -463  -723  -929  -1023  -1030  -993  -953  -949  -1008  -1127  -1255  -1313  -1250  -1102  -1014  -1058  -1114  -991  -440  821  2879  5427  7809  9293  9339  7776  5049  2067  -348  -1772  -2199  -1962  -1501  -1142  -1014  -1060  -1126  -1130  -1115  -1137  -1213  -1351  -1542  -1721  -1810  -1732  -1453  -1074  -790  -683  -691  -728  -735  -674  -543  -384  -247  -142  -57  20  72  58  8  15  119  306  527  696  778  812  834  866  935  1055  1205  1344  1465  1600  1771  1945  2102  2267  2437  2555  2597  2620  2693  2824  2969  3055  3053  3019  3014  3034  3026  2919  2680  2375  2079  1765  1418  1114  882  656  359  -6  -327  -497  -530  -510  -495  -500  -541  -642  -792  -940  -1042  -1086  -1091  -1088  -1100  -1109  -1044  -839  -543  -307  -212  -213  -241  -263  -269  -240  -160  -67  -74  -273  -604  -894  -1049  -1090  -1031  -850  -577  -316  -155  -113  -167  -290  -439  -584  -708  -785  -790  -736  -662  -588  -501  -405  -335  -330  -420  -603  -818  -993  -1107  -1185  -1234  -1253  -1249  -1230  -1190  -1109  -1002  -912  -850  -803  -774  -768  -780  -798  -814  -821  -807  -758  -683  -633  -693  -917  -1228  -1468  -1575  -1594  -1555  -1426  -1196  -958  -839  -840  -870  -886  -903  -945  -998  -1022  -1005  -986  -1003  -1043  -1076  -1081  -1056  -1009  -958  -919  -899  -894  -896  -898  -899  -902  -917  -974  -1112  -1300  -1438  -1432  -1251  -962  -700  -578  -652  -931  -1263  -1380  -1136  -543  384  1707  3506  5719  7935  9343  9122  7116  4051  1032  -988  -1571  -1039  -221  246  247  -40  -400  -657  -740  -685  -557  -414  -295  -205  -137  -102  -111  -170  -253  -315  -308  -202  -16  184  340  450  530  560  519  425  316  269  343  467  536  546  537  528  520  507  510  576  752  1039  1346  1554  1625  1631  1675  1809  1981  2118  2224  2345  2500  2661  2764  2791  2796  2820  2825  2752  2635  2548  2510  2474  2368  2161  1832  1370  872  503  293  145  -24  -225  -410  -524  -572  -596  -604  -584  -553  -543  -572  -642  -748  -884  -1015  -1081  -1058  -984  -888  -756  -606  -493  -449  -471  -550  -651  -724  -750  -751  -748  -753  -770  -800  -832  -854  -870  -892  -926  -967  -990  -973  -916  -832  -731  -633  -573  -580  -658  -768  -853  -890  -890  -868  -831  -812  -870  -985  -1052  -1043  -1024  -1053  -1141  -1249  -1348  -1440  -1472  -1330  -981  -568  -289  -209  -294  -516  -778  -899  -780  -516  -291  -202  -262  -460  -736  -950  -993  -902  -785  -699  -645  -630  -668  -750  -835  -886  -907  -927  -946  -943  -915  -906  -939  -947  -840  -623  -406  -288  -272  -317  -383  -434  -451  -450  -459  -487  -521  -555  -602  -673  -761  -844  -894  -909  -919  -950  -990  -1007  -984  -913  -814  -773  -869  -1041  -1034  -510  741  2752  5298  7747  9299  9397  7902  5212  2207  -128  -1240  -1304  -939  -674  -663  -740  -741  -697  -687  -703  -711  -710  -737  -821  -932  -984  -914  -745  -550  -396  -309  -277  -272  -272  -275  -273  -262  -249  -238  -221  -184  -124  -51  11  54  102  178  246  281  311  351  407  515  692  903  1095  1253  1420  1612  1778  1888  1961  2012  2060  2128  2202  2240  2252  2334  2565  2882  3114  3166  3071  2900  2733  2627  2592  2567  2429  2038  1381  662  128  -169  -339  -455  -533  -606  -713  -848  -965  -1034  -1067  -1084  -1077  -1018  -898  -739  -573  -440  -382  -412  -495  -609  -774  -977  -1135  -1173  -1106  -1011  -925  -826  -727  -687  -729  -821  -902  -929  -855  -642  -353  -148  -157  -391  -725  -960  -980  -801  -544  -358  -329  -462  -705  -950  -1098  -1144  -1144  -1140  -1139  -1128  -1091  -1033  -977  -935  -895  -836  -741  -605  -464  -382  -383  -427  -464  -494  -539  -601  -649  -670  -675  -683  -710  -770  -844  -890  -878  -805  -688  -566  -488  -465  -471  -477  -475  -467  -456  -441  -430  -433  -447  -451  -400  -254  -53  98  125  15  -196  -406  -494  -426  -278  -153  -97  -113  -201  -339  -466  -533  -541  -508  -443  -351  -243  -128  -31  6  -58  -229  -440  -597  -663  -668  -650  -613  -560  -536  -646  -988  -1523  -2024  -2171  -1804  -1095  -306  469  1323  2539  4433  6911  9218  10281  9420  6868  3640  926  -578  -1059  -1191  -1346  -1474  -1450  -1270  -1092  -1043  -1079  -1116  -1136  -1151  -1167  -1173  -1147  -1064  -947  -852  -810  -803  -793  -756  -696  -641  -597  -553  -498  -423  -341  -286  -251  -177  -39  115  230  302  356  395  410  411  423  467  531  586  625  668  765  966  1225  1411  1469  1463  1477  1554  1700  1888  2089  2324  2633  2966  3189  3201  2997  2666  2364  2180  2079  1990  1881  1728  1474  1095  694  430  300  135  -176  -559  -847  -970  -976  -917  -799  -654  -551  -515  -520  -542  -580  -637  -699  -742  -760  -772  -803  -852  -883  -860  -776  -670  -600  -585  -597  -589  -529  -434  -363  -345  -357  -368  -389  -451  -564  -689  -785  -842  -867  -868  -854  -833  -807  -777  -733  -675  -629  -614  -619  -629  -644  -680  -748  -835  -908  -948  -960  -963  -969  -977  -981  -982  -986  -998  -1010  -998  -944  -871  -825  -818  -824  -815  -779  -721  -661  -625  -632  -696  -806  -915  -978  -997  -990  -954  -884  -807  -774  -794  -808  -765  -692  -649  -647  -646  -585  -436  -256  -138  -110  -132  -157  -174  -231  -380  -574  -680  -627  -487  -378  -340  -325  -285  -238  -245  -307  -347  -329  -292  -276  -281  -290  -291  -304  -372  -517  -693  -819  -858  -808  -663  -433  -199  -80  15  518  1918  4364  7354  9821  10666  9317  6174  2493  -434  -1935  -2095  -1495  -713  -129  47  -157  -528  -850  -1024  -1071  -1053  -998  -921  -866  -857  -867  -832  -695  -481  -278  -146  -88  -95  -173  -314  -460  -530  -488  -358  -179  9  171  288  355  381  390  391  358  257  113  12  58  295  626  880  994  1043  1104  1214  1382  1612  1872  2084  2193  2220  2219  2221  2242  2293  2363  2428  2467  2478  2467  2427  2334  2160  1903  1602  1338  1185  1122  973  536  -127  -692  -949  -976  -937  -911  -904  -897  -884  -877  -878  -832  -688  -503  -424  -525  -709  -816  -803  -748  -712  -698  -694  -707  -745  -791  -813  -793  -744  -689  -643  -621  -644  -729  -849  -937  -947  -877  -754  -624  -522  -454  -413  -397  -433  -563  -769  -954  -1048  -1069  -1071  -1085  -1103  -1101  -1057  -951  -793  -632  -505  -422  -393  -437  -547  -686  -801  -864  -882  -887  -895  -897  -870  -804  -745  -737  -730  -647  -515  -425  -415  -480  -604  -765  -931  -1064  -1145  -1169  -1092  -867  -564  -344  -284  -335  -420  -498  -560  -598  -591  -543  -498  -496  -535  -595  -673  -771  -854  -909  -960  -1012  -1035  -1011  -966  -939  -932  -927  -963  -1126  -1394  -1547  -1384  -876  -82  986  2485  4581  6987  8926  9538  8317  5564  2377  -82  -1254  -1290  -803  -444  -483  -736  -916  -947  -904  -854  -823  -810  -783  -707  -589  -480  -418  -415  -451  -489  -503  -505  -512  -527  -535  -514  -439  -331  -283  -325  -380  -403  -403  -376  -321  -229  -77  101  247  364  485  585  633  643  670  759  892  1019  1121  1193  1229  1295  1535  1989  2481  2791  2873  2827  2761  2726  2718  2714  2717  2749  2771  2648  2264  1718  1282  1097  1068  1034  871  501  -6  -442  -659  -697  -662  -617  -598  -676  -917  -1256  -1499  -1491  -1218  -824  -527  -419  -427  -451  -446  -408  -348  -282  -240  -279  -442  -698  -948  -1107  -1127  -1004  -815  -676  -630  -644  -678  -707  -709  -672  -618  -577  -551  -510  -445  -395  -396  -433  -471  -510  -581  -676  -748  -758  -709  -636  -582  -567  -579  -599  -605  -588  -560  -546  -597  -757  -961  -1072  -1032  -885  -713  -595  -541  -506  -475  -464  -462  -436  -405  -423  -519  -659  -769  -818  -841  -871  -898  -888  -842  -800  -776  -739  -667  -587  -549  -574  -625  -647  -625  -602  -614  -646  -677  -718  -795  -913  -1042  -1112  -1063  -875  -573  -254  -47  -9  -99  -248  -378  -445  -465  -501  -612  -802  -1016  -1190  -1289  -1322  -1321  -1282  -1167  -989  -854  -808  -643  -35  1130  2767  4718  6706  8360  9312  9113  7504  4821  1833  -551  -1649  -1533  -881  -265  53  5  -241  -439  -541  -644  -793  -951  -1064  -1123  -1147  -1102  -930  -665  -430  -312  -291  -311  -338  -358  -346  -296  -245  -228  -238  -257  -274  -268  -210  -79  107  294  430  501  544  600  665  726  802  893  988  1091  1193  1272  1331  1405  1530  1708  1905  2074  2207  2326  2446  2562  2671  2772  2856  2918  2958  2978  2973  2909  2748  2492  2171  1817  1465  1131  777  419  151  3  -79  -134  -164  -194  -273  -450  -690  -894  -1014  -1086  -1128  -1107  -959  -677  -393  -251  -235  -250  -266  -305  -382  -484  -577  -628  -625  -576  -507  -448  -414  -405  -419  -462  -519  -562  -570  -549  -497  -419  -346  -316  -338  -388  -432  -468  -509  -555  -594  -613  -587  -535  -505  -496  -480  -457  -434  -397  -325  -224  -136  -96  -92  -93  -84  -73  -99  -184  -307  -426  -520  -594  -643  -636  -560  -428  -274  -140  -65  -60  -111  -190  -279  -389  -508  -605  -694  -816  -965  -1098  -1188  -1232  -1241  -1223  -1178  -1121  -1076  -1055  -1057  -1090  -1158  -1236  -1290  -1308  -1302  -1276  -1222  -1157  -1124  -1148  -1202  -1234  -1204  -1118  -1016  -941  -912  -917  -935  -951  -955  -938  -892  -837  -808  -804  -783  -751  -773  -877  -1008  -1096  -1139  -1182  -1246  -1294  -1275  -1160  -993  -865  -856  -1001  -1277  -1588  -1781  -1683  -1144  -228  828  2032  3640  5680  7785  9254  9292  7632  4859  2021  31  -786  -785  -573  -538  -695  -863  -935  -948  -951  -947  -937  -937  -943  -932  -898  -854  -804  -735  -656  -601  -586  -589  -574  -534  -504  -505  -517  -552  -627  -673  -602  -402  -152  61  219  336  411  459  512  571  614  634  641  642  647  683  796  1024  1323  1576  1730  1851  2002  2154  2254  2309  2368  2480  2651  2829  2944  2981  2972  2936  2875  2801  2705  2517  2156  1651  1174  880  715  510  219  -35  -173  -262  -418  -675  -945  -1098  -1097  -1024  -978  -991  -1018  -1012  -957  -855  -735  -646  -615  -632  -691  -766  -803  -769  -680  -581  -507  -468  -457  -457  -450  -435  -423  -423  -429  -434  -439  -451  -469  -481  -483  -478  -477  -491  -522  -556  -576  -575  -545  -501  -476  -485  -530  -600  -636  -582  -461  -348  -304  -346  -439  -540  -636  -733  -822  -879  -884  -838  -771  -705  -608  -428  -199  -33  -8  -129  -352  -590  -758  -824  -816  -785  -762  -756  -760  -772  -788  -793  -765  -701  -629  -554  -453  -349  -301  -333  -433  -552  -636  -670  -662  -583  -396  -152  19  39  -73  -232  -343  -376  -369  -362  -373  -396  -420  -441  -454  -453  -452  -477  -536  -585  -559  -428  -220  -4  138  149  2  -274  -560  -729  -764  -730  -681  -641  -606  -572  -547  -562  -663  -845  -991  -1013  -924  -606  115  1185  2539  4314  6456  8447  9507  8964  6707  3481  532  -1175  -1472  -906  -191  262  397  328  156  -83  -332  -515  -619  -679  -709  -704  -665  -613  -576  -565  -568  -568  -554  -524  -479  -413  -309  -178  -84  -46  -5  56  91  72  13  -44  -72  -80  -80  -52  33  171  319  461  599  728  828  914  1030  1173  1282  1322  1315  1300  1292  1308  1399  1613  1919  2226  2452  2569  2596  2573  2514  2407  2237  2033  1870  1772  1656  1392  939  434  83  -54  -71  -60  -53  -57  -107  -250  -459  -645  -758  -825  -887  -968  -1051  -1105  -1118  -1112  -1113  -1138  -1184  -1226  -1231  -1171  -1050  -919  -838  -814  -831  -883  -965  -1051  -1107  -1114  -1080  -1040  -1023  -1009  -970  -915  -870  -846  -853  -882  -911  -942  -989  -1063  -1155  -1210  -1192  -1142  -1103  -1077  -1067  -1078  -1103  -1134  -1178  -1234  -1276  -1272  -1225  -1163  -1100  -1040  -1003  -1020  -1106  -1226  -1314  -1328  -1268  -1152  -984  -772  -586  -554  -741  -1042  -1271  -1354  -1349  -1316  -1266  -1206  -1151  -1106  -1070  -1059  -1069  -1049  -969  -872  -824  -851  -908  -944  -960  -960  -923  -858  -798  -760  -748  -789  -912  -1088  -1230  -1288  -1286  -1263  -1224  -1146  -1027  -909  -840  -838  -894  -984  -1062  -1092  -1079  -1060  -1063  -1092  -1149  -1265  -1503  -1870  -2196  -2285  -2099  -1580  -692  405  1761  3634  5859  7811  8806  8311  6300  3419  585  -1439  -2283  -2105  -1442  -878  -735  -921  -1172  -1343  -1422  -1434  -1392  -1292  -1164  -1078  -1074  -1130  -1187  -1198  -1168  -1133  -1097  -1032  -921  -799  -715  -675  -634  -552  -442  -343  -269  -217  -183  -150  -91  -12  47  77  123  228  372  498  587  663  748  871  1050  1253  1434  1597  1777  1962  2094  2179  2292  2472  2666  2805  2891  2967  3068  3217  3396  3537  3564  3414  3067  2602  2167  1870  1703  1576  1412  1181  872  537  268  112  59  71  98  112  137  217  381  622  859  954  821  535  259  89  0]
