reading_id,reading_time,wire_id,result_classification,heart_rate,heart_rate_alert,firmware_version,device_app_version,hardware_version,waveform_samples
d535b690-57f3-11ed-8080-808080808080,Sun Oct 30 01:40:28 UTC 2022,4101e3b01d39,UNCLASSIFIABLE,65,NONE,20001.171.50,2.10.0,Charge 5,[-3609  -6662  -10885  -16692  -23694  -31223  -32768  -32768  -32768  -32768  -32768  -32768  -32768  -32768  -32768  -32768  -32768  -32768  -32768  -32768  -32768  -32768  -32768  -32768  -32768  -32768  -32768  -32768  -32768  -29978  -27429  -25016  -22478  -19789  -17234  -15027  -13013  -11042  -9399  -8362  -7753  -7207  -6587  -6018  -5629  -5398  -5162  -4671  -3775  -2504  -915  958  3054  5185  7109  8790  10313  11573  12352  12594  12469  12254  12276  12554  12556  11860  10583  9143  8310  8800  10472  12587  14381  15264  15171  14484  13459  12279  11276  10599  10050  9422  8798  8400  8256  8223  8282  8660  9642  11208  12906  14163  14727  14750  14515  14220  13916  13444  12480  10836  8778  6884  5540  4695  4078  3520  3072  2837  2805  2896  3026  3000  2436  1071  -853  -2780  -4299  -5280  -5919  -6740  -8134  -9769  -10873  -11088  -10617  -9856  -9204  -8866  -8768  -8746  -8711  -8654  -8578  -8491  -8423  -8374  -8292  -8151  -7997  -7896  -7862  -7855  -7868  -7963  -8216  -8613  -8999  -9165  -9015  -8632  -8163  -7608  -6825  -5874  -5081  -4611  -4219  -3498  -2131  -126  1929  3246  3513  2791  1257  -499  -1690  -2090  -2059  -1951  -1838  -1662  -1455  -1374  -1527  -1844  -2221  -2761  -3614  -4599  -5336  -5726  -5972  -6268  -6674  -7102  -7402  -7551  -7634  -7692  -7698  -7648  -7565  -7444  -7226  -6801  -6108  -5258  -4491  -3984  -3758  -3742  -3877  -4158  -4718  -5864  -7727  -9859  -11496  -12261  -12377  -12218  -11919  -11416  -10473  -8801  -6521  -4228  -2432  -1306  -686  -8  1217  2717  3617  3225  1509  -1068  -3931  -6675  -9327  -12141  -14962  -17184  -18278  -18068  -16772  -14883  -12865  -10972  -9196  -7442  -5851  -4701  -4091  -3897  -3964  -4283  -4961  -6085  -7583  -9324  -11284  -13194  -14433  -14725  -14369  -13784  -13226  -12732  -12200  -11472  -10410  -9096  -7828  -6844  -6242  -5982  -5962  -6237  -6972  -8099  -9339  -10505  -11430  -11946  -12102  -12067  -11842  -11245  -10071  -8177  -5631  -2769  28  2479  4414  5795  6651  7064  7197  7150  6810  6017  4816  3281  1254  -1376  -4454  -7610  -10213  -11665  -11959  -11470  -10461  -9196  -7985  -6921  -5886  -4758  -3501  -2234  -1212  -643  -522  -763  -1363  -2284  -3347  -4458  -5679  -6877  -7723  -8158  -8405  -8615  -8777  -8812  -8635  -8162  -7396  -6525  -5731  -4999  -4321  -3822  -3557  -3486  -3664  -4255  -5284  -6434  -7255  -7608  -7660  -7494  -6970  -5967  -4502  -2553  -88  2765  5803  8804  11397  13327  14905  16566  18119  19073  19267  18717  17449  15891  14760  14340  14391  14682  15163  15834  16770  18141  20027  22189  24099  25406  26301  27164  28044  28724  29061  29148  29146  29049  28634  27679  26229  24573  22965  21515  20312  19362  18467  17551  16937  17161  18597  20908  23037  24157  24049  22593  19826  16338  12916  9918  7234  4697  2331  234  -1528  -2910  -3860  -4305  -4185  -3548  -2678  -1944  -1409  -935  -531  -295  -236  -283  -348  -421  -653  -1338  -2667  -4345  -5715  -6418  -6635  -6670  -6584  -6283  -5770  -5159  -4537  -3975  -3536  -3168  -2752  -2369  -2260  -2441  -2703  -2982  -3388  -3946  -4558  -5145  -5620  -5859  -5837  -5674  -5488  -5251  -4831  -4186  -3370  -2401  -1350  -423  217  585  800  900  774  337  -414  -1449  -2743  -4298  -6012  -7634  -8938  -9776  -10128  -10141  -9923  -9450  -8697  -7671  -6452  -5194  -3940  -2610  -1348  -523  -253  -343  -656  -1215  -2093  -3346  -4921  -6512  -7659  -8134  -8033  -7540  -6883  -6322  -5936  -5526  -4779  -3608  -2334  -1369  -793  -423  -173  -111  -284  -744  -1597  -2736  -3751  -4351  -4621  -4747  -4777  -4675  -4420  -3958  -3167  -2026  -712  553  1619  2368  2777  2930  2867  2473  1638  480  -709  -1723  -2517  -3094  -3458  -3657  -3762  -3819  -3808  -3687  -3485  -3264  -2957  -2328  -1200  227  1497  2326  2732  2838  2759  2605  2418  2037  1150  -305  -1851  -2907  -3366  -3526  -3663  -3834  -3933  -3833  -3455  -2807  -1980  -1082  -203  555  1117  1500  1752  1877  1880  1791  1540  865  -490  -2371  -4171  -5370  -5998  -6399  -6737  -6890  -6646  -5920  -4871  -3707  -2478  -1263  -268  430  955  1436  1915  2350  2656  2777  2698  2411  1886  1096  115  -807  -1395  -1578  -1477  -1204  -767  -98  823  1873  2941  4056  5205  6317  7412  8411  9063  9295  9235  8890  8193  7307  6507  5766  4830  3756  2929  2527  2486  2976  4315  6259  7954  8784  8661  7577  5689  3646  2173  1426  1057  714  351  115  63  99  68  -150  -537  -913  -1117  -1142  -1050  -877  -645  -412  -266  -233  -254  -269  -253  -184  -21  273  647  957  1114  1153  1144  1099  962  658  238  -98  -225  -142  122  488  809  1008  1111  1200  1383  1733  2204  2654  2958  3088  3103  3069  3017  2961  2896  2764  2499  2154  1881  1756  1737  1770  1858  2007  2171  2296  2386  2471  2545  2574  2536  2431  2302  2195  2104  1991  1853  1708  1544  1334  1029  553  -94  -799  -1469  -2102  -2723  -3271  -3606  -3599  -3175  -2378  -1434  -630  -123  120  236  354  553  803  999  1101  1132  1039  669  -35  -885  -1658  -2334  -2971  -3500  -3802  -3832  -3585  -3082  -2396  -1582  -673  207  938  1507  1945  2266  2451  2494  2429  2254  1897  1291  442  -557  -1569  -2507  -3349  -4044  -4496  -4696  -4748  -4707  -4498  -4011  -3228  -2242  -1177  -123  777  1386  1781  2153  2527  2658  2186  1105  -105  -1021  -1508  -1633  -1768  -2338  -3339  -4396  -5178  -5501  -5212  -4389  -3493  -2953  -2783  -2766  -2757  -2736  -2723  -2719  -2714  -2706  -2717  -2769  -2830  -2807  -2624  -2288  -1908  -1640  -1529  -1499  -1468  -1412  -1342  -1257  -1119  -926  -744  -633  -576  -524  -460  -393  -287  -55  353  868  1408  2067  2978  4082  5127  5842  6138  6159  6093  6010  5861  5571  5103  4423  3457  2274  1213  595  366  227  26  -107  11  396  892  1350  1770  2162  2315  2023  1499  1280  1810  3256  5534  8204  10317  10934  9783  7127  3615  373  -1638  -2347  -2229  -1760  -1318  -1060  -844  -481  39  563  934  1123  1199  1230  1205  1014  568  -67  -765  -1495  -2303  -3150  -3859  -4270  -4396  -4350  -4225  -4086  -4001  -3991  -3962  -3688  -2972  -1944  -1048  -603  -548  -659  -792  -920  -1094  -1373  -1745  -2114  -2395  -2588  -2716  -2747  -2579  -2111  -1375  -498  513  1665  2848  4041  5265  6384  7202  7645  7781  7632  7069  6053  4823  3638  2527  1479  645  176  42  86  152  218  456  1078  2071  3136  3932  4329  4445  4460  4424  4269  3935  3424  2713  1678  279  -1163  -2250  -2979  -3559  -4006  -4255  -4352  -4398  -4442  -4428  -4185  -3596  -2849  -2305  -2097  -2102  -2223  -2487  -2882  -3262  -3477  -3514  -3450  -3352  -3270  -3219  -3123  -2812  -2113  -1049  85  992  1579  1873  1920  1711  1197  472  -195  -623  -878  -1155  -1601  -2207  -2785  -3126  -3160  -2928  -2482  -1860  -1122  -418  177  923  2155  3725  5111  6033  6563  6824  6885  6752  6406  5886  5244  4436  3434  2368  1469  916  697  683  796  1030  1346  1662  1938  2193  2444  2663  2790  2730  2362  1681  822  -129  -1243  -2587  -3985  -5076  -5694  -6023  -6305  -6533  -6540  -6347  -6155  -5977  -5565  -4753  -3717  -2809  -2214  -1886  -1728  -1689  -1757  -1949  -2259  -2695  -3348  -4259  -5192  -5790  -5930  -5712  -5236  -4589  -3919  -3414  -3162  -2988  -2539  -1676  -717  -129  -102  -549  -1216  -1805  -2205  -2534  -2935  -3474  -4152  -4839  -5290  -5323  -4836  -3676  -1728  997  4298  7509  9637  9955  8443  5889  3463  1990  1498  1359  916  -107  -1609  -3150  -4302  -4962  -5250  -5333  -5303  -5038  -4316  -3158  -1855  -625  439  1193  1547  1624  1549  1233  536  -413  -1301  -1984  -2538  -3050  -3577  -4271  -5275  -6376  -7122  -7271  -6805  -5793  -4443  -2999  -1592  -334  775  1969  3426  4996  6370  7307  7744  7829  7742  7527  7149  6576  5746  4644  3432  2416  1810  1574  1528  1565  1687  1925  2259  2639  3035  3425  3747  3933  3949  3796  3521  3228  2994  2752  2275  1336  -1  -1346  -2449  -3517  -4765  -6022  -6987  -7529  -7734  -7768  -7691  -7421  -6922  -6270  -5480  -4488  -3403  -2529  -2046  -1857  -1769  -1696  -1689  -1901  -2460  -3294  -4182  -4942  -5504  -5865  -6056  -6140  -6196  -6230  -6128  -5694  -4823  -3683  -2668  -2059  -1799  -1695  -1677  -1756  -1907  -2067  -2215  -2359  -2483  -2538  -2465  -2242  -1909  -1533  -1160  -816  -476  -85  326  667  950  1265  1601  1855  1948  1891  1760  1604  1412  1150  792  388  49  -206  -477  -799  -1072  -1176  -1053  -718  -296  90  484  1000  1632  2280  2880  3430  3885  4165  4270  4264  4158  3905  3502  3054  2689  2421  2183  1973  1879  1967  2210  2559  3032  3645  4306  4945  5629  6421  7237  7928  8396  8621  8670  8624  8513  8371  8224  7953  7274  6073  4700  3701  3275  3198  3184  3134  3105  3164  3278  3368  3442  3569  3744  3891  3959  3960  3922  3849  3704  3383  2774  1940  1109  457  10  -359  -858  -1580  -2391  -3088  -3567  -3735  -3453  -2526  -641  2303  5738  8679  10244  9840  7549  4367  1542  -283  -1125  -1335  -1496  -1999  -2637  -3025  -3086  -2845  -2215  -1277  -413  118  438  811  1362  1966  2366  2416  2140  1680  1244  927  610  121  -562  -1244  -1676  -1824  -1816  -1686  -1346  -813  -283  68  264  490  910  1464  1930  2123  1851  921  -474  -1681  -2212  -2157  -1899  -1724  -1697  -1720  -1624  -1246  -574  235  1051  1818  2483  3043  3478  3606  3277  2643  2055  1708  1505  1218  702  60  -451  -725  -848  -923  -969  -966  -903  -791  -658  -514  -379  -296  -292  -360  -503  -753  -1203  -1932  -2781  -3422  -3752  -3940  -4129  -4299  -4347  -4188  -3762  -3103  -2404  -1837  -1359  -879  -435  -84  204  455  619  679  667  586  419  214  77  58  146  315  514  700  906  1207  1624  2107  2573  2934  3124  3096  2817  2336  1801  1326  933  609  311  -11  -340  -590  -712  -748  -750  -692  -488  -112  340  774  1189  1606  1993  2261  2333  2242  2021  1539  662  -499  -1696  -2791  -3813  -4794  -5657  -6271  -6584  -6665  -6580  -6312  -5847  -5233  -4501  -3608  -2544  -1484  -714  -344  -265  -361  -604  -973  -1488  -2245  -3147  -3857  -4200  -4288  -4272  -4216  -4080  -3721  -3057  -2194  -1310  -560  -65  184  324  447  555  641  705  718  625  397  26  -465  -970  -1339  -1542  -1661  -1762  -1833  -1828  -1709  -1458  -1053  -475  199  814  1245  1469  1534  1468  1228  783  218  -371  -1003  -1660  -2179  -2390  -2183  -1427  19  2197  4900  7591  9445  9751  8484  6342  4256  2869  2221  1818  1029  -304  -1615  -2344  -2542  -2524  -2474  -2441  -2427  -2447  -2517  -2617  -2674  -2578  -2255  -1738  -1159  -658  -285  52  438  810  1072  1209  1272  1302  1231  899  249  -559  -1285  -1802  -2121  -2291  -2345  -2273  -2062  -1773  -1488  -1112  -420  580  1514  2026  2090  1816  1301  739  364  225  183  92  -72  -235  -314  -274  -115  179  697  1566  2758  3979  4889  5404  5653  5709  5519  5030  4282  3429  2696  2206  1803  1174  195  -893  -1707  -2107  -2204  -2099  -1821  -1457  -1168  -1031  -1002  -1014  -1029  -1035  -1023  -997  -997  -1126  -1453  -1875  -2179  -2273  -2193  -1996  -1765  -1612  -1561  -1545  -1481  -1318  -1058  -775  -582  -516  -522  -539  -551  -564  -578  -578  -547  -463  -318  -139  19  125  182  224  307  469  691  919  1109  1235  1303  1318  1269  1152  994  829  646  401  69  -325  -699  -949  -1074  -1160  -1238  -1227  -1038  -715  -415  -220  -80  60  187  273  317  335  328  257  77  -188  -457  -703  -994  -1355  -1705  -1986  -2197  -2332  -2397  -2444  -2498  -2504  -2373  -2129  -1905  -1782  -1737  -1718  -1701  -1731  -1906  -2263  -2682  -2988  -3122  -3142  -3090  -2949  -2720  -2470  -2277  -2149  -2040  -1887  -1617  -1200  -751  -452  -348  -347  -386  -493  -709  -1000  -1282  -1507  -1709  -1982  -2384  -2928  -3593  -4191  -4346  -3780  -2375  -43  3084  6377  8917  9948  9131  6776  3781  1039  -1026  -2350  -3054  -3428  -3652  -3600  -3207  -2730  -2395  -2059  -1435  -475  585  1500  2185  2689  3039  3172  3034  2668  2141  1451  603  -267  -955  -1334  -1416  -1300  -1107  -952  -870  -733  -278  653  1932  3207  4149  4665  4898  5025  5124  5166  5031  4610  3992  3408  2957  2534  2059  1628  1380  1352  1535  1945  2571  3325  4130  4987  5871  6694  7338  7686  7712  7495  7146  6735  6193  5375  4255  3004  1880  1060  557  274  127  105  252  625  1194  1818  2344  2686  2839  2865  2819  2694  2483  2227  1933  1503  868  189  -254  -390  -366  -301  -209  -86  58  237  471  749  1016  1163  1113  909  671  443  86  -537  -1300  -1935  -2325  -2515  -2590  -2612  -2606  -2578  -2508  -2359  -2090  -1705  -1324  -1091  -1032  -1099  -1270  -1529  -1804  -2001  -2098  -2162  -2261  -2404  -2553  -2662  -2712  -2679  -2504  -2169  -1781  -1454  -1154  -799  -428  -170  -80  -102  -157  -239  -458  -956  -1740  -2606  -3319  -3832  -4264  -4764  -5350  -5855  -6122  -6151  -5984  -5631  -5134  -4569  -3994  -3507  -3229  -3156  -3189  -3266  -3379  -3520  -3693  -3935  -4246  -4560  -4819  -5012  -5152  -5232  -5213  -5000  -4524  -3917  -3464  -3276  -3216  -3111  -2896  -2629  -2402  -2225  -2016  -1682  -1175  -578  -68  261  480  654  759  795  834  936  1075  1179  1221  1229  1247  1324  1483  1658  1736  1670  1529  1422  1385  1392  1430  1519  1657  1815  2051  2663  3980  5798  7361  8110  7912  6694  4688  2757  1696  1510  1734  2020  2258  2453  2597  2664  2668  2673  2749  2912  3093  3208  3235  3205  3141  3037  2829  2417  1804  1135  561  149  -117  -295  -496  -899  -1555  -2242  -2651  -2628  -2167  -1402  -568  189  863  1459  1920  2187  2268  2189  1941  1587  1291  1160  1148  1154  1124  1095  1169  1359  1557  1728  1989  2422  2962  3466  3847  4146  4437  4687  4810  4788  4674  4536  4338  3882  3017  1902  837  -81  -889  -1568  -2087  -2453  -2703  -2847  -2833  -2639  -2315  -1929  -1555  -1264  -1071  -950  -854  -749  -650  -576  -520  -485  -497  -549  -599  -650  -747  -915  -1128  -1324  -1442  -1473  -1444  -1377  -1299  -1244  -1220  -1201  -1161  -1099  -1036  -948  -715  -250  321  754  937  939  872  794  731  680  610  460  193  -112  -327  -413  -426  -376  -182  226  742  1141  1334  1424  1506  1577  1611  1577  1393  981  428  -40  -291  -394  -468  -560  -663  -759  -803  -715  -429  0  406  665  774  803  819  856  943  1122  1367  1562  1582  1324  770  62  -603  -1116  -1447  -1650  -1834  -2056  -2290  -2515  -2769  -3030  -3153  -3025  -2696  -2285  -1839  -1364  -934  -636  -482  -419  -389  -367  -360  -401  -548  -865  -1346  -1875  -2346  -2769  -3190  -3577  -3865  -4046  -4141  -4171  -4128  -3946  -3565  -3067  -2612  -2235  -1834  -1328  -765  -306  -69  -50  -251  -721  -1420  -2125  -2573  -2645  -2306  -1483  -94  1689  3303  4212  4307  3648  2345  837  -310  -901  -1064  -979  -789  -592  -445  -352  -306  -344  -483  -676  -874  -1056  -1182  -1192  -1049  -760  -359  129  682  1190  1501  1600  1595  1572  1539  1477  1400  1358  1381  1465  1589  1733  1868  1964  2033  2103  2166  2183  2172  2279  2671  3311  3931  4318  4466  4432  4188  3668  2906  2094  1451  1059  878  834  853  886  929  1000  1089  1156  1184  1188  1167  1098  982  857  751  659  569  483  364  85  -480  -1248  -1988  -2610  -3152  -3629  -4042  -4379  -4593  -4669  -4608  -4380  -3993  -3499  -2895  -2161  -1353  -515  332  1056  1472  1589  1569  1496  1310  953  475  -21  -457  -770  -937  -1020  -1093  -1176  -1219  -1160  -1005  -812  -626  -482  -410  -396  -408  -423  -431  -415  -353  -253  -177  -238  -538  -1025  -1476  -1714  -1707  -1456  -952  -245  509  1126  1550  1857  2090  2224  2249  2180  2024  1794  1533  1283  969  380  -582  -1633  -2335  -2580  -2579  -2476  -2217  -1708  -978  -215  403  924  1509  2200  2852  3183  3043  2571  1958  1307  659  -59  -990  -2138  -3241  -3986  -4337  -4395  -4214  -3914  -3585  -3170  -2649  -2095  -1523  -943  -483  -247  -196  -251  -380  -552  -717  -859  -1001  -1154  -1305  -1439  -1541  -1596  -1606  -1591  -1571  -1547  -1512  -1468  -1430  -1403  -1355  -1254  -1140  -1105  -1155  -1241  -1349  -1466  -1568  -1652  -1716  -1742  -1737  -1745  -1773  -1795  -1817  -1838  -1786  -1614  -1346  -1011  -487  618  2574  4969  6878  7386  6061  3293  128  -2394  -3782  -4199  -4193  -4310  -4747  -5242  -5453  -5400  -5287  -5177  -5016  -4776  -4510  -4264  -3937  -3386  -2717  -2205  -1944  -1800  -1655  -1532  -1514  -1599  -1717  -1836  -1947  -2007  -1952  -1750  -1428  -1084  -819  -617  -370  -1  444  862  1200  1494  1791  2095  2391  2663  2923  3208  3553  3953  4357  4697  4928  5060  5166  5360  5708  6150  6546  6832  7029  7132  7097  6900  6600  6300  6026  5739  5424  5095  4772  4502  4334  4256  4184  4047  3850  3625  3350  2998  2584  2141  1731  1408  1185  1048  880  437  -387  -1390  -2243  -2693  -2700  -2445  -2123  -1853  -1717  -1708  -1717  -1640  -1458  -1252  -1119  -1077  -1068  -998  -770  -350  133  457  479  183  -314  -781  -1043  -1115  -1066  -874  -488  52  596  1017  1322  1577  1803  1983  2112  2195  2246  2277  2275  2206  2049  1829  1602  1390  1137  763  283  -181  -548  -817  -1005  -1105  -1093  -965  -748  -466  -183  2  58  35  -15  -82  -154  -207  -219  -181  -89  41  168  255  318  437  684  1001  1216  1241  1104  851  567  367  278  217  90  -139  -427  -668  -782  -784  -752  -736  -720  -673  -596  -519  -456  -405  -373  -368  -376  -375  -330  -206  -24  128  196  191  167  187  309  531  766  921  982  998  1009  993  905  764  646  573  503  409  309  220  130  42  7  90  257  341  257  103  -28  -36  311  1241  2911  5255  7587  8855  8425  6389  3441  674  -975  -1367  -1013  -446  -18  103  -38  -306  -588  -834  -1084  -1453  -1972  -2477  -2766  -2807  -2706  -2578  -2503  -2489  -2486  -2403  -2147  -1693  -1161  -739  -498  -389  -357  -360  -359  -361  -441  -671  -994  -1264  -1419  -1476  -1437  -1309  -1156  -1036  -921  -706  -325  155  643  1152  1699  2176  2471  2609  2679  2728  2756  2748  2678  2522  2322  2171  2106  2079  2041  2032  2151  2448  2871  3287  3557  3649  3596  3372  2924  2305  1716  1330  1083  744  145  -710  -1655  -2459  -3023  -3422  -3796  -4243  -4736  -5131  -5238  -4867  -3997  -2983  -2311  -2045  -1806  -1268  -483  175  264  -427  -1704  -3064  -4082  -4672  -4908  -4841  -4626  -4473  -4394  -4247  -3911  -3314  -2530  -1820  -1405  -1311  -1439  -1634  -1767  -1823  -1875  -1981  -2137  -2310  -2460  -2554  -2571  -2492  -2323  -2112  -1942  -1863  -1852  -1845  -1787  -1634  -1415  -1238  -1134  -1042  -958  -918  -898  -843  -718  -471  -24  569  1108  1472  1685  1795  1843  1868  1873  1844  1797  1769  1790  1859  1954  2044  2112  2165  2187  2060  1624  870  20  -636  -965  -1032  -940  -670  -166  451  917  1126  1268  1617  2217  2835  3251  3448  3493  3356  2928  2238  1524  987  627  372  222  210  349  606  898  1161  1397  1613  1786  1904  1975  2016  2046  2074  2079  1995  1736  1303  808  371  71  -28  72  179  0  -470  -846  -595  704  3125  6205  9060  10679  10399  8419  5644  3068  1369  687  645  743  701  407  -200  -1009  -1736  -2230  -2547  -2751  -2824  -2735  -2500  -2166  -1741  -1185  -539  47  517  935  1306  1552  1661  1670  1467  785  -467  -1928  -3100  -3849  -4297  -4518  -4535  -4353  -3964  -3432  -2897  -2428  -1954  -1407  -842  -342  64  350  491  500  384  101  -425  -1185  -1951  -2445  -2623  -2621  -2544  -2408  -2217  -1984  -1657  -1074  -117  1075  2205  3140  3888  4372  4525  4437  4257  4048  3672  2921  1857  759  -247  -1203  -2068  -2738  -3204  -3536  -3785  -3997  -4224  -4445  -4560  -4500  -4303  -4062  -3845  -3682  -3596  -3584  -3618  -3709  -3911  -4215  -4520  -4743  -4883  -4967  -5006  -4947  -4679  -4138  -3393  -2658  -2157  -1770  -1108  -52  1194  2356  3111  3263  2960  2509  1999  1335  519  -425  -1445  -2310  -2904  -3370  -3770  -3959  -3743  -3039  -1964  -692  566  1551  2195  2647  2990  3198  3282  3324  3353  3251  2779  1844  741  -92  -533  -740  -851  -915  -954  -996  -1023  -928  -583  -44  429  618  463  17  -551  -1029  -1341  -1604  -1996  -2535  -3025  -3291  -3364  -3356  -3264  -2974  -2449  -1829  -1260  -696  23  908  1767  2449  2926  3178  3160  2858  2352  1828  1442  1208  993  601  -31  -747  -1310  -1586  -1592  -1404  -1107  -794  -500  -167  240  705  1230  1788  2244  2490  2523  2321  1829  1134  425  -201  -782  -1422  -2145  -2742  -2884  -2235  -520  2228  5540  8518  10117  9817  7951  5404  3195  1974  1626  1549  1254  568  -478  -1689  -2739  -3387  -3641  -3675  -3629  -3520  -3339  -3139  -2946  -2645  -2064  -1237  -458  49  338  527  615  607  556  486  390  223  -104  -675  -1451  -2178  -2569  -2501  -2024  -1378  -902  -713  -665  -609  -493  -272  79  465  738  867  874  638  4  -863  -1518  -1753  -1728  -1652  -1552  -1344  -1001  -641  -380  -70  611  1605  2370  2563  2405  2241  2204  2304  2354  1979  1010  -296  -1544  -2537  -3347  -4105  -4786  -5257  -5410  -5232  -4818  -4290  -3696  -3015  -2250  -1409  -441  554  1308  1703  1863  1910  1797  1381  685  -7  -451  -663  -758  -763  -676  -531  -353  -136  134  493  991  1633  2277  2737  2998  3170  3297  3351  3299  3122  2874  2671  2565  2448  2168  1723  1300  1097  1172  1472  1914  2362  2657  2779  2842  2928  3030  3135  3264  3410  3520  3576  3587  3501  3230  2800  2393  2156  2083  2121  2193  2114  1720  1145  721  592  635  702  737  716  608  412  198  50  4  25  42  22  -19  -98  -249  -444  -612  -739  -858  -1005  -1215  -1460  -1630  -1636  -1473  -1227  -1013  -862  -706  -493  -230  29  214  300  310  247  104  -86  -253  -360  -394  -291  35  531  1014  1402  1762  2087  2231  2111  1828  1554  1361  1221  1098  964  762  458  114  -157  -293  -322  -315  -324  -360  -383  -282  64  584  1032  1248  1228  1151  1560  3054  5574  8215  9784  9498  7364  4179  1119  -895  -1643  -1554  -1211  -982  -989  -1112  -1154  -1049  -858  -676  -570  -534  -529  -560  -682  -914  -1174  -1342  -1362  -1230  -978  -688  -448  -296  -254  -338  -506  -657  -680  -523  -257  -19  122  172  119  -73  -370  -666  -912  -1170  -1490  -1800  -1980  -1998  -1898  -1741  -1555  -1262  -775  -203  228  480  678  884  1060  1179  1244  1253  1146  850  422  40  -216  -395  -527  -620  -692  -777  -926  -1138  -1332  -1437  -1440  -1334  -1119  -864  -677  -602  -618  -690  -790  -885  -955  -1004  -1051  -1103  -1162  -1268  -1477  -1774  -2054  -2230  -2295  -2242  -2009  -1571  -1052  -622  -315  -71  165  427  721  1026  1300  1468  1465  1335  1205  1119  963  594  21  -576  -993  -1164  -1154  -1012  -807  -619  -401  -93  295  792  1390  1918  2213  2292  2260  2131  1838  1369  866  524  368  242  12  -269  -416  -326  -89  177  463  749  939  998  1009  1077  1251  1494  1725  1888  1976  1925  1559  784  -172  -910  -1251  -1352  -1443  -1609  -1808  -2001  -2179  -2321  -2389  -2377  -2290  -2062  -1638  -1109  -640  -283  -34  36  -121  -398  -609  -692  -722  -780  -893  -1035  -1151  -1207  -1200  -1130  -1005  -857  -731  -628  -473  -177  229  594  797  866  911  1014  1164  1277  1290  1206  1076  961  895  875  887  901  868  740  539  354  248  217  222  240  256  253  193  58  -109  -271  -456  -709  -1045  -1450  -1780  -1743  -970  845  3451  5770  6621  5562  3078  217  -2020  -3141  -3221  -2800  -2501  -2499  -2639  -2815  -2979  -3090  -3164  -3238  -3334  -3492  -3754  -4076  -4330  -4436  -4403  -4248  -3945  -3464  -2833  -2130  -1399  -682  -63  422  782  1016  1148  1223  1249  1194  1042  812  531  201  -163  -505  -763  -927  -1020  -1018  -799  -275  425  1048  1469  1727  1881  1956  1976  1981  1992  2008  2015  1992  1930  1838  1708  1509  1213  842  457  100  -177  -309  -278  -148  -16  42  26  -32  -182  -484  -820  -1021  -1121  -1226  -1346  -1630  -2268  -3095  -3756  -4098  -4187  -4182  -4259  -4421  -4445  -4154  -3517  -2578  -1522  -615  34  520  916  1181  1313  1360  1317  1157  914  635  267  -283  -957  -1556  -1975  -2243  -2386  -2411  -2354  -2226  -1942  -1403  -640  209  1069  1918  2661  3162  3406  3471  3382  3098  2650  2146  1613  1030  500  185  94  107  155  265  473  738  1018  1371  1847  2321  2609  2675  2612  2494  2281  1881  1298  662  90  -379  -779  -1184  -1607  -1956  -2142  -2182  -2151  -2097  -2023  -1911  -1737  -1501  -1255  -1069  -973  -967  -1037  -1140  -1218  -1251  -1264  -1289  -1335  -1384  -1424  -1457  -1465  -1374  -1111  -744  -453  -325  -286  -198  41  460  978  1431  1694  1784  1799  1809  1806  1704  1425  1031  674  393  142  -57  -165  -198  -186  -108  98  477  982  1527  2105  2755  3428  3981  4274  4386  4711  5722  7491  9361  10324  9695  7381  4068  989  -1020  -1933  -2083  -1912  -1820  -1861  -1841  -1617  -1173  -654  -278  -102  -32  -3  -36  -202  -558  -1049  -1506  -1799  -1951  -2077  -2240  -2392  -2429  -2280  -1957  -1516  -1021  -568  -232  8  198  334  409  470  583  744  867  816  470  -129  -731  -1117  -1287  -1343  -1330  -1223  -974  -510  192  967  1559  1956  2359  2852  3340  3745  4049  4224  4208  3942  3454  2938  2583  2393  2252  2102  1970  1907  1922  1971  2036  2147  2294  2397  2394  2287  2148  2062  2017  1892  1585  1129  571  -132  -920  -1544  -1852  -1924  -1920  -1909  -1851  -1684  -1419  -1109  -716  -196  293  567  626  540  389  269  120  -253  -904  -1745  -2650  -3371  -3719  -3796  -3767  -3711  -3646  -3502  -3237  -2860  -2358  -1779  -1253  -832  -510  -306  -219  -205  -255  -441  -849  -1481  -2215  -2844  -3197  -3286  -3249  -3176  -3068  -2873  -2525  -1969  -1240  -537  -96  50  49  13  -80  -325  -766  -1327  -1834  -2156  -2300  -2353  -2366  -2309  -2130  -1852  -1517  -1072  -502  34  402  651  865  1054  1187  1236  1184  1031  804  557  333  132  -68  -277  -466  -586  -610  -528  -305  102  645  1140  1446  1611  1764  1951  2153  2338  2442  2412  2260  2014  1682  1277  837  438  165  55  85  213  429  720  1006  1188  1250  1244  1229  1235  1265  1279  1137  634  -262  -1256  -1993  -2419  -2698  -2937  -3121  -3193  -3070  -2763  -2434  -2182  -1892  -1248  198  2641  5547  7897  8799  7840  5324  2153  -748  -2829  -3960  -4313  -4166  -3803  -3456  -3206  -2950  -2519  -1908  -1315  -865  -493  -119  235  497  632  666  614  446  153  -207  -548  -799  -947  -1009  -985  -849  -617  -366  -137  139  547  1048  1517  1865  2097  2276  2418  2474  2453  2435  2426  2282  1801  951  23  -611  -876  -933  -893  -752  -503  -222  -12  114  239  433  669  865  1000  1096  1148  1162  1180  1241  1332  1423  1519  1627  1691  1660  1568  1479  1403  1309  1182  1025  837  631  431  222  0  -196  -364  -546  -743  -908  -985  -975  -937  -917  -899  -829  -694  -547  -456  -440  -467  -487  -473  -442  -422  -421  -428  -431  -430  -426  -405  -343  -249  -166  -123  -115  -124  -135  -148  -184  -262  -367  -462  -525  -550  -526  -450  -342  -231  -114  16  139  228  284  320  340  345  312  205  47  -82  -139  -136  -74  80  348  652  857  903  842  756  699  688  704  718  683  560  361  151  -5  -83  -93  -78  -72  -87  -120  -174  -267  -388  -487  -570  -696  -882  -1103  -1341  -1565  -1725  -1792  -1752  -1577  -1244  -829  -492  -285  -118  91  327  511  597  569  401  130  -128  -284  -353  -413  -509  -584  -564  -462  -311  -94  213  630  1143  1664  2070  2326  2473  2483  2217  1603  806  117  -296  -449  -434  -352  -286  -292  -395  -573  -659  -458  -9  501  1000  1642  2869  5036  7809  10239  11205  10000  7017  3547  800  -588  -761  -544  -623  -990  -1318  -1460  -1477  -1459  -1445  -1430  -1405  -1369  -1322  -1268  -1204  -1127  -1039  -960  -929  -1013  -1263  -1671  -2157  -2609  -2935  -3102  -3151  -3149  -3117  -3032  -2883  -2691  -2502  -2333  -2138  -1863  -1558  -1346  -1272  -1278  -1283  -1239  -1127  -974  -832  -708  -607  -577  -633  -687  -604  -311  121  518  751  843  907  1041  1283  1623  2020  2386  2644  2808  2910  2929  2866  2778  2689  2527  2134  1403  496  -217  -550  -631  -672  -775  -930  -1076  -1187  -1249  -1204  -1057  -926  -883  -899  -929  -952  -961  -959  -946  -932  -961  -1102  -1369  -1661  -1848  -1911  -1907  -1891  -1883  -1892  -1922  -1961  -1976  -1938  -1843  -1706  -1522  -1274  -986  -741  -599  -535  -498  -474  -458  -442  -432  -480  -648  -897  -1078  -1124  -1101  -1038  -917  -779  -649  -492  -309  -158  -74  -35  -4  53  161  301  405  439  441  456  470  409  209  -104  -464  -834  -1155  -1350  -1449  -1574  -1786  -2056  -2307  -2465  -2516  -2512  -2498  -2481  -2452  -2428  -2456  -2562  -2699  -2817  -2921  -3006  -3024  -2934  -2782  -2688  -2702  -2770  -2802  -2708  -2425  -1999  -1559  -1177  -830  -478  -121  212  495  694  778  757  675  562  424  286  192  147  113  58  0  4  164  582  1211  1811  2189  2338  2337  2296  2342  2511  2711  2857  3066  3698  5036  6843  8344  8647  7293  4658  1706  -638  -1846  -1973  -1613  -1283  -1049  -882  -876  -999  -1107  -1162  -1237  -1444  -1860  -2419  -2962  -3433  -3901  -4356  -4664  -4679  -4292  -3510  -2549  -1672  -998  -519  -137  268  689  992  1118  1128  1085  1000  862  676  489  348  261  197  140  112  147  268  500  851  1243  1591  1901  2223  2591  3038  3580  4166  4665  4933  4923  4691  4378  4142  4039  4008  3984  3926  3801  3631  3495  3440  3444  3459  3449  3396  3308  3206  3095  2988  2905  2830  2713  2524  2293  2053  1767  1375  915  509  190  -93  -343  -487  -444  -184  209  552  674  548  407  502  790  1119  1410  1551  1481  1262  895  335  -288  -765  -1052  -1252  -1493  -1808  -2057  -2051  -1753  -1283  -762  -225  327  845  1258  1542  1720  1820  1857  1819  1672  1386  976  493  -5  -446  -749  -918  -1023  -1092  -1097  -1024  -910  -810  -741  -648  -433  -64  343  621  725  739  723  632  401  91  -147  -286  -440  -716  -1105  -1526  -1916  -2239  -2448  -2519  -2488  -2405  -2280  -2094  -1871  -1687  -1578  -1496  -1391  -1280  -1201  -1174  -1216  -1374  -1664  -2012  -2309  -2494  -2552  -2457  -2187  -1801  -1454  -1269  -1218  -1184  -1066  -836  -532  -223  36  237  400  505  495  388  261  134  -31  -263  -551  -835  -1032  -1114  -1112  -1075  -1026  -960  -870  -757  -625  -513  -465  -474  -557  -688  -609  81  1699  4185  6845  8660  8933  7628  5351  2962  1085  -117  -835  -1250  -1408  -1396  -1351  -1357  -1430  -1520  -1566  -1564  -1544  -1522  -1501  -1490  -1493  -1503  -1496  -1426  -1243  -936  -602  -388  -361  -485  -665  -785  -738  -486  -131  122  145  -54  -367  -668  -907  -1084  -1192  -1245  -1276  -1271  -1162  -893  -492  -67  284  530  714  944  1319  1830  2361  2764  2974  3047  3083  3110  3088  3004  2908  2811  2615  2250  1807  1449  1212  1001  762  541  403  366  453  697  1022  1282  1445  1583  1718  1809  1843  1858  1886  1941  2015  2053  1910  1446  763  140  -287  -564  -760  -939  -1131  -1305  -1452  -1614  -1789  -1866  -1690  -1224  -653  -223  48  351  784  1213  1469  1545  1544  1507  1351  943  285  -399  -843  -986  -961  -903  -859  -820  -761  -655  -477  -223  78  358  532  580  560  508  364  40  -419  -862  -1227  -1552  -1840  -2026  -2081  -2046  -1986  -1940  -1896  -1796  -1590  -1297  -1027  -859  -752  -608  -414  -256  -211  -281  -479  -851  -1388  -2009  -2589  -2993  -3181  -3219  -3169  -3068  -2945  -2830  -2723  -2605  -2490  -2401  -2272  -1994  -1607  -1293  -1162  -1193  -1359  -1640  -1977  -2272  -2450  -2519  -2531  -2498  -2389  -2190  -1948  -1709  -1422  -1021  -579  -243  -73  -18  -6  -1  -3  -20  -49  -89  -136  -176  -173  -101  11  108  152  119  -35  -282  -432  -349  -144  -29  -81  -92  452  2003  4362  6582  7616  7012  5008  2305  -195  -1764  -2239  -1946  -1295  -671  -305  -127  -2  111  218  297  326  313  266  186  49  -190  -549  -938  -1211  -1312  -1302  -1257  -1217  -1178  -1103  -947  -673  -317  7  237  409  569  706  789  806  750  592  305  -59  -391  -617  -731  -754  -674  -462  -157  169  566  1147  1858  2501  2932  3141  3203  3232  3357  3654  4000  4144  4027  3810  3624  3452  3228  2971  2778  2662  2534  2345  2134  1970  1864  1751  1586  1413  1304  1276  1278  1255  1157  948  654  333  -20  -429  -843  -1195  -1446  -1576  -1593  -1549  -1493  -1436  -1374  -1321  -1292  -1293  -1319  -1360  -1401  -1447  -1521  -1637  -1776  -1915  -2041  -2150  -2266  -2424  -2601  -2714  -2721  -2651  -2549  -2429  -2273  -2060  -1806  -1557  -1329  -1107  -887  -696  -562  -442  -268  -68  60  91  65  -24  -210  -464  -694  -835  -889  -893  -853  -717  -414  76  683  1291  1842  2309  2632  2819  2942  3031  3078  3082  3030  2847  2449  1834  1105  436  -22  -257  -380  -517  -736  -1000  -1204  -1289  -1280  -1226  -1109  -835  -398  26  266  328  321  300  238  104  -54  -171  -324  -697  -1307  -1901  -2235  -2322  -2297  -2219  -2098  -1954  -1760  -1420  -885  -285  153  364  491  655  793  795  612  176  -415  -708  -224  1242  3507  5815  7119  6793  4986  2437  78  -1401  -1846  -1579  -1073  -621  -311  -113  48  197  281  271  201  115  8  -172  -446  -776  -1121  -1439  -1686  -1847  -1922  -1926  -1876  -1779  -1644  -1496  -1360  -1225  -1044  -799  -553  -401  -358  -368  -386  -402  -427  -471  -526  -558  -552  -538  -533  -504  -402  -232  -61  51  124  192  260  321  376  441  553  722  899  1052  1192  1332  1485  1689  1968  2290  2563  2674  2585  2370  2118  1861  1616  1413  1252  1105  940  756  602  543  595  719  848  911  836  581  236  -24  -141  -169  -126  -6  127  188  135  -17  -190  -250  -111  166  423  552  577  557  445  128  -379  -878  -1198  -1341  -1395  -1440  -1523  -1652  -1788  -1859  -1770  -1456  -1019  -661  -455  -332  -237  -182  -190  -237  -257  -234  -285  -630  -1370  -2240  -2830  -3026  -2989  -2831  -2561  -2245  -2008  -1879  -1769  -1557  -1170  -658  -170  195  425  534  558  550  539  518  462  339  135  -119  -365  -546  -639  -659  -640  -604  -560  -512  -441  -311  -100  178  492  774  952  1027  1055  1053  951  658  184  -393  -1056  -1761  -2316  -2580  -2611  -2528  -2363  -2090  -1711  -1271  -816  -346  179  792  1433  1942  2212  2272  2153  1787  1145  403  -185  -539  -715  -731  -565  -285  -8  249  580  992  1327  1476  1495  1443  1516  2153  3651  5866  8197  9664  9454  7527  4574  1572  -661  -1742  -1833  -1434  -984  -697  -618  -653  -676  -640  -573  -515  -491  -520  -606  -730  -872  -1059  -1345  -1722  -2121  -2495  -2820  -3071  -3232  -3308  -3329  -3312  -3204  -2938  -2536  -2085  -1620  -1124  -625  -228  2  127  230  324  392  425  430  422  413  413  435  482  552  643  765  949  1212  1509  1780  1988  2113  2180  2291  2548  2916  3227  3369  3369  3310  3257  3245  3256  3256  3220  3126  2957  2719  2454  2236  2083  1873  1439  762  6  -600  -919  -997  -998  -1063  -1216  -1395  -1535  -1616  -1650  -1654  -1625  -1532  -1334  -1036  -730  -523  -455  -542  -808  -1197  -1545  -1724  -1744  -1690  -1622  -1567  -1516  -1454  -1387  -1332  -1257  -1076  -749  -372  -92  30  34  -35  -163  -326  -468  -542  -553  -539  -519  -477  -395  -236  32  384  757  1151  1613  2114  2513  2711  2753  2741  2707  2599  2381  2104  1817  1421  804  79  -483  -738  -754  -658  -527  -402  -283  -111  153  461  716  862  917  931  935  917  827  601  202  -300  -733  -962  -1010  -964  -859  -719  -591  -531  -584  -745  -936  -1105  -1244  -1328  -1322  -1220  -1056  -892  -768  -677  -587  -460  -275  -43  205  422  540  529  431  301  182  101  51  0  -101  -305  -625  -974  -1204  -1253  -1169  -1030  -897  -805  -763  -739  -695  -699  -798  -880  -841  -620  4  1379  3561  6002  7766  7978  6331  3393  207  -2282  -3578  -3851  -3622  -3292  -3069  -3010  -3031  -3050  -3054  -3011  -2829  -2423  -1861  -1336  -960  -703  -506  -356  -302  -403  -652  -960  -1243  -1478  -1629  -1634  -1515  -1369  -1205  -946  -598  -262  4  222  403  521  569  578  593  617  604  507  347  196  109  86  99  141  245  490  963  1665  2468  3160  3576  3721  3730  3712  3687  3633  3541  3450  3398  3384  3385  3388  3389  3382  3358  3298  3154  2882  2500  2116  1840  1640  1378  1010  633  332  93  -144  -394  -600  -732  -806  -840  -825  -752  -636  -497  -362  -277  -280  -371  -512  -679  -891  -1126  -1309  -1454  -1679  -2041  -2489  -2959  -3380  -3668  -3798  -3782  -3580  -3178  -2718  -2387  -2208  -2092  -1993  -1907  -1805  -1657  -1521  -1506  -1609  -1723  -1809  -1938  -2169  -2466  -2720  -2858  -2889  -2850  -2759  -2625  -2442  -2198  -1928  -1694  -1501  -1336  -1211  -1132  -1075  -1014  -949  -899  -869  -862  -903  -1011  -1149  -1244  -1241  -1138  -979  -824  -688  -558  -447  -397  -436  -557  -731  -904  -1012  -1030  -988  -925  -847  -702  -430  -71  250  463  600  744  944  1167  1303  1301  1247  1237  1256  1224  1078  802  429  19  -336  -527  -528  -440  -392  -425  -382  147  1622  4045  6675  8395  8393  6659  4037  1683  358  112  414  636  537  221  -163  -523  -795  -943  -994  -1013  -1040  -1072  -1095  -1101  -1057  -924  -730  -561  -478  -496  -644  -939  -1358  -1841  -2282  -2562  -2650  -2591  -2403  -2085  -1644  -1123  -613  -188  156  453  693  868  1002  1112  1187  1195  1098  894  646  402  175  -4  -116  -178  -202  -188  -136  -52  32  83  116  212  444  795  1135  1337  1404  1453  1613  1909  2235  2470  2581  2608  2611  2624  2621  2521  2256  1869  1481  1149  840  482  30  -497  -985  -1290  -1384  -1366  -1345  -1300  -1072  -542  192  915  1476  1760  1736  1560  1450  1517  1742  1974  1981  1608  854  -99  -920  -1338  -1355  -1181  -1030  -987  -946  -745  -351  170  727  1197  1523  1723  1820  1845  1824  1726  1450  905  162  -580  -1195  -1665  -2019  -2315  -2574  -2748  -2773  -2640  -2379  -2038  -1652  -1172  -534  155  682  949  1000  878  590  206  -135  -368  -557  -811  -1147  -1478  -1718  -1855  -1901  -1846  -1661  -1336  -933  -573  -337  -204  -107  -24  22  -9  -142  -340  -516  -631  -700  -749  -788  -804  -791  -764  -726  -637  -462  -206  88  360  551  654  705  745  792  828  801  660  407  113  -141  -359  -618  -951  -1283  -1513  -1627  -1682  -1712  -1713  -1603  -1117  64  2054  4667  7319  9071  9228  7767  5185  2299  -20  -1332  -1819  -1949  -2041  -2152  -2173  -2020  -1810  -1698  -1679  -1667  -1604  -1468  -1271  -1052  -863  -755  -763  -894  -1109  -1314  -1453  -1546  -1625  -1679  -1685  -1626  -1491  -1299  -1114  -980  -864  -691  -423  -70  348  751  993  1028  956  873  794  701  607  528  489  537  657  764  826  892  1004  1165  1405  1769  2203  2547  2718  2784  2841  2935  3077  3241  3370  3431  3390  3173  2767  2330  2052  1968  1963  1897  1676  1320  939  644  487  449  471  517  568  600  575  468  305  149  33  -39  -96  -187  -328  -502  -675  -803  -860  -839  -728  -531  -280  -11  241  444  597  712  792  846  888  919  925  880  759  580  403  279  211  159  101  63  104  265  498  697  830  949  1084  1227  1381  1556  1750  1922  1996  1896  1633  1330  1101  920  708  460  228  55  -32  -53  -62  -102  -171  -225  -242  -244  -250  -232  -154  -2  162  205  41  -254  -533  -751  -937  -1081  -1173  -1289  -1516  -1823  -2098  -2289  -2414  -2499  -2587  -2725  -2896  -3050  -3160  -3214  -3219  -3206  -3225  -3312  -3455  -3601  -3699  -3742  -3770  -3823  -3908  -3976  -3926  -3698  -3395  -3167  -2983  -2668  -2143  -1551  -1078  -743  -449  -160  72  202  236  217  184  157  133  104  66  23  -3  23  94  160  202  283  513  862  1054  939  804  1049  2014  3945  6550  8918  10091  9524  7340  4339  1587  -155  -763  -634  -294  -108  -189  -438  -679  -814  -858  -854  -798  -657  -460  -268  -86  88  210  257  258  247  231  198  125  -20  -260  -544  -757  -832  -793  -693  -575  -455  -338  -219  -105  -7  79  166  240  271  251  214  179  129  43  -73  -203  -311  -375  -409  -425  -371  -158  250  803  1387  1836  2053  2124  2195  2313  2413  2428  2318  2043  1624  1179  799  477  181  -100  -394  -689  -909  -1025  -1076  -1107  -1136  -1172  -1217  -1269  -1342  -1453  -1598  -1743  -1843  -1906  -1978  -2057  -2109  -2135  -2160  -2181  -2191  -2203  -2219  -2220  -2188  -2122  -2050  -2005  -1995  -2012  -2051  -2114  -2189  -2246  -2245  -2145  -1943  -1714  -1549  -1470  -1434  -1389  -1305  -1191  -1081  -1007  -965  -923  -871  -807  -725  -638  -572  -529  -475  -367  -174  67  262  360  417  531  734  967  1159  1283  1342  1349  1318  1254  1149  983  748  483  240  56  -39  -52  -6  64  102  68  2  -45  -70  -88  -91  -33  127  343  502  559  554  540  538  544  551  558  563  556  525  475  443  501  700  977  1196  1307  1343  1309  1174  946  700  514  382  251  101  -42  -152  -231  -282  -268  -158  8  158  291  501  829  1207  1558  2022  2988  4748  7074  9159  10042  9174  6784  3770  1117  -618  -1403  -1605  -1709  -1947  -2220  -2394  -2496  -2585  -2651  -2652  -2562  -2420  -2290  -2165  -1997  -1802  -1631  -1509  -1424  -1363  -1327  -1328  -1356  -1382  -1389  -1372  -1300  -1139  -925  -758  -669  -608  -531  -432  -298  -96  153  362  488  537  476  287  51  -147  -279  -340  -337  -290  -232  -176  -72  162  598  1245  1985  2597  2950  3114  3234  3387  3549  3662  3710  3680  3498  3083  2488  1878  1325  795  329  24  -113  -159  -158  -107  -5  115  212  287  363  428  445  387  270  153  74  -10  -171  -434  -809  -1284  -1772  -2173  -2459  -2643  -2729  -2722  -2618  -2419  -2181  -1962  -1758  -1552  -1370  -1222  -1037  -748  -420  -198  -124  -119  -99  -43  15  12  -133  -457  -876  -1239  -1458  -1566  -1635  -1689  -1679  -1502  -1116  -670  -390  -334  -373  -348  -175  111  410  651  821  919  924  823  661  503  360  208  65  -21  -45  -37  -21  -5  -6  -43  -96  -76  67  268  433  538  612  711  862  1031  1148  1157  997  653  233  -95  -280  -401  -539  -717  -940  -1195  -1424  -1568  -1621  -1611  -1567  -1506  -1427  -1309  -1161  -1030  -924  -832  -770  -746  -745  -762  -811  -889  -961  -998  -1005  -1013  -1052  -1116  -1137  -1065  -943  -835  -745  -667  -616  -597  -589  -553  -454  -297  -126  0  11  -140  -404  -634  -729  -748  -865  -1249  -1859  -2208  -1626  154  2863  5782  7913  8505  7455  5288  2880  964  -178  -654  -776  -811  -834  -870  -968  -1107  -1217  -1276  -1306  -1332  -1360  -1381  -1392  -1391  -1363  -1277  -1130  -961  -817  -726  -680  -643  -588  -517  -443  -351  -198  23  254  402  441  407  329  215  87  -8  -51  -66  -98  -159  -211  -210  -147  -45  96  352  771  1266  1683  1966  2150  2274  2355  2421  2495  2575  2664  2779  2933  3113  3288  3416  3467  3410  3204  2877  2569  2392  2321  2262  2125  1848  1434  925  354  -214  -660  -899  -986  -1044  -1130  -1209  -1247  -1253  -1237  -1168  -990  -691  -365  -148  -63  -23  33  108  197  281  325  308  203  -20  -320  -578  -742  -821  -806  -704  -570  -460  -375  -247  -1  333  669  982  1252  1415  1457  1435  1405  1377  1350  1320  1248  1092  896  751  685  677  706  764  864  1016  1196  1357  1465  1502  1448  1309  1124  933  759  612  486  374  306  329  403  447  458  487  552  633  713  780  790  629  214  -316  -685  -800  -796  -811  -874  -941  -982  -1004  -1021  -1029  -1022  -1002  -975  -945  -924  -919  -933  -959  -988  -1021  -1067  -1107  -1129  -1157  -1223  -1326  -1435  -1536  -1677  -1925  -2238  -2479  -2575  -2541  -2385  -2102  -1742  -1361  -940  -484  -104  103  158  126  47  -50  -144  -247  -400  -594  -750  -821  -832  -820  -802  -782  -739  -656  -547  -451  -379  -328  -362  -565  -894  -1193  -1248  -677  924  3428  6022  7712  7805  6228  3645  1100  -612  -1293  -1218  -844  -541  -460  -553  -687  -790  -901  -1055  -1228  -1397  -1535  -1606  -1597  -1529  -1455  -1418  -1397  -1377  -1407  -1518  -1669  -1808  -1914  -1961  -1881  -1591  -1106  -575  -154  81  164  177  183  208  257  301  282  156  -30  -165  -189  -145  -86  -31  34  161  394  715  1051  1324  1490  1568  1603  1608  1589  1583  1623  1704  1812  1932  2014  2016  1960  1914  1897  1838  1656  1362  1072  897  843  844  825  757  663  583  528  477  407  294  109  -142  -406  -625  -786  -886  -911  -875  -834  -857  -963  -1072  -1071  -954  -811  -686  -568  -468  -428  -457  -509  -536  -533  -515  -493  -461  -430  -460  -613  -837  -992  -1015  -960  -903  -873  -864  -865  -871  -883  -894  -870  -762  -556  -297  -66  58  74  47  26  22  32  50  63  50  -2  -130  -379  -694  -928  -1015  -1016  -975  -866  -666  -441  -290  -232  -217  -204  -194  -209  -263  -335  -387  -413  -451  -531  -651  -806  -1001  -1233  -1468  -1651  -1756  -1797  -1805  -1806  -1793  -1726  -1551  -1265  -958  -737  -623  -565  -480  -317  -106  81  212  282  286  237  155  18  -198  -441  -603  -649  -631  -602  -584  -576  -576  -581  -587  -577  -530  -448  -363  -307  -284  -279  -296  -325  -330  -302  -339  -547  -801  -775  -171  1274  3518  5885  7463  7656  6342  3972  1476  -284  -1001  -938  -652  -608  -874  -1249  -1567  -1765  -1837  -1837  -1825  -1821  -1817  -1785  -1708  -1580  -1425  -1280  -1172  -1126  -1142  -1172  -1178  -1155  -1115  -1076  -1045  -1010  -968  -925  -875  -772  -542  -193  139  335  393  377  346  344  418  594  815  988  1068  1082  1068  1056  1076  1171  1351  1556  1700  1781  1849  1929  2017  2116  2239  2377  2509  2648  2819  2986  3086  3108  3087  3049  2982  2837  2581  2259  1977  1798  1686  1537  1252  855  484  236  88  -24  -121  -172  -165  -131  -106  -91  -61  -6  54  100  123  114  33  -147  -391  -615  -758  -809  -791  -747  -703  -660  -624  -604  -601  -605  -610  -607  -582  -519  -441  -427  -546  -765  -963  -1059  -1069  -1046  -1018  -992  -953  -888  -817  -774  -762  -767  -778  -775  -742  -682  -621  -592  -581  -550  -505  -461  -409  -341  -248  -112  74  288  476  589  613  560  430  236  31  -134  -295  -518  -774  -959  -1023  -988  -877  -712  -533  -358  -167  74  379  685  885  948  936  902  844  741  601  464  367  319  298  270  223  170  139  147  198  270  319  305  218  101  23  0]
