reading_id,reading_time,wire_id,result_classification,heart_rate,heart_rate_alert,firmware_version,device_app_version,hardware_version,waveform_samples
e8f80590-5b16-11ed-8080-808080808080,Thu Nov 03 01:29:07 UTC 2022,4101e3b01d39,NSR,75,NONE,20001.171.50,2.10.0,Charge 5,[11334  13073  14308  14995  15462  15964  16499  16974  17360  17697  17991  18221  18441  18738  19101  19439  19653  19692  19569  19315  18952  18552  18239  18083  18056  18088  18130  18137  18035  17762  17347  16936  16678  16620  16780  17176  17695  18082  18067  17431  16157  14565  13101  11976  11056  10122  9175  8350  7646  6985  6320  5569  4761  4126  3820  3731  3667  3561  3453  3371  3305  3263  3283  3437  3767  4186  4495  4583  4498  4316  4024  3593  3099  2687  2432  2317  2291  2302  2345  2472  2816  3504  4447  5285  5723  5806  5756  5712  5702  5717  5747  5758  5661  5371  4930  4473  4087  3781  3516  3164  2564  1760  1045  634  487  468  483  482  409  255  147  245  531  901  1365  2058  3265  5265  7791  9909  10569  9162  5909  1953  -1245  -2851  -3090  -2795  -2596  -2641  -2815  -2971  -3054  -3114  -3262  -3593  -4037  -4382  -4535  -4593  -4682  -4853  -5088  -5340  -5567  -5730  -5799  -5803  -5803  -5819  -5840  -5858  -5864  -5851  -5827  -5839  -5994  -6376  -6912  -7433  -7825  -8071  -8242  -8442  -8695  -8926  -9054  -9043  -8863  -8534  -8171  -7903  -7769  -7731  -7705  -7561  -7209  -6729  -6311  -6010  -5733  -5434  -5171  -5015  -4971  -5001  -5092  -5236  -5392  -5532  -5680  -5905  -6229  -6575  -6830  -6959  -6997  -6978  -6912  -6824  -6762  -6753  -6776  -6806  -6831  -6833  -6762  -6570  -6296  -6057  -5921  -5845  -5734  -5537  -5300  -5130  -5071  -5099  -5192  -5332  -5475  -5535  -5324  -4663  -3722  -2970  -2656  -2689  -2958  -3407  -3873  -4158  -4252  -4291  -4360  -4450  -4573  -4785  -5060  -5260  -5268  -5069  -4744  -4420  -4160  -3954  -3789  -3674  -3608  -3570  -3542  -3523  -3513  -3494  -3446  -3382  -3336  -3321  -3325  -3337  -3348  -3340  -3265  -3090  -2867  -2708  -2654  -2655  -2647  -2606  -2553  -2508  -2459  -2406  -2380  -2449  -2701  -3187  -3912  -4830  -5751  -6402  -6685  -6727  -6686  -6612  -6480  -6271  -6010  -5743  -5501  -5310  -5201  -5187  -5280  -5490  -5761  -5987  -6108  -6140  -6145  -6192  -6311  -6450  -6520  -6486  -6390  -6235  -5916  -5375  -4761  -4288  -4062  -4098  -4295  -4302  -3597  -1868  758  3714  5973  6482  4940  1989  -1237  -3658  -4730  -4651  -4043  -3460  -3131  -2992  -2834  -2497  -2021  -1477  -764  140  961  1432  1559  1466  1236  954  723  562  448  410  475  584  652  687  785  992  1272  1563  1813  1994  2140  2306  2520  2774  3018  3183  3245  3241  3226  3241  3313  3429  3551  3677  3857  4182  4702  5329  5881  6247  6467  6664  6890  7088  7241  7430  7673  7858  7844  7542  6986  6335  5766  5360  5031  4614  4072  3526  3115  2851  2646  2439  2263  2162  2149  2241  2450  2717  2937  3040  3019  2887  2685  2503  2395  2321  2248  2223  2273  2294  2189  2002  1814  1630  1445  1322  1342  1545  1877  2185  2363  2421  2439  2494  2601  2706  2768  2800  2822  2808  2625  2144  1476  919  594  378  176  4  -163  -400  -684  -900  -1010  -1089  -1185  -1271  -1313  -1291  -1180  -990  -816  -781  -954  -1292  -1635  -1855  -1963  -2012  -2016  -2006  -2027  -2064  -2059  -1965  -1783  -1576  -1406  -1267  -1117  -972  -879  -851  -878  -957  -1070  -1184  -1296  -1439  -1605  -1730  -1770  -1757  -1759  -1823  -1952  -2129  -2337  -2526  -2561  -2322  -1831  -1173  -245  1338  3839  6908  9549  10544  9191  5890  1994  -1016  -2368  -2265  -1570  -1158  -1268  -1602  -1907  -2105  -2162  -2077  -1869  -1608  -1412  -1316  -1266  -1221  -1171  -1120  -1080  -1053  -1000  -880  -729  -629  -601  -597  -584  -571  -568  -576  -589  -598  -577  -499  -370  -235  -132  -75  -65  -86  -92  -44  41  128  234  415  665  899  1095  1348  1763  2310  2797  3058  3137  3183  3262  3338  3386  3409  3374  3190  2817  2346  1919  1597  1355  1145  855  323  -435  -1167  -1675  -1964  -2112  -2162  -2122  -1991  -1807  -1641  -1521  -1433  -1370  -1335  -1335  -1396  -1534  -1716  -1886  -2023  -2133  -2204  -2222  -2197  -2157  -2129  -2120  -2119  -2115  -2105  -2079  -2013  -1887  -1707  -1503  -1330  -1224  -1160  -1083  -984  -917  -956  -1137  -1385  -1565  -1622  -1610  -1599  -1619  -1654  -1642  -1553  -1440  -1365  -1327  -1289  -1227  -1133  -1013  -891  -795  -736  -710  -715  -753  -824  -917  -1004  -1056  -1068  -1070  -1091  -1134  -1183  -1222  -1245  -1244  -1189  -1056  -874  -713  -620  -606  -644  -681  -690  -681  -676  -677  -678  -668  -649  -623  -594  -576  -583  -597  -549  -335  135  855  1633  2196  2425  2400  2238  2029  1843  1684  1506  1310  1158  1101  1114  1090  857  312  -300  -500  -64  916  2375  4313  6658  9230  11572  12841  12245  9775  6329  3122  1078  388  474  623  578  466  460  551  632  678  724  799  912  1029  1105  1130  1116  1058  950  808  677  604  614  692  787  838  832  797  761  741  750  797  890  1006  1088  1108  1076  1020  982  1036  1248  1571  1844  1977  2034  2122  2268  2416  2510  2562  2648  2842  3151  3501  3812  4051  4239  4423  4590  4628  4434  4062  3699  3466  3320  3152  2873  2421  1799  1163  721  510  408  316  218  102  -83  -350  -612  -776  -829  -817  -802  -840  -966  -1138  -1262  -1295  -1270  -1249  -1309  -1503  -1772  -1970  -2026  -1979  -1892  -1814  -1770  -1757  -1772  -1828  -1929  -2054  -2163  -2224  -2241  -2227  -2197  -2181  -2196  -2233  -2294  -2384  -2495  -2602  -2676  -2717  -2758  -2818  -2882  -2927  -2937  -2931  -2966  -3089  -3256  -3347  -3305  -3205  -3168  -3237  -3350  -3411  -3391  -3361  -3397  -3468  -3468  -3384  -3304  -3286  -3298  -3292  -3270  -3267  -3285  -3298  -3326  -3456  -3749  -4142  -4503  -4746  -4852  -4838  -4725  -4546  -4354  -4201  -4120  -4101  -4109  -4118  -4118  -4114  -4112  -4125  -4155  -4170  -4092  -3865  -3546  -3262  -3069  -2950  -2893  -2892  -2930  -2981  -3020  -3038  -3032  -3018  -3039  -3134  -3266  -3326  -3240  -3035  -2796  -2598  -2502  -2567  -2797  -3067  -3188  -3014  -2432  -1344  307  2528  5138  7632  9304  9464  7841  4991  2001  -277  -1575  -2004  -1838  -1397  -847  -178  589  1324  1887  2269  2547  2756  2893  2959  2980  2976  2929  2805  2634  2497  2433  2413  2410  2419  2449  2525  2664  2827  2950  3046  3190  3409  3660  3886  4050  4153  4192  4099  3818  3452  3193  3110  3132  3183  3243  3324  3449  3601  3717  3772  3806  3853  3925  4044  4243  4513  4786  4991  5111  5175  5196  5109  4809  4284  3663  3095  2647  2326  2133  2024  1891  1645  1287  898  549  262  47  -88  -157  -193  -242  -326  -416  -475  -509  -554  -617  -664  -657  -590  -499  -434  -404  -369  -284  -157  -40  19  10  -64  -193  -344  -473  -549  -573  -568  -545  -483  -370  -235  -137  -88  -52  -4  56  141  237  276  182  -52  -338  -565  -699  -770  -821  -872  -913  -937  -957  -985  -1008  -968  -778  -393  119  598  900  1007  998  925  792  632  511  457  438  425  414  398  366  320  286  293  352  444  536  606  631  617  629  696  776  833  883  922  895  733  453  164  -42  -153  -192  -187  -148  -77  14  109  192  222  104  -203  -480  -379  152  942  1976  3399  5294  7582  9916  11577  11745  10141  7258  3976  1228  -289  -569  -195  254  506  543  484  428  396  396  432  456  394  227  18  -183  -405  -675  -947  -1158  -1287  -1350  -1373  -1377  -1381  -1393  -1395  -1379  -1362  -1342  -1237  -964  -585  -277  -131  -108  -138  -173  -183  -163  -122  -72  -29  4  40  113  268  502  732  876  973  1137  1402  1702  1982  2211  2347  2360  2252  2056  1858  1747  1743  1808  1850  1683  1138  348  -301  -626  -745  -843  -1010  -1230  -1416  -1519  -1558  -1568  -1572  -1584  -1650  -1824  -2079  -2296  -2401  -2424  -2419  -2402  -2353  -2258  -2127  -1989  -1890  -1859  -1867  -1849  -1772  -1681  -1625  -1609  -1606  -1600  -1610  -1682  -1833  -2011  -2131  -2164  -2141  -2087  -2015  -1934  -1857  -1790  -1730  -1682  -1653  -1630  -1566  -1434  -1270  -1158  -1140  -1200  -1307  -1426  -1528  -1610  -1667  -1680  -1674  -1689  -1720  -1747  -1779  -1821  -1838  -1776  -1611  -1406  -1268  -1229  -1239  -1224  -1144  -1024  -926  -878  -863  -860  -859  -850  -820  -767  -702  -632  -571  -546  -573  -629  -679  -708  -733  -768  -807  -834  -850  -872  -916  -970  -1005  -1011  -1005  -1019  -1079  -1181  -1309  -1457  -1585  -1659  -1753  -1897  -1904  -1568  -817  463  2448  5062  7776  9731  10103  8578  5663  2468  64  -1106  -1366  -1338  -1374  -1464  -1498  -1437  -1318  -1184  -1036  -879  -736  -632  -577  -557  -554  -569  -645  -833  -1111  -1368  -1500  -1486  -1351  -1153  -979  -886  -865  -864  -790  -560  -218  68  192  182  104  13  -53  -82  -88  -84  -76  -67  -62  -45  69  394  930  1513  1970  2265  2457  2619  2792  2974  3125  3207  3222  3208  3207  3219  3187  3013  2655  2200  1794  1492  1231  916  477  -88  -646  -995  -1082  -1021  -927  -823  -679  -513  -400  -364  -340  -258  -127  -31  -47  -194  -401  -548  -574  -502  -397  -325  -311  -344  -399  -433  -377  -182  92  293  322  182  -51  -273  -415  -454  -404  -315  -239  -200  -197  -213  -235  -257  -281  -315  -367  -435  -507  -592  -685  -749  -751  -687  -585  -477  -371  -265  -164  -59  61  175  246  247  146  -57  -283  -421  -442  -399  -346  -306  -294  -326  -403  -486  -529  -522  -483  -419  -348  -298  -279  -271  -258  -240  -217  -166  -57  93  218  268  239  146  9  -151  -334  -533  -713  -822  -847  -824  -792  -764  -744  -720  -662  -557  -415  -251  -84  57  131  95  -61  -274  -430  -489  -498  -520  -591  -697  -797  -878  -970  -1115  -1312  -1487  -1524  -1297  -750  66  1232  3026  5504  8172  10103  10310  8390  5033  1629  -678  -1503  -1220  -644  -387  -477  -672  -841  -950  -986  -962  -904  -840  -792  -763  -760  -812  -949  -1129  -1261  -1298  -1262  -1201  -1170  -1176  -1152  -1072  -983  -903  -787  -602  -373  -160  7  136  232  318  425  564  735  941  1177  1407  1571  1626  1574  1459  1340  1281  1346  1574  1884  2121  2221  2233  2222  2265  2460  2810  3165  3369  3392  3281  3077  2779  2356  1815  1260  833  578  348  -44  -611  -1182  -1612  -1900  -2098  -2207  -2199  -2075  -1889  -1730  -1638  -1597  -1575  -1557  -1550  -1562  -1580  -1589  -1586  -1580  -1576  -1564  -1537  -1508  -1506  -1537  -1585  -1640  -1694  -1737  -1771  -1809  -1862  -1931  -2002  -2051  -2064  -2030  -1940  -1825  -1760  -1785  -1881  -2001  -2107  -2178  -2220  -2268  -2345  -2427  -2479  -2509  -2554  -2648  -2807  -3033  -3304  -3511  -3531  -3387  -3219  -3121  -3083  -3041  -2953  -2857  -2838  -2914  -3034  -3149  -3247  -3322  -3370  -3398  -3417  -3434  -3449  -3468  -3490  -3509  -3494  -3391  -3178  -2923  -2732  -2640  -2603  -2568  -2517  -2473  -2439  -2391  -2323  -2242  -2156  -2091  -2064  -2067  -2086  -2126  -2176  -2214  -2226  -2209  -2156  -2034  -1819  -1548  -1301  -1099  -897  -663  -408  -174  -18  109  352  773  1410  2441  4113  6526  9441  12175  13754  13481  11477  8582  5839  4084  3568  3864  4326  4595  4629  4522  4366  4213  4093  4033  4032  4064  4119  4208  4308  4354  4290  4121  3919  3777  3718  3678  3581  3422  3265  3161  3114  3102  3108  3124  3143  3163  3176  3160  3091  2964  2810  2668  2582  2610  2764  2978  3166  3297  3387  3436  3427  3369  3316  3316  3396  3560  3766  3934  4020  4023  3937  3747  3489  3255  3119  3078  3045  2886  2507  1981  1502  1159  881  583  246  -90  -351  -500  -582  -666  -755  -795  -765  -702  -647  -614  -616  -689  -882  -1172  -1442  -1605  -1707  -1825  -1947  -2014  -2031  -2032  -1986  -1811  -1498  -1163  -923  -805  -768  -743  -626  -364  -96  -66  -287  -526  -632  -636  -618  -627  -677  -757  -831  -882  -922  -961  -989  -1003  -1014  -1019  -985  -869  -689  -531  -456  -464  -537  -655  -789  -897  -944  -940  -941  -992  -1083  -1162  -1204  -1219  -1219  -1198  -1133  -1021  -906  -837  -815  -810  -805  -803  -803  -779  -705  -596  -498  -421  -316  -147  43  178  222  160  -28  -311  -585  -799  -990  -1172  -1291  -1331  -1327  -1309  -1273  -1216  -1159  -1113  -1024  -813  -497  -180  81  400  1146  2762  5263  7987  9862  9909  7877  4519  1069  -1436  -2562  -2667  -2446  -2286  -2280  -2410  -2574  -2674  -2685  -2609  -2450  -2246  -2081  -2018  -2070  -2211  -2382  -2511  -2567  -2572  -2568  -2581  -2613  -2635  -2627  -2603  -2584  -2569  -2558  -2545  -2509  -2419  -2269  -2102  -1965  -1849  -1717  -1549  -1354  -1162  -1010  -923  -898  -904  -914  -919  -912  -883  -825  -723  -550  -276  100  486  735  804  775  729  675  575  407  169  -167  -603  -1025  -1333  -1589  -1936  -2368  -2719  -2888  -2959  -3054  -3180  -3258  -3255  -3198  -3099  -2967  -2838  -2733  -2645  -2560  -2473  -2397  -2337  -2285  -2253  -2240  -2207  -2133  -2031  -1896  -1725  -1531  -1316  -1092  -886  -661  -305  241  839  1240  1369  1350  1296  1236  1165  1080  971  853  772  742  740  744  759  791  837  886  933  983  1048  1147  1286  1435  1534  1543  1456  1289  1091  887  655  418  254  184  148  107  69  43  27  43  176  511  1000  1429  1641  1676  1654  1634  1600  1519  1398  1253  1052  795  561  415  345  329  410  663  1065  1453  1703  1835  1915  1946  1907  1816  1681  1455  1121  772  491  255  38  -109  -169  -210  -309  -477  -666  -803  -797  -520  152  1318  3050  5310  7832  10115  11486  11284  9281  6057  2729  303  -773  -736  -249  81  12  -305  -577  -696  -726  -718  -659  -509  -303  -158  -182  -397  -699  -920  -992  -952  -846  -702  -544  -395  -276  -208  -183  -170  -152  -149  -178  -209  -196  -127  -13  141  303  416  452  417  335  245  182  158  170  237  385  602  874  1205  1564  1883  2121  2288  2408  2494  2544  2546  2475  2311  2103  1960  1931  1949  1865  1488  749  -130  -783  -1060  -1099  -1079  -1067  -1076  -1136  -1273  -1464  -1639  -1730  -1699  -1544  -1332  -1181  -1165  -1282  -1474  -1667  -1850  -2066  -2300  -2478  -2567  -2587  -2534  -2372  -2099  -1804  -1601  -1528  -1555  -1648  -1774  -1889  -1978  -2043  -2091  -2127  -2161  -2195  -2223  -2238  -2234  -2204  -2135  -2015  -1841  -1628  -1427  -1301  -1267  -1310  -1418  -1581  -1735  -1795  -1764  -1716  -1689  -1690  -1776  -2018  -2357  -2603  -2604  -2337  -1928  -1588  -1430  -1408  -1439  -1486  -1538  -1569  -1533  -1399  -1213  -1077  -1044  -1096  -1193  -1303  -1396  -1441  -1419  -1339  -1231  -1132  -1051  -936  -711  -353  37  287  296  95  -186  -404  -525  -595  -633  -625  -571  -499  -451  -442  -447  -430  -366  -279  -220  -207  -199  -133  27  257  502  716  847  806  486  -120  -775  -1044  -576  746  2919  5754  8646  10673  11054  9537  6602  3344  876  -332  -542  -322  -128  -141  -272  -367  -408  -484  -669  -939  -1180  -1310  -1345  -1344  -1343  -1353  -1382  -1440  -1508  -1526  -1464  -1348  -1221  -1094  -906  -584  -181  159  400  580  698  749  758  747  714  652  565  480  415  374  366  434  617  856  1031  1118  1240  1519  1919  2265  2440  2475  2460  2446  2456  2536  2760  3111  3443  3618  3593  3371  3007  2619  2305  2074  1910  1824  1805  1796  1708  1471  1105  710  375  156  66  69  123  215  331  433  489  493  445  337  188  48  -56  -128  -179  -210  -222  -225  -228  -215  -156  -44  83  176  220  255  330  438  521  535  471  343  177  11  -110  -177  -222  -295  -432  -618  -778  -862  -886  -871  -788  -599  -338  -113  -2  -9  -115  -289  -475  -661  -890  -1146  -1330  -1408  -1467  -1603  -1796  -1943  -1987  -1943  -1827  -1623  -1329  -991  -665  -389  -205  -133  -140  -181  -228  -266  -288  -305  -337  -384  -403  -366  -330  -374  -510  -693  -858  -936  -895  -771  -630  -520  -473  -518  -634  -756  -842  -905  -949  -900  -725  -562  -526  -530  -243  877  3143  6166  8945  10343  9653  7061  3641  735  -845  -1161  -832  -460  -340  -454  -650  -842  -976  -998  -911  -779  -666  -587  -544  -559  -635  -724  -781  -791  -759  -690  -603  -534  -510  -525  -551  -557  -493  -326  -105  56  104  70  6  -50  -78  -67  -17  65  156  216  236  256  327  472  683  931  1174  1400  1639  1880  2078  2232  2357  2447  2530  2654  2818  2976  3096  3180  3222  3127  2740  2044  1311  846  652  509  274  -41  -378  -669  -857  -959  -1057  -1196  -1354  -1478  -1544  -1567  -1566  -1525  -1417  -1276  -1205  -1269  -1433  -1615  -1752  -1801  -1726  -1522  -1243  -1001  -912  -1005  -1197  -1376  -1487  -1535  -1546  -1533  -1478  -1360  -1211  -1104  -1071  -1080  -1092  -1088  -1054  -998  -947  -920  -906  -876  -815  -731  -663  -649  -681  -706  -701  -685  -679  -681  -679  -655  -595  -517  -458  -443  -479  -552  -611  -622  -614  -616  -615  -585  -522  -441  -384  -386  -434  -480  -494  -485  -483  -524  -621  -720  -752  -723  -681  -652  -640  -643  -651  -645  -592  -468  -308  -188  -145  -175  -274  -420  -561  -670  -746  -801  -848  -896  -929  -926  -880  -800  -703  -585  -425  -253  -193  -324  -426  -102  957  3004  5973  9078  11079  10975  8623  4927  1325  -955  -1489  -859  -42  389  316  -121  -597  -845  -843  -717  -604  -579  -650  -772  -870  -896  -829  -680  -532  -462  -450  -458  -466  -416  -302  -191  -121  -86  -79  -87  -96  -85  -30  67  174  252  290  299  283  234  151  49  -33  -19  153  455  784  1084  1369  1672  1980  2228  2364  2404  2397  2361  2294  2217  2164  2148  2147  2144  2130  2076  1915  1591  1170  814  591  396  109  -246  -549  -724  -802  -846  -874  -883  -878  -862  -843  -831  -835  -856  -866  -793  -580  -302  -128  -114  -175  -234  -298  -383  -467  -506  -466  -340  -145  63  199  200  51  -202  -470  -662  -738  -710  -630  -546  -481  -436  -413  -424  -488  -601  -713  -773  -780  -768  -759  -751  -740  -735  -757  -807  -857  -875  -862  -845  -842  -873  -952  -1078  -1220  -1340  -1423  -1473  -1497  -1496  -1473  -1441  -1414  -1418  -1475  -1588  -1714  -1802  -1837  -1840  -1832  -1815  -1780  -1739  -1727  -1768  -1844  -1909  -1939  -1942  -1930  -1911  -1893  -1886  -1891  -1903  -1917  -1926  -1911  -1830  -1659  -1439  -1250  -1136  -1063  -970  -821  -645  -530  -540  -659  -855  -1117  -1384  -1559  -1633  -1681  -1761  -1858  -1926  -1954  -1953  -1902  -1763  -1564  -1406  -1384  -1569  -1955  -2352  -2462  -2191  -1697  -1082  -239  1144  3434  6472  9347  10947  10536  8144  4705  1517  -537  -1266  -1075  -677  -525  -575  -636  -673  -710  -730  -727  -725  -740  -759  -754  -699  -596  -470  -354  -282  -282  -366  -515  -675  -784  -826  -831  -820  -769  -646  -471  -316  -238  -233  -262  -285  -232  -40  263  571  823  1024  1162  1224  1238  1249  1269  1297  1366  1504  1670  1802  1898  1984  2091  2268  2525  2795  2993  3087  3106  3098  3099  3113  3098  2979  2667  2115  1401  741  315  110  -28  -265  -640  -1032  -1305  -1455  -1545  -1600  -1627  -1640  -1619  -1489  -1200  -835  -540  -375  -310  -283  -246  -183  -119  -83  -78  -96  -132  -164  -160  -116  -59  -27  -22  -21  -17  -17  -22  -20  11  83  165  204  183  127  60  -18  -101  -155  -168  -172  -206  -282  -367  -427  -459  -474  -477  -477  -514  -621  -762  -833  -780  -656  -557  -523  -539  -590  -666  -743  -801  -846  -897  -937  -902  -796  -732  -781  -887  -967  -986  -964  -931  -901  -889  -924  -1013  -1100  -1115  -1068  -1032  -1021  -998  -955  -920  -907  -911  -916  -912  -888  -855  -851  -905  -986  -1043  -1059  -1060  -1066  -1076  -1085  -1123  -1259  -1522  -1835  -2078  -2197  -2217  -2166  -2043  -1879  -1765  -1795  -2006  -2307  -2467  -2224  -1430  20  2254  5129  8009  9934  10050  8193  5125  2087  147  -370  16  574  876  884  831  889  1007  1125  1257  1402  1526  1616  1679  1715  1724  1714  1688  1656  1628  1586  1489  1337  1190  1109  1094  1123  1188  1294  1426  1546  1633  1711  1815  1956  2117  2267  2375  2409  2355  2222  2070  1967  1942  2000  2138  2305  2419  2453  2442  2421  2422  2493  2669  2912  3130  3273  3357  3383  3352  3301  3244  3160  3054  2945  2759  2383  1865  1407  1101  868  646  439  258  118  30  -44  -181  -418  -689  -886  -979  -1024  -1055  -1068  -1073  -1089  -1104  -1088  -1027  -932  -835  -775  -751  -729  -678  -587  -486  -441  -475  -556  -665  -781  -860  -888  -894  -901  -913  -925  -926  -913  -887  -846  -804  -797  -849  -934  -996  -1009  -990  -963  -949  -987  -1120  -1317  -1482  -1551  -1538  -1479  -1390  -1276  -1159  -1079  -1061  -1092  -1120  -1077  -950  -794  -676  -631  -684  -856  -1093  -1280  -1358  -1350  -1287  -1184  -1028  -810  -578  -428  -399  -453  -528  -579  -590  -575  -549  -524  -506  -504  -544  -647  -789  -907  -972  -999  -1013  -1036  -1109  -1263  -1461  -1627  -1727  -1766  -1748  -1672  -1590  -1638  -1843  -1962  -1693  -905  432  2334  4658  6988  8749  9297  8155  5520  2314  -432  -2069  -2513  -2173  -1621  -1264  -1203  -1317  -1483  -1639  -1735  -1735  -1648  -1523  -1437  -1452  -1587  -1782  -1919  -1888  -1656  -1324  -1073  -988  -1018  -1078  -1112  -1075  -940  -735  -550  -456  -456  -509  -561  -564  -514  -449  -396  -341  -231  -18  273  559  761  852  857  839  881  1056  1369  1747  2092  2320  2411  2427  2438  2511  2694  2946  3149  3229  3143  2850  2402  1972  1663  1440  1240  1029  762  454  215  110  95  103  108  101  60  -33  -148  -228  -262  -287  -336  -420  -535  -651  -728  -760  -749  -665  -483  -260  -96  -35  -54  -126  -221  -281  -224  0  308  531  574  472  324  219  186  190  194  187  175  141  50  -110  -285  -373  -335  -245  -193  -192  -224  -271  -317  -353  -375  -382  -379  -374  -367  -349  -315  -293  -323  -423  -557  -665  -731  -777  -817  -845  -853  -833  -776  -701  -648  -632  -614  -533  -368  -176  -67  -151  -485  -942  -1270  -1351  -1256  -1114  -1016  -978  -956  -924  -908  -937  -989  -1028  -1044  -1044  -1034  -1029  -1056  -1139  -1252  -1339  -1373  -1361  -1290  -1140  -926  -714  -588  -596  -736  -948  -1136  -1256  -1344  -1480  -1725  -2027  -2247  -2320  -2293  -2216  -2121  -2048  -2048  -2115  -2171  -2145  -1992  -1594  -788  583  2698  5483  8252  9937  9776  7730  4473  1160  -1136  -2165  -2426  -2389  -2250  -2173  -2222  -2328  -2423  -2445  -2370  -2262  -2194  -2167  -2111  -1952  -1698  -1435  -1247  -1155  -1127  -1120  -1117  -1127  -1159  -1204  -1235  -1242  -1238  -1243  -1274  -1328  -1379  -1406  -1415  -1418  -1408  -1364  -1271  -1152  -1043  -895  -615  -235  96  315  453  530  557  572  637  822  1156  1568  1942  2218  2395  2489  2521  2509  2461  2388  2297  2186  2053  1920  1800  1614  1229  655  86  -298  -460  -477  -452  -436  -434  -433  -431  -433  -437  -435  -426  -417  -443  -542  -709  -881  -1003  -1065  -1063  -990  -879  -784  -731  -712  -714  -727  -742  -747  -728  -690  -654  -644  -672  -719  -755  -767  -768  -769  -771  -762  -729  -675  -593  -465  -312  -189  -98  1  102  145  110  37  -17  -43  -74  -124  -172  -205  -235  -265  -289  -301  -298  -290  -296  -334  -417  -557  -730  -866  -908  -842  -665  -391  -74  200  362  405  371  303  234  184  163  169  188  191  163  125  111  120  119  88  52  49  97  174  251  318  382  441  480  514  586  709  830  909  946  940  926  950  989  1002  954  799  551  307  156  115  144  190  225  240  225  167  98  130  396  992  2067  3873  6443  9248  11332  11764  10152  7006  3571  1070  -7  10  437  700  612  375  242  252  307  327  250  48  -204  -378  -420  -379  -320  -283  -272  -275  -280  -287  -293  -288  -260  -203  -116  -28  22  33  46  108  218  339  448  533  578  585  567  535  507  528  660  927  1260  1552  1750  1888  2007  2110  2209  2337  2490  2634  2741  2824  2914  3001  3056  3059  3000  2879  2712  2516  2277  1985  1667  1362  1091  848  598  327  65  -160  -339  -477  -603  -732  -835  -885  -898  -913  -951  -976  -933  -831  -749  -755  -853  -982  -1057  -1053  -1017  -982  -939  -888  -848  -833  -844  -878  -926  -969  -997  -1013  -1020  -999  -925  -799  -667  -576  -539  -538  -541  -522  -476  -421  -381  -373  -425  -566  -796  -1057  -1273  -1400  -1441  -1406  -1298  -1157  -1049  -993  -962  -944  -938  -929  -880  -768  -596  -408  -280  -281  -438  -708  -968  -1127  -1227  -1366  -1550  -1689  -1725  -1679  -1610  -1571  -1575  -1586  -1520  -1295  -957  -673  -543  -533  -578  -652  -736  -803  -840  -826  -706  -456  -196  -101  -202  -394  -603  -821  -1045  -1242  -1377  -1443  -1469  -1479  -1478  -1465  -1434  -1387  -1335  -1285  -1228  -1156  -1114  -1175  -1260  -1043  -195  1431  3858  6780  9318  10436  9567  6953  3592  625  -1275  -2008  -1986  -1827  -1755  -1637  -1466  -1344  -1265  -1183  -1102  -1049  -1049  -1093  -1151  -1210  -1266  -1304  -1318  -1314  -1296  -1271  -1269  -1324  -1417  -1469  -1431  -1320  -1177  -1013  -829  -636  -436  -248  -113  -56  -59  -78  -68  -17  46  106  242  554  968  1283  1416  1436  1430  1454  1565  1778  2024  2198  2288  2361  2451  2540  2604  2637  2656  2686  2726  2758  2770  2745  2604  2242  1678  1075  587  272  93  -18  -103  -181  -261  -350  -447  -538  -604  -641  -667  -690  -702  -675  -586  -448  -301  -183  -110  -66  -14  57  116  114  11  -174  -352  -453  -494  -537  -596  -644  -665  -670  -672  -673  -661  -629  -586  -545  -496  -429  -387  -418  -500  -581  -636  -664  -698  -775  -889  -998  -1074  -1102  -1073  -1007  -931  -857  -800  -774  -778  -798  -831  -880  -939  -987  -1021  -1057  -1092  -1109  -1102  -1075  -1030  -969  -907  -865  -840  -807  -750  -674  -584  -493  -434  -443  -534  -687  -849  -977  -1053  -1085  -1095  -1099  -1081  -1014  -895  -759  -649  -573  -497  -377  -225  -89  -9  -20  -154  -381  -634  -897  -1173  -1439  -1685  -1913  -2095  -2191  -2199  -2147  -2050  -1906  -1742  -1633  -1645  -1793  -2010  -2199  -2318  -2327  -2138  -1817  -1610  -1594  -1521  -987  394  2802  5918  8834  10391  9822  7277  3801  704  -1091  -1441  -1047  -775  -843  -1011  -1122  -1171  -1175  -1164  -1179  -1250  -1368  -1478  -1536  -1548  -1534  -1498  -1442  -1379  -1324  -1299  -1313  -1345  -1355  -1318  -1235  -1112  -958  -808  -711  -681  -693  -723  -755  -781  -804  -822  -799  -668  -412  -123  95  223  284  300  321  418  623  910  1239  1552  1773  1881  1928  1958  1994  2095  2334  2665  2923  2984  2806  2406  1920  1545  1347  1224  1055  789  467  180  -23  -152  -223  -252  -260  -257  -261  -320  -475  -687  -850  -909  -879  -776  -624  -478  -383  -338  -332  -363  -426  -506  -595  -676  -726  -741  -733  -711  -681  -646  -590  -475  -295  -121  -28  -18  -68  -193  -396  -606  -732  -771  -770  -764  -762  -769  -791  -818  -830  -812  -772  -735  -720  -724  -737  -752  -779  -818  -842  -807  -707  -609  -558  -542  -576  -671  -777  -843  -873  -887  -897  -902  -891  -859  -806  -718  -559  -318  -51  161  264  245  127  -28  -139  -175  -155  -91  16  139  222  239  211  190  234  343  438  444  344  181  37  -39  -68  -87  -107  -119  -118  -112  -118  -151  -180  -129  5  86  31  18  426  1623  3794  6738  9657  11408  11169  8989  5823  2939  1238  885  1319  1835  2071  1944  1568  1199  1030  1081  1272  1508  1705  1804  1768  1593  1350  1165  1093  1093  1103  1108  1128  1189  1283  1381  1478  1575  1649  1678  1680  1677  1647  1547  1373  1167  991  894  908  1027  1188  1299  1322  1302  1289  1293  1292  1277  1267  1288  1337  1388  1420  1431  1428  1418  1441  1568  1817  2092  2270  2320  2264  2115  1923  1772  1666  1468  1064  557  180  -3  -122  -280  -457  -609  -749  -911  -1087  -1228  -1322  -1407  -1499  -1558  -1517  -1340  -1093  -914  -882  -976  -1127  -1259  -1336  -1352  -1282  -1099  -864  -695  -640  -653  -681  -700  -712  -729  -785  -911  -1068  -1164  -1174  -1155  -1157  -1174  -1185  -1190  -1204  -1210  -1177  -1090  -960  -799  -634  -515  -466  -459  -467  -532  -718  -994  -1238  -1393  -1504  -1620  -1743  -1854  -1907  -1866  -1761  -1611  -1403  -1160  -941  -791  -726  -757  -856  -955  -1020  -1092  -1232  -1443  -1656  -1802  -1877  -1911  -1927  -1936  -1930  -1880  -1773  -1645  -1551  -1509  -1526  -1644  -1867  -2086  -2199  -2173  -1934  -1412  -449  1304  3966  6975  9275  9813  8160  4905  1340  -1280  -2369  -2263  -1749  -1355  -1200  -1229  -1354  -1476  -1506  -1429  -1321  -1277  -1314  -1367  -1398  -1418  -1440  -1456  -1445  -1396  -1321  -1238  -1141  -1035  -942  -850  -714  -515  -305  -168  -148  -234  -390  -557  -680  -735  -737  -709  -668  -619  -556  -475  -347  -107  242  600  898  1158  1391  1562  1669  1767  1905  2070  2191  2220  2188  2150  2109  2017  1855  1658  1480  1360  1285  1181  972  663  349  113  -47  -170  -282  -396  -511  -625  -782  -1030  -1335  -1600  -1749  -1784  -1756  -1715  -1682  -1640  -1537  -1329  -1042  -768  -587  -504  -469  -433  -382  -340  -336  -383  -473  -616  -807  -992  -1102  -1100  -952  -669  -365  -179  -132  -151  -176  -178  -143  -67  22  77  54  -68  -250  -415  -514  -554  -564  -568  -572  -579  -597  -632  -679  -716  -726  -709  -644  -490  -281  -106  0  61  90  78  21  -79  -210  -336  -413  -435  -427  -416  -410  -411  -423  -446  -460  -411  -254  -33  125  133  -9  -219  -386  -460  -445  -350  -202  -65  -3  -31  -122  -248  -381  -467  -469  -387  -266  -185  -223  -413  -674  -867  -938  -941  -939  -944  -952  -1014  -1121  -1054  -533  591  2370  4724  7303  9505  10624  10067  7817  4665  1712  -218  -900  -746  -435  -341  -458  -672  -868  -971  -998  -991  -970  -932  -869  -772  -665  -594  -573  -586  -629  -707  -796  -847  -828  -752  -652  -558  -489  -444  -401  -351  -305  -280  -277  -272  -238  -166  -85  -38  -38  -71  -113  -143  -141  -39  255  726  1213  1572  1788  1936  2076  2195  2262  2283  2299  2338  2392  2430  2432  2399  2352  2305  2251  2171  2023  1700  1128  443  -68  -293  -343  -358  -406  -489  -574  -641  -706  -799  -951  -1140  -1296  -1390  -1453  -1525  -1607  -1668  -1680  -1622  -1495  -1346  -1242  -1192  -1147  -1068  -969  -894  -836  -733  -557  -368  -250  -253  -391  -643  -940  -1197  -1362  -1435  -1452  -1437  -1406  -1379  -1366  -1363  -1364  -1364  -1362  -1358  -1353  -1350  -1353  -1359  -1367  -1372  -1360  -1318  -1252  -1188  -1151  -1152  -1175  -1194  -1193  -1172  -1142  -1111  -1076  -1023  -973  -980  -1064  -1171  -1202  -1112  -984  -920  -909  -893  -864  -845  -840  -838  -836  -834  -830  -825  -832  -854  -876  -856  -747  -544  -330  -236  -333  -581  -855  -1041  -1114  -1116  -1093  -1067  -1056  -1094  -1207  -1365  -1481  -1481  -1336  -1069  -762  -544  -547  -772  -1003  -899  -122  1584  4212  7196  9520  10204  8822  5855  2439  -327  -1813  -2040  -1604  -1145  -954  -967  -961  -853  -733  -656  -588  -492  -368  -220  -45  101  139  46  -147  -386  -589  -697  -713  -659  -536  -348  -125  89  278  470  703  951  1135  1215  1231  1239  1252  1242  1190  1112  1049  1037  1124  1351  1652  1885  1998  2054  2119  2201  2298  2445  2672  2922  3107  3235  3378  3546  3685  3759  3781  3779  3758  3639  3289  2724  2186  1900  1839  1808  1611  1176  635  210  -46  -256  -476  -631  -639  -499  -296  -137  -41  46  146  214  193  54  -201  -502  -716  -769  -687  -540  -396  -293  -242  -232  -238  -242  -241  -239  -239  -239  -239  -237  -233  -227  -218  -206  -200  -248  -396  -601  -739  -733  -610  -455  -348  -320  -342  -366  -356  -337  -355  -395  -416  -414  -420  -472  -577  -703  -814  -897  -950  -987  -1015  -983  -825  -559  -298  -124  -38  -4  8  9  -25  -127  -269  -371  -369  -258  -100  16  55  48  37  43  61  59  28  0  -18  -59  -161  -300  -408  -450  -444  -420  -386  -343  -299  -292  -389  -599  -798  -837  -688  -390  81  954  2556  4933  7583  9582  9979  8375  5354  2115  -262  -1258  -1107  -561  -253  -354  -689  -1013  -1203  -1280  -1303  -1288  -1209  -1057  -925  -953  -1143  -1347  -1459  -1496  -1528  -1583  -1627  -1619  -1564  -1495  -1426  -1317  -1113  -855  -661  -574  -528  -480  -438  -391  -305  -190  -105  -76  -82  -96  -102  -81  -17  79  174  237  268  319  462  695  938  1138  1321  1496  1633  1750  1894  2061  2200  2275  2286  2237  2115  1900  1565  1105  610  215  -66  -338  -630  -869  -1022  -1145  -1276  -1377  -1415  -1383  -1278  -1124  -986  -921  -968  -1134  -1350  -1514  -1586  -1565  -1398  -1050  -631  -336  -231  -234  -251  -264  -310  -437  -647  -868  -1014  -1070  -1084  -1088  -1077  -1035  -967  -886  -800  -716  -631  -538  -440  -364  -327  -319  -319  -320  -331  -359  -397  -435  -482  -565  -690  -823  -923  -979  -1006  -1025  -1037  -1023  -964  -874  -792  -747  -732  -708  -635  -517  -412  -363  -363  -380  -385  -370  -349  -336  -343  -398  -528  -708  -867  -953  -983  -1000  -1020  -1034  -1047  -1063  -1062  -987  -792  -518  -282  -148  -82  -36  -18  -49  -122  -205  -287  -386  -518  -649  -737  -794  -869  -974  -1077  -1152  -1201  -1244  -1292  -1352  -1422  -1464  -1439  -1328  -1056  -496  487  2124  4576  7466  9890  10947  10129  7626  4397  1608  -65  -697  -848  -996  -1212  -1306  -1191  -1015  -951  -1023  -1149  -1246  -1300  -1336  -1347  -1308  -1242  -1194  -1181  -1190  -1189  -1157  -1108  -1065  -1038  -1008  -916  -726  -503  -364  -328  -327  -313  -284  -252  -234  -252  -321  -424  -505  -507  -384  -138  150  385  549  701  906  1198  1539  1829  2004  2099  2195  2343  2539  2733  2873  2918  2857  2741  2640  2566  2439  2174  1773  1305  818  379  89  -39  -90  -125  -171  -253  -394  -572  -736  -862  -964  -1067  -1189  -1313  -1401  -1446  -1472  -1485  -1485  -1477  -1484  -1539  -1649  -1753  -1760  -1657  -1505  -1362  -1244  -1141  -1029  -915  -867  -922  -999  -1009  -979  -967  -977  -989  -1016  -1082  -1176  -1253  -1279  -1241  -1133  -1005  -977  -1126  -1381  -1589  -1670  -1630  -1479  -1243  -986  -779  -669  -665  -738  -836  -910  -932  -891  -784  -641  -519  -447  -419  -416  -428  -454  -490  -524  -547  -556  -548  -528  -517  -560  -690  -865  -998  -1043  -1005  -894  -751  -643  -602  -600  -583  -492  -299  -74  27  -82  -326  -539  -627  -578  -401  -159  57  218  330  333  167  -110  -347  -445  -425  -366  -311  -249  -181  -131  -109  -109  -136  -205  -293  -350  -368  -424  -609  -836  -885  -657  -126  871  2578  5053  7924  10332  11185  9823  6685  3073  244  -1156  -1208  -587  -37  98  -85  -319  -440  -475  -506  -576  -697  -870  -1053  -1180  -1240  -1276  -1312  -1341  -1355  -1356  -1326  -1244  -1129  -1032  -956  -854  -711  -555  -389  -186  46  252  387  443  448  445  472  539  625  685  688  637  558  495  489  581  794  1091  1392  1648  1894  2179  2486  2759  2968  3120  3225  3278  3278  3235  3157  3040  2896  2756  2645  2546  2340  1858  1145  499  122  -31  -74  -63  -29  0  6  1  7  32  76  124  157  168  166  166  169  173  184  208  216  166  48  -86  -161  -148  -89  -36  -14  -17  -22  -16  -3  10  16  6  -25  -85  -154  -199  -213  -212  -207  -194  -187  -220  -322  -479  -628  -702  -692  -647  -632  -689  -807  -928  -991  -959  -826  -647  -515  -465  -460  -458  -439  -390  -315  -228  -155  -110  -106  -181  -367  -611  -787  -812  -681  -447  -222  -97  -71  -83  -79  -32  42  109  132  75  -91  -316  -479  -531  -516  -490  -475  -477  -501  -546  -614  -675  -667  -586  -538  -537  -306  586  2435  5162  8107  10147  10298  8340  5051  1768  -423  -1203  -1026  -655  -515  -550  -602  -655  -757  -892  -988  -1020  -1042  -1108  -1196  -1226  -1159  -1065  -1045  -1089  -1094  -1022  -925  -848  -795  -757  -722  -678  -629  -588  -554  -511  -464  -446  -469  -488  -450  -360  -270  -218  -193  -175  -142  -57  114  346  547  661  709  743  778  810  877  1061  1391  1789  2116  2290  2349  2369  2347  2263  2153  2074  2037  1977  1769  1344  796  318  31  -97  -198  -376  -660  -987  -1238  -1346  -1336  -1263  -1175  -1107  -1061  -1012  -951  -890  -847  -824  -815  -811  -808  -824  -886  -988  -1096  -1206  -1345  -1496  -1588  -1599  -1577  -1558  -1511  -1376  -1135  -849  -628  -533  -540  -594  -655  -715  -789  -908  -1089  -1304  -1494  -1612  -1662  -1686  -1711  -1728  -1711  -1638  -1528  -1435  -1386  -1366  -1377  -1468  -1677  -1934  -2111  -2165  -2144  -2097  -2050  -2022  -2013  -2008  -1997  -1987  -1986  -1979  -1941  -1848  -1670  -1420  -1174  -999  -906  -868  -852  -841  -838  -856  -893  -923  -927  -914  -917  -993  -1171  -1394  -1571  -1666  -1685  -1589  -1329  -977  -703  -587  -569  -571  -564  -547  -520  -519  -608  -792  -971  -978  -636  190  1670  3932  6752  9416  10916  10457  8077  4714  1602  -373  -1002  -738  -286  -45  -7  -32  -44  -40  -34  -44  -81  -138  -179  -170  -100  -2  67  91  90  84  74  50  21  8  32  85  140  181  213  242  272  313  352  374  387  409  450  509  568  623  693  784  883  996  1180  1494  1888  2212  2384  2462  2520  2562  2599  2702  2928  3215  3427  3510  3479  3302  2924  2416  1959  1681  1562  1496  1401  1270  1089  793  370  -51  -338  -478  -529  -551  -584  -635  -718  -857  -1024  -1150  -1208  -1219  -1215  -1207  -1184  -1125  -1037  -948  -849  -708  -558  -476  -512  -669  -877  -1040  -1116  -1121  -1090  -1050  -1012  -982  -966  -961  -978  -1029  -1115  -1251  -1448  -1652  -1794  -1858  -1882  -1883  -1821  -1644  -1389  -1183  -1099  -1108  -1151  -1201  -1267  -1358  -1449  -1504  -1519  -1528  -1568  -1669  -1834  -2021  -2157  -2168  -2016  -1752  -1487  -1303  -1222  -1234  -1313  -1415  -1492  -1533  -1566  -1636  -1778  -1960  -2089  -2099  -1996  -1850  -1746  -1725  -1771  -1850  -1897  -1814  -1532  -1145  -863  -785  -844  -940  -1036  -1152  -1290  -1378  -1330  -1139  -901  -735  -677  -675  -677  -673  -677  -704  -753  -803  -855  -930  -1019  -1077  -1085  -1061  -1036  -1036  -1084  -1221  -1471  -1754  -1897  -1781  -1386  -719  306  1979  4466  7304  9587  10452  9349  6513  3086  330  -1116  -1366  -1055  -822  -832  -876  -782  -505  -70  398  735  876  881  827  743  638  541  486  480  503  518  460  274  15  -174  -200  -73  126  294  379  417  481  634  872  1121  1272  1257  1130  1047  1112  1290  1477  1627  1747  1839  1906  1970  2046  2133  2215  2281  2357  2495  2717  2987  3220  3340  3307  3123  2864  2661  2576  2568  2572  2515  2307  1925  1484  1145  964  873  780  638  436  196  -22  -178  -293  -436  -655  -900  -1057  -1035  -803  -434  -104  52  3  -232  -555  -803  -889  -849  -756  -667  -614  -605  -652  -769  -929  -1078  -1196  -1290  -1339  -1296  -1122  -874  -700  -745  -1053  -1486  -1799  -1856  -1691  -1425  -1191  -1050  -969  -892  -794  -698  -660  -734  -946  -1259  -1556  -1709  -1693  -1588  -1467  -1338  -1199  -1090  -1041  -1052  -1119  -1233  -1371  -1483  -1504  -1399  -1230  -1096  -1017  -939  -851  -793  -784  -802  -813  -788  -725  -647  -567  -491  -451  -503  -688  -941  -1130  -1197  -1179  -1123  -1064  -1025  -1009  -1001  -1005  -1056  -1170  -1281  -1308  -1295  -1286  -1121  -576  414  1868  3866  6268  8516  9813  9458  7290  3956  639  -1550  -2208  -1796  -1050  -445  -166  -152  -219  -257  -256  -243  -246  -275  -330  -399  -477  -578  -689  -762  -778  -745  -662  -540  -394  -221  -21  162  271  299  284  261  251  283  382  518  617  640  608  560  526  518  538  584  658  764  907  1082  1274  1485  1708  1901  2029  2099  2159  2258  2383  2473  2514  2570  2693  2831  2904  2918  2916  2861  2661  2308  1927  1634  1401  1152  890  660  474  320  178  41  -69  -136  -165  -170  -163  -153  -147  -143  -139  -135  -148  -204  -320  -459  -555  -590  -594  -588  -575  -544  -490  -414  -320  -201  -78  1  17  -16  -72  -123  -150  -152  -134  -98  -44  12  24  -43  -160  -262  -313  -327  -335  -351  -350  -308  -210  -54  135  299  388  406  390  393  466  620  798  920  961  959  937  887  809  756  795  961  1219  1477  1649  1717  1746  1824  1972  2120  2200  2224  2253  2324  2420  2501  2540  2498  2321  2015  1681  1417  1243  1124  1038  982  951  925  882  777  562  314  255  557  1270  2432  4110  6308  8745  10726  11380  10162  7276  3658  441  -1649  -2535  -2650  -2512  -2397  -2352  -2350  -2358  -2376  -2456  -2650  -2929  -3202  -3417  -3565  -3650  -3689  -3706  -3710  -3712  -3742  -3826  -3940  -4006  -3964  -3802  -3561  -3340  -3220  -3191  -3170  -3065  -2830  -2503  -2194  -2000  -1912  -1856  -1794  -1745  -1734  -1757  -1782  -1776  -1705  -1546  -1285  -903  -423  41  353  472  474  432  369  297  237  193  158  125  71  -39  -211  -419  -664  -946  -1215  -1433  -1633  -1844  -2037  -2188  -2307  -2402  -2463  -2495  -2511  -2520  -2523  -2524  -2524  -2520  -2508  -2489  -2472  -2468  -2490  -2541  -2592  -2593  -2528  -2429  -2296  -2064  -1715  -1375  -1185  -1164  -1245  -1360  -1459  -1529  -1560  -1514  -1361  -1152  -981  -893  -862  -836  -774  -679  -596  -560  -564  -581  -593  -597  -598  -600  -600  -586  -556  -536  -580  -713  -848  -843  -693  -532  -435  -365  -270  -143  -19  55  51  -45  -213  -371  -436  -394  -301  -220  -166  -123  -88  -55  9  127  261  361  419  453  468  452  399  316  227  166  145  152  184  251  347  425  417  323  220  163  152  177  240  318  369  381  380  384  385  378  383  409  413  315  113  -86  -140  154  1010  2550  4795  7544  10188  11786  11560  9467  6248  3008  744  -129  33  459  553  263  -109  -337  -413  -414  -389  -341  -280  -250  -283  -348  -394  -400  -370  -320  -270  -231  -203  -186  -179  -178  -170  -144  -118  -138  -241  -395  -518  -570  -547  -423  -180  152  501  772  915  975  1032  1112  1190  1254  1315  1400  1538  1702  1824  1885  1954  2104  2302  2439  2480  2481  2489  2510  2538  2558  2563  2553  2531  2489  2381  2112  1631  1029  465  3  -352  -593  -761  -929  -1112  -1270  -1364  -1395  -1399  -1407  -1403  -1368  -1330  -1309  -1274  -1210  -1156  -1157  -1212  -1287  -1367  -1446  -1501  -1526  -1538  -1551  -1560  -1561  -1561  -1570  -1598  -1637  -1666  -1678  -1679  -1676  -1674  -1681  -1699  -1723  -1755  -1817  -1925  -2045  -2120  -2136  -2118  -2096  -2108  -2178  -2284  -2367  -2393  -2372  -2344  -2361  -2456  -2607  -2744  -2820  -2843  -2869  -2962  -3128  -3296  -3386  -3365  -3232  -2998  -2737  -2557  -2499  -2518  -2584  -2684  -2790  -2866  -2903  -2917  -2925  -2937  -2955  -2991  -3067  -3174  -3260  -3266  -3169  -3024  -2901  -2774  -2523  -2113  -1691  -1429  -1349  -1365  -1406  -1447  -1494  -1550  -1600  -1636  -1696  -1858  -2137  -2427  -2603  -2649  -2615  -2530  -2413  -2312  -2259  -2205  -2053  -1746  -1268  -567  566  2451  5145  8142  10483  11142  9659  6577  3104  395  -901  -887  -251  371  770  946  936  859  820  825  842  841  812  755  679  599  525  465  443  477  534  563  542  480  420  400  424  494  607  755  924  1108  1306  1531  1762  1941  2065  2187  2318  2405  2408  2330  2216  2137  2147  2256  2415  2550  2646  2747  2890  3085  3309  3502  3623  3700  3768  3821  3836  3809  3759  3723  3703  3653  3526  3297  3001  2718  2482  2282  2121  2005  1939  1927  1936  1911  1839  1750  1681  1647  1634  1628  1617  1594  1563  1538  1526  1538  1586  1672  1781  1894  1983  2030  2040  2038  2032  2006  1929  1791  1650  1579  1562  1500  1334  1105  890  713  558  430  349  315  337  460  699  966  1138  1187  1173  1148  1121  1083  1038  1001  951  832  659  508  408  326  228  103  -28  -134  -198  -224  -247  -328  -500  -717  -878  -933  -899  -808  -698  -606  -542  -493  -448  -418  -431  -510  -631  -758  -914  -1153  -1433  -1635  -1715  -1719  -1677  -1574  -1411  -1242  -1137  -1123  -1183  -1303  -1452  -1587  -1706  -1806  -1864  -1934  -2087  -2246  -2216  -1756  -646  1215  3732  6429  8437  8840  7231  4098  619  -2018  -3197  -3088  -2377  -1723  -1456  -1528  -1698  -1817  -1902  -2015  -2171  -2321  -2414  -2446  -2433  -2374  -2272  -2159  -2068  -1996  -1902  -1728  -1448  -1130  -920  -916  -1108  -1384  -1592  -1665  -1633  -1531  -1380  -1191  -955  -695  -490  -398  -396  -418  -415  -365  -284  -209  -166  -149  -134  -89  11  196  467  785  1096  1351  1548  1748  1984  2211  2373  2451  2419  2224  1872  1492  1225  1077  954  788  574  347  159  44  -22  -101  -263  -557  -914  -1166  -1240  -1202  -1134  -1072  -1015  -965  -929  -891  -837  -792  -783  -788  -738  -587  -378  -203  -110  -86  -101  -129  -173  -247  -337  -405  -432  -429  -411  -389  -371  -362  -365  -380  -403  -418  -398  -318  -196  -80  11  80  109  77  -9  -129  -259  -372  -434  -418  -306  -126  34  84  9  -124  -228  -269  -252  -171  -28  124  225  272  305  344  377  396  403  402  391  362  291  165  23  -90  -198  -330  -468  -571  -618  -624  -612  -587  -548  -508  -488  -507  -570  -671  -807  -966  -1116  -1223  -1293  -1382  -1573  -1881  -2083  -1827  -895  816  3286  6124  8573  9745  9025  6579  3360  493  -1305  -1969  -1974  -1915  -2046  -2258  -2424  -2546  -2620  -2593  -2481  -2381  -2347  -2343  -2311  -2220  -2072  -1900  -1753  -1662  -1631  -1670  -1790  -1978  -2172  -2292  -2301  -2212  -2067  -1931  -1847  -1817  -1835  -1886  -1938  -1946  -1884  -1758  -1571  -1305  -976  -640  -350  -149  -52  -14  8  56  208  520  916  1227  1372  1416  1489  1738  2261  2954  3559  3909  4023  3977  3813  3571  3311  3067  2829  2569  2242  1795  1225  661  285  134  78  1  -90  -126  -87  -14  70  179  302  390  407  353  248  141  70  8  -96  -232  -340  -399  -425  -419  -362  -243  -97  29  119  151  125  89  71  47  -17  -143  -322  -510  -671  -789  -857  -886  -903  -921  -936  -944  -947  -943  -921  -870  -781  -649  -503  -404  -391  -467  -624  -825  -1010  -1141  -1187  -1146  -1077  -1044  -1045  -1044  -1005  -924  -827  -741  -655  -539  -393  -250  -180  -251  -443  -648  -794  -876  -910  -914  -908  -902  -901  -907  -924  -939  -898  -735  -457  -169  17  65  23  -39  -114  -222  -341  -419  -432  -395  -335  -294  -334  -505  -769  -997  -1107  -1123  -1095  -1025  -896  -745  -653  -601  -333  568  2322  4576  6551  7688  8027  7716  6539  4417  2011  264  -475  -553  -446  -377  -371  -416  -513  -642  -748  -803  -829  -848  -850  -809  -710  -587  -500  -466]
