reading_id,reading_time,wire_id,result_classification,heart_rate,heart_rate_alert,firmware_version,device_app_version,hardware_version,waveform_samples
1d0b2ac0-5e27-11ed-8080-808080808080,Sun Nov 06 23:02:40 UTC 2022,4101e3b01d39,NSR,70,NONE,20001.171.50,2.10.0,Charge 5,[18708  18873  19102  19514  19964  20081  19762  19194  18546  17931  17382  16750  15909  14947  13973  13017  12119  11212  10238  9447  9068  8959  8900  8814  8702  8597  8516  8417  8243  7950  7537  7059  6593  6218  5972  5812  5646  5400  5068  4699  4324  3898  3360  2796  2405  2249  2190  2095  1965  1861  1759  1528  1110  657  376  292  269  144  -189  -669  -1113  -1466  -1813  -2151  -2373  -2468  -2583  -2851  -3226  -3585  -3927  -4359  -4915  -5495  -5951  -6223  -6347  -6403  -6496  -6719  -7070  -7460  -7809  -8068  -8178  -8133  -8028  -7939  -7847  -7731  -7620  -7555  -7550  -7591  -7650  -7710  -7758  -7786  -7798  -7848  -8064  -8517  -9067  -9493  -9764  -9984  -10149  -10132  -9827  -9279  -8694  -8276  -8039  -7871  -7706  -7531  -7311  -7064  -6930  -6973  -7035  -6863  -6191  -4835  -2907  -894  584  1169  708  -865  -3157  -5289  -6568  -6902  -6628  -6176  -5848  -5706  -5645  -5587  -5539  -5529  -5612  -5837  -6167  -6488  -6713  -6825  -6860  -6858  -6814  -6692  -6474  -6186  -5879  -5601  -5359  -5147  -4994  -4902  -4816  -4717  -4643  -4615  -4614  -4619  -4633  -4669  -4721  -4758  -4750  -4693  -4617  -4552  -4457  -4268  -4010  -3754  -3496  -3180  -2804  -2437  -2131  -1862  -1618  -1446  -1350  -1257  -1139  -1040  -997  -995  -1014  -1075  -1218  -1422  -1607  -1728  -1787  -1802  -1811  -1904  -2163  -2528  -2826  -2971  -3010  -3012  -3019  -3061  -3163  -3316  -3472  -3595  -3687  -3749  -3759  -3713  -3654  -3637  -3661  -3676  -3654  -3586  -3448  -3250  -3056  -2899  -2742  -2539  -2322  -2184  -2189  -2330  -2524  -2668  -2741  -2792  -2829  -2815  -2744  -2640  -2544  -2520  -2560  -2558  -2511  -2521  -2581  -2606  -2574  -2529  -2514  -2518  -2510  -2481  -2433  -2370  -2297  -2232  -2197  -2217  -2306  -2432  -2533  -2571  -2531  -2397  -2205  -2025  -1889  -1789  -1716  -1668  -1632  -1550  -1355  -1068  -788  -578  -433  -338  -293  -313  -402  -523  -616  -651  -627  -541  -399  -236  -107  -69  -149  -297  -431  -514  -577  -660  -751  -776  -674  -486  -303  -163  -57  20  65  86  94  91  69  35  -8  -63  -115  -147  -169  -186  -162  -58  104  237  241  57  -210  -326  -216  64  675  1889  3789  6134  8198  9033  8150  5884  3174  975  -186  -360  -51  260  442  517  510  456  362  195  -10  -154  -164  -34  178  368  460  455  388  304  238  204  204  236  279  305  312  309  309  314  319  317  311  311  332  382  473  614  789  976  1156  1315  1462  1629  1823  2014  2195  2389  2588  2765  2904  3017  3114  3188  3239  3298  3403  3563  3762  3980  4186  4312  4286  4080  3757  3421  3090  2716  2322  1975  1707  1498  1260  886  428  69  -116  -193  -222  -198  -111  -62  -164  -348  -482  -534  -523  -482  -441  -400  -331  -223  -101  -14  18  4  -44  -112  -177  -245  -320  -353  -327  -321  -372  -415  -410  -383  -382  -453  -622  -840  -1012  -1089  -1107  -1112  -1102  -1074  -1081  -1191  -1385  -1565  -1669  -1698  -1634  -1423  -1083  -747  -534  -451  -441  -456  -485  -531  -578  -595  -549  -445  -325  -238  -211  -257  -387  -563  -703  -763  -747  -653  -489  -299  -151  -82  -78  -100  -110  -95  -78  -114  -278  -596  -968  -1247  -1392  -1465  -1524  -1586  -1645  -1697  -1738  -1768  -1799  -1844  -1889  -1891  -1823  -1695  -1555  -1464  -1433  -1435  -1451  -1492  -1566  -1658  -1750  -1850  -1993  -2195  -2413  -2597  -2722  -2782  -2816  -2895  -3044  -3207  -3301  -3267  -3077  -2787  -2526  -2358  -2197  -1947  -1617  -1161  -446  680  2432  4779  7180  8784  8745  6846  3922  1215  -389  -589  178  1026  1369  1246  977  780  681  611  526  442  392  393  431  475  508  536  564  555  417  101  -203  -185  187  616  866  931  902  832  751  696  721  872  1133  1429  1687  1853  1882  1774  1605  1463  1366  1294  1241  1252  1401  1712  2095  2420  2657  2853  3014  3107  3137  3164  3259  3471  3785  4101  4306  4370  4307  4108  3793  3434  3096  2812  2600  2443  2244  1904  1486  1176  1042  998  949  850  704  542  370  186  32  -41  -26  30  45  -31  -159  -256  -290  -293  -298  -300  -269  -201  -126  -77  -63  -89  -168  -281  -376  -417  -407  -361  -304  -266  -258  -255  -222  -131  -3  102  151  147  114  71  35  -3  -72  -191  -344  -505  -650  -740  -724  -549  -229  104  301  293  79  -265  -582  -754  -798  -794  -783  -770  -757  -756  -769  -771  -732  -660  -561  -418  -235  -55  99  238  360  441  472  458  412  367  353  361  344  252  78  -119  -265  -302  -194  71  410  661  720  563  222  -163  -417  -500  -489  -453  -412  -382  -400  -480  -576  -644  -674  -647  -564  -466  -394  -371  -396  -418  -386  -316  -255  -219  -186  -176  -291  -630  -1093  -1434  -1537  -1487  -1397  -1326  -1298  -1349  -1511  -1740  -1916  -1965  -1834  -1369  -351  1350  3607  5944  7701  8146  6807  4075  1065  -1161  -2055  -1762  -1019  -647  -905  -1406  -1741  -1891  -1966  -1957  -1802  -1538  -1299  -1181  -1182  -1228  -1254  -1241  -1206  -1185  -1192  -1193  -1159  -1072  -880  -547  -117  284  529  623  685  799  956  1110  1227  1287  1300  1308  1313  1263  1115  911  771  772  886  1066  1256  1388  1447  1487  1553  1638  1703  1738  1795  1937  2169  2405  2550  2593  2594  2590  2544  2376  2046  1616  1235  1018  923  801  533  101  -399  -814  -1056  -1165  -1229  -1279  -1295  -1276  -1250  -1234  -1224  -1196  -1120  -1011  -938  -957  -1066  -1175  -1160  -1009  -844  -784  -851  -981  -1088  -1126  -1065  -883  -641  -463  -401  -405  -417  -421  -430  -460  -511  -591  -720  -878  -989  -1004  -932  -822  -716  -617  -534  -492  -489  -488  -472  -462  -509  -651  -843  -981  -1011  -950  -848  -749  -687  -694  -785  -948  -1132  -1270  -1316  -1250  -1086  -899  -781  -750  -754  -741  -695  -628  -562  -518  -497  -489  -494  -547  -672  -827  -943  -1016  -1092  -1222  -1408  -1583  -1668  -1615  -1410  -1128  -900  -772  -705  -670  -662  -668  -673  -663  -630  -587  -565  -583  -622  -652  -662  -668  -679  -683  -648  -547  -389  -265  -291  -504  -765  -606  542  2686  5250  7628  9192  9328  7864  5238  2305  -54  -1278  -1327  -761  -294  -192  -311  -470  -573  -589  -537  -460  -385  -293  -164  -33  24  -13  -88  -138  -171  -201  -214  -184  -109  -25  30  47  31  -17  -90  -148  -118  71  406  740  935  983  955  910  893  961  1159  1433  1637  1688  1650  1609  1588  1585  1619  1718  1865  1997  2072  2102  2141  2265  2503  2772  2932  2916  2762  2562  2398  2290  2222  2177  2096  1847  1327  682  221  52  36  29  -36  -230  -606  -1066  -1380  -1380  -1073  -637  -333  -303  -512  -813  -1050  -1189  -1270  -1299  -1251  -1143  -1034  -974  -961  -968  -977  -981  -980  -960  -913  -851  -804  -788  -797  -825  -861  -886  -900  -909  -911  -893  -842  -773  -732  -755  -826  -920  -1014  -1078  -1097  -1084  -1053  -1007  -952  -898  -845  -799  -760  -719  -692  -697  -730  -779  -821  -815  -711  -465  -140  93  131  -6  -245  -490  -679  -806  -886  -925  -955  -1035  -1187  -1377  -1540  -1619  -1585  -1447  -1248  -1050  -916  -850  -821  -812  -820  -828  -784  -649  -466  -332  -290  -293  -290  -266  -249  -264  -302  -338  -361  -366  -344  -282  -197  -112  -12  125  265  354  382  380  377  334  135  -284  -774  -1115  -1249  -1137  -615  475  2153  4205  6124  7210  6898  5209  2879  752  -634  -993  -510  185  565  416  -161  -795  -1160  -1243  -1211  -1177  -1153  -1107  -1033  -962  -904  -805  -613  -368  -174  -94  -99  -121  -129  -140  -170  -204  -216  -203  -214  -289  -380  -389  -245  35  344  551  624  634  676  791  965  1187  1445  1685  1848  1929  1964  1979  1994  2071  2272  2544  2740  2798  2785  2810  2959  3242  3540  3674  3534  3160  2716  2364  2155  2051  1958  1725  1235  602  112  -86  -90  -49  -40  -94  -264  -593  -986  -1261  -1359  -1347  -1279  -1186  -1121  -1113  -1124  -1067  -876  -610  -410  -335  -344  -407  -524  -666  -771  -812  -817  -844  -945  -1131  -1326  -1420  -1384  -1290  -1193  -1091  -1017  -1040  -1162  -1256  -1152  -841  -499  -284  -207  -200  -214  -256  -356  -488  -591  -680  -828  -1025  -1172  -1219  -1208  -1191  -1185  -1174  -1143  -1095  -1032  -910  -684  -406  -197  -124  -185  -352  -568  -757  -855  -820  -655  -439  -256  -143  -92  -77  -63  -42  -31  -50  -101  -213  -435  -728  -933  -889  -557  -91  253  371  313  111  -240  -648  -937  -1030  -975  -830  -659  -546  -552  -682  -875  -1005  -941  -629  -195  125  232  179  37  -125  -230  -250  -224  -199  -190  -191  -196  -201  -203  -208  -251  -373  -582  -827  -1028  -1109  -1023  -797  -460  54  887  2206  4049  6059  7529  7755  6499  4223  1786  -66  -972  -1059  -805  -636  -698  -924  -1150  -1277  -1341  -1402  -1464  -1491  -1420  -1214  -942  -749  -696  -738  -803  -845  -843  -786  -689  -594  -541  -532  -546  -539  -452  -265  -27  178  306  361  388  424  505  667  875  971  838  567  359  314  418  668  1063  1479  1765  1920  2043  2183  2342  2512  2685  2864  3052  3219  3319  3340  3321  3304  3280  3164  2883  2514  2213  1996  1767  1483  1173  878  623  387  152  -54  -195  -288  -367  -446  -516  -558  -574  -580  -592  -617  -679  -802  -964  -1108  -1207  -1265  -1263  -1173  -1008  -836  -719  -651  -588  -502  -387  -275  -227  -270  -360  -433  -470  -502  -553  -610  -655  -697  -763  -862  -981  -1081  -1128  -1097  -983  -834  -729  -704  -719  -712  -629  -468  -302  -200  -167  -178  -242  -389  -578  -717  -764  -743  -686  -618  -570  -559  -576  -600  -617  -635  -665  -697  -707  -704  -711  -727  -753  -802  -867  -914  -908  -844  -748  -659  -586  -506  -412  -373  -494  -745  -953  -1012  -952  -846  -730  -603  -498  -467  -478  -456  -413  -401  -428  -469  -495  -496  -488  -508  -601  -778  -937  -940  -791  -630  -532  -469  -417  -382  -374  -402  -475  -576  -664  -709  -716  -711  -711  -715  -714  -703  -685  -655  -606  -593  -738  -1013  -1109  -736  132  1479  3263  5232  7047  8324  8500  7223  4846  2204  96  -1030  -1249  -1009  -750  -650  -607  -482  -333  -268  -275  -316  -421  -615  -802  -826  -693  -525  -406  -380  -435  -524  -615  -663  -646  -607  -588  -595  -608  -589  -491  -307  -107  39  138  231  329  409  455  481  516  552  557  553  663  999  1467  1811  1878  1718  1474  1304  1332  1613  2057  2443  2626  2643  2612  2608  2653  2728  2792  2815  2774  2645  2428  2129  1733  1285  897  620  432  308  205  71  -87  -215  -292  -385  -592  -916  -1223  -1375  -1318  -1064  -729  -492  -420  -442  -483  -533  -630  -791  -959  -1065  -1104  -1101  -1037  -872  -643  -451  -348  -319  -338  -384  -428  -438  -441  -511  -680  -880  -1005  -1027  -1005  -966  -901  -836  -821  -855  -890  -864  -753  -579  -403  -287  -243  -258  -357  -578  -863  -1059  -1042  -774  -355  8  176  128  -116  -472  -794  -1022  -1226  -1436  -1565  -1468  -1067  -512  -103  5  -131  -397  -666  -845  -938  -988  -1003  -946  -788  -577  -433  -406  -426  -450  -506  -601  -709  -795  -828  -802  -733  -641  -552  -488  -455  -461  -534  -693  -882  -1008  -1034  -976  -860  -713  -572  -485  -458  -459  -460  -460  -490  -596  -804  -1058  -1260  -1397  -1497  -1429  -945  -15  1168  2605  4453  6495  8048  8360  7028  4356  1352  -838  -1637  -1325  -698  -349  -332  -424  -477  -491  -500  -512  -539  -602  -709  -832  -921  -925  -843  -719  -605  -537  -524  -546  -563  -511  -335  -59  227  458  603  672  691  677  651  631  618  607  600  601  619  669  756  861  945  979  970  948  955  1079  1405  1847  2183  2310  2310  2296  2345  2507  2768  3027  3175  3185  3086  2918  2724  2537  2364  2165  1904  1570  1174  769  429  172  -28  -198  -340  -443  -518  -604  -702  -763  -767  -749  -752  -761  -724  -614  -459  -320  -235  -207  -229  -305  -441  -615  -774  -879  -912  -861  -741  -605  -507  -458  -442  -470  -536  -597  -625  -630  -630  -632  -635  -634  -633  -634  -635  -627  -618  -625  -644  -666  -695  -745  -827  -935  -1041  -1116  -1158  -1189  -1218  -1209  -1130  -1015  -929  -878  -813  -698  -543  -391  -299  -302  -389  -509  -598  -641  -670  -714  -795  -911  -1030  -1090  -1066  -1000  -951  -936  -929  -896  -810  -666  -499  -373  -315  -304  -316  -344  -382  -426  -482  -544  -589  -617  -651  -688  -680  -597  -483  -429  -461  -519  -537  -507  -419  -257  -60  91  157  124  -37  -307  -572  -720  -751  -723  -673  -622  -593  -596  -607  -573  -447  -248  -71  -31  -277  -906  -1739  -2367  -2492  -1998  -881  601  2096  3591  5259  6948  8130  8199  6854  4428  1767  -225  -1047  -895  -416  -123  -195  -551  -958  -1231  -1330  -1277  -1096  -863  -700  -669  -741  -847  -924  -933  -861  -719  -556  -432  -378  -384  -413  -413  -368  -311  -262  -212  -163  -139  -150  -163  -104  105  462  840  1076  1093  965  843  813  859  928  972  998  1051  1168  1369  1646  1928  2125  2220  2263  2305  2366  2428  2473  2507  2540  2558  2507  2347  2146  2018  1961  1882  1721  1490  1248  1027  796  542  314  141  -19  -223  -471  -732  -964  -1119  -1183  -1167  -1083  -962  -834  -705  -600  -587  -661  -730  -729  -681  -691  -854  -1133  -1366  -1394  -1179  -852  -613  -527  -514  -505  -496  -506  -531  -527  -459  -354  -271  -229  -210  -208  -247  -357  -507  -620  -658  -640  -592  -536  -498  -488  -490  -491  -484  -472  -462  -455  -452  -454  -467  -494  -530  -568  -596  -610  -612  -611  -610  -610  -610  -622  -640  -618  -511  -363  -302  -408  -626  -831  -958  -1017  -1039  -1046  -1043  -1020  -947  -779  -505  -200  7  78  71  46  20  -4  -23  -38  -63  -104  -147  -174  -182  -176  -160  -139  -119  -100  -81  -73  -120  -260  -454  -600  -645  -606  -519  -434  -380  -352  -352  -368  -375  -358  -346  -413  -629  -936  -1171  -1243  -1207  -1140  -1060  -954  -839  -792  -873  -1031  -1170  -1162  -759  192  1583  3276  5166  6971  8221  8352  7029  4582  1848  -340  -1457  -1519  -1054  -637  -503  -560  -659  -744  -806  -841  -861  -869  -834  -723  -578  -510  -582  -749  -919  -1039  -1101  -1110  -1075  -998  -866  -674  -459  -274  -164  -126  -129  -144  -158  -168  -145  -57  71  183  260  323  385  447  507  580  691  845  1055  1338  1638  1831  1848  1730  1602  1623  1869  2261  2640  2891  3002  3031  3037  3026  2964  2844  2678  2444  2145  1841  1536  1180  806  501  282  78  -162  -397  -553  -620  -624  -585  -537  -516  -542  -608  -676  -704  -696  -682  -676  -676  -677  -681  -687  -691  -670  -607  -515  -430  -357  -285  -248  -301  -458  -673  -861  -954  -928  -800  -631  -510  -469  -469  -476  -494  -539  -596  -633  -630  -593  -554  -544  -571  -631  -739  -904  -1074  -1186  -1222  -1193  -1084  -886  -643  -460  -453  -641  -936  -1217  -1378  -1358  -1164  -898  -693  -591  -556  -564  -607  -672  -724  -714  -634  -535  -464  -431  -431  -453  -487  -507  -465  -327  -139  -1  46  42  20  -42  -192  -407  -607  -758  -893  -1026  -1110  -1058  -811  -434  -82  142  228  187  42  -121  -207  -220  -232  -272  -340  -453  -588  -682  -712  -706  -692  -681  -686  -723  -778  -769  -597  -283  -98  -290  -668  -636  398  2606  5474  7972  9028  8067  5443  2313  -109  -1214  -1184  -747  -522  -591  -708  -705  -641  -636  -685  -721  -731  -731  -730  -715  -671  -607  -556  -540  -551  -553  -510  -411  -295  -216  -167  -91  27  136  181  159  119  96  86  71  62  115  286  535  756  904  1007  1085  1165  1285  1441  1589  1718  1833  1896  1886  1853  1855  1901  2003  2179  2392  2572  2685  2740  2756  2758  2761  2751  2694  2573  2412  2250  2105  1944  1669  1192  587  78  -199  -294  -312  -357  -509  -762  -1007  -1159  -1215  -1208  -1160  -1088  -998  -887  -749  -616  -557  -613  -749  -891  -994  -1061  -1122  -1182  -1203  -1151  -1053  -975  -955  -976  -996  -997  -989  -997  -1035  -1096  -1177  -1264  -1319  -1305  -1212  -1077  -951  -836  -717  -607  -525  -479  -495  -624  -871  -1143  -1303  -1265  -1022  -691  -457  -420  -545  -722  -844  -871  -831  -764  -683  -580  -484  -470  -562  -699  -807  -860  -875  -874  -843  -756  -627  -514  -455  -436  -437  -464  -539  -651  -759  -840  -893  -921  -923  -898  -837  -740  -637  -586  -633  -758  -871  -887  -817  -739  -692  -653  -590  -495  -392  -324  -307  -340  -425  -560  -708  -806  -836  -836  -852  -911  -994  -1056  -1076  -1062  -1034  -1028  -1121  -1365  -1648  -1736  -1489  -860  260  1941  4038  6215  7890  8339  7261  5091  2600  473  -853  -1346  -1311  -1018  -578  -241  -265  -517  -710  -779  -787  -773  -726  -629  -507  -421  -395  -406  -422  -432  -440  -455  -464  -419  -278  -106  -21  -29  -46  -28  9  48  81  100  99  95  106  125  135  158  260  479  767  1018  1166  1231  1275  1365  1533  1727  1864  1972  2156  2419  2640  2751  2800  2841  2884  2923  2951  2967  2981  2990  2944  2762  2425  2016  1626  1291  988  661  308  12  -180  -322  -492  -680  -797  -797  -722  -620  -489  -346  -243  -192  -152  -105  -73  -80  -143  -289  -527  -779  -936  -972  -941  -899  -867  -848  -845  -859  -874  -867  -815  -712  -585  -488  -446  -441  -448  -459  -501  -620  -826  -1039  -1163  -1177  -1120  -1041  -968  -885  -761  -619  -520  -487  -481  -454  -390  -310  -256  -257  -313  -397  -467  -497  -488  -448  -394  -353  -353  -418  -541  -675  -759  -762  -680  -538  -404  -331  -315  -322  -334  -356  -383  -386  -366  -377  -446  -545  -657  -755  -752  -583  -320  -140  -153  -362  -720  -1117  -1378  -1349  -974  -386  128  382  410  300  87  -169  -374  -482  -516  -516  -520  -552  -599  -619  -569  -445  -303  -202  -164  -204  -334  -508  -628  -645  -585  -512  -475  -474  -485  -497  -519  -588  -753  -1009  -1219  -1234  -1086  -854  -464  143  1071  2701  5132  7606  8994  8569  6373  3266  587  -698  -760  -453  -261  -196  -204  -262  -370  -507  -643  -790  -974  -1156  -1232  -1078  -657  -134  230  342  267  65  -212  -482  -666  -722  -665  -572  -482  -357  -200  -74  -15  -2  -7  -12  4  81  244  456  626  718  780  856  935  991  1022  1051  1102  1190  1361  1669  2044  2319  2425  2406  2291  2093  1886  1817  2018  2470  2993  3356  3437  3284  2974  2511  1968  1528  1267  1084  838  482  106  -159  -295  -390  -515  -651  -737  -750  -711  -657  -616  -595  -581  -573  -596  -684  -829  -965  -1025  -997  -940  -914  -941  -994  -1011  -950  -850  -768  -702  -632  -570  -542  -564  -641  -742  -814  -834  -825  -822  -853  -926  -1015  -1067  -1022  -845  -598  -412  -341  -337  -351  -388  -472  -580  -649  -652  -624  -606  -606  -610  -605  -584  -544  -504  -507  -595  -756  -928  -1047  -1096  -1075  -983  -841  -705  -611  -544  -481  -425  -395  -398  -426  -474  -526  -561  -568  -551  -526  -503  -495  -529  -639  -823  -980  -964  -783  -603  -521  -502  -490  -473  -438  -346  -181  -10  67  20  -92  -204  -309  -424  -525  -589  -636  -693  -748  -767  -728  -661  -638  -701  -822  -930  -990  -1005  -1003  -1005  -1014  -1019  -1010  -994  -1006  -1110  -1329  -1538  -1602  -1529  -1183  -170  1604  3816  6114  7950  8489  7247  4622  1648  -670  -1826  -1935  -1543  -1183  -1057  -1108  -1235  -1370  -1460  -1478  -1418  -1285  -1127  -1009  -948  -915  -899  -906  -912  -892  -857  -847  -873  -869  -783  -680  -666  -763  -891  -954  -930  -857  -760  -656  -574  -509  -416  -280  -120  50  220  354  434  478  505  525  561  672  934  1330  1702  1908  1955  1935  1950  2131  2584  3204  3707  3945  4001  3970  3816  3490  3088  2788  2652  2566  2361  1983  1535  1155  909  795  760  719  591  317  -83  -471  -638  -485  -111  267  487  522  429  289  164  51  -74  -171  -166  -83  -12  22  46  59  40  -24  -123  -221  -287  -314  -310  -280  -233  -189  -178  -210  -268  -320  -350  -363  -374  -396  -427  -450  -460  -463  -463  -450  -408  -340  -253  -144  -51  -50  -160  -333  -539  -731  -810  -730  -578  -473  -458  -553  -794  -1116  -1347  -1366  -1181  -910  -705  -636  -660  -708  -738  -747  -746  -748  -760  -782  -799  -776  -675  -511  -361  -289  -305  -392  -508  -588  -602  -556  -479  -398  -335  -295  -282  -304  -382  -508  -640  -740  -803  -835  -853  -871  -874  -844  -821  -873  -988  -1087  -1161  -1314  -1578  -1696  -1306  -389  851  2381  4212  6151  7704  8122  6890  4322  1404  -866  -1893  -1730  -1054  -542  -356  -374  -513  -695  -833  -903  -934  -955  -975  -983  -937  -799  -609  -470  -433  -470  -530  -579  -596  -558  -445  -288  -177  -184  -326  -538  -698  -683  -415  55  508  730  710  587  491  455  444  433  420  401  367  349  457  811  1357  1847  2096  2141  2113  2088  2092  2155  2313  2535  2729  2842  2873  2824  2699  2502  2220  1848  1460  1150  940  792  668  519  301  28  -225  -395  -481  -541  -634  -754  -848  -888  -900  -920  -964  -1022  -1071  -1100  -1114  -1118  -1102  -1048  -964  -890  -860  -878  -926  -982  -1010  -951  -749  -458  -218  -130  -259  -644  -1157  -1519  -1554  -1298  -937  -682  -600  -611  -634  -647  -663  -684  -682  -629  -520  -394  -327  -362  -448  -524  -587  -669  -792  -932  -1018  -953  -684  -309  -40  -16  -223  -530  -773  -875  -871  -823  -756  -661  -534  -419  -358  -364  -436  -551  -659  -717  -727  -715  -698  -674  -637  -594  -568  -574  -599  -603  -545  -421  -283  -218  -263  -364  -438  -459  -449  -436  -447  -513  -660  -857  -1029  -1132  -1156  -1045  -732  -300  38  171  147  37  -114  -267  -383  -440  -450  -450  -479  -552  -661  -783  -917  -1103  -1354  -1588  -1669  -1533  -1215  -753  -92  937  2485  4493  6632  8322  8889  7921  5668  2959  654  -740  -1189  -1072  -813  -614  -543  -606  -717  -793  -834  -846  -791  -635  -413  -224  -121  -83  -79  -96  -121  -163  -249  -370  -465  -491  -471  -443  -389  -253  -26  224  410  482  446  357  276  246  320  545  853  1084  1165  1150  1108  1085  1133  1297  1541  1752  1864  1920  2017  2215  2479  2699  2812  2841  2858  2928  3057  3211  3351  3420  3309  2930  2401  1983  1782  1686  1555  1314  950  530  157  -116  -311  -472  -610  -688  -704  -722  -777  -850  -918  -952  -978  -1044  -1127  -1176  -1186  -1155  -1067  -929  -788  -700  -676  -676  -659  -610  -537  -462  -406  -377  -395  -511  -744  -1000  -1134  -1092  -940  -775  -649  -570  -526  -513  -516  -499  -455  -433  -471  -549  -626  -690  -747  -791  -821  -846  -869  -889  -906  -924  -930  -895  -796  -664  -569  -538  -547  -565  -575  -555  -484  -380  -307  -352  -553  -836  -1038  -1071  -960  -797  -674  -621  -613  -623  -647  -685  -721  -734  -724  -711  -717  -746  -795  -862  -945  -1039  -1130  -1199  -1225  -1188  -1080  -924  -767  -655  -625  -676  -748  -762  -720  -683  -682  -715  -784  -861  -898  -847  -685  -465  -294  -216  -208  -292  -524  -857  -1135  -1273  -1299  -1232  -1062  -860  -796  -960  -1237  -1462  -1670  -2015  -2420  -2501  -1913  -647  1085  3145  5354  7275  8351  8050  6132  3200  457  -1202  -1569  -1107  -635  -603  -872  -1119  -1189  -1110  -971  -857  -806  -803  -818  -827  -808  -746  -657  -591  -591  -665  -783  -892  -958  -986  -988  -942  -812  -617  -446  -349  -275  -164  -38  39  60  70  130  288  537  788  951  1019  1057  1142  1298  1480  1632  1742  1814  1855  1913  2053  2278  2524  2724  2843  2889  2905  2939  3025  3149  3255  3310  3314  3259  3127  2937  2734  2506  2194  1771  1282  827  499  296  130  -54  -223  -324  -354  -335  -271  -169  -71  -17  -4  -6  -2  13  34  26  -69  -276  -520  -687  -752  -762  -765  -780  -798  -808  -806  -801  -799  -802  -793  -739  -610  -412  -206  -72  -26  -19  -19  -64  -219  -487  -791  -1029  -1114  -1026  -858  -747  -741  -782  -775  -630  -317  59  299  236  -166  -729  -1142  -1232  -1023  -632  -259  -104  -223  -505  -784  -966  -1031  -960  -731  -423  -204  -175  -310  -501  -636  -678  -661  -619  -577  -560  -581  -619  -642  -634  -609  -589  -583  -581  -575  -567  -554  -511  -402  -241  -97  -32  -73  -203  -366  -528  -699  -864  -969  -980  -912  -805  -709  -687  -836  -1247  -1809  -2144  -1921  -1134  -25  1097  2168  3463  5162  6933  8028  7733  5896  3194  719  -815  -1403  -1452  -1418  -1510  -1521  -1222  -792  -526  -455  -466  -476  -468  -475  -522  -598  -662  -696  -719  -758  -815  -872  -913  -937  -935  -848  -562  -70  430  715  730  551  293  74  -54  -117  -144  -166  -211  -271  -292  -217  -37  217  487  720  916  1111  1328  1602  1933  2226  2377  2386  2333  2283  2252  2244  2293  2443  2663  2849  2927  2871  2655  2310  1951  1681  1502  1347  1139  826  416  -5  -334  -539  -664  -736  -734  -652  -553  -534  -648  -881  -1176  -1427  -1522  -1417  -1162  -890  -731  -723  -833  -990  -1117  -1172  -1157  -1076  -944  -814  -737  -718  -746  -813  -897  -966  -1014  -1054  -1089  -1122  -1157  -1179  -1160  -1079  -950  -814  -695  -613  -625  -766  -965  -1097  -1109  -1053  -1016  -1036  -1060  -1020  -925  -832  -774  -745  -740  -778  -891  -1047  -1159  -1148  -1003  -798  -649  -615  -679  -794  -901  -956  -956  -924  -885  -845  -801  -757  -709  -648  -607  -617  -643  -634  -601  -588  -602  -615  -607  -593  -601  -631  -642  -587  -488  -415  -400  -418  -437  -440  -409  -330  -220  -131  -95  -129  -252  -438  -602  -667  -632  -556  -501  -486  -494  -501  -502  -498  -493  -500  -564  -724  -966  -1258  -1521  -1524  -987  179  1823  3733  5715  7353  8037  7418  5656  3328  1180  -192  -679  -679  -602  -560  -553  -578  -611  -638  -657  -675  -698  -683  -564  -374  -232  -200  -234  -269  -280  -277  -270  -261  -248  -234  -218  -195  -165  -141  -126  -125  -161  -264  -416  -518  -415  -5  577  1022  1176  1134  1045  989  977  1001  1062  1163  1298  1444  1569  1679  1822  1991  2116  2173  2200  2224  2264  2403  2716  3117  3410  3503  3415  3166  2807  2470  2242  2050  1756  1343  918  563  294  104  -50  -235  -451  -627  -718  -747  -753  -758  -752  -712  -643  -598  -594  -590  -575  -574  -582  -596  -642  -752  -900  -1016  -1054  -1023  -940  -815  -682  -581  -529  -504  -491  -505  -595  -783  -1007  -1153  -1161  -1051  -895  -782  -752  -803  -920  -1060  -1167  -1207  -1139  -916  -603  -368  -298  -345  -419  -466  -476  -472  -470  -478  -493  -509  -537  -592  -685  -813  -953  -1060  -1105  -1090  -1030  -954  -901  -885  -890  -897  -892  -869  -832  -781  -704  -610  -533  -489  -467  -462  -499  -606  -752  -858  -883  -849  -797  -759  -741  -739  -768  -848  -958  -1029  -998  -845  -597  -329  -134  -54  -55  -76  -97  -123  -155  -182  -204  -220  -241  -284  -362  -488  -646  -761  -769  -682  -580  -557  -631  -738  -817  -862  -882  -857  -783  -699  -646  -652  -698  -674  -436  142  1184  2793  4900  7096  8680  8862  7218  4225  1069  -1139  -1905  -1532  -827  -442  -498  -743  -921  -964  -926  -853  -762  -668  -591  -556  -580  -674  -806  -898  -874  -710  -477  -296  -206  -139  -43  59  114  89  10  -56  -82  -83  -85  -92  -88  -46  43  176  344  507  597  601  599  722  1039  1436  1706  1781  1750  1720  1770  1935  2164  2382  2592  2805  2962  3021  3019  3015  3033  3052  2993  2799  2520  2259  2019  1703  1263  803  489  358  324  291  174  -89  -472  -841  -1066  -1124  -1066  -931  -771  -657  -618  -630  -666  -723  -809  -924  -1052  -1156  -1198  -1164  -1053  -882  -695  -512  -342  -219  -185  -247  -365  -491  -594  -656  -673  -656  -607  -541  -484  -453  -447  -460  -484  -509  -523  -516  -482  -430  -379  -332  -283  -241  -221  -219  -219  -219  -239  -301  -386  -449  -465  -442  -402  -377  -414  -550  -742  -879  -868  -698  -459  -280  -217  -250  -360  -523  -662  -663  -474  -196  -3  13  -127  -351  -575  -758  -892  -968  -982  -938  -846  -729  -631  -590  -610  -635  -578  -418  -233  -92  -5  27  5  -61  -175  -323  -441  -496  -527  -565  -616  -690  -774  -837  -855  -805  -661  -445  -232  -160  -396  -862  -1164  -1014  -418  612  2113  3972  5934  7611  8329  7471  5229  2494  104  -1351  -1747  -1567  -1341  -1193  -988  -681  -427  -394  -595  -897  -1109  -1099  -860  -520  -283  -281  -509  -827  -1057  -1143  -1142  -1081  -930  -707  -519  -440  -423  -387  -310  -206  -101  -32  -13  -22  -40  -57  -67  -42  39  153  238  264  244  201  185  315  689  1202  1607  1808  1917  2030  2147  2259  2398  2594  2796  2886  2809  2625  2445  2338  2311  2311  2255  2133  1989  1782  1424  988  667  522  467  428  381  292  121  -122  -379  -547  -525  -339  -156  -150  -414  -882  -1333  -1568  -1534  -1285  -961  -734  -665  -689  -734  -777  -821  -867  -908  -935  -953  -972  -981  -929  -768  -543  -375  -329  -391  -518  -645  -701  -645  -501  -337  -224  -191  -221  -272  -309  -324  -332  -344  -370  -419  -491  -581  -688  -779  -781  -648  -418  -205  -107  -111  -139  -148  -147  -167  -236  -338  -426  -473  -501  -541  -586  -585  -512  -396  -305  -302  -390  -508  -592  -604  -536  -393  -191  4  92  17  -191  -452  -666  -766  -766  -734  -726  -764  -857  -992  -1118  -1176  -1103  -861  -534  -296  -229  -286  -400  -528  -647  -733  -761  -710  -583  -432  -332  -303  -316  -338  -344  -296  -162  4  82  -14  -242  -462  -576  -591  -573  -575  -619  -691  -758  -798  -814  -819  -822  -827  -846  -917  -1046  -1122  -944  -384  492  1627  3207  5316  7480  8813  8506  6390  3213  229  -1519  -1793  -1177  -432  -20  -69  -418  -756  -902  -903  -870  -856  -864  -885  -913  -939  -954  -938  -864  -740  -608  -503  -428  -366  -310  -276  -291  -359  -441  -473  -416  -264  -61  84  94  -1  -112  -165  -157  -127  -82  21  220  481  716  888  1044  1255  1520  1752  1877  1913  1911  1898  1883  1883  1914  1964  2040  2248  2702  3291  3710  3772  3532  3169  2828  2483  2043  1552  1163  935  757  513  232  -19  -267  -515  -684  -737  -722  -701  -712  -772  -865  -928  -883  -685  -406  -205  -183  -335  -567  -754  -835  -841  -818  -784  -746  -717  -709  -720  -743  -772  -789  -763  -663  -511  -385  -336  -356  -410  -479  -557  -632  -690  -766  -910  -1090  -1214  -1249  -1235  -1209  -1145  -989  -759  -547  -410  -340  -321  -352  -426  -525  -627  -699  -724  -721  -734  -775  -820  -851  -874  -892  -906  -908  -881  -807  -710  -639  -615  -626  -654  -686  -709  -720  -727  -724  -681  -568  -421  -325  -328  -416  -533  -618  -645  -612  -516  -394  -302  -259  -239  -217  -203  -225  -263  -248  -165  -82  -42  -33  -20  18  78  120  77  -92  -336  -527  -607  -613  -592  -547  -464  -343  -221  -138  -124  -209  -412  -681  -925  -1057  -994  -753  -422  27  766  1984  3757  5878  7711  8355  7300  4833  1854  -494  -1478  -1269  -565  50  323  289  118  -90  -333  -574  -737  -816  -890  -1010  -1134  -1176  -1072  -840  -583  -401  -311  -267  -230  -191  -158  -144  -154  -168  -160  -128  -92  -60  -30  -23  -57  -101  -105  -54  30  127  249  419  608  756  843  899  980  1129  1315  1464  1568  1684  1823  1927  1967  1974  2018  2160  2381  2571  2651  2654  2646  2630  2547  2330  1954  1472  1029  762  678  691  685  509  61  -536  -1007  -1220  -1252  -1226  -1208  -1201  -1162  -1059  -923  -823  -784  -777  -773  -748  -691  -643  -657  -709  -747  -758  -748  -724  -696  -693  -730  -784  -829  -886  -987  -1097  -1143  -1116  -1058  -992  -931  -872  -778  -632  -471  -358  -313  -304  -318  -380  -485  -601  -709  -791  -828  -832  -832  -839  -834  -793  -728  -687  -700  -750  -799  -825  -832  -834  -834  -821  -774  -695  -616  -582  -601  -644  -687  -741  -814  -876  -862  -692  -354  13  242  285  182  -23  -257  -416  -486  -548  -649  -758  -824  -832  -813  -785  -727  -623  -509  -450  -493  -650  -909  -1211  -1418  -1409  -1219  -925  -399  732  2694  5140  7319  8393  7727  5475  2665  359  -931  -1230  -971  -648  -457  -385  -410  -545  -790  -1072  -1278  -1362  -1374  -1361  -1316  -1213  -1078  -975  -903  -809  -700  -640  -626  -584  -480  -356  -263  -201  -145  -96  -69  -64  -69  -69  -60  -45  -16  49  160  285  374  423  476  581  748  937  1099  1234  1394  1616  1863  2069  2218  2341  2446  2520  2578  2630  2667  2686  2703  2736  2778  2777  2665  2432  2120  1766  1388  970  513  97  -179  -316  -381  -424  -463  -509  -569  -640  -707  -757  -783  -792  -790  -783  -774  -774  -805  -880  -956  -972  -939  -918  -923  -924  -909  -899  -898  -869  -801  -738  -734  -793  -874  -935  -956  -918  -799  -621  -452  -339  -262  -162  -18  112  140  37  -136  -297  -433  -556  -641  -668  -643  -577  -497  -443  -429  -440  -451  -429  -346  -217  -109  -98  -289  -752  -1349  -1771  -1837  -1593  -1218  -923  -802  -802  -836  -854  -821  -719  -595  -565  -704  -941  -1126  -1177  -1095  -902  -675  -534  -530  -601  -666  -698  -709  -684  -573  -343  -45  181  216  63  -194  -486  -736  -871  -886  -831  -762  -716  -702  -705  -716  -739  -765  -756  -728  -797  -984  -1081  -870  -260  759  2201  4075  6177  7990  8771  7870  5368  2193  -541  -2074  -2211  -1418  -504  -7  -7  -322  -676  -866  -896  -857  -798  -737  -696  -690  -729  -836  -1034  -1280  -1440  -1354  -953  -397  12  149  104  -18  -157  -262  -303  -262  -112  120  335  423  336  109  -147  -302  -237  107  624  1054  1241  1255  1247  1299  1396  1515  1715  2052  2431  2692  2789  2793  2780  2782  2789  2782  2746  2671  2566  2449  2314  2147  1975  1852  1772  1655  1442  1155  823  446  41  -308  -510  -563  -540  -499  -470  -501  -642  -856  -1030  -1096  -1078  -1029  -976  -934  -900  -858  -803  -782  -838  -930  -953  -842  -653  -494  -423  -431  -463  -470  -463  -503  -628  -804  -952  -1028  -1052  -1069  -1090  -1084  -1014  -873  -711  -596  -551  -555  -589  -640  -703  -777  -843  -880  -895  -919  -978  -1057  -1095  -1045  -927  -778  -636  -552  -542  -561  -561  -534  -502  -475  -454  -438  -427  -424  -444  -507  -606  -707  -779  -809  -807  -794  -784  -766  -719  -643  -557  -478  -413  -334  -215  -108  -97  -213  -445  -720  -901  -891  -676  -334  -19  159  197  99  -151  -479  -706  -682  -388  32  355  448  282  -138  -694  -1152  -1353  -1249  -857  -338  25  77  -134  -435  -636  -646  -514  -359  -234  -85  128  418  923  1978  3898  6422  8463  8863  7319  4488  1527  -547  -1413  -1376  -956  -594  -423  -324  -227  -188  -289  -602  -1085  -1533  -1711  -1513  -1028  -509  -174  -49  -59  -150  -266  -354  -396  -401  -395  -402  -424  -444  -444  -396  -290  -161  -71  -44  -49  -27  60  192  326  459  597  714  784  799  771  754  801  944  1168  1394  1572  1756  2002  2298  2587  2804  2909  2915  2851  2730  2589  2494  2476  2514  2547  2461  2141  1636  1171  898  787  709  529  173  -317  -799  -1112  -1209  -1147  -982  -783  -645  -599  -600  -617  -656  -722  -770  -762  -739  -766  -835  -874  -813  -646  -453  -331  -318  -387  -483  -549  -546  -469  -346  -231  -156  -126  -157  -296  -553  -851  -1085  -1234  -1332  -1363  -1263  -1009  -692  -453  -348  -356  -440  -570  -701  -782  -801  -791  -795  -836  -910  -991  -1057  -1100  -1113  -1069  -941  -762  -625  -572  -568  -575  -594  -669  -836  -1048  -1209  -1265  -1197  -995  -721  -503  -396  -365  -388  -467  -561  -616  -624  -605  -581  -568  -579  -622  -679  -719  -741  -771  -811  -806  -724  -628  -598  -656  -761  -852  -899  -916  -947  -1044  -1195  -1270  -1147  -838  -409  79  635  1415  2645  4458  6528  7913  7686  5718  2762  -13  -1648  -1895  -1236  -391  110  107  -182  -458  -618  -722  -851  -1026  -1184  -1229  -1123  -914  -692  -523  -412  -323  -232  -163  -137  -140  -154  -177  -220  -276  -321  -345  -344  -306  -236  -162  -92  -18  49  112  206  339  465  549  607  663  714  757  832  1003  1274  1571  1812  1955  2031  2130  2300  2500  2658  2753  2819  2874  2906  2890  2800  2668  2563  2491  2372  2076  1545  937  506  327  268  193  62  -123  -358  -598  -778  -881  -930  -957  -994  -1043  -1079  -1080  -1042  -964  -822  -606  -379  -231  -190  -238  -366  -528  -641  -655  -585  -485  -415  -392  -394  -396  -395  -417  -486  -584  -655  -671  -654  -636  -627  -628  -644  -671  -702  -731  -766  -794  -790  -744  -687  -663  -685  -725  -755  -771  -785  -799  -807  -806  -791  -774  -769  -772  -766  -745  -729  -739  -775  -837  -940  -1087  -1233  -1319  -1319  -1249  -1152  -1082  -1065  -1100  -1174  -1262  -1333  -1360  -1304  -1127  -882  -708  -708  -886  -1140  -1318  -1330  -1192  -999  -863  -820  -830  -851  -864  -861  -838  -808  -788  -781  -766  -731  -693  -678  -679  -677  -706  -814  -999  -1159  -1174  -1053  -912  -830  -821  -907  -1138  -1490  -1729  -1612  -1166  -539  181  993  2147  3955  6185  7989  8432  7056  4257  1129  -1189  -2174  -2051  -1433  -861  -581  -603  -800  -960  -956  -844  -721  -629  -565  -492  -368  -217  -128  -130  -156  -144  -106  -78  -67  -65  -68  -78  -83  -40  91  280  432  491  477  433  375  308  261  286  432  680  929  1086  1137  1126  1117  1167  1307  1493  1644  1767  1949  2219  2483  2639  2694  2735  2831  2977  3130  3250  3327  3382  3428  3442  3338  3003  2442  1862  1504  1364  1215  890  459  105  -85  -146  -145  -128  -118  -122  -150  -202  -270  -349  -434  -504  -540  -554  -554  -541  -526  -523  -542  -609  -735  -863  -921  -856  -604  -226  55  64  -198  -571  -847  -951  -952  -929  -908  -892  -904  -997  -1195  -1429  -1576  -1557  -1370  -1105  -891  -782  -765  -812  -875  -915  -916  -876  -813  -766  -748  -744  -747  -768  -825  -896  -923  -884  -819  -757  -687  -625  -599  -602  -610  -606  -596  -591  -591  -585  -575  -569  -567  -557  -528  -481  -442  -438  -485  -573  -674  -755  -804  -821  -793  -698  -533  -337  -166  -72  -93  -224  -400  -528  -579  -593  -596  -570  -509  -463  -467  -475  -424  -313  -212  -208  -298  -403  -480  -537  -579  -611  -630  -620  -579  -535  -528  -565  -611  -657  -710  -730  -678  -603  -636  -887  -1242  -1384  -1043  -98  1478  3571  5812  7620  8399  7732  5653  2869  430  -976  -1288  -895  -371  -142  -257  -516  -737  -862  -892  -834  -713  -578  -481  -438  -429  -425  -416  -415  -439  -494  -572  -623  -567  -394  -186  -22  58  42  -62  -205  -304  -298  -182  -12  125  193  214  237  312  465  647  763  751  638  548  639  943  1331  1648  1827  1901  1931  1950  1997  2128  2351  2593  2786  2930  3036  3091  3066  2922  2638  2305  2095  2072  2112  1976  1482  754  156  -120  -189  -217  -260  -320  -399  -479  -510  -457  -360  -312  -394  -601  -831  -984  -1049  -1062  -1019  -876  -632  -400  -301  -329  -396  -465  -551  -670  -810  -918  -976  -1011  -1031  -980  -796  -535  -381  -460  -687  -888  -1001  -1072  -1141  -1210  -1248  -1211  -1083  -913  -790  -746  -739  -711  -650  -584  -542  -527  -526  -524  -521  -532  -585  -696  -847  -999  -1119  -1195  -1221  -1169  -1003  -750  -553  -576  -793  -1022  -1171  -1267  -1315  -1254  -1037  -742  -527  -454  -463  -488  -516  -557  -605  -636  -645  -654  -696  -789  -908  -999  -1031  -991  -874  -713  -580  -519  -537  -611  -682  -710  -703  -687  -680  -679  -673  -655  -651  -682  -721  -727  -724  -794  -984  -1240  -1368  -1044  -4  1777  4070  6347  7845  7952  6517  3976  1333  -429  -1066  -960  -623  -506  -753  -1086  -1247  -1263  -1231  -1171  -1076  -950  -807  -656  -524  -441  -406  -390  -383  -394  -427  -486  -570  -637  -635  -570  -488  -406  -303  -176  -64  -6  -5  -43  -103  -150  -127  33  340  699  971  1066  992  843  730  690  701  774  954  1238  1545  1802  1993  2144  2287  2422  2533  2647  2817  3031  3220  3341  3381  3299  3065  2751  2444  2078  1561  1009  612  392  234  76  -58  -160  -282  -467  -680  -848  -950  -999  -982  -897  -786  -692  -634  -610  -599  -588  -572  -556  -555  -572  -591  -619  -672  -740  -774  -739  -653  -551  -458  -391  -376  -425  -506  -573  -604  -612  -615  -632  -671  -721  -749  -733  -707  -703  -702  -712  -762  -829  -867  -878  -886  -903  -896  -809  -642  -484  -403  -393  -435  -503  -553  -573  -583  -600  -620  -631  -629  -612  -587  -566  -564  -597  -659  -698  -669  -567  -401  -203  -73  -135  -445  -880  -1195  -1244  -1050  -743  -487  -368  -360  -410  -494  -584  -642  -661  -675  -713  -769  -813  -838  -859  -859  -763  -513  -181  65  144  61  -168  -486  -786  -1015  -1162  -1169  -989  -722  -578  -668  -909  -1142  -1285  -1320  -1220  -990  -772  -676  -554  -173  617  1990  4001  6301  8156  8778  7703  5159  2111  -271  -1333  -1267  -800  -515  -595  -928  -1237  -1348  -1320  -1227  -1059  -838  -655  -579  -594  -645  -695  -736  -761  -747  -648  -458  -256  -135  -103  -104  -94  -80  -84  -90  -77  -52  -36  -21  8  65  150  235  280  284  288  353  520  790  1108  1365  1497  1540  1560  1589  1642  1737  1890  2067  2198  2246  2234  2216  2253  2386  2575  2727  2811  2857  2857  2758  2541  2232  1873  1492  1121  797  528  291  80  -91  -243  -397  -530  -608  -630  -617  -591  -572  -572  -593  -638  -707  -785  -850  -875  -844  -767  -675  -612  -597  -607  -613  -621  -668  -771  -893  -974  -998  -996  -993  -986  -958  -916  -884  -854  -772  -599  -348  -101  33  6  -144  -330  -464  -523  -559  -620  -704  -776  -814  -822  -809  -777  -723  -638  -518  -401  -332  -315  -340  -388  -434  -476  -532  -608  -678  -717  -722  -711  -697  -671  -609  -509  -425  -416  -463  -516  -560  -616  -716  -845  -942  -955  -873  -724  -580  -505  -506  -544  -568  -555  -525  -507  -516  -553  -603  -644  -676  -699  -678  -575  -420  -283  -187  -117  -61  -12  13  -28  -182  -413  -620  -744  -815  -885  -966  -1042  -1124  -1227  -1323  -1356  -1304  -1195  -1057  -894  -776  -813  -950  -906  -440  504  1985  4062  6373  8063  8353  6967  4284  1314  -847  -1738  -1647  -1164  -732  -503  -436  -441  -504  -637  -790  -892  -920  -880  -769  -623  -520  -514  -602  -731  -830  -873  -892  -918  -940  -945  -949  -962  -944  -847  -655  -394  -103  141  269  301  338  452  616  749  817  828  741  500  163  -90  -101  200  745  1298  1638  1768  1868  2087  2397  2668  2834  2900  2880  2817  2788  2824  2879  2893  2867  2833  2747  2499  2071  1608  1232  895  543  239  53  -17  -15  14  31  -29  -216  -472  -659  -723  -714  -691  -674  -666  -672  -687  -699  -700  -696  -706  -744  -806  -871  -911  -903  -835  -739  -667  -629  -591  -542  -504  -491  -492  -488  -467  -431  -410  -449  -578  -765  -944  -1084  -1186  -1232  -1207  -1111  -948  -745  -555  -419  -352  -344  -376  -437  -505  -551  -572  -587  -608  -644  -703  -773  -818  -817  -789  -767  -764  -763  -753  -730  -674  -565  -436  -349  -326  -348  -393  -454  -517  -555  -554  -531  -508  -494  -485  -476  -467  -455  -433  -396  -337  -237  -111  -23  -28  -131  -276  -393  -469  -538  -617  -699  -761  -789  -784  -740  -654  -542  -444  -384  -395  -568  -927  -1264  -1325  -1073  -557  222  1239  2492  4102  6032  7712  8213  6957  4249  1106  -1246  -1992  -1351  -387  89  79  -65  -164  -247  -375  -518  -583  -558  -524  -531  -541  -507  -446  -397  -377  -378  -384  -380  -366  -348  -351  -406  -496  -575  -629  -672  -708  -702  -564  -235  174  466  580  612  642  683  744  849  979  1084  1135  1118  1016  871  794  880  1119  1416  1683  1901  2081  2232  2404  2626  2844  2980  3020  2986  2897  2768  2614  2396  2008  1425  797  312  45  -63  -118  -178  -240  -295  -388  -571  -807  -981  -1034  -990  -897  -828  -869  -1038  -1247  -1370  -1365  -1286  -1200  -1116  -1028  -954  -904  -869  -849  -855  -897  -961  -1000  -987  -954  -934  -910  -852  -767  -700  -669  -658  -657  -699  -820  -989  -1111  -1116  -1002  -837  -713  -672  -690  -723  -733  -686  -563  -409  -301  -265  -258  -243  -229  -243  -279  -318  -406  -620  -915  -1131  -1161  -1019  -799  -606  -482  -406  -359  -372  -484  -646  -768  -818  -812  -746  -595  -400  -249  -175  -153  -207  -385  -642  -847  -913  -836  -693  -582  -541  -544  -555  -561  -554  -531  -500  -479  -474  -477  -474  -456  -418  -364  -300  -266  -362  -677  -1119  -1436  -1441  -1137  -708  -402  -333  -443  -624  -783  -856  -843  -843  -931  -1037  -1028  -720  147  1658  3650  5844  7683  8374  7417  5036  2123  -255  -1446  -1490  -980  -550  -442  -580  -814  -1005  -1085  -1079  -1034  -982  -948  -955  -1003  -1055  -1058  -1010  -952  -906  -859  -809  -765  -716  -628  -498  -372  -274  -203  -178  -209  -267  -317  -320  -261  -173  -94  -46  -35  -29  6  90  225  388  546  729  993  1299  1530  1632  1654  1678  1752  1888  2088  2329  2549  2707  2809  2878  2930  2960  2958  2916  2784  2495  2078  1652  1315  1107  1006  904  692  382  102  -65  -196  -412  -699  -922  -1022  -1061  -1082  -1063  -978  -849  -740  -680  -653  -617  -567  -551  -594  -627  -595  -560  -591  -655  -698  -717  -733  -743  -719  -640  -530  -442  -392  -362  -342  -333  -343  -366  -379  -375  -369  -350  -290  -207  -152  -141  -152  -163  -166  -167  -172  -179  -166  -88  87  317  485  519  442  327  241  191  154  141  171  211  211  158  78  0]
