reading_id,reading_time,wire_id,result_classification,heart_rate,heart_rate_alert,firmware_version,device_app_version,hardware_version,waveform_samples
9672d940-6a15-11ed-8080-808080808080,Tue Nov 22 03:27:26 UTC 2022,4101e3b01d39,NSR,66,NONE,20001.171.50,2.10.0,Charge 5,[5007  5037  4982  4786  4500  4244  4083  4036  4099  4195  4207  4077  3825  3501  3126  2752  2488  2377  2355  2353  2354  2371  2405  2440  2459  2453  2421  2373  2326  2308  2381  2599  2900  3117  3149  3017  2820  2674  2663  2824  3134  3477  3741  3886  3922  3870  3785  3728  3692  3606  3393  3001  2455  1859  1308  877  630  510  356  105  -140  -297  -434  -672  -1017  -1364  -1604  -1675  -1601  -1500  -1472  -1504  -1536  -1546  -1545  -1540  -1533  -1520  -1509  -1518  -1574  -1680  -1809  -1931  -2031  -2082  -2082  -2084  -2131  -2233  -2406  -2627  -2802  -2878  -2884  -2876  -2871  -2848  -2780  -2685  -2602  -2542  -2491  -2451  -2441  -2493  -2628  -2798  -2918  -2956  -2939  -2894  -2848  -2843  -2913  -3045  -3192  -3320  -3421  -3489  -3515  -3513  -3515  -3533  -3538  -3518  -3502  -3497  -3457  -3327  -3127  -2944  -2834  -2807  -2856  -2945  -3026  -3099  -3226  -3472  -3782  -4010  -4090  -4072  -4013  -3939  -3857  -3760  -3659  -3563  -3468  -3391  -3330  -3243  -3102  -2919  -2778  -2799  -2981  -3183  -3316  -3402  -3484  -3571  -3647  -3697  -3726  -3741  -3728  -3671  -3581  -3498  -3453  -3454  -3485  -3506  -3422  -3140  -2723  -2370  -2188  -2126  -2108  -2120  -2186  -2308  -2438  -2528  -2580  -2615  -2636  -2642  -2641  -2643  -2653  -2659  -2627  -2525  -2379  -2260  -2212  -2245  -2346  -2449  -2482  -2443  -2375  -2303  -2090  -1258  743  3806  6946  8900  8757  6456  3023  -47  -1808  -2179  -1684  -1059  -763  -851  -1208  -1637  -1922  -2008  -1971  -1856  -1658  -1427  -1280  -1286  -1397  -1483  -1474  -1410  -1305  -1151  -1023  -983  -968  -885  -780  -801  -957  -1066  -986  -776  -576  -442  -352  -298  -280  -298  -357  -448  -537  -591  -594  -509  -299  -12  244  443  630  823  1019  1229  1461  1681  1847  1977  2134  2341  2582  2819  2995  3080  3098  3086  3052  2940  2642  2129  1549  1106  853  698  564  433  307  204  151  150  169  155  49  -158  -386  -534  -592  -617  -628  -594  -521  -473  -508  -606  -664  -621  -546  -521  -535  -545  -546  -560  -616  -702  -762  -770  -762  -765  -766  -740  -652  -503  -365  -292  -285  -308  -309  -274  -242  -238  -245  -230  -177  -107  -57  -27  13  71  119  144  155  162  155  102  -18  -202  -422  -622  -735  -747  -702  -629  -542  -464  -401  -342  -279  -223  -181  -141  -99  -69  -57  -51  -44  -55  -125  -266  -425  -524  -530  -460  -359  -279  -233  -203  -183  -177  -182  -177  -146  -86  -15  45  95  120  100  22  -104  -212  -200  -61  110  267  425  580  705  808  905  965  947  872  786  701  573  350  55  -207  -351  -382  -366  -351  -344  -345  -356  -380  -409  -434  -477  -588  -764  -897  -806  -291  798  2562  4941  7416  9071  9160  7543  4780  1868  -298  -1421  -1779  -1781  -1683  -1612  -1583  -1527  -1389  -1188  -986  -816  -673  -544  -437  -371  -353  -363  -371  -361  -314  -188  31  275  452  552  611  682  809  964  1089  1175  1217  1204  1159  1104  1043  1006  1053  1220  1481  1740  1894  1935  1923  1897  1852  1784  1721  1717  1853  2200  2698  3172  3540  3850  4156  4426  4581  4562  4361  4047  3748  3555  3481  3481  3464  3316  2997  2595  2215  1855  1485  1148  894  714  596  561  565  486  279  55  -85  -157  -227  -346  -509  -663  -754  -775  -762  -746  -726  -684  -605  -486  -358  -264  -192  -113  -56  -73  -157  -274  -392  -470  -499  -503  -497  -454  -355  -256  -267  -426  -653  -840  -934  -956  -967  -1015  -1095  -1131  -1055  -903  -760  -674  -654  -682  -741  -844  -993  -1145  -1243  -1276  -1272  -1260  -1252  -1219  -1114  -958  -824  -733  -661  -608  -604  -706  -943  -1250  -1492  -1592  -1543  -1346  -1051  -760  -549  -429  -368  -336  -329  -367  -475  -617  -712  -735  -727  -723  -725  -717  -679  -600  -481  -344  -231  -159  -92  7  97  61  -139  -404  -603  -692  -718  -742  -786  -849  -914  -933  -847  -604  -221  175  441  531  461  248  -33  -259  -379  -409  -382  -368  -432  -560  -688  -808  -969  -1184  -1396  -1492  -1322  -874  -358  22  343  1045  2615  5095  7861  9802  9990  8310  5441  2403  77  -1163  -1470  -1279  -996  -814  -764  -832  -996  -1200  -1365  -1453  -1466  -1422  -1358  -1315  -1299  -1292  -1272  -1232  -1161  -1037  -884  -775  -741  -757  -792  -847  -937  -1029  -1047  -972  -871  -812  -804  -814  -793  -664  -364  60  439  644  689  650  558  447  421  595  966  1361  1599  1649  1585  1492  1454  1523  1673  1860  2057  2232  2374  2497  2611  2691  2695  2617  2492  2303  2014  1667  1351  1099  865  580  207  -241  -725  -1138  -1348  -1345  -1222  -1022  -737  -438  -291  -362  -532  -653  -709  -742  -745  -699  -649  -697  -886  -1120  -1246  -1226  -1159  -1131  -1131  -1129  -1124  -1125  -1127  -1118  -1087  -1036  -962  -848  -706  -594  -539  -521  -545  -688  -1012  -1419  -1679  -1674  -1489  -1260  -1084  -1004  -1000  -986  -862  -606  -310  -103  -40  -89  -176  -237  -255  -248  -233  -224  -242  -321  -455  -597  -719  -831  -929  -989  -1013  -1027  -1043  -1045  -991  -854  -672  -528  -464  -456  -462  -467  -475  -493  -519  -537  -544  -548  -555  -563  -573  -594  -627  -661  -666  -624  -549  -453  -332  -206  -125  -102  -106  -103  -86  -74  -80  -94  -105  -128  -184  -268  -359  -444  -499  -458  -270  -2  197  266  261  240  186  59  -113  -242  -280  -255  -215  -194  -180  -164  -181  -205  -180  -218  -452  -733  -768  -328  740  2488  4766  7152  8968  9507  8417  6047  3297  1080  -86  -279  -44  110  40  -157  -356  -529  -715  -900  -1001  -991  -958  -1018  -1202  -1422  -1547  -1541  -1490  -1463  -1428  -1356  -1289  -1267  -1265  -1224  -1109  -948  -761  -540  -315  -153  -71  -34  -18  -16  -28  -54  -102  -173  -214  -145  32  242  425  577  697  787  884  1074  1417  1846  2199  2376  2405  2363  2301  2242  2189  2156  2159  2195  2249  2287  2279  2219  2099  1889  1594  1261  926  624  394  222  69  -68  -174  -246  -294  -357  -498  -749  -1061  -1333  -1482  -1476  -1372  -1277  -1245  -1255  -1272  -1282  -1265  -1146  -857  -473  -173  -57  -119  -333  -615  -840  -962  -1030  -1085  -1130  -1155  -1154  -1123  -1027  -829  -559  -302  -127  -77  -155  -306  -441  -507  -517  -506  -485  -454  -430  -446  -509  -579  -609  -600  -590  -603  -640  -707  -790  -847  -831  -728  -581  -463  -398  -360  -340  -346  -375  -415  -467  -526  -568  -584  -586  -588  -585  -576  -572  -607  -712  -857  -965  -1005  -1006  -985  -918  -762  -521  -287  -160  -178  -325  -529  -669  -650  -452  -168  38  42  -186  -565  -926  -1145  -1196  -1082  -821  -517  -319  -267  -290  -306  -260  -125  88  269  132  -551  -1538  -2198  -1994  -669  1691  4618  7410  9339  9789  8499  5804  2648  170  -1014  -1062  -581  -234  -258  -360  -312  -240  -252  -304  -358  -409  -442  -444  -420  -383  -345  -301  -251  -218  -231  -303  -406  -497  -556  -589  -591  -532  -332  37  446  700  742  649  524  440  408  398  395  418  507  652  763  768  709  655  622  613  668  862  1212  1660  2134  2550  2827  2956  3001  3026  3053  3075  3072  3006  2833  2542  2193  1881  1646  1472  1328  1129  815  455  193  93  96  106  43  -136  -394  -620  -755  -836  -924  -1019  -1076  -1060  -995  -938  -926  -941  -942  -907  -858  -829  -813  -769  -665  -503  -312  -156  -86  -89  -113  -114  -89  -87  -191  -430  -717  -942  -1073  -1132  -1113  -948  -602  -200  62  124  69  -6  -59  -97  -151  -233  -319  -380  -425  -490  -576  -643  -671  -673  -674  -687  -702  -671  -546  -364  -230  -206  -273  -370  -446  -490  -523  -552  -568  -536  -414  -216  -30  59  8  -186  -446  -632  -687  -658  -605  -559  -539  -566  -655  -768  -827  -781  -635  -431  -241  -166  -255  -434  -580  -642  -645  -629  -619  -639  -712  -820  -911  -954  -964  -965  -964  -967  -993  -1041  -1079  -1052  -933  -807  -820  -977  -1123  -1131  -1024  -928  -931  -991  -1035  -1074  -1161  -1315  -1478  -1558  -1526  -1453  -1405  -1322  -1053  -610  -320  -445  -830  -1117  -847  482  2944  5989  8802  10508  10367  8287  5032  1754  -598  -1596  -1466  -916  -557  -529  -720  -1037  -1378  -1587  -1567  -1327  -989  -722  -583  -519  -488  -481  -489  -509  -528  -523  -477  -410  -362  -346  -348  -362  -389  -425  -452  -464  -461  -440  -377  -260  -125  -28  25  71  130  186  221  278  423  618  752  800  867  1057  1327  1528  1594  1578  1554  1565  1631  1741  1870  2012  2173  2348  2511  2614  2611  2481  2259  2036  1875  1761  1622  1363  921  315  -329  -820  -1065  -1134  -1124  -1070  -996  -935  -901  -876  -831  -761  -693  -649  -631  -632  -629  -580  -454  -278  -119  -55  -136  -350  -638  -915  -1060  -1012  -857  -694  -551  -438  -351  -278  -231  -221  -250  -299  -338  -384  -476  -580  -638  -633  -561  -408  -183  43  158  94  -100  -312  -446  -487  -479  -487  -560  -691  -825  -909  -909  -771  -467  -107  143  235  224  140  -56  -394  -783  -1039  -1032  -771  -406  -140  -52  -82  -165  -258  -324  -343  -308  -211  -69  64  136  116  -21  -258  -495  -623  -590  -403  -154  22  70  36  -17  -59  -89  -107  -99  -60  -20  -30  -97  -155  -147  -101  -67  -55  -44  -18  21  59  76  51  -15  -89  -139  -158  -160  -161  -170  -173  -131  -7  164  278  206  -113  -563  -904  -1016  -914  -639  -297  -50  6  -137  -458  -862  -1209  -1394  -1345  -1035  -651  -459  -328  270  1774  4227  7168  9620  10456  9211  6501  3438  964  -400  -760  -685  -606  -583  -574  -606  -695  -812  -905  -914  -845  -773  -744  -743  -748  -749  -755  -783  -844  -923  -960  -902  -765  -620  -521  -458  -387  -302  -240  -238  -298  -391  -452  -399  -188  101  311  375  351  324  362  504  699  844  898  903  900  902  923  990  1133  1364  1647  1900  2079  2234  2436  2654  2785  2799  2717  2548  2348  2190  2064  1904  1671  1379  1078  819  588  370  197  89  15  -73  -224  -419  -575  -644  -654  -642  -607  -556  -524  -547  -617  -713  -832  -980  -1136  -1255  -1296  -1253  -1174  -1116  -1096  -1096  -1088  -1047  -951  -823  -726  -690  -709  -782  -899  -1040  -1188  -1324  -1407  -1393  -1264  -1056  -855  -729  -693  -728  -811  -918  -1019  -1078  -1082  -1045  -1005  -991  -1002  -1014  -1010  -985  -949  -920  -916  -949  -1006  -1060  -1081  -1020  -835  -584  -400  -348  -395  -480  -554  -591  -596  -587  -581  -589  -622  -673  -707  -671  -535  -344  -200  -149  -179  -272  -398  -507  -559  -559  -539  -526  -525  -530  -534  -529  -504  -465  -431  -415  -411  -409  -408  -423  -471  -547  -627  -690  -732  -753  -745  -701  -639  -598  -601  -645  -708  -756  -725  -567  -400  -452  -748  -1083  -1343  -1597  -1830  -1831  -1448  -819  -139  787  2426  4826  7382  9191  9418  7735  4740  1663  -468  -1334  -1230  -751  -470  -579  -801  -839  -714  -573  -470  -424  -491  -717  -1029  -1255  -1287  -1140  -906  -680  -506  -388  -307  -253  -263  -343  -423  -456  -460  -461  -462  -446  -400  -340  -300  -292  -296  -279  -220  -131  -30  97  264  455  673  920  1155  1315  1386  1405  1438  1530  1669  1809  1952  2114  2282  2447  2627  2810  2941  2967  2853  2592  2261  2009  1906  1896  1894  1834  1669  1422  1152  864  554  283  108  -1  -124  -270  -372  -401  -393  -404  -464  -550  -611  -631  -647  -702  -785  -851  -876  -876  -873  -872  -871  -866  -856  -836  -810  -780  -731  -652  -549  -432  -320  -249  -255  -336  -425  -445  -435  -490  -611  -725  -781  -780  -761  -747  -730  -687  -616  -508  -343  -149  -9  30  -12  -109  -231  -335  -389  -399  -408  -464  -590  -733  -793  -752  -680  -626  -566  -471  -359  -275  -229  -211  -225  -296  -417  -540  -634  -695  -699  -644  -584  -557  -555  -560  -553  -527  -479  -399  -264  -107  -46  -166  -423  -673  -785  -733  -575  -371  -180  -68  -39  -36  -32  -27  -39  -105  -243  -405  -519  -557  -531  -449  -329  -204  -105  -52  -51  -105  -208  -323  -400  -425  -419  -409  -418  -466  -538  -587  -606  -651  -751  -864  -945  -985  -997  -1001  -1007  -1009  -991  -941  -879  -869  -876  -694  -156  835  2484  4911  7751  10105  10913  9572  6468  2834  -14  -1341  -1234  -454  113  120  -195  -545  -855  -1123  -1314  -1372  -1311  -1195  -1057  -911  -797  -729  -668  -584  -486  -398  -332  -294  -274  -262  -255  -263  -284  -309  -334  -367  -398  -395  -320  -183  -62  -25  -71  -130  -104  37  223  386  511  616  712  807  926  1080  1241  1382  1489  1550  1583  1653  1814  2028  2204  2333  2466  2578  2590  2512  2437  2392  2292  2037  1604  1126  804  697  681  607  404  100  -218  -479  -653  -743  -783  -833  -931  -1053  -1132  -1125  -1039  -932  -865  -844  -837  -843  -893  -1015  -1199  -1350  -1317  -1012  -563  -230  -133  -199  -337  -497  -665  -870  -1087  -1195  -1123  -949  -815  -774  -790  -817  -836  -827  -750  -590  -408  -282  -228  -223  -288  -469  -726  -930  -1014  -1013  -974  -887  -715  -508  -412  -512  -726  -901  -976  -987  -975  -925  -814  -659  -527  -465  -470  -518  -576  -606  -578  -489  -376  -295  -267  -282  -333  -414  -499  -554  -551  -500  -441  -404  -385  -371  -357  -356  -389  -462  -549  -598  -586  -539  -482  -402  -310  -240  -214  -241  -334  -475  -596  -643  -622  -582  -563  -554  -514  -412  -285  -201  -195  -246  -310  -349  -352  -316  -226  -104  -5  32  -11  -157  -371  -551  -636  -653  -656  -664  -658  -603  -475  -315  -202  -166  -168  -168  -166  -182  -204  -199  -196  -309  -599  -930  -1097  -1022  -697  -7  1369  3698  6710  9467  10771  9929  7278  3901  996  -664  -1109  -922  -599  -328  -236  -395  -653  -805  -814  -722  -549  -341  -206  -263  -563  -983  -1286  -1333  -1147  -849  -585  -434  -383  -384  -403  -426  -447  -458  -461  -459  -435  -350  -173  40  187  229  215  202  217  263  341  451  570  649  670  661  671  747  900  1102  1326  1554  1758  1934  2139  2413  2689  2864  2908  2832  2640  2396  2203  2062  1888  1670  1489  1376  1282  1169  1041  897  738  544  252  -131  -484  -702  -755  -671  -539  -488  -592  -815  -1064  -1265  -1362  -1271  -939  -486  -153  -59  -148  -324  -494  -594  -637  -667  -700  -740  -797  -856  -888  -893  -884  -877  -881  -892  -889  -851  -781  -705  -639  -590  -566  -562  -567  -563  -518  -398  -232  -98  -41  -67  -171  -324  -463  -543  -581  -637  -734  -829  -865  -823  -748  -692  -661  -626  -548  -410  -243  -92  14  70  83  54  -43  -228  -478  -747  -979  -1108  -1115  -1037  -909  -761  -638  -565  -539  -543  -570  -607  -631  -594  -459  -265  -108  -52  -108  -269  -478  -634  -696  -695  -681  -676  -666  -616  -502  -360  -232  -113  -5  65  90  93  98  114  139  164  157  60  -158  -433  -641  -744  -791  -819  -843  -866  -888  -905  -903  -857  -811  -890  -1086  -1193  -942  46  2087  4951  7817  9712  9992  8594  6050  3245  964  -462  -1114  -1198  -962  -717  -684  -822  -942  -929  -793  -612  -486  -446  -453  -456  -414  -293  -117  32  90  24  -183  -469  -706  -817  -819  -766  -712  -693  -705  -734  -777  -795  -660  -261  283  682  815  798  765  766  804  856  894  906  906  907  922  950  995  1069  1169  1298  1478  1683  1849  1992  2207  2543  2935  3246  3359  3256  3023  2777  2554  2283  1906  1473  1063  715  467  352  321  247  14  -392  -829  -1118  -1233  -1266  -1270  -1193  -969  -659  -435  -414  -581  -821  -989  -1012  -914  -768  -651  -601  -609  -641  -662  -647  -604  -578  -610  -684  -753  -761  -666  -477  -267  -114  -42  -38  -87  -180  -319  -496  -685  -875  -1067  -1229  -1289  -1174  -862  -481  -222  -143  -165  -205  -235  -248  -244  -238  -254  -322  -435  -539  -577  -544  -490  -478  -550  -699  -871  -991  -1023  -970  -843  -684  -560  -517  -541  -587  -616  -613  -591  -555  -503  -445  -403  -380  -360  -349  -379  -455  -530  -565  -580  -620  -717  -866  -1022  -1120  -1106  -971  -757  -533  -367  -281  -245  -229  -236  -296  -421  -555  -615  -563  -446  -332  -260  -236  -247  -272  -294  -305  -297  -254  -172  -79  -15  19  43  54  7  -135  -357  -579  -717  -750  -692  -562  -414  -338  -380  -499  -623  -752  -949  -1205  -1361  -1205  -594  505  2105  4239  6751  9091  10486  10296  8346  5235  2157  117  -650  -532  -80  238  188  -155  -520  -698  -696  -629  -578  -557  -543  -527  -522  -540  -568  -566  -506  -407  -328  -300  -320  -369  -423  -490  -576  -618  -552  -415  -309  -278  -286  -276  -213  -111  -18  42  83  115  155  238  388  559  680  750  823  906  977  1057  1176  1319  1451  1558  1665  1839  2138  2522  2857  3049  3107  3092  3023  2892  2707  2492  2260  2008  1714  1358  938  496  133  -89  -245  -439  -698  -960  -1132  -1174  -1104  -949  -756  -599  -539  -552  -543  -472  -388  -342  -347  -395  -474  -610  -825  -1044  -1134  -1092  -1042  -1055  -1093  -1113  -1113  -1112  -1129  -1176  -1242  -1299  -1330  -1317  -1225  -1038  -825  -688  -653  -669  -681  -653  -588  -534  -531  -566  -625  -691  -743  -782  -832  -922  -1020  -1047  -1019  -1009  -1029  -1037  -985  -855  -698  -590  -549  -528  -506  -501  -538  -599  -644  -655  -644  -637  -674  -777  -899  -969  -980  -978  -979  -937  -798  -581  -383  -281  -284  -367  -491  -608  -675  -672  -604  -500  -409  -375  -404  -474  -548  -602  -641  -677  -698  -691  -671  -640  -578  -482  -388  -328  -307  -335  -446  -631  -788  -813  -726  -634  -589  -563  -519  -443  -341  -231  -133  -32  95  222  290  244  49  -283  -646  -895  -986  -981  -945  -883  -784  -661  -559  -507  -508  -554  -635  -719  -747  -696  -665  -723  -649  38  1820  4761  8109  10568  11089  9423  6277  2924  441  -779  -1005  -779  -500  -378  -484  -715  -944  -1142  -1289  -1341  -1255  -1027  -742  -533  -453  -481  -591  -731  -802  -719  -472  -140  148  297  288  159  -7  -126  -170  -169  -136  -53  64  156  179  158  161  223  295  321  300  277  308  436  654  911  1138  1284  1350  1369  1350  1317  1363  1590  1954  2290  2527  2715  2889  3019  3091  3095  2963  2632  2199  1845  1601  1390  1181  937  588  171  -159  -311  -325  -285  -248  -250  -319  -469  -712  -991  -1191  -1269  -1258  -1162  -959  -720  -599  -679  -876  -1026  -1047  -977  -868  -748  -646  -578  -539  -528  -543  -580  -647  -731  -795  -824  -825  -805  -755  -680  -606  -553  -505  -447  -389  -331  -260  -201  -227  -368  -539  -607  -557  -500  -521  -624  -756  -854  -908  -947  -976  -982  -950  -870  -734  -580  -465  -416  -447  -534  -616  -663  -694  -718  -715  -670  -613  -592  -623  -704  -831  -962  -1029  -991  -865  -689  -496  -323  -219  -188  -190  -199  -227  -290  -358  -374  -334  -286  -264  -260  -263  -277  -312  -360  -395  -409  -414  -416  -395  -320  -185  -39  53  78  60  20  -22  -51  -69  -99  -156  -256  -416  -601  -726  -732  -615  -427  -245  -140  -143  -234  -355  -458  -533  -594  -655  -728  -775  -695  -409  193  1339  3178  5557  7941  9494  9450  7628  4643  1575  -602  -1460  -1225  -541  -79  -197  -710  -1159  -1323  -1291  -1205  -1130  -1078  -1036  -978  -877  -748  -644  -587  -551  -527  -521  -521  -489  -399  -273  -167  -112  -120  -227  -457  -748  -980  -1077  -988  -673  -223  139  295  308  304  360  490  679  915  1145  1272  1257  1163  1076  1036  1072  1225  1481  1730  1896  2045  2274  2545  2753  2881  2986  3089  3163  3163  3054  2846  2556  2154  1624  1072  660  425  276  142  22  -69  -162  -314  -540  -771  -936  -1028  -1073  -1064  -990  -864  -727  -643  -660  -784  -957  -1086  -1130  -1107  -1034  -929  -823  -744  -704  -697  -705  -714  -715  -702  -680  -658  -641  -632  -641  -676  -726  -765  -771  -731  -647  -543  -444  -372  -381  -517  -710  -849  -907  -945  -1018  -1125  -1197  -1125  -846  -460  -171  -72  -118  -250  -414  -537  -586  -595  -606  -624  -615  -551  -452  -371  -333  -341  -424  -601  -798  -887  -845  -789  -811  -862  -872  -863  -876  -892  -877  -833  -782  -717  -615  -509  -460  -473  -513  -557  -580  -538  -412  -234  -77  10  12  -94  -323  -594  -785  -861  -863  -821  -735  -619  -499  -382  -260  -155  -96  -81  -85  -82  -61  -29  -3  13  27  22  -48  -216  -421  -562  -605  -597  -578  -568  -578  -622  -719  -892  -1104  -1178  -980  -627  -301  49  760  2257  4738  7815  10412  11313  10031  7090  3660  969  -358  -644  -687  -935  -1295  -1524  -1494  -1224  -860  -595  -499  -510  -560  -634  -722  -800  -835  -819  -763  -677  -571  -478  -421  -406  -428  -480  -543  -589  -611  -624  -630  -608  -521  -365  -203  -108  -79  -58  1  86  154  191  211  210  173  100  44  119  412  869  1378  1913  2424  2748  2786  2588  2308  2118  2133  2359  2674  2901  2959  2881  2737  2594  2453  2200  1735  1182  789  615  508  325  30  -349  -725  -974  -1056  -1016  -889  -688  -451  -288  -344  -633  -977  -1191  -1255  -1251  -1211  -1097  -885  -652  -506  -484  -546  -634  -693  -692  -628  -525  -431  -378  -365  -383  -432  -494  -540  -558  -562  -565  -559  -523  -465  -435  -477  -575  -669  -721  -738  -741  -741  -745  -751  -744  -698  -598  -486  -448  -527  -672  -810  -911  -942  -873  -739  -612  -521  -460  -418  -391  -414  -513  -640  -717  -714  -655  -611  -614  -630  -637  -644  -651  -652  -640  -607  -547  -475  -423  -420  -459  -509  -543  -556  -554  -535  -483  -397  -319  -320  -416  -560  -696  -785  -811  -792  -764  -745  -702  -616  -527  -492  -537  -635  -717  -747  -746  -735  -708  -649  -568  -491  -428  -378  -339  -306  -279  -267  -281  -324  -382  -430  -458  -476  -492  -526  -576  -604  -629  -710  -820  -863  -790  -643  -516  -454  -413  -384  -442  -519  -320  449  1987  4318  7002  9126  9766  8533  5895  2842  297  -1149  -1448  -1077  -533  -107  43  -58  -250  -407  -505  -572  -625  -670  -710  -723  -706  -689  -689  -698  -711  -719  -695  -602  -444  -289  -221  -262  -344  -404  -421  -377  -270  -135  -4  125  252  356  421  451  442  357  160  -103  -281  -196  223  801  1225  1383  1403  1424  1499  1625  1760  1859  1921  1961  1985  2017  2087  2187  2272  2319  2336  2344  2360  2368  2274  1974  1513  1060  699  391  111  -116  -269  -383  -519  -664  -730  -665  -514  -376  -303  -275  -251  -248  -353  -630  -958  -1104  -1022  -863  -730  -604  -463  -348  -293  -287  -319  -396  -528  -676  -780  -820  -822  -814  -808  -810  -836  -887  -915  -854  -714  -557  -408  -272  -183  -163  -191  -237  -299  -392  -503  -590  -640  -681  -738  -820  -904  -957  -977  -993  -1016  -1008  -931  -804  -684  -606  -567  -544  -508  -460  -415  -381  -358  -346  -336  -314  -285  -258  -239  -225  -212  -203  -210  -244  -303  -376  -443  -489  -513  -487  -392  -264  -167  -125  -121  -152  -233  -350  -448  -485  -453  -368  -266  -187  -147  -165  -268  -434  -567  -563  -407  -203  -70  -18  -17  -58  -114  -157  -190  -214  -222  -230  -271  -371  -515  -672  -814  -920  -977  -1000  -1040  -1163  -1351  -1440  -1267  -750  309  2210  4888  7697  9647  9763  7720  4309  970  -1128  -1666  -1141  -415  -170  -485  -950  -1239  -1347  -1374  -1382  -1389  -1401  -1419  -1420  -1351  -1173  -933  -747  -674  -672  -676  -649  -555  -364  -118  74  163  181  149  28  -208  -477  -644  -679  -659  -624  -482  -113  406  835  1049  1101  1086  1074  1103  1177  1268  1332  1350  1337  1316  1325  1433  1692  2037  2314  2458  2524  2564  2589  2608  2647  2716  2794  2837  2774  2504  1998  1390  880  550  353  226  143  63  -81  -333  -650  -909  -1003  -936  -803  -705  -674  -677  -686  -697  -721  -767  -850  -959  -1014  -942  -777  -606  -497  -467  -493  -534  -585  -660  -755  -845  -903  -922  -922  -925  -936  -946  -959  -972  -955  -852  -645  -404  -229  -157  -153  -185  -252  -342  -421  -464  -471  -457  -453  -497  -618  -779  -908  -992  -1056  -1063  -970  -829  -724  -665  -606  -507  -375  -250  -173  -200  -376  -624  -812  -899  -933  -954  -972  -985  -984  -916  -690  -292  125  374  382  182  -126  -400  -553  -594  -565  -527  -556  -678  -840  -960  -991  -928  -776  -561  -360  -247  -212  -212  -233  -273  -299  -282  -237  -200  -189  -191  -191  -181  -162  -139  -116  -106  -123  -169  -233  -298  -357  -417  -488  -580  -687  -775  -811  -815  -838  -889  -942  -986  -1032  -1065  -1021  -832  -581  -445  -398  -163  623  2287  4772  7371  9062  9185  7769  5437  3087  1396  415  -232  -723  -947  -939  -881  -852  -829  -778  -681  -574  -513  -524  -591  -681  -765  -856  -961  -1061  -1124  -1120  -1011  -803  -561  -370  -271  -252  -275  -321  -378  -415  -394  -296  -159  -60  -43  -93  -169  -221  -206  -104  51  196  300  397  540  715  846  901  947  1067  1264  1509  1806  2107  2305  2369  2372  2384  2433  2530  2665  2787  2839  2800  2693  2554  2384  2170  1897  1524  1011  428  -58  -342  -442  -435  -393  -371  -440  -653  -947  -1169  -1254  -1251  -1210  -1143  -1064  -987  -905  -814  -734  -669  -616  -596  -624  -679  -722  -735  -720  -680  -630  -607  -646  -743  -852  -917  -923  -888  -842  -809  -790  -748  -651  -516  -402  -350  -352  -388  -438  -483  -510  -510  -462  -354  -226  -165  -237  -425  -637  -782  -837  -840  -838  -844  -829  -720  -464  -141  88  159  112  -5  -142  -235  -266  -271  -292  -359  -482  -616  -690  -667  -563  -425  -316  -290  -370  -522  -665  -736  -719  -625  -503  -418  -399  -424  -444  -385  -181  113  327  290  -56  -583  -1016  -1201  -1180  -1054  -908  -813  -797  -841  -910  -968  -973  -872  -638  -348  -133  -48  -39  -28  25  113  184  205  200  199  173  40  -242  -584  -845  -971  -1010  -1023  -1033  -1018  -962  -942  -1075  -1277  -1267  -862  -20  1252  2929  5041  7470  9605  10528  9612  7032  3758  971  -602  -1011  -868  -757  -823  -912  -916  -882  -855  -810  -772  -788  -839  -870  -847  -760  -643  -559  -533  -538  -544  -541  -549  -588  -653  -727  -776  -748  -653  -567  -534  -509  -386  -84  315  615  733  749  741  698  585  430  302  220  159  132  252  621  1126  1503  1650  1685  1731  1826  1968  2128  2256  2320  2333  2335  2363  2430  2495  2487  2357  2133  1896  1699  1511  1273  994  729  490  243  6  -170  -313  -505  -739  -911  -979  -992  -996  -998  -993  -989  -996  -1013  -1025  -1000  -909  -766  -621  -520  -490  -568  -758  -981  -1125  -1144  -1071  -970  -901  -891  -933  -999  -1059  -1082  -1011  -795  -498  -282  -247  -375  -569  -691  -661  -517  -385  -371  -462  -557  -597  -599  -591  -578  -554  -526  -503  -472  -409  -326  -265  -239  -233  -251  -344  -546  -781  -905  -860  -729  -630  -594  -561  -477  -365  -301  -325  -401  -484  -564  -645  -707  -737  -742  -738  -734  -728  -717  -711  -749  -865  -1019  -1092  -987  -741  -525  -495  -625  -757  -773  -667  -516  -405  -340  -260  -159  -96  -110  -169  -215  -225  -213  -194  -176  -181  -244  -378  -560  -732  -834  -860  -844  -805  -757  -777  -996  -1387  -1646  -1470  -860  110  1551  3511  5802  8028  9453  9225  7140  3960  928  -940  -1419  -1020  -460  -244  -426  -718  -912  -1006  -1049  -1071  -1087  -1085  -1021  -859  -639  -450  -348  -330  -356  -387  -400  -377  -323  -275  -262  -287  -349  -441  -536  -586  -557  -453  -307  -167  -71  -10  43  100  172  268  374  449  480  504  572  701  843  939  979  983  993  1100  1397  1836  2234  2474  2575  2601  2600  2613  2666  2741  2773  2700  2507  2216  1873  1507  1104  698  384  178  6  -165  -302  -384  -451  -565  -722  -850  -895  -867  -811  -782  -827  -957  -1118  -1224  -1217  -1091  -900  -738  -657  -656  -739  -920  -1146  -1293  -1213  -820  -237  240  413  264  -129  -586  -884  -955  -888  -787  -726  -761  -923  -1157  -1319  -1264  -944  -498  -166  -33  3  20  -8  -111  -215  -219  -145  -106  -147  -209  -253  -291  -336  -377  -409  -427  -423  -398  -373  -365  -371  -382  -401  -445  -511  -574  -614  -629  -628  -620  -594  -546  -501  -487  -504  -529  -542  -531  -496  -445  -405  -404  -470  -626  -828  -971  -994  -917  -806  -707  -601  -437  -235  -83  -32  -75  -196  -349  -460  -499  -487  -441  -363  -260  -164  -103  -76  -85  -141  -218  -281  -321  -340  -347  -365  -408  -468  -535  -618  -726  -839  -903  -866  -700  -408  -73  156  174  -46  -452  -890  -1194  -1251  -962  -99  1686  4467  7648  10091  10719  9189  6195  3042  772  -343  -612  -537  -508  -595  -689  -750  -815  -882  -898  -855  -821  -826  -794  -679  -554  -499  -521  -568  -593  -590  -595  -626  -664  -683  -689  -691  -685  -650  -555  -377  -127  124  304  396  434  454  476  514  545  497  309  33  -179  -243  -163  76  477  904  1185  1295  1331  1376  1483  1725  2103  2475  2721  2858  2935  2940  2873  2794  2757  2739  2637  2353  1903  1425  1068  873  777  665  438  55  -445  -925  -1208  -1198  -931  -569  -312  -226  -242  -314  -500  -849  -1177  -1194  -935  -721  -728  -897  -1092  -1211  -1244  -1225  -1134  -939  -696  -530  -506  -596  -727  -835  -905  -947  -957  -942  -904  -826  -681  -475  -265  -123  -75  -102  -178  -287  -403  -485  -510  -492  -464  -465  -538  -711  -927  -1077  -1112  -1073  -996  -881  -716  -541  -420  -373  -374  -423  -545  -712  -841  -894  -906  -915  -924  -897  -803  -663  -534  -445  -397  -382  -382  -379  -379  -418  -524  -648  -695  -634  -538  -495  -521  -546  -495  -390  -327  -371  -485  -586  -630  -637  -633  -630  -625  -609  -585  -567  -566  -587  -621  -641  -595  -458  -290  -190  -159  -125  -79  -66  -112  -188  -240  -250  -265  -348  -514  -706  -846  -906  -911  -907  -921  -945  -941  -870  -771  -775  -867  -805  -540  -304  -227  -225  -12  954  3167  6446  9676  11343  10515  7499  3669  580  -881  -894  -389  -101  -122  -312  -609  -931  -1142  -1193  -1147  -1085  -1050  -1040  -1034  -1015  -989  -960  -914  -838  -747  -671  -624  -590  -557  -533  -522  -522  -532  -560  -594  -599  -539  -408  -235  -62  71  152  192  233  315  426  506  526  511  510  578  736  931  1077  1156  1239  1405  1674  1996  2293  2507  2631  2715  2820  2954  3064  3105  3075  2958  2715  2352  1934  1502  1097  791  597  407  119  -232  -536  -717  -797  -834  -823  -732  -608  -536  -541  -586  -649  -763  -948  -1135  -1227  -1199  -1111  -1030  -963  -861  -712  -591  -550  -563  -595  -635  -673  -706  -717  -699  -682  -651  -581  -535  -568  -657  -772  -890  -969  -993  -988  -980  -977  -968  -940  -886  -810  -722  -652  -622  -638  -708  -823  -943  -1021  -1048  -1047  -1034  -989  -881  -722  -571  -486  -483  -529  -565  -560  -541  -564  -661  -795  -894  -935  -935  -900  -818  -701  -601  -561  -581  -622  -650  -654  -624  -567  -500  -412  -298  -198  -159  -196  -299  -427  -535  -616  -674  -685  -594  -382  -146  -50  -174  -435  -683  -839  -895  -831  -628  -359  -167  -106  -117  -128  -107  -64  -19  22  74  132  144  74  -40  -170  -336  -551  -761  -891  -929  -920  -909  -903  -896  -882  -871  -860  -795  -604  -327  -116  -38  11  286  1229  3179  5874  8442  9795  9161  6682  3389  560  -962  -1163  -664  -157  -38  -258  -519  -662  -742  -855  -1004  -1115  -1120  -1013  -848  -705  -625  -604  -624  -659  -691  -705  -682  -598  -463  -335  -259  -230  -222  -225  -246  -290  -329  -305  -178  10  160  219  213  181  141  103  91  168  374  650  900  1079  1188  1272  1395  1578  1769  1915  2063  2303  2614  2873  3002  3020  2958  2826  2664  2528  2425  2322  2205  2092  1990  1826  1489  981  482  175  45  -55  -199  -353  -505  -701  -932  -1103  -1180  -1204  -1196  -1154  -1105  -1081  -1088  -1108  -1104  -1017  -820  -582  -428  -429  -571  -767  -905  -930  -872  -792  -740  -725  -717  -688  -640  -595  -558  -527  -516  -539  -592  -647  -685  -721  -769  -808  -802  -761  -716  -657  -538  -379  -257  -208  -204  -213  -233  -279  -352  -447  -584  -762  -929  -1037  -1079  -1059  -976  -852  -739  -675  -659  -672  -710  -780  -867  -931  -933  -851  -695  -537  -466  -507  -608  -690  -712  -665  -546  -389  -280  -305  -484  -736  -915  -937  -825  -666  -554  -520  -531  -553  -567  -544  -464  -355  -277  -252  -254  -249  -223  -188  -162  -153  -152  -147  -142  -154  -197  -262  -328  -392  -457  -511  -538  -547  -548  -544  -536  -528  -532  -576  -685  -878  -1168  -1508  -1733  -1632  -1088  -118  1150  2663  4547  6780  8835  9853  9190  6908  3843  1145  -436  -946  -904  -796  -823  -921  -982  -988  -971  -950  -921  -871  -788  -673  -554  -473  -474  -554  -669  -773  -826  -793  -669  -513  -418  -408  -446  -499  -558  -601  -577  -434  -185  69  229  281  272  252  256  307  408  524  611  640  605  525  436  386  418  558  766  978  1208  1529  1920  2258  2480  2627  2751  2862  2952  3021  3072  3107  3107  3008  2741  2308  1801  1319  891  492  111  -197  -386  -498  -604  -712  -820  -916  -913  -765  -564  -414  -346  -346  -403  -548  -800  -1074  -1246  -1265  -1155  -972  -798  -698  -671  -678  -689  -701  -713  -700  -642  -556  -489  -464  -467  -485  -535  -639  -783  -912  -962  -904  -768  -626  -540  -521  -544  -582  -595  -530  -343  -83  125  168  -48  -548  -1142  -1532  -1580  -1362  -1050  -815  -709  -650  -538  -376  -256  -245  -324  -436  -529  -597  -657  -713  -773  -835  -878  -892  -894  -899  -900  -865  -764  -617  -486  -405  -357  -324  -302  -302  -347  -435  -535  -631  -717  -778  -806  -797  -726  -576  -396  -271  -229  -244  -299  -384  -459  -481  -460  -437  -432  -440  -444  -442  -444  -444  -417  -330  -178  -11  88  70  -66  -252  -384  -426  -418  -405  -404  -413  -421  -419  -416  -459  -588  -762  -888  -937  -974  -1074  -1213  -1226  -1034  -797  -685  -630  -269  1012  3656  7278  10569  12033  10902  7597  3523  283  -1230  -1229  -643  -284  -331  -524  -641  -676  -674  -644  -604  -595  -641  -736  -831  -878  -852  -761  -664  -618  -629  -657  -643  -572  -514  -511  -526  -510  -445  -361  -282  -181  -23  178  365  481  504  456  377  269  113  -41  -58  123  419  696  859  938  1068  1338  1682  1953  2077  2088  2045  2006  2024  2167  2484  2899  3217  3331  3265  3064  2788  2509  2252  2000  1725  1359  867  371  37  -104  -140  -147  -179  -265  -404  -557  -677  -744  -769  -775  -773  -747  -684  -632  -657  -742  -832  -921  -1023  -1167  -1316  -1333  -1189  -1029  -956  -954  -976  -991  -966  -870  -726  -605  -542  -514  -493  -474  -465  -478  -538  -648  -763  -823  -810  -756  -705  -671  -635  -600  -602  -665  -753  -795  -778  -751  -745  -730  -673  -589  -527  -507  -511  -512  -493  -453  -423  -433  -450  -426  -375  -324  -278  -256  -319  -516  -790  -1013  -1117  -1123  -1025  -788  -461  -186  -51  -32  -58  -82  -96  -121  -174  -242  -293  -313  -319  -338  -397  -509  -650  -765  -809  -785  -741  -722  -716  -685  -606  -491  -356  -205  -68  20  65  101  169  303  481  611  602  416  109  -183  -345  -355  -279  -205  -169  -159  -162  -206  -329  -516  -700  -834  -913  -938  -908  -828  -723  -621  -537  -489  -527  -692  -902  -934  -492  667  2587  5057  7580  9389  9736  8378  5799  2913  533  -932  -1502  -1501  -1279  -988  -727  -618  -628  -645  -627  -578  -499  -396  -301  -264  -330  -490  -665  -771  -792  -762  -721  -697  -710  -769  -854  -929  -977  -993  -962  -874  -723  -541  -366  -170  102  397  594  667  673  652  582  443  284  196  210  282  361  458  642  946  1322  1710  2086  2396  2580  2661  2719  2784  2839  2870  2878  2870  2830  2715  2495  2209  1889  1519  1137  843  644  418  91  -253  -475  -562  -606  -681  -799  -934  -1042  -1090  -1080  -1048  -1026  -1010  -978  -929  -848  -739  -661  -648  -674  -711  -748  -789  -843  -914  -990  -1044  -1038  -981  -922  -883  -842  -772  -690  -649  -657  -650  -600  -534  -464  -417  -435  -505  -577  -621  -639  -646  -649  -629  -562  -451  -345  -307  -389  -595  -856  -1064  -1150  -1088  -871  -581  -377  -361  -517  -737  -893  -931  -884  -806  -740  -711  -716  -740  -756  -736  -668  -568  -490  -477  -518  -563  -589  -604  -615  -616  -606  -602  -626  -674  -708  -683  -589  -463  -349  -278  -314  -482  -716  -923  -1037  -1043  -970  -859  -732  -569  -372  -198  -97  -65  -66  -63  -59  -75  -112  -149  -168  -179  -245  -432  -690  -888  -964  -964  -949  -946  -956  -963  -942  -889  -881  -1037  -1271  -1236  -721  148  1281  2828  4886  7238  9200  9746  8328  5406  2067  -513  -1609  -1435  -875  -608  -668  -786  -830  -841  -859  -868  -860  -854  -858  -862  -838  -765  -665  -596  -579  -586  -567  -490  -388  -354  -458  -662  -835  -877  -796  -658  -520  -412  -333  -248  -109  73  222  291  305  327  402  519  613  645  638  640  668  724  842  1041  1295  1544  1717  1800  1863  1971  2107  2237  2419  2742  3152  3462  3527  3276  2723  2086  1662  1539  1573  1576  1379  914  341  -73  -252  -341  -475  -649  -789  -862  -877  -835  -730  -588  -466  -410  -438  -546  -687  -787  -820  -813  -801  -794  -796  -807  -825  -834  -803  -705  -575  -474  -390  -260  -108  -80  -284  -623  -880  -954  -901  -810  -732  -691  -682  -672  -637  -586  -549  -539  -544  -549  -551  -555  -570  -587  -559  -448  -304  -242  -322  -475  -595  -667  -745  -834  -879  -860  -807  -732  -626  -482  -325  -210  -167  -187  -252  -333  -396  -434  -468  -508  -543  -539  -472  -361  -265  -224  -219  -205  -191  -240  -366  -495  -553  -532  -481  -429  -380  -340  -298  -248  -237  -305  -387  -408  -379  -356  -355  -358  -329  -244  -110  31  135  180  193  191  129  -61  -362  -682  -959  -1166  -1266  -1233  -1075  -866  -714  -656  -647  -646  -674  -806  -991  -988  -636  162  1690  4041  6738  8992  9917  8914  6270  3005  249  -1180  -1229  -656  -326  -486  -779  -872  -819  -786  -788  -772  -734  -704  -698  -710  -722  -726  -727  -738  -759  -769  -748  -714  -700  -712  -727  -693  -551  -303  -58  69  84  59  27  -23  -89  -135  -132  -74  17  125  262  412  515  555  597  711  904  1128  1339  1509  1604  1650  1741  1933  2187  2438  2636  2752  2810  2859  2904  2924  2902  2789  2536  2203  1893  1582  1164  680  285  18  -192  -370  -495  -565  -595  -615  -672  -816  -1042  -1271  -1419  -1459  -1378  -1159  -873  -670  -618  -669  -758  -844  -899  -927  -946  -970  -995  -1016  -1025  -1005  -930  -802  -687  -647  -677  -728  -765  -775  -742  -662  -578  -564  -650  -774  -847  -860  -854  -852  -845  -811  -727  -613  -524  -482  -458  -419  -377  -377  -437  -533  -624  -680  -700  -708  -717  -730  -751  -781  -818  -849  -860  -837  -784  -736  -716  -704  -686  -673  -669  -672  -681  -697  -707  -702  -690  -685  -685  -678  -653  -619  -593  -588  -595  -597  -565  -480  -355  -249  -223  -296  -408  -478  -482  -455  -426  -401  -377  -358  -341  -321  -297  -278  -287  -342  -428  -501  -541  -562  -556  -487  -344  -207  -181  -226  -221  -166  -165  -274  -442  -576  -640  -666  -681  -686  -662  -591  -493  -432  -473  -651  -954  -1289  -1497  -1441  -1073  -406  637  2290  4653  7375  9667  10573  9537  6884  3633  886  -685  -1091  -848  -518  -397  -488  -637  -717  -696  -600  -482  -401  -381  -430  -557  -725  -842  -838  -709  -532  -406  -361  -354  -349  -355  -361  -317  -215  -113  -49  -23  -26  -49  -79  -101  -109  -108  -110  -127  -154  -145  -45  127  285  395  515  686  875  1038  1184  1358  1593  1865  2103  2252  2328  2396  2520  2720  2932  3062  3060  2932  2729  2515  2329  2172  2042  1921  1731  1358  803  202  -278  -539  -599  -568  -519  -468  -429  -455  -594  -802  -973  -1046  -1047  -1022  -998  -994  -1011  -1026  -1028  -1026  -1044  -1095  -1169  -1256  -1333  -1331  -1205  -981  -728  -541  -479  -528  -638  -738  -780  -776  -767  -783  -831  -877  -882  -870  -890  -940  -999  -1046  -1032  -936  -822  -752  -716  -670  -607  -554  -535  -561  -633  -726  -793  -806  -758  -653  -528  -438  -396  -380  -378  -401  -469  -580  -692  -767  -809  -832  -848  -861  -873  -869  -818  -699  -528  -343  -181  -69  -21  -53  -173  -336  -459  -490  -461  -454  -482  -519  -612  -813  -1053  -1222  -1275  -1218  -1064  -857  -675  -581  -576  -608  -620  -595  -544  -479  -403  -337  -322  -351  -375  -366  -337  -309  -260  -159  -52  8  26  21  18  27  21  -33  -147  -313  -493  -634  -700  -683  -590  -461  -369  -396  -584  -880  -1143  -1264  -1191  -899  -479  -129  45  159  533  1591  3595  6327  8966  10401  9896  7544  4230  1195  -589  -972  -636  -385  -482  -733  -899  -914  -845  -766  -720  -717  -741  -757  -691  -480  -185  26  42  -121  -354  -525  -601  -632  -659  -685  -714  -743  -737  -650  -498  -348  -215  -46  167  368  532  681  798  860  871  841  770  684  644  682  766  841  889  933  1011  1164  1378  1616  1896  2220  2510  2714  2857  2995  3184  3407  3562  3529  3257  2830  2440  2209  2059  1793  1307  717  234  -40  -173  -272  -358  -427  -502  -569  -593  -582  -572  -586  -632  -700  -765  -803  -812  -802  -774  -739  -723  -762  -871  -1012  -1128  -1176  -1114  -895  -558  -251  -93  -67  -100  -160  -256  -399  -554  -659  -693  -689  -678  -672  -672  -675  -677  -659  -598  -490  -361  -247  -177  -148  -136  -145  -207  -315  -405  -433  -418  -404  -427  -501  -613  -728  -807  -842  -853  -871  -914  -943  -913  -840  -742  -607  -463  -370  -353  -386  -435  -473  -486  -470  -427  -373  -334  -321  -337  -384  -457  -554  -695  -856  -964  -994  -987  -972  -935  -845  -708  -577  -491  -449  -435  -435  -445  -461  -469  -455  -417  -371  -332  -312  -309  -320  -349  -390  -426  -450  -454  -437  -412  -409  -475  -625  -782  -839  -784  -695  -652  -679  -714  -704  -671  -636  -559  -435  -440  -769  -1219  -1211  -268  1767  4655  7551  9292  9132  7154  4141  1174  -785  -1363  -1011  -491  -202  -153  -241  -388  -538  -643  -693  -711  -712  -674  -565  -413  -302  -297  -408  -591  -777  -926  -1029  -1085  -1080  -969  -717  -403  -181  -106  -110  -136  -182  -229  -211  -98  63  206  306  378  445  502  537  553  560  558  543  520  530  660  973  1373  1670  1789  1794  1782  1834  2023  2389  2884  3359  3652  3708  3552  3223  2817  2460  2224  2075  1906  1620  1231  784  289  -180  -490  -616  -651  -675  -707  -746  -788  -807  -796  -784  -779  -732  -602  -426  -293  -240  -253  -332  -493  -716  -952  -1156  -1299  -1372  -1374  -1293  -1115  -886  -695  -607  -620  -687  -745  -746  -700  -644  -609  -611  -623  -606  -555  -502  -485  -517  -555  -548  -492  -434  -418  -425  -409  -383  -413  -545  -737  -885  -934  -908  -867  -855  -864  -866  -858  -859  -878  -908  -923  -882  -748  -556  -402  -339  -332  -323  -293  -261  -250  -265  -290  -314  -372  -511  -724  -926  -1042  -1068  -1049  -1002  -920  -819  -741  -703  -689  -676  -650  -618  -594  -573  -538  -490  -451  -435  -435  -440  -443  -443  -435  -413  -381  -352  -337  -330  -323  -319  -334  -385  -483  -604  -689  -684  -600  -515  -481  -477  -436  -317  -190  -190  -337  -502  -580  -632  -817  -1103  -1165  -745  156  1579  3675  6299  8759  10107  9641  7385  4229  1409  -298  -882  -786  -486  -291  -312  -509  -737  -872  -906  -895  -859  -781  -665  -562  -512  -516  -548  -575  -578  -566  -561  -567  -570  -539  -451  -335  -252  -223  -216  -208  -210  -239  -247  -161  -2  125  163  139  95  55  46  129  357  656  872  941  923  886  871  942  1161  1479  1767  1966  2115  2246  2358  2457  2563  2673  2766  2809  2781  2712  2654  2613  2505  2205  1660  966  308  -187  -486  -644  -738  -797  -829  -861  -926  -1043  -1188  -1312  -1380  -1384  -1340  -1286  -1239  -1190  -1147  -1136  -1173  -1266  -1390  -1482  -1485  -1379  -1196  -1017  -910  -890  -972  -1175  -1439  -1638  -1707  -1674  -1579  -1453  -1312  -1174  -1063  -998  -990  -1039  -1127  -1211  -1259  -1286  -1327  -1371  -1380  -1349  -1310  -1286  -1269  -1223  -1120  -987  -897  -910  -1057  -1311  -1599  -1839  -1965  -1932  -1736  -1463  -1258  -1189  -1208  -1240  -1248  -1259  -1316  -1389  -1396  -1322  -1236  -1196  -1204  -1230  -1257  -1284  -1317  -1356  -1396  -1429  -1441  -1428  -1416  -1424  -1443  -1453  -1453  -1450  -1449  -1451  -1453  -1449  -1429  -1386  -1318  -1236  -1162  -1121  -1133  -1214  -1388  -1636  -1863  -1980  -1956  -1812  -1622  -1482  -1424  -1409  -1401  -1386  -1361  -1318  -1245  -1132  -991  -867  -819  -865  -965  -1056  -1114  -1157  -1222  -1350  -1526  -1667  -1720  -1700  -1651  -1603  -1566  -1549  -1573  -1661  -1825  -2075  -2333  -2325  -1909  -1412  -1209  -1168  -804  358  2613  5710  8647  10176  9573  7078  3745  848  -821  -1336  -1333  -1342  -1476  -1622  -1693  -1696  -1670  -1626  -1573  -1526  -1462  -1324  -1117  -909  -751  -652  -622  -662  -744  -827  -886  -914  -895  -795  -600  -375  -218  -145  -116  -130  -190  -233  -184  -53  94  227  371  554  740  889  1035  1241  1501  1730  1864  1929  2006  2157  2368  2578  2766  2966  3193  3424  3645  3851  4041  4230  4445  4691  4927  5093  5158  5113  4935  4626  4276  3996  3817  3693  3553  3341  3042  2700  2393  2196  2119  2112]
