reading_id,reading_time,wire_id,result_classification,heart_rate,heart_rate_alert,firmware_version,device_app_version,hardware_version,waveform_samples
2373eff0-5cb5-11ed-8080-808080808080,Sat Nov 05 02:54:17 UTC 2022,4101e3b01d39,NSR,66,NONE,20001.171.50,2.10.0,Charge 5,[19485  20149  20905  21663  23080  26793  32767  32767  32767  32767  32767  32767  32767  32767  32767  32767  32767  32767  32767  32767  32767  32767  32767  32767  32767  32767  32767  32767  32767  32767  32767  -32768  -32768  -32768  -32768  -32768  -32768  -32768  -32768  -32768  -32768  -32768  -32768  -32768  -32768  -32768  -32768  -32768  -32768  -32768  -32768  -32768  -32768  -32768  -32768  -32768  -32768  -32768  -32768  -32768  -32768  -32768  -32768  -32768  -32768  -32768  -32768  -32768  -32768  -32768  -30726  -21922  -14017  -7433  -1981  3113  8487  13988  19078  23598  27652  30936  32767  32767  32767  32767  32767  32767  32767  32767  32767  32767  32767  32767  32767  32767  32767  32767  32767  32767  32767  32767  32767  32767  32767  32767  32767  32767  32767  32767  32767  32767  32767  32767  32767  32767  32767  32767  32767  32767  32767  32767  32767  32767  32767  32767  32767  32767  32767  32767  32767  32767  32767  32767  32767  32767  32767  32767  32767  32767  32767  32767  32767  32767  32767  32767  32767  32767  32767  32767  32767  32767  32767  32767  32767  32175  31443  30684  30112  29794  29570  29292  28953  28568  28033  27246  26301  25391  24565  23856  23403  23163  22783  21974  20840  19721  18868  18314  17939  17580  17111  16532  16003  15652  15415  15121  14672  14122  13618  13244  12924  12537  12067  11561  11039  10534  10102  9725  9255  8531  7589  6701  6120  5872  5827  5833  5745  5436  4905  4330  3912  3692  3543  3289  2855  2310  1762  1263  843  547  392  308  213  103  -17  -197  -426  -681  -1024  -1481  -1920  -2176  -2255  -2289  -2380  -2545  -2733  -2866  -2917  -2922  -2906  -2855  -2743  -2565  -2354  -2158  -2029  -2083  -2552  -3573  -4865  -5861  -6281  -6287  -6149  -6016  -5929  -5883  -5886  -5968  -6140  -6401  -6718  -6994  -7141  -7167  -7115  -6969  -6697  -6372  -6151  -6134  -6332  -6674  -7028  -7276  -7351  -7268  -7143  -7090  -7138  -7246  -7336  -7362  -7362  -7384  -7411  -7412  -7381  -7349  -7340  -7330  -7277  -7184  -7074  -6951  -6836  -6789  -6860  -7031  -7217  -7337  -7380  -7354  -7221  -6951  -6593  -6268  -6084  -6064  -6140  -6210  -6205  -6101  -5920  -5723  -5559  -5460  -5441  -5533  -5774  -6132  -6464  -6616  -6555  -6388  -6242  -6186  -6265  -6526  -6907  -7224  -7343  -7250  -6999  -6695  -6465  -6358  -6340  -6340  -6276  -6110  -5907  -5769  -5736  -5774  -5838  -5891  -5911  -5886  -5814  -5714  -5604  -5482  -5363  -5280  -5231  -5177  -5101  -5017  -4950  -4914  -4908  -4916  -4920  -4898  -4834  -4739  -4627  -4488  -4309  -4128  -4011  -3969  -3957  -3937  -3918  -3929  -3963  -3969  -3910  -3815  -3739  -3678  -3580  -3442  -3309  -3191  -3087  -3020  -3000  -3002  -3001  -2993  -2984  -2967  -2904  -2775  -2623  -2525  -2500  -2515  -2523  -2488  -2385  -2208  -2011  -1871  -1808  -1778  -1760  -1786  -1846  -1851  -1747  -1586  -1464  -1426  -1427  -1401  -1355  -1330  -1321  -1302  -1266  -1223  -1182  -1141  -1098  -1040  -932  -761  -589  -517  -590  -758  -916  -1002  -1032  -1036  -1002  -896  -709  -488  -307  -221  -225  -277  -326  -340  -318  -293  -303  -336  -334  -299  -299  -379  -519  -635  -640  -502  -283  -102  -24  -18  -40  -77  -137  -252  -446  -642  -691  -579  -448  -407  -452  -531  -602  -659  -699  -703  -664  -585  -460  -300  -170  -146  -207  -214  -97  51  144  196  261  365  470  528  592  778  1159  1663  2110  2374  2419  2153  1467  550  -152  -421  -389  -236  -51  111  218  267  280  282  281  278  284  343  504  724  898  989  1025  1008  911  752  596  490  441  433  450  489  542  589  615  622  630  645  664  695  760  848  920  954  967  983  1002  1008  988  935  842  740  695  766  951  1181  1370  1477  1505  1498  1544  1689  1846  1901  1837  1751  1757  1785  1683  1502  1388  1359  1354  1315  1229  1148  1110  1092  1060  1015  982  957  906  791  612  429  312  265  240  205  165  120  55  0  42  233  483  636  655  604  521  416  308  213  136  99  142  292  496  643  690  681  670  678  702  725  720  635  443  211  48  -7  15  104  252  406  491  463  355  252  202  197  214  245  291  342  382  404  410  404  387  362  336  315  326  411  553  660  669  598  511  434  350  281  278  354  456  519  537  545  548  531  494  450  397  339  304  323  396  488  577  657  682  621  516  424  370  360  378  400  407  411  416  371  230  38  -127  -232  -285  -305  -311  -312  -288  -181  44  321  506  494  285  -7  -214  -254  -159  -11  109  141  7  -339  -766  -1006  -924  -633  -325  -104  20  79  109  132  139  91  -51  -263  -453  -552  -584  -605  -641  -686  -718  -722  -690  -620  -532  -469  -448  -452  -462  -470  -471  -454  -416  -373  -353  -382  -499  -745  -1078  -1218  -782  244  1441  2345  2673  2519  2235  1904  1301  349  -730  -1603  -1956  -1684  -1056  -467  -89  81  89  26  -10  7  56  101  123  119  91  34  -45  -122  -173  -187  -169  -138  -113  -99  -92  -92  -101  -117  -124  -81  38  203  330  364  318  228  124  29  -33  -24  106  358  604  674  564  421  340  326  393  573  826  1046  1180  1243  1245  1208  1171  1154  1148  1145  1160  1232  1388  1586  1723  1728  1607  1422  1228  991  681  386  210  141  114  100  103  118  120  71  -52  -222  -377  -479  -530  -544  -543  -540  -529  -481  -367  -218  -125  -150  -254  -317  -297  -313  -432  -562  -620  -627  -622  -604  -546  -434  -281  -134  -44  -35  -89  -165  -216  -213  -156  -72  3  59  92  74  -23  -178  -322  -402  -417  -405  -388  -364  -329  -311  -325  -346  -340  -318  -308  -306  -257  -105  107  267  312  260  155  51  -15  -76  -192  -345  -444  -440  -375  -306  -238  -151  -42  61  128  149  144  124  85  22  -51  -102  -117  -106  -85  -69  -85  -177  -341  -506  -600  -618  -575  -476  -340  -199  -61  66  153  185  176  145  87  -14  -138  -235  -290  -316  -311  -280  -243  -212  -204  -217  -223  -188  -102  3  77  98  90  89  128  213  297  341  368  382  352  281  203  139  97  69  49  32  0  -52  -120  -193  -260  -302  -314  -308  -300  -296  -299  -310  -333  -370  -412  -447  -483  -515  -469  -243  168  641  982  1121  1220  1427  1700  1880  1742  1124  123  -927  -1617  -1729  -1389  -880  -434  -170  -53  0  22  18  -10  -75  -157  -210  -210  -179  -152  -144  -144  -132  -96  -45  -6  9  8  2  -4  -5  19  81  160  212  219  211  236  331  470  584  626  567  389  150  -18  -29  102  288  427  506  579  660  694  671  697  860  1099  1302  1426  1462  1428  1373  1329  1290  1255  1221  1182  1143  1100  1014  862  656  441  275  188  163  169  192  215  207  130  -44  -293  -539  -721  -828  -871  -852  -755  -560  -313  -128  -50  -26  -15  -20  -51  -102  -162  -249  -385  -537  -633  -623  -504  -337  -220  -220  -332  -491  -608  -646  -621  -543  -401  -215  -84  -87  -164  -212  -216  -226  -295  -437  -623  -798  -905  -913  -821  -652  -455  -279  -184  -204  -280  -334  -389  -471  -523  -497  -431  -396  -412  -430  -398  -318  -218  -148  -159  -235  -328  -417  -467  -468  -462  -482  -530  -597  -665  -719  -758  -771  -733  -628  -481  -347  -276  -264  -277  -286  -287  -291  -330  -436  -590  -701  -697  -583  -403  -205  -42  44  57  35  13  -4  -28  -54  -50  0  36  0  -86  -173  -244  -288  -297  -264  -180  -45  101  189  181  112  59  62  86  103  119  124  106  83  74  77  81  69  27  -28  -66  -67  -49  -58  -133  -249  -336  -358  -341  -326  -335  -361  -383  -380  -327  -173  147  608  1042  1294  1383  1488  1682  1739  1368  555  -464  -1310  -1605  -1304  -721  -224  -15  -16  -28  21  104  207  302  356  376  382  386  386  378  354  319  296  318  408  537  633  639  540  371  214  134  142  216  323  417  480  528  588  662  719  721  671  610  568  557  573  597  609  608  597  589  611  680  775  848  892  937  1003  1075  1123  1138  1154  1222  1338  1442  1495  1507  1493  1417  1229  971  748  583  413  208  1  -197  -377  -493  -520  -493  -459  -422  -344  -209  -77  -23  -91  -277  -497  -645  -700  -706  -703  -706  -712  -717  -723  -732  -718  -642  -495  -328  -207  -154  -148  -167  -206  -254  -303  -345  -372  -379  -367  -344  -326  -321  -324  -326  -328  -339  -371  -426  -487  -527  -539  -543  -558  -580  -579  -514  -368  -190  -68  -42  -92  -185  -286  -368  -424  -432  -370  -250  -100  41  115  96  12  -87  -169  -215  -228  -215  -178  -124  -72  -42  -40  -56  -72  -93  -138  -200  -254  -293  -322  -341  -346  -343  -339  -342  -362  -395  -390  -300  -156  -37  25  52  63  58  15  -98  -282  -480  -617  -675  -686  -646  -503  -248  21  191  238  206  138  49  -90  -310  -508  -485  -195  182  461  577  531  333  53  -193  -348  -437  -488  -509  -516  -515  -488  -411  -301  -199  -119  -64  -55  -88  -117  -108  -69  -58  -118  -227  -330  -401  -432  -432  -433  -475  -533  -476  -250  24  267  506  764  1072  1467  1873  2118  1991  1336  275  -769  -1398  -1452  -1050  -541  -258  -230  -256  -227  -183  -159  -133  -89  -48  -56  -109  -134  -62  77  215  332  431  484  472  396  280  178  93  -31  -168  -201  -104  43  167  233  252  255  251  216  121  10  1  184  482  728  844  871  866  852  840  845  879  932  978  1007  1032  1086  1190  1310  1362  1293  1156  1074  1137  1310  1475  1565  1603  1621  1580  1385  1013  601  319  193  147  115  78  30  -32  -107  -193  -301  -420  -503  -539  -566  -546  -384  -111  105  166  116  34  -43  -121  -186  -212  -188  -129  -68  -31  -7  24  56  64  49  27  14  7  -5  -24  -38  -40  -37  -31  -26  -21  -15  -18  -55  -164  -330  -456  -465  -386  -279  -156  -28  65  103  99  73  41  12  -9  -22  -32  -44  -71  -134  -226  -311  -383  -471  -565  -577  -426  -182  4  67  60  45  34  8  -35  -44  29  135  183  137  24  -104  -231  -362  -477  -541  -561  -584  -631  -644  -542  -346  -172  -82  -52  -46  -49  -52  -44  -16  9  -24  -130  -245  -325  -377  -401  -385  -349  -320  -303  -280  -244  -225  -251  -309  -369  -413  -432  -423  -404  -394  -394  -386  -364  -347  -374  -461  -593  -743  -919  -1109  -1152  -840  -127  845  1767  2262  2253  2024  1778  1397  716  -230  -1216  -1858  -1832  -1167  -297  253  322  133  -57  -152  -167  -141  -91  -37  -15  -43  -98  -134  -130  -99  -66  -52  -86  -195  -351  -478  -512  -402  -129  203  423  448  333  183  84  55  75  123  182  238  305  392  480  545  569  543  480  406  348  335  372  457  591  738  843  932  1085  1302  1488  1562  1531  1465  1409  1356  1274  1144  1000  907  876  853  777  632  448  285  180  115  65  32  22  27  36  33  0  -77  -182  -276  -319  -322  -347  -412  -508  -634  -738  -734  -593  -390  -250  -226  -261  -290  -310  -345  -393  -431  -444  -440  -431  -425  -421  -412  -386  -341  -279  -213  -164  -148  -185  -293  -442  -556  -597  -560  -433  -214  32  212  286  278  205  73  -69  -160  -188  -195  -204  -199  -167  -134  -124  -134  -148  -154  -147  -124  -87  -47  -14  16  54  83  52  -70  -244  -387  -443  -418  -348  -254  -150  -67  -35  -59  -121  -193  -251  -283  -289  -272  -226  -166  -121  -104  -106  -135  -204  -296  -356  -344  -266  -157  -50  35  70  38  -31  -111  -193  -264  -326  -389  -436  -444  -418  -387  -384  -422  -506  -633  -762  -818  -753  -600  -445  -352  -334  -406  -600  -854  -883  -398  474  1331  1939  2190  2051  1762  1547  1282  756  -44  -903  -1457  -1501  -1126  -555  -70  158  208  195  158  100  -1  -136  -235  -256  -225  -172  -86  23  116  168  190  202  220  236  233  202  156  121  104  103  127  200  335  493  601  635  631  617  575  485  378  310  292  299  296  284  278  278  273  271  303  408  585  769  914  1051  1214  1372  1470  1495  1446  1315  1143  1015  966  959  927  809  597  343  120  -17  -55  -28  11  25  -7  -73  -137  -199  -293  -389  -438  -446  -438  -410  -355  -298  -270  -286  -332  -377  -396  -392  -382  -380  -394  -443  -545  -678  -771  -763  -649  -489  -355  -245  -119  1  44  -32  -182  -300  -351  -392  -447  -494  -526  -549  -582  -638  -701  -746  -766  -747  -654  -475  -267  -98  5  43  21  -38  -112  -197  -310  -439  -525  -552  -564  -583  -600  -612  -623  -627  -591  -485  -336  -208  -121  -54  -10  -3  -36  -109  -205  -284  -310  -310  -328  -356  -358  -337  -330  -322  -234  -45  142  218  173  84  38  57  85  78  64  87  136  162  135  77  13  -52  -111  -157  -188  -214  -264  -345  -422  -441  -379  -287  -237  -252  -302  -310  -193  28  306  685  1136  1547  1920  2263  2461  2308  1619  466  -763  -1620  -1866  -1586  -1019  -368  177  469  514  412  222  5  -149  -202  -167  -51  123  286  378  402  397  389  380  366  359  399  493  592  645  626  526  390  290  253  254  260  264  286  344  420  481  547  671  838  964  1012  1026  1045  1042  952  769  653  817  1222  1588  1747  1749  1681  1567  1436  1346  1338  1405  1505  1581  1591  1506  1326  1098  893  752  656  554  432  336  299  300  304  291  261  225  185  144  99  23  -120  -314  -478  -571  -621  -658  -675  -651  -578  -493  -446  -450  -487  -528  -563  -602  -639  -647  -612  -549  -522  -568  -631  -645  -610  -558  -493  -403  -301  -228  -200  -205  -254  -363  -488  -553  -553  -536  -521  -518  -542  -583  -610  -591  -507  -387  -297  -264  -260  -245  -205  -180  -227  -331  -420  -456  -465  -474  -483  -486  -490  -487  -453  -390  -338  -332  -357  -373  -380  -400  -424  -414  -349  -255  -183  -152  -143  -143  -148  -138  -94  -20  60  117  141  131  64  -75  -243  -362  -406  -406  -396  -396  -406  -418  -424  -409  -348  -238  -149  -205  -465  -803  -1024  -1090  -1016  -715  -169  419  751  773  763  975  1421  1945  2240  1940  971  -305  -1381  -1902  -1782  -1267  -769  -506  -442  -488  -577  -650  -680  -671  -621  -527  -409  -322  -308  -379  -525  -710  -848  -836  -654  -389  -160  -56  -94  -202  -293  -333  -343  -360  -407  -465  -489  -417  -193  147  456  593  557  449  364  332  333  348  374  409  446  481  520  577  646  720  831  1017  1253  1463  1593  1645  1656  1655  1651  1645  1627  1596  1540  1426  1246  1052  895  748  565  394  329  367  441  501  510  464  368  228  104  61  96  146  125  8  -147  -288  -389  -438  -434  -389  -321  -249  -171  -78  9  37  -13  -85  -77  46  221  297  151  -143  -374  -450  -441  -423  -410  -373  -297  -230  -223  -258  -278  -262  -227  -189  -151  -109  -78  -73  -101  -162  -245  -326  -379  -398  -397  -375  -327  -267  -227  -215  -224  -257  -308  -359  -394  -406  -402  -389  -366  -332  -300  -281  -276  -282  -282  -270  -283  -339  -391  -388  -321  -245  -227  -260  -275  -260  -257  -274  -289  -291  -285  -281  -296  -344  -414  -466  -454  -358  -202  -45  76  147  162  127  58  -16  -78  -125  -142  -114  -62  -19  2  5  -5  -34  -79  -135  -204  -286  -368  -433  -477  -491  -469  -431  -401  -383  -373  -389  -471  -634  -823  -911  -823  -619  -298  272  1018  1651  2069  2339  2439  2260  1654  601  -564  -1387  -1627  -1304  -696  -196  -15  -66  -149  -186  -198  -193  -178  -180  -192  -173  -88  39  139  174  162  127  84  46  24  16  13  13  14  11  0  -16  -20  7  73  151  210  241  258  276  311  353  384  402  418  434  454  492  546  593  615  612  618  683  818  973  1089  1146  1181  1256  1400  1571  1694  1747  1752  1707  1579  1369  1138  918  682  444  269  182  156  170  210  255  292  316  301  206  25  -170  -299  -347  -352  -346  -346  -351  -363  -394  -455  -529  -586  -604  -569  -463  -294  -113  21  91  105  72  -5  -105  -176  -198  -193  -188  -190  -188  -153  -76  -19  -64  -186  -281  -297  -267  -246  -254  -277  -297  -306  -301  -281  -243  -195  -158  -145  -164  -218  -291  -343  -355  -336  -300  -258  -218  -209  -252  -315  -354  -364  -370  -385  -397  -398  -397  -388  -345  -277  -228  -219  -232  -244  -244  -217  -145  -46  22  7  -106  -266  -384  -426  -414  -364  -284  -200  -151  -169  -242  -323  -372  -365  -262  -62  143  250  239  162  68  -34  -134  -194  -201  -195  -203  -215  -221  -225  -231  -240  -239  -205  -126  -24  56  99  115  101  54  -15  -94  -172  -227  -237  -204  -171  -199  -325  -510  -658  -718  -716  -694  -678  -696  -759  -817  -787  -586  -109  614  1305  1738  1989  2173  2259  2119  1526  403  -896  -1842  -2098  -1669  -927  -314  -54  -114  -281  -380  -397  -367  -278  -105  103  248  279  226  131  3  -168  -349  -466  -504  -515  -537  -547  -493  -379  -244  -84  125  342  473  481  408  319  263  241  232  225  232  265  308  328  317  313  350  420  507  607  702  765  797  832  896  969  1029  1090  1147  1177  1182  1176  1177  1195  1226  1227  1163  1022  793  520  310  205  145  77  4  -60  -133  -220  -296  -338  -349  -345  -336  -331  -346  -400  -486  -575  -640  -673  -678  -661  -622  -561  -483  -402  -344  -328  -354  -399  -425  -412  -376  -327  -263  -175  -57  63  139  139  69  -29  -106  -135  -134  -128  -125  -111  -69  0  85  151  145  67  -27  -110  -180  -224  -241  -240  -221  -175  -101  -29  13  26  29  24  -7  -86  -196  -287  -324  -300  -222  -99  47  168  208  171  116  84  83  104  128  141  145  142  123  69  -24  -127  -203  -250  -289  -323  -347  -362  -367  -349  -292  -207  -131  -82  -53  -31  -16  -11  -14  -6  28  85  139  169  162  107  10  -107  -213  -270  -242  -116  55  179  220  210  186  161  144  146  182  256  340  383  356  269  174  117  83  20  -114  -302  -477  -596  -637  -578  -433  -266  -162  -171  -288  -480  -667  -725  -538  -27  696  1327  1699  1870  1928  1925  1755  1176  161  -930  -1635  -1715  -1264  -615  -82  198  230  112  -2  -34  2  63  100  87  36  -32  -103  -154  -172  -170  -158  -133  -90  -55  -72  -142  -215  -240  -187  -73  46  141  205  237  248  249  236  203  155  111  99  120  152  195  279  407  537  632  704  768  814  840  865  896  916  912  895  880  871  867  870  878  886  894  913  945  970  968  946  897  785  620  444  275  117  -11  -117  -228  -338  -409  -431  -427  -423  -422  -419  -411  -413  -451  -524  -565  -523  -438  -367  -320  -284  -254  -223  -189  -161  -151  -175  -243  -333  -398  -427  -446  -475  -503  -504  -475  -437  -408  -385  -366  -351  -325  -278  -230  -215  -239  -277  -311  -340  -370  -397  -385  -320  -274  -312  -397  -482  -577  -676  -710  -635  -499  -394  -359  -364  -373  -371  -363  -356  -339  -297  -240  -226  -315  -512  -730  -876  -933  -925  -863  -743  -602  -500  -452  -426  -403  -361  -275  -172  -106  -89  -97  -113  -140  -178  -225  -281  -357  -443  -505  -530  -530  -506  -445  -355  -271  -200  -106  64  332  607  699  481  60  -304  -461  -437  -332  -240  -229  -290  -351  -375  -379  -394  -432  -478  -524  -586  -631  -589  -386  82  789  1460  1870  2053  2128  2087  1855  1389  639  -307  -1121  -1516  -1410  -933  -437  -199  -170  -191  -192  -148  -49  59  98  18  -131  -239  -250  -202  -133  -30  92  180  209  208  204  196  159  83  12  6  77  190  291  352  387  401  391  367  341  308  270  240  243  297  400  519  614  663  662  657  712  827  930  987  1044  1167  1337  1475  1557  1612  1632  1591  1505  1410  1320  1240  1170  1099  1011  906  794  673  537  409  330  314  324  309  238  125  23  -38  -71  -100  -133  -156  -146  -99  -50  -54  -130  -244  -346  -386  -348  -276  -225  -204  -203  -222  -267  -324  -353  -335  -292  -253  -216  -164  -118  -118  -176  -259  -323  -349  -346  -326  -307  -310  -334  -355  -370  -375  -339  -227  -69  40  14  -161  -397  -565  -631  -642  -639  -630  -609  -561  -474  -368  -291  -265  -259  -243  -223  -220  -239  -259  -268  -268  -262  -255  -260  -294  -346  -351  -278  -194  -165  -187  -233  -271  -288  -296  -317  -358  -411  -473  -529  -554  -531  -461  -373  -315  -295  -273  -211  -123  -58  -36  -39  -45  -49  -49  -46  -36  -20  0  28  53  40  -38  -156  -252  -309  -348  -384  -411  -421  -409  -387  -372  -364  -349  -324  -307  -318  -362  -467  -615  -658  -392  258  1075  1717  2093  2276  2252  1949  1310  407  -548  -1301  -1587  -1316  -777  -353  -116  12  7  -102  -184  -191  -159  -126  -108  -103  -99  -85  -61  -37  -13  13  38  44  23  -10  -6  82  237  379  454  473  468  433  350  242  167  151  163  172  173  183  215  270  345  454  601  755  873  931  938  932  954  1019  1096  1128  1094  1029  956  884  877  1015  1269  1502  1626  1664  1674  1662  1567  1309  888  438  123  -16  -55  -57  -51  -46  -40  -33  -39  -86  -176  -265  -303  -289  -255  -222  -195  -187  -232  -357  -515  -616  -634  -618  -600  -554  -439  -278  -149  -103  -157  -318  -534  -703  -779  -785  -714  -534  -294  -115  -54  -84  -172  -288  -388  -445  -451  -408  -328  -243  -183  -154  -142  -142  -161  -201  -224  -161  -9  123  131  0  -189  -319  -340  -304  -272  -263  -268  -277  -276  -243  -165  -69  -6  -5  -64  -154  -241  -302  -310  -248  -157  -100  -101  -149  -215  -267  -293  -293  -260  -201  -129  -78  -110  -218  -312  -348  -366  -387  -387  -342  -264  -195  -150  -112  -79  -76  -121  -201  -283  -332  -336  -311  -279  -244  -214  -195  -183  -172  -164  -156  -151  -162  -215  -310  -408  -465  -469  -438  -393  -355  -342  -377  -479  -618  -728  -781  -788  -748  -639  -443  -161  176  504  755  923  1059  1165  1187  1123  990  718  243  -328  -778  -986  -994  -880  -703  -528  -416  -376  -381  -419  -479  -489  -354  -95  107  69  -203  -501  -537  -142  545  1072  1001  343  -482  -1014  -971  -393  323  726  717  553  468  451  418  373  350  348  348  342  331  327  344  386  436  457  435  405  411  462  549  674  839  1032  1216  1350  1415  1407  1340  1251  1177  1136  1123  1125  1138  1159  1170  1115  939  676  444  312  256  221  166  48  -119  -253  -308  -327  -363  -416  -453  -455  -422  -350  -238  -117  -56  -108  -269  -494  -712  -839  -798  -556  -200  93  214  160  -36  -290  -466  -492  -397  -260  -162  -131  -155  -221  -304  -362  -371  -337  -287  -254  -256  -281  -301  -299  -281  -264  -254  -247  -241  -238  -245  -270  -307  -343  -360  -345  -291  -196  -78  12  13  -79  -215  -337  -393  -355  -248  -153  -144  -209  -278  -309  -318  -331  -357  -376  -364  -324  -284  -260  -255  -250  -234  -222  -232  -252  -268  -274  -269  -258  -246  -229  -197  -134  -53  5  24  16  0  -12  -20  -35  -65  -116  -192  -281  -366  -430  -462  -436  -338  -200  -87  -38  -41  -79  -148  -230  -308  -377  -476  -655  -800  -684  -267  308  885  1291  1496  1681  1932  2076  1854  1152  102  -938  -1523  -1463  -1007  -523  -227  -170  -263  -363  -400  -382  -333  -278  -226  -143  11  208  363  429  419  379  335  286  236  189  140  109  120  157  181  178  166  174  219  283  330  348  350  352  350  322  258  199  219  319  427  491  517  532  564  624  694  733  742  780  911  1113  1292  1382  1385  1350  1323  1309  1289  1254  1219  1189  1138  1045  920  766  577  392  278  236  186  59  -112  -226  -233  -183  -141  -126  -124  -120  -122  -151  -223  -317  -390  -426  -446  -463  -479  -494  -505  -513  -520  -503  -432  -344  -300  -307  -341  -382  -404  -401  -388  -370  -335  -272  -192  -137  -158  -273  -436  -556  -583  -522  -403  -272  -178  -128  -90  -27  49  80  22  -82  -151  -159  -129  -85  -40  -4  11  -16  -84  -145  -163  -145  -118  -98  -88  -83  -88  -116  -171  -240  -293  -306  -286  -255  -227  -212  -206  -197  -200  -206  -188  -146  -104  -87  -106  -137  -155  -158  -156  -155  -156  -160  -169  -179  -187  -189  -189  -186  -180  -174  -171  -172  -177  -194  -214  -197  -86  98  249  298  273  229  201  197  209  225  235  242  251  259  238  148  -1  -140  -235  -328  -433  -522  -586  -632  -664  -681  -680  -664  -626  -554  -458  -374  -321  -282  -231  -134  73  426  847  1237  1539  1669  1585  1348  949  321  -408  -1000  -1327  -1338  -1065  -704  -413  -190  -45  -12  -70  -189  -332  -436  -474  -462  -407  -303  -157  -6  90  104  49  -42  -128  -184  -208  -207  -181  -123  -41  25  56  77  117  176  243  306  371  442  483  467  415  370  351  356  385  448  542  640  709  751  797  854  901  934  960  985  1029  1109  1222  1347  1469  1569  1617  1568  1393  1155  978  902  863  796  708  634  575  496  373  206  29  -106  -196  -274  -345  -373  -356  -330  -315  -301  -276  -249  -245  -279  -343  -412  -475  -529  -554  -536  -504  -487  -477  -449  -397  -339  -286  -233  -200  -203  -222  -235  -236  -228  -211  -198  -206  -239  -288  -346  -406  -452  -463  -419  -327  -220  -131  -70  -27  -14  -68  -212  -401  -534  -529  -352  -55  221  330  198  -148  -552  -822  -898  -812  -597  -335  -154  -97  -109  -129  -140  -143  -142  -136  -125  -122  -143  -189  -243  -290  -320  -333  -342  -371  -414  -423  -358  -258  -203  -230  -319  -423  -521  -596  -581  -431  -166  124  309  283  38  -336  -682  -877  -936  -926  -859  -698  -414  -81  147  209  180  117  22  -94  -222  -328  -354  -309  -263  -254  -261  -267  -265  -262  -276  -325  -413  -513  -595  -645  -667  -671  -647  -580  -485  -401  -352  -343  -398  -549  -726  -720  -352  328  1075  1633  1908  1953  1877  1705  1264  438  -535  -1275  -1536  -1312  -904  -622  -463  -302  -147  -46  29  131  215  186  42  -107  -190  -214  -201  -154  -76  6  68  106  135  156  142  71  -16  -58  -27  70  196  306  385  428  442  446  445  417  341  249  219  280  384  474  542  602  648  677  699  721  747  785  837  894  942  959  931  890  894  981  1131  1266  1324  1315  1298  1296  1273  1194  1082  981  896  791  638  454  275  124  12  -65  -147  -260  -348  -353  -301  -244  -202  -171  -133  -70  14  98  164  204  219  204  132  -6  -166  -291  -379  -442  -475  -480  -472  -452  -413  -372  -357  -373  -371  -321  -256  -219  -212  -217  -219  -215  -209  -218  -263  -340  -403  -389  -281  -153  -87  -86  -102  -105  -89  -62  -38  -22  -16  -10  7  50  114  172  190  160  100  19  -88  -187  -237  -227  -166  -86  -26  0  11  17  13  -8  -44  -80  -113  -150  -175  -172  -157  -147  -145  -147  -149  -148  -141  -126  -93  -36  31  86  116  118  90  45  26  66  128  145  114  71  17  -43  -86  -104  -116  -157  -241  -341  -419  -462  -472  -442  -386  -326  -276  -239  -227  -276  -394  -479  -395  -101  321  745  1114  1452  1794  2126  2256  1909  1008  -237  -1415  -2031  -1831  -1085  -326  92  145  32  -67  -121  -156  -175  -185  -217  -283  -328  -288  -188  -84  -1  37  52  96  154  190  207  228  266  291  275  238  205  166  100  19  -24  4  64  94  88  79  119  237  383  472  499  528  575  615  617  560  465  391  372  407  503  678  911  1122  1242  1268  1241  1199  1166  1147  1145  1153  1136  1030  798  483  197  42  19  58  97  111  86  9  -100  -207  -311  -434  -566  -671  -712  -684  -625  -561  -485  -412  -393  -463  -575  -626  -555  -403  -259  -171  -137  -135  -141  -146  -151  -155  -155  -158  -208  -347  -535  -678  -739  -744  -703  -598  -434  -244  -77  15  -10  -159  -362  -507  -543  -504  -446  -400  -368  -340  -322  -322  -343  -367  -347  -259  -149  -58  3  15  -22  -101  -236  -401  -531  -573  -483  -293  -105  -3  -2  -68  -158  -255  -361  -458  -516  -507  -402  -210  -16  72  22  -114  -268  -404  -503  -537  -501  -424  -342  -269  -205  -157  -133  -130  -138  -129  -92  -47  -11  0  -14  -45  -82  -120  -161  -213  -264  -288  -279  -261  -258  -266  -273  -273  -276  -288  -302  -315  -334  -369  -430  -514  -612  -698  -731  -679  -558  -445  -429  -478  -399  -70  431  986  1465  1773  1972  2104  2028  1522  596  -361  -989  -1216  -1085  -763  -538  -516  -525  -423  -289  -225  -227  -247  -261  -265  -266  -264  -245  -200  -135  -76  -35  -11  8  49  108  155  177  166  120  72  55  66  92  116  107  32  -107  -241  -264  -109  173  441  594  660  715  778  831  874  915  958  1014  1063  1076  1049  1006  978  980  1004  1026  1042  1069  1116  1165  1203  1251  1351  1493  1595  1536  1248  822  470  310  278  256  169  -1  -225  -434  -567  -585  -471  -271  -92  -24  -81  -193  -276  -306  -309  -311  -315  -310  -292  -267  -249  -242  -243  -251  -271  -299  -322  -329  -321  -294  -259  -235  -234  -255  -280  -292  -283  -263  -240  -215  -191  -171  -154  -134  -117  -128  -206  -364  -547  -652  -631  -527  -408  -320  -277  -268  -271  -269  -267  -281  -315  -358  -395  -419  -424  -410  -398  -419  -492  -600  -698  -756  -757  -680  -510  -279  -76  29  38  -7  -65  -102  -113  -111  -104  -96  -89  -104  -164  -257  -329  -343  -321  -303  -302  -314  -328  -334  -336  -336  -325  -283  -206  -124  -67  -42  -53  -123  -256  -354  -276  -47  163  261  276  243  155  2  -181  -332  -413  -407  -306  -122  86  238  288  232  79  -116  -274  -363  -409  -432  -437  -421  -386  -351  -340  -389  -529  -660  -618  -407  -66  453  1045  1540  1984  2373  2442  2019  1121  -124  -1309  -1907  -1753  -1171  -590  -203  -30  -24  -87  -139  -158  -145  -109  -71  -52  -60  -95  -160  -256  -360  -428  -426  -340  -191  -46  45  99  163  252  334  376  378  359  333  285  204  125  104  142  186  207  206  192  173  170  207  281  366  460  579  718  844  925  969  1006  1045  1078  1102  1113  1115  1126  1159  1204  1237  1260  1294  1339  1357  1293  1121  868  605  416  335  325  320  269  151  4  -104  -155  -176  -204  -265  -367  -473  -540  -564  -574  -573  -519  -369  -176  -73  -134  -289  -415  -462  -460  -453  -454  -454  -442  -412  -367  -318  -264  -223  -228  -277  -331  -365  -386  -391  -365  -294  -199  -135  -146  -243  -381  -481  -481  -371  -197  -42  44  67  49  2  -72  -170  -255  -306  -335  -348  -339  -321  -334  -387  -432  -445  -443  -441  -427  -379  -299  -221  -167  -131  -96  -62  -40  -33  -36  -41  -57  -116  -229  -354  -444  -498  -515  -488  -431  -363  -288  -211  -132  -54  24  91  130  129  90  25  -39  -79  -84  -55  -9  24  23  -23  -86  -127  -140  -140  -137  -149  -209  -340  -503  -624  -665  -633  -538  -416  -334  -336  -414  -512  -573  -586  -570  -553  -553  -463  -99  508  1116  1575  1887  2048  2051  1829  1202  167  -939  -1700  -1892  -1559  -988  -512  -235  -93  -48  -61  -82  -88  -88  -95  -118  -152  -178  -185  -167  -127  -83  -44  1  46  71  75  69  65  89  177  326  472  557  576  537  435  300  186  120  112  186  334  498  634  721  745  708  658  645  655  648  653  727  844  933  968  969  963  967  993  1032  1072  1103  1126  1147  1175  1206  1211  1160  1041  875  698  515  302  83  -61  -104  -103  -118  -168  -240  -300  -319  -300  -267  -240  -232  -255  -308  -366  -399  -404  -403  -407  -411  -400  -355  -268  -165  -89  -56  -54  -67  -97  -169  -286  -403  -473  -492  -488  -498  -544  -608  -611  -478  -236  10  160  148  18  -101  -131  -79  6  90  165  220  216  149  52  -57  -172  -260  -294  -287  -279  -291  -315  -344  -370  -383  -372  -308  -177  -22  77  84  4  -121  -230  -283  -295  -287  -257  -188  -96  -34  -60  -184  -332  -388  -317  -179  -37  68  122  137  137  128  97  29  -49  -88  -84  -75  -98  -159  -233  -284  -304  -306  -303  -299  -294  -291  -308  -362  -443  -520  -562  -545  -464  -350  -251  -219  -320  -547  -715  -550  34  806  1446  1797  1919  1962  1885  1458  629  -303  -955  -1144  -938  -613  -446  -444  -422  -307  -175  -104  -90  -99  -108  -113  -114  -105  -76  -37  0  47  134  246  325  345  334  319  283  200  87  5  -14  8  41  69  101  151  207  235  217  175  153  198  318  454  527  523  499  505  556  637  721  780  804  820  880  1003  1141  1226  1256  1283  1345  1408  1411  1353  1293  1241  1135  932  697  538  473  444  409  362  292  204  114  9  -121  -255  -360  -414  -410  -368  -333  -332  -358  -386  -398  -395  -395  -413  -448  -493  -531  -547  -556  -562  -550  -515  -455  -376  -303  -263  -263  -294  -344  -396  -437  -446  -418  -387  -383  -391  -369  -286  -157  -25  79  137  140  104  60  36  32  21  -23  -111  -217  -269  -218  -132  -105  -135  -168  -163  -100  8  109  157  160  148  124  66  -40  -186  -329  -423  -448  -428  -386  -307  -182  -75  -29  2  48  68  14  -114  -227  -232  -157  -91  -56  -32  -12  -22  -79  -158  -215  -233  -244  -273  -314  -357  -398  -436  -447  -386  -223  -15  130  160  89  -40  -171  -261  -305  -319  -296  -202  -44  73  72  10  -27  -31  -26  -24  -27  -23  1  46  89  107  94  45  -66  -259  -450  -501  -406  -268  -166  -151  -173  -168  -190  -267  -332  -353  -361  -447  -615  -641  -353  179  808  1360  1746  2062  2280  2164  1538  441  -780  -1626  -1774  -1274  -571  -143  -29  -41  -120  -226  -286  -298  -290  -270  -229  -176  -134  -102  -60  -6  18  -15  -80  -114  -93  -50  -27  -27  -37  -45  -49  -52  -60  -79  -109  -120  -48  127  323  442  476  474  477  491  505  516  528  553  590  627  652  663  660  653  662  716  834  988  1116  1178  1188  1175  1154  1127  1091  1037  975  924  860  741  587  472  428  421  397  314  153  -48  -209  -285  -289  -249  -180  -102  -48  -43  -113  -266  -456  -601  -654  -630  -573  -506  -435  -391  -397  -416  -402  -360  -325  -308  -299  -286  -270  -255  -249  -268  -311  -354  -374  -370  -343  -295  -233  -179  -150  -163  -227  -319  -388  -414  -401  -354  -279  -189  -107  -60  -67  -127  -206  -253  -258  -242  -216  -164  -76  14  56  39  -17  -99  -176  -230  -275  -310  -323  -320  -316  -314  -315  -317  -315  -305  -291  -292  -307  -305  -270  -221  -173  -119  -63  -38  -78  -178  -299  -395  -433  -411  -357  -306  -277  -267  -265  -259  -244  -226  -208  -173  -115  -61  -46  -89  -181  -283  -364  -410  -370  -230  -56  79  151  166  128  30  -97  -187  -205  -167  -111  -70  -55  -62  -93  -151  -234  -325  -396  -424  -387  -273  -122  -11  26  12  -26  -79  -147  -250  -413  -596  -715  -730  -533  73  972  1692  1944  1859  1733  1687  1574  1130  259  -763  -1514  -1724  -1402  -862  -512  -460  -480  -384  -234  -144  -119  -122  -131  -136  -124  -76  0  72  117  134  127  94  41  -8  -35  -38  -29  -2  54  132  200  241  257  265  288  320  354  398  429  426  389  326  263  227  198  160  150  222  413  688  933  1080  1165  1224  1250  1237  1188  1122  1067  1047  1083  1193  1344  1459  1491  1434  1286  1064  842  702  637  574  474  345  208  88  5  -40  -60  -57  -36  -19  -23  -36  -45  -80  -185  -352  -514  -605  -600  -534  -472  -447  -447  -454  -461  -467  -474  -481  -487  -487  -472  -443  -427  -442  -473  -496  -509  -519  -525  -513  -461  -364  -248  -152  -102  -108  -158  -224  -268  -278  -271  -275  -316  -393  -474  -521  -520  -470  -380  -282  -209  -170  -158  -160  -190  -265  -365  -434  -446  -415  -371  -339  -326  -321  -316  -312  -313  -319  -336  -363  -389  -398  -397  -405  -433  -475  -518  -532  -480  -352  -188  -56  -12  -44  -90  -113  -125  -144  -164  -179  -203  -256  -349  -446  -474  -386  -199  22  194  270  257  172  33  -112  -231  -310  -348  -341  -301  -260  -248  -253  -244  -211  -160  -101  -48  -41  -139  -315  -364  -96  491  1243  1937  2427  2674  2604  2113  1212  99  -926  -1569  -1610  -1138  -576  -273  -244  -319  -336  -240  -72  93  201  234  197  96  -37  -139  -181  -186  -185  -195  -212  -220  -210  -185  -146  -99  -63  -55  -63  -59  -9  93  213  305  372  433  457  416  347  307  297  301  316  353  409  477  566  663  730  752  764  800  864  932  992  1042  1094  1156  1227  1295  1346  1367  1363  1332  1252  1110  913  691  507  403  353  320  293  275  250  178  24  -182  -352  -438  -480  -522  -561  -577  -583  -598  -615  -615  -593  -566  -555  -563  -557  -476  -299  -104  3  8  -44  -125  -206  -280  -351  -396  -396  -368  -331  -299  -282  -272  -262  -255  -251  -247  -246  -262  -307  -372  -425  -437  -394  -326  -286  -265  -216  -146  -98  -98  -164  -277  -374  -415  -416  -404  -393  -377  -352  -325  -308  -298  -292  -289  -295  -317  -345  -366  -380  -387  -384  -377  -370  -370  -377  -385  -386  -370  -343  -319  -304  -295  -295  -318  -372  -441  -487  -486  -443  -383  -345  -338  -342  -320  -253  -167  -104  -66  -27  37  120  192  234  245  230  211  196  158  66  -61  -161  -196  -190  -185  -216  -277  -332  -362  -372  -380  -401  -441  -494  -548  -583  -580  -527  -450  -425  -503  -596  -492  -63  593  1219  1628  1850  1996  1994  1594  682  -485  -1431  -1793  -1543  -964  -423  -100  15  -16  -104  -163  -174  -156  -114  -57  2  53  75  56  16  -36  -122  -237  -337  -381  -329  -150  104  305  387  387  370  379  432  510  566  569  505  378  229  125  90  96  124  172  222  250  265  321  467  693  925  1077  1115  1081  1040  1035  1083  1175  1275  1341  1363  1345  1280  1170  1056  979  937  898  840  744  581  369  179  59  21  52  99  105  51  -32  -100  -131  -132  -117  -103  -110  -163  -274  -418  -535  -588  -580  -509  -384  -258  -208  -258  -351  -398  -356  -266  -193  -154  -122  -80  -27  11  -15  -109  -209  -308  -418  -506  -548  -567  -580  -565  -492  -380  -292  -257  -245  -231  -215  -199  -192  -201  -226  -240  -201  -113  -57  -81  -150  -230  -305  -353  -372  -379  -378  -351  -292  -223  -172  -156  -180  -240  -322  -404  -455  -452  -399  -326  -272  -252  -253  -263  -284  -310  -317  -283  -204  -115  -72  -91  -119  -162  -281  -441  -541  -531  -452  -395  -411  -459  -490  -502  -500  -468  -390  -288  -215  -192  -202  -225  -258  -305  -340  -309  -185  -24  87  117  89  36  -27  -90  -143  -161  -107  22  124  53  -168  -369  -450  -452  -437  -430  -432  -442  -452  -452  -433  -402  -370  -331  -278  -231  -223  -281  -382  -414  -341  -265  -193  18  450  1017  1572  2011  2235  2108  1507  459  -759  -1745  -2117  -1736  -923  -262  -49  -126  -223  -252  -247  -249  -264  -266  -241  -200  -162  -146  -149  -124  -50  38  105  116  68  7  -32  -64  -101  -122  -93  4  149  299  409  432  348  217  157  234  400  544  610  620  612  605  607  615  622  624  634  664  706  735  748  769  806  877  1022  1236  1447  1596  1696  1759  1762  1707  1628  1529  1387  1198  980  760  551  355  165  -41  -250  -398  -456  -442  -366  -224  -52  91  175  225  260  245  131  -63  -255  -380  -426  -413  -370  -327  -294  -265  -241  -248  -324  -466  -597  -617  -507  -317  -90  111  191  115  -45  -182  -253  -286  -318  -361  -418  -488  -544  -566  -570  -578  -608  -656  -676  -615  -496  -385  -307  -259  -239  -236  -237  -237  -249  -286  -345  -394  -404  -371  -313  -253  -217  -224  -279  -356  -412  -408  -335  -217  -98  -20  -17  -105  -246  -359  -402  -398  -386  -384  -384  -365  -313  -254  -225  -231  -251  -263  -256  -234  -203  -159  -104  -58  -30  -23  -46  -88  -136  -164  -126  -51  -35  -72  -61  27  143  232  281  296  268  165  -9  -191  -311  -347  -316  -245  -163  -109  -150  -336  -595  -763  -758  -636  -484  -337  -220  -196  -246  -187  37  296  614  1051  1534  2026  2428  2398  1635  275  -1134  -2018  -2047  -1325  -393  187  274  92  -109  -241  -322  -367  -376  -360  -351  -366  -377  -343  -254  -154  -93  -78  -86  -89  -47  68  221  324  341  310  282  269  258  242  233  245  266  274  264  257  272  295  299  282  268  279  344  490  676  810  862  898  971  1055  1104  1141  1196  1247  1273  1291  1308  1307  1268  1198  1124  1071  1043  1025  997  956  898  799  656  516  413  303  125  -95  -266  -346  -378  -412  -461  -509  -538  -555  -573  -598  -610  -548  -375  -153  -13  -9  -86  -193  -329  -480  -585  -612  -582  -532  -484  -435  -388  -356  -348  -355  -368  -384  -405  -422  -401  -309  -176  -76  -57  -127  -277  -454  -576  -618  -617  -605  -566  -469  -317  -170  -89  -78  -115  -183  -278  -402  -530  -590  -545  -436  -347  -315  -317  -310  -268  -204  -155  -134  -133  -154  -208  -283  -352  -400  -421  -416  -389  -330  -256  -202  -182  -205  -278  -351  -384  -400  -397  -341  -262  -200  -158  -120  -71  -8  49  92  126  144  126  58  -35  -98  -94  -42  1  5  -11  -23  -25  -16  -5  0  9  34  68  73  -3  -167  -355  -458  -415  -277  -157  -105  -101  -134  -218  -345  -474  -582  -685  -773  -752  -496  38  723  1294  1567  1590  1624  1838  1963  1524  458  -795  -1692  -1885  -1425  -763  -320  -159  -123  -106  -101  -106  -106  -113  -151  -203  -238  -250  -246  -230  -176  -52  107  222  249  212  154  116  133  223  357  470  521  504  410  238  46  -80  -120  -119  -111  -81  1  123  241  338  425  520  628  728  788  801  794  802  841  904  980  1078  1187  1272  1314  1328  1327  1320  1319  1325  1337  1349  1343  1287  1188  1082  959  769  519  288  130  20  -87  -199  -287  -334  -352  -378  -448  -549  -635  -692  -730  -729  -646  -475  -267  -80  31  26  -74  -205  -326  -423  -475  -467  -405  -322  -262  -243  -247  -261  -280  -300  -312  -310  -283  -227  -156  -101  -78  -77  -81  -87  -97  -110  -120  -123  -124  -129  -149  -183  -216  -225  -201  -159  -98  -30  -37  -165  -317  -392  -394  -370  -349  -342  -341  -327  -288  -238  -205  -201  -217  -242  -272  -305  -328  -323  -275  -192  -102  -32  -5  -22  -36  -13  25  49  38  -35  -189  -372  -497  -530  -500  -437  -363  -303  -266  -239  -216  -197  -181  -168  -158  -169  -217  -278  -316  -332  -336  -321  -282  -231  -198  -188  -173  -124  -53  0  19  14  6  6  16  24  12  -13  -26  -6  32  62  73  78  89  107  129  153  185  222  250  266  279  294  297  254  128  -63  -260  -386  -397  -325  -253  -228  -236  -248  -251  -254  -263  -264  -200  17  432  984  1529  1934  2158  2186  2001  1645  1117  364  -502  -1249  -1640  -1517  -988  -357  131  367  396  347  287  218  145  86  48  22  6  8  22  28  22  20  30  51  60  39  0  -21  32  197  414  575  639  638  611  583  576  588  596  585  568  559  555  546  531  530  575  662  739  770  770  787  870  1045  1269  1462  1589  1673  1737  1790  1819  1794  1695  1560  1466  1443  1457  1450  1375  1208  993  795  630  470  315  199  148  146  156  147  108  56  17  -21  -93  -191  -255  -241  -171  -127  -164  -249  -327  -381  -411  -420  -421  -418  -409  -391  -379  -388  -415  -449  -455  -410  -349  -309  -269  -192  -88  -9  6  -53  -183  -361  -533  -641  -674  -669  -659  -646  -623  -584  -542  -524  -538  -545  -511  -459  -425  -412  -386  -328  -268  -253  -304  -418  -558  -653  -664  -627  -606  -625  -670  -709  -727  -736  -742  -738  -727  -729  -801  -991  -1237  -1386  -1358  -1216  -1064  -951  -858  -740  -582]
