reading_id,reading_time,wire_id,result_classification,heart_rate,heart_rate_alert,firmware_version,device_app_version,hardware_version,waveform_samples
1ca343e0-66bc-11ed-8080-808080808080,Thu Nov 17 21:09:23 UTC 2022,4101e3b01d39,NSR,97,NONE,20001.171.50,2.10.0,Charge 5,[7073  7458  7784  8060  8360  8694  8965  9117  9197  9265  9332  9397  9501  9687  9927  10132  10243  10257  10171  9971  9717  9504  9338  9162  8988  8897  8919  8988  9007  8919  8723  8485  8294  8188  8140  8093  7954  7641  7238  6952  6848  6781  6578  6215  5854  5652  5601  5590  5532  5374  5099  4766  4481  4307  4220  4178  4161  4155  4147  4141  4135  4085  3879  3434  2810  2146  1559  1149  958  914  900  830  665  411  112  -192  -443  -526  -300  462  2111  4737  7754  10113  10863  9524  6419  2685  -384  -2110  -2630  -2538  -2351  -2298  -2418  -2657  -2899  -3043  -3083  -3072  -3045  -3000  -2939  -2872  -2794  -2712  -2664  -2695  -2823  -3044  -3316  -3570  -3754  -3848  -3875  -3873  -3868  -3869  -3871  -3835  -3714  -3514  -3283  -3048  -2837  -2684  -2579  -2478  -2371  -2283  -2230  -2212  -2219  -2234  -2245  -2253  -2262  -2263  -2226  -2112  -1918  -1743  -1728  -1900  -2160  -2407  -2592  -2712  -2784  -2829  -2926  -3176  -3558  -3920  -4151  -4261  -4320  -4373  -4420  -4444  -4444  -4429  -4419  -4430  -4480  -4567  -4668  -4744  -4769  -4728  -4607  -4443  -4326  -4320  -4423  -4575  -4694  -4738  -4718  -4653  -4574  -4517  -4486  -4456  -4394  -4281  -4120  -3952  -3849  -3869  -4023  -4236  -4390  -4425  -4358  -4237  -4127  -4082  -4113  -4186  -4259  -4304  -4307  -4264  -4201  -4152  -4126  -4111  -4106  -4107  -4066  -3929  -3695  -3408  -3140  -2966  -2923  -2991  -3152  -3393  -3643  -3812  -3882  -3880  -3807  -3665  -3494  -3348  -3253  -3209  -3201  -3222  -3277  -3356  -3431  -3469  -3443  -3355  -3267  -3228  -3231  -3255  -3292  -3316  -3301  -3267  -3234  -3139  -2843  -2144  -791  1382  4163  6766  8123  7474  4893  1394  -1623  -3237  -3468  -2998  -2540  -2419  -2504  -2512  -2399  -2281  -2199  -2138  -2100  -2089  -2095  -2102  -2086  -2026  -1918  -1792  -1682  -1580  -1467  -1342  -1204  -1047  -879  -744  -681  -677  -692  -674  -586  -435  -273  -146  -56  38  192  413  646  843  1000  1136  1256  1339  1372  1384  1446  1623  1912  2205  2350  2295  2129  1982  1878  1738  1508  1228  984  833  772  743  671  490  222  -29  -185  -246  -255  -246  -213  -137  -38  19  -4  -88  -177  -230  -243  -234  -209  -168  -114  -64  -43  -71  -141  -220  -273  -298  -310  -317  -295  -189  19  256  405  426  343  216  113  77  112  206  313  379  381  335  268  200  121  24  -66  -107  -79  2  115  234  329  388  430  469  485  441  321  161  12  -101  -194  -282  -327  -250  -53  165  322  396  411  409  402  367  281  160  52  -20  -81  -161  -250  -305  -295  -229  -151  -116  -171  -265  -108  746  2602  5375  8468  10869  11564  10086  6897  3247  454  -845  -899  -453  -173  -232  -384  -457  -550  -743  -943  -1056  -1084  -1045  -920  -713  -495  -335  -231  -141  -37  89  208  260  224  143  77  46  38  66  169  352  559  736  870  967  1027  1054  1058  1052  1037  1016  1014  1099  1320  1604  1804  1867  1848  1817  1818  1884  2022  2180  2284  2297  2218  2064  1869  1655  1411  1093  659  153  -270  -485  -521  -491  -464  -458  -481  -537  -607  -661  -693  -714  -722  -693  -607  -493  -413  -411  -484  -587  -659  -683  -679  -673  -671  -667  -655  -638  -626  -626  -635  -645  -646  -634  -592  -501  -379  -264  -182  -134  -122  -160  -267  -431  -587  -666  -616  -417  -139  54  23  -260  -661  -962  -1073  -1035  -884  -642  -389  -212  -128  -107  -116  -132  -139  -137  -131  -132  -157  -216  -306  -429  -591  -754  -854  -881  -876  -864  -843  -810  -779  -771  -773  -764  -760  -775  -798  -807  -706  -362  346  1628  3676  6308  8796  10049  9245  6538  3039  97  -1401  -1459  -814  -238  -67  -223  -454  -608  -677  -700  -703  -695  -682  -680  -734  -884  -1096  -1253  -1251  -1050  -715  -397  -200  -115  -96  -114  -151  -174  -164  -138  -120  -112  -95  -45  37  123  186  247  352  497  627  698  725  749  805  885  972  1098  1301  1536  1704  1765  1767  1762  1760  1725  1621  1478  1345  1181  863  376  -111  -428  -561  -590  -584  -579  -594  -645  -745  -876  -992  -1058  -1084  -1110  -1150  -1140  -996  -747  -539  -463  -492  -570  -668  -776  -864  -898  -870  -816  -774  -754  -738  -713  -682  -665  -675  -706  -750  -794  -825  -835  -834  -829  -818  -801  -788  -784  -771  -709  -583  -443  -355  -331  -337  -343  -346  -355  -385  -449  -538  -618  -650  -614  -520  -410  -332  -317  -389  -558  -763  -906  -959  -954  -899  -780  -642  -597  -696  -847  -923  -938  -995  -1040  -834  -147  1126  3051  5542  7980  9401  9119  7042  3840  751  -1236  -1895  -1658  -1171  -824  -687  -708  -787  -865  -949  -1042  -1121  -1175  -1208  -1212  -1172  -1084  -979  -888  -813  -751  -722  -738  -767  -781  -784  -791  -798  -770  -665  -489  -289  -105  33  104  132  183  292  432  547  613  672  791  965  1128  1251  1345  1424  1510  1620  1738  1817  1838  1819  1774  1677  1472  1147  789  540  443  408  304  88  -166  -376  -538  -670  -748  -745  -690  -651  -666  -716  -780  -856  -936  -998  -999  -913  -784  -683  -616  -549  -481  -450  -487  -568  -644  -681  -682  -675  -688  -727  -765  -780  -784  -797  -810  -802  -763  -694  -611  -548  -515  -499  -490  -485  -480  -482  -508  -561  -601  -576  -516  -514  -595  -693  -731  -659  -487  -305  -195  -149  -109  -51  -17  -48  -133  -244  -382  -526  -627  -665  -665  -658  -655  -668  -717  -818  -958  -1062  -1065  -992  -839  -515  18  931  2659  5325  8251  10286  10412  8322  4795  1344  -804  -1453  -1238  -879  -730  -813  -1003  -1182  -1301  -1364  -1388  -1354  -1197  -906  -595  -407  -357  -373  -410  -457  -495  -488  -438  -391  -393  -463  -592  -733  -819  -802  -671  -469  -266  -74  149  407  612  699  695  667  702  862  1086  1241  1288  1298  1339  1411  1465  1467  1426  1378  1339  1302  1282  1308  1373  1418  1350  1093  671  211  -142  -320  -353  -328  -298  -257  -174  -71  -37  -138  -329  -514  -642  -718  -770  -825  -892  -945  -936  -849  -720  -604  -547  -553  -596  -666  -767  -871  -917  -876  -772  -658  -576  -541  -546  -578  -619  -651  -671  -685  -692  -692  -695  -721  -790  -879  -917  -853  -714  -575  -486  -441  -431  -474  -582  -688  -689  -582  -460  -382  -342  -323  -304  -260  -194  -150  -176  -294  -469  -638  -765  -851  -909  -940  -933  -906  -903  -935  -985  -1062  -1169  -1207  -1048  -728  -423  -173  301  1475  3659  6615  9446  10962  10289  7487  3684  318  -1684  -2145  -1620  -956  -647  -713  -944  -1145  -1259  -1308  -1312  -1292  -1263  -1177  -964  -676  -464  -393  -402  -420  -427  -424  -397  -345  -322  -381  -490  -557  -534  -450  -364  -306  -281  -279  -296  -327  -333  -219  101  562  967  1208  1354  1484  1579  1607  1595  1582  1577  1570  1552  1530  1525  1537  1536  1490  1381  1187  916  612  312  55  -114  -203  -263  -319  -369  -405  -425  -442  -470  -501  -527  -555  -587  -632  -713  -809  -851  -796  -695  -636  -642  -666  -689  -750  -850  -934  -970  -971  -953  -904  -796  -647  -520  -432  -360  -325  -338  -356  -368  -409  -468  -512  -544  -571  -590  -597  -597  -598  -602  -609  -600  -550  -442  -286  -129  -24  15  14  -29  -136  -279  -386  -425  -423  -404  -368  -312  -252  -204  -171  -136  -88  -63  -133  -318  -543  -699  -751  -744  -721  -719  -794  -998  -1273  -1456  -1445  -1160  -434  782  2370  4305  6552  8671  9912  9668  7769  4690  1515  -695  -1585  -1491  -1014  -676  -730  -1079  -1436  -1631  -1694  -1690  -1615  -1449  -1214  -963  -761  -651  -623  -630  -642  -666  -713  -752  -735  -670  -613  -588  -580  -571  -552  -526  -510  -513  -527  -527  -477  -360  -187  25  260  502  727  901  1023  1109  1155  1170  1184  1225  1296  1373  1425  1440  1422  1360  1238  1090  991  966  966  873  573  109  -298  -493  -517  -480  -433  -370  -294  -278  -383  -547  -666  -722  -757  -801  -854  -900  -917  -845  -630  -333  -106  -37  -119  -319  -552  -709  -761  -771  -794  -818  -781  -643  -463  -333  -279  -271  -308  -414  -562  -681  -741  -756  -753  -751  -740  -700  -647  -601  -554  -514  -488  -484  -509  -527  -495  -450  -433  -422  -402  -398  -433  -516  -626  -686  -610  -406  -182  -30  33  30  -19  -105  -218  -385  -662  -998  -1218  -1227  -1110  -957  -777  -585  -437  -362  -351  -396  -535  -798  -1029  -848  54  1813  4425  7421  9773  10494  9178  6180  2590  -232  -1517  -1498  -979  -668  -777  -1040  -1161  -1122  -1034  -941  -866  -833  -834  -832  -807  -765  -727  -712  -719  -744  -774  -796  -807  -811  -808  -777  -700  -573  -425  -298  -216  -164  -109  -44  4  21  24  66  200  421  643  787  860  909  969  1068  1220  1391  1523  1595  1632  1666  1681  1620  1440  1189  951  752  570  405  274  170  77  0  -45  -73  -118  -188  -260  -319  -371  -421  -471  -527  -603  -691  -764  -799  -798  -781  -754  -713  -659  -614  -611  -649  -707  -783  -901  -1054  -1185  -1232  -1165  -949  -582  -190  56  125  109  73  20  -73  -217  -374  -478  -507  -493  -470  -454  -447  -453  -489  -570  -678  -759  -761  -658  -473  -296  -221  -247  -285  -268  -215  -164  -114  -44  16  6  -100  -266  -446  -606  -711  -765  -798  -840  -896  -947  -989  -1051  -1155  -1282  -1333  -1197  -893  -517  -80  504  1462  3129  5570  8177  9849  9684  7562  4299  1181  -810  -1478  -1352  -1118  -1049  -1078  -1139  -1208  -1245  -1214  -1096  -923  -776  -703  -686  -673  -626  -555  -498  -475  -475  -496  -548  -617  -676  -715  -742  -749  -717  -648  -561  -462  -346  -212  -69  63  164  247  339  443  548  647  740  859  1031  1231  1399  1486  1485  1423  1343  1288  1271  1275  1281  1287  1290  1283  1242  1105  809  404  47  -177  -304  -378  -413  -423  -416  -417  -482  -659  -886  -1003  -926  -736  -569  -468  -409  -395  -455  -583  -716  -783  -772  -747  -767  -828  -897  -963  -1023  -1066  -1085  -1090  -1096  -1104  -1106  -1078  -974  -757  -487  -285  -191  -156  -154  -208  -328  -462  -543  -562  -547  -522  -501  -536  -698  -1001  -1350  -1628  -1749  -1625  -1198  -612  -131  161  342  430  387  227  39  -59  -42  -6  -58  -198  -356  -480  -556  -595  -617  -636  -664  -700  -726  -720  -680  -631  -605  -619  -707  -882  -1041  -1019  -727  -119  854  2297  4322  6754  8964  10090  9429  6973  3625  612  -1200  -1630  -1194  -684  -547  -712  -913  -1012  -1042  -1061  -1082  -1098  -1109  -1123  -1129  -1083  -936  -723  -546  -468  -488  -567  -650  -667  -573  -392  -214  -116  -96  -107  -117  -121  -127  -134  -131  -107  -50  73  308  601  809  859  792  686  602  585  689  953  1310  1615  1790  1864  1879  1834  1716  1526  1287  1037  815  656  587  593  591  457  125  -314  -664  -805  -776  -689  -624  -597  -596  -615  -646  -680  -710  -744  -788  -832  -854  -854  -856  -860  -835  -776  -714  -687  -714  -775  -833  -867  -871  -846  -794  -722  -644  -584  -555  -550  -559  -580  -614  -652  -677  -675  -655  -652  -694  -777  -871  -945  -967  -899  -735  -543  -413  -367  -366  -371  -374  -376  -369  -335  -263  -173  -110  -85  -76  -64  -74  -162  -364  -630  -859  -991  -1035  -1004  -891  -718  -558  -480  -489  -557  -637  -679  -631  -481  -365  -454  -698  -873  -715  100  1778  4196  6869  9033  9916  9085  6713  3617  869  -760  -1203  -977  -650  -515  -635  -909  -1148  -1245  -1231  -1160  -1060  -974  -941  -958  -1001  -1080  -1233  -1438  -1580  -1506  -1133  -589  -155  22  10  -102  -272  -434  -508  -464  -345  -203  -50  108  237  302  309  289  275  307  425  605  787  960  1145  1338  1533  1728  1909  2050  2131  2163  2190  2225  2215  2054  1682  1181  695  306  23  -167  -285  -355  -416  -477  -510  -506  -489  -482  -486  -498  -538  -639  -791  -929  -1005  -1017  -953  -794  -582  -415  -355  -407  -549  -727  -858  -910  -904  -864  -800  -734  -694  -685  -686  -680  -664  -654  -659  -666  -672  -688  -720  -745  -732  -668  -570  -477  -416  -385  -369  -361  -379  -450  -556  -640  -662  -641  -616  -606  -609  -617  -629  -641  -651  -660  -665  -646  -565  -409  -240  -144  -147  -208  -286  -374  -470  -553  -616  -670  -714  -740  -748  -746  -734  -693  -608  -518  -529  -673  -825  -741  -183  971  2786  5174  7580  9167  9298  7723  4804  1601  -742  -1728  -1622  -1095  -686  -547  -596  -711  -815  -890  -929  -934  -927  -931  -944  -952  -947  -925  -892  -859  -837  -828  -830  -838  -846  -835  -789  -713  -628  -526  -383  -224  -108  -55  -28  30  148  321  524  703  802  817  792  763  740  727  769  938  1228  1520  1681  1686  1617  1564  1553  1563  1541  1430  1234  1033  887  762  585  345  118  -11  -63  -127  -260  -471  -745  -1010  -1162  -1151  -1001  -800  -657  -610  -615  -634  -668  -729  -797  -827  -812  -800  -824  -851  -824  -739  -643  -575  -538  -540  -625  -817  -1044  -1199  -1247  -1218  -1141  -1047  -964  -896  -835  -795  -793  -822  -857  -865  -831  -766  -717  -719  -752  -777  -785  -793  -810  -824  -787  -637  -388  -150  -9  46  69  76  61  24  -30  -105  -191  -262  -308  -340  -381  -448  -539  -637  -710  -739  -736  -690  -552  -318  0  535  1549  3317  5852  8532  10227  9952  7542  3924  575  -1415  -1845  -1319  -720  -515  -571  -561  -357  -65  143  178  45  -189  -411  -523  -521  -462  -401  -367  -373  -423  -520  -636  -716  -737  -716  -680  -626  -529  -384  -224  -69  72  200  310  402  472  523  560  579  582  581  590  609  633  682  829  1122  1484  1766  1907  1947  1931  1872  1760  1570  1310  1049  850  716  597  415  144  -136  -316  -375  -394  -454  -556  -640  -683  -721  -774  -807  -793  -762  -748  -746  -728  -685  -623  -551  -482  -433  -411  -420  -484  -617  -777  -899  -965  -1007  -1055  -1105  -1116  -1006  -715  -337  -59  39  12  -79  -194  -291  -346  -381  -433  -507  -576  -632  -691  -761  -833  -891  -922  -915  -871  -824  -805  -783  -687  -483  -232  -44  35  53  77  131  190  204  88  -217  -624  -950  -1123  -1218  -1297  -1346  -1346  -1321  -1319  -1359  -1394  -1310  -1056  -670  -106  804  2256  4370  6937  9221  10256  9419  6789  3278  229  -1517  -2046  -1857  -1461  -1245  -1218  -1129  -917  -715  -611  -607  -662  -726  -802  -909  -1024  -1090  -1052  -923  -774  -641  -532  -469  -490  -610  -790  -943  -1015  -992  -845  -578  -268  -5  164  236  238  204  165  171  256  431  700  995  1190  1251  1245  1233  1230  1231  1240  1263  1295  1326  1348  1352  1299  1148  910  655  453  317  202  65  -86  -214  -293  -348  -431  -548  -651  -715  -778  -898  -1066  -1193  -1217  -1153  -1067  -1014  -1004  -1016  -1006  -909  -694  -435  -257  -187  -155  -124  -146  -290  -530  -749  -862  -889  -903  -955  -1020  -1003  -842  -619  -492  -505  -581  -654  -712  -745  -745  -709  -651  -584  -510  -433  -376  -369  -440  -600  -805  -983  -1079  -1067  -910  -606  -266  -37  45  31  -48  -189  -356  -483  -543  -561  -562  -561  -580  -655  -802  -975  -1104  -1206  -1345  -1429  -1217  -696  -70  805  2419  4908  7764  10032  10664  9113  5841  2181  -485  -1573  -1448  -880  -531  -669  -1072  -1380  -1506  -1546  -1573  -1600  -1618  -1605  -1502  -1259  -922  -629  -470  -419  -418  -424  -397  -311  -195  -140  -227  -446  -689  -844  -876  -805  -647  -438  -209  39  286  484  616  697  752  807  870  932  985  1032  1093  1185  1307  1458  1608  1713  1755  1732  1632  1452  1238  1056  915  782  637  490  356  242  135  0  -188  -390  -532  -599  -624  -633  -625  -601  -569  -546  -531  -513  -498  -523  -632  -809  -972  -1056  -1074  -1063  -1020  -923  -782  -640  -527  -445  -397  -375  -368  -366  -365  -364  -377  -428  -531  -685  -877  -1064  -1177  -1174  -1070  -927  -824  -788  -796  -803  -745  -554  -252  36  211  263  198  14  -225  -417  -512  -541  -558  -608  -705  -815  -880  -887  -871  -860  -858  -859  -855  -846  -836  -810  -715  -528  -387  -464  -617  -443  367  1962  4292  6893  8972  9765  8836  6327  3075  208  -1562  -2225  -2187  -1899  -1657  -1546  -1504  -1427  -1251  -1001  -773  -635  -581  -571  -574  -587  -616  -667  -744  -842  -933  -975  -950  -883  -804  -717  -638  -609  -640  -674  -640  -511  -291  -42  127  182  182  193  250  365  534  736  940  1108  1218  1283  1326  1357  1370  1354  1320  1306  1302  1270  1208  1138  1061  958  810  610  386  190  66  9  -10  -19  -24  -37  -97  -232  -397  -506  -528  -500  -477  -486  -514  -545  -595  -694  -824  -922  -950  -912  -823  -717  -635  -607  -629  -673  -708  -722  -727  -739  -753  -741  -672  -574  -526  -572  -667  -741  -775  -783  -781  -785  -782  -738  -635  -491  -384  -397  -503  -561  -478  -314  -191  -149  -128  -72  -11  -52  -266  -591  -881  -1046  -1107  -1128  -1136  -1118  -1056  -962  -883  -877  -1002  -1255  -1503  -1580  -1420  -1044  -469  396  1789  3877  6410  8628  9586  8649  5993  2672  -75  -1528  -1693  -1186  -793  -861  -1165  -1379  -1438  -1427  -1391  -1347  -1272  -1125  -925  -759  -686  -683  -700  -690  -597  -392  -137  65  169  190  149  46  -84  -180  -220  -237  -249  -234  -164  -29  138  274  336  368  460  663  926  1151  1277  1316  1331  1377  1463  1554  1625  1695  1779  1855  1899  1902  1866  1776  1550  1112  568  162  -6  -36  -23  11  37  -34  -249  -537  -785  -955  -1064  -1104  -1056  -930  -741  -510  -295  -167  -139  -180  -259  -349  -434  -530  -627  -687  -697  -681  -661  -645  -637  -642  -669  -718  -771  -812  -843  -863  -857  -822  -767  -689  -577  -439  -309  -222  -165  -95  -8  54  38  -100  -328  -567  -768  -908  -964  -897  -683  -399  -189  -109  -106  -159  -303  -548  -823  -1050  -1205  -1300  -1344  -1333  -1266  -1168  -1098  -1132  -1314  -1554  -1597  -1242  -530  425  1689  3485  5831  8171  9532  9130  6882  3577  479  -1471  -2148  -2048  -1700  -1346  -1053  -834  -669  -548  -477  -462  -492  -546  -608  -683  -763  -826  -863  -872  -848  -795  -735  -691  -670  -666  -678  -719  -802  -905  -964  -904  -675  -301  116  454  649  719  731  746  786  847  888  856  764  682  660  710  819  966  1112  1205  1221  1173  1088  999  941  945  999  1055  1068  1019  921  797  622  332  -60  -449  -728  -877  -945  -986  -1032  -1104  -1202  -1257  -1168  -955  -755  -643  -593  -563  -549  -549  -556  -556  -543  -509  -461  -437  -467  -527  -575  -597  -611  -636  -669  -693  -706  -718  -727  -722  -702  -672  -638  -612  -609  -627  -645  -652  -657  -669  -686  -687  -620  -430  -143  111  223  193  83  -71  -275  -506  -689  -775  -791  -785  -779  -770  -763  -782  -854  -975  -1104  -1203  -1224  -1106  -840  -434  218  1367  3230  5665  8054  9503  9214  7038  3761  621  -1422  -2043  -1610  -906  -515  -517  -725  -945  -1073  -1114  -1120  -1128  -1156  -1188  -1167  -1046  -871  -740  -682  -654  -628  -595  -540  -446  -331  -248  -230  -258  -297  -335  -376  -404  -403  -392  -407  -433  -407  -285  -85  173  522  919  1224  1370  1407  1394  1374  1375  1404  1457  1493  1456  1342  1195  1060  968  893  769  597  448  357  304  249  146  -35  -256  -419  -480  -480  -478  -504  -554  -600  -623  -627  -628  -634  -630  -596  -549  -539  -572  -613  -624  -584  -538  -551  -626  -748  -915  -1083  -1183  -1172  -1044  -833  -608  -435  -345  -326  -336  -347  -352  -358  -364  -369  -373  -376  -369  -343  -301  -263  -248  -254  -266  -276  -307  -382  -489  -605  -713  -794  -832  -820  -739  -586  -408  -284  -276  -404  -639  -922  -1192  -1348  -1201  -642  203  1265  2794  4981  7402  9113  9228  7386  4101  718  -1487  -2181  -1864  -1268  -893  -839  -903  -889  -804  -744  -732  -740  -750  -758  -777  -827  -909  -1006  -1123  -1251  -1349  -1388  -1349  -1195  -916  -599  -365  -242  -182  -145  -112  -76  -41  -16  -6  -12  -8  36  127  236  332  433  576  761  952  1099  1195  1269  1333  1370  1364  1318  1242  1142  1042  974  949  952  937  846  654  410  201  67  1  -25  -66  -178  -358  -537  -662  -720  -733  -723  -697  -651  -597  -563  -578  -651  -756  -833  -840  -763  -629  -504  -454  -503  -627  -760  -838  -833  -749  -619  -507  -451  -446  -482  -558  -656  -736  -767  -753  -719  -688  -676  -700  -779  -892  -976  -956  -791  -523  -277  -157  -195  -380  -644  -879  -1041  -1150  -1202  -1166  -1045  -895  -789  -754  -785  -892  -1029  -1077  -1036  -946  -674  -73  999  2841  5445  8035  9495  9044  6614  3105  28  -1546  -1626  -931  -208  105  -46  -415  -737  -933  -1042  -1109  -1153  -1183  -1219  -1273  -1316  -1298  -1220  -1139  -1091  -1058  -1000  -887  -699  -461  -235  -55  75  148  166  155  146  174  257  358  411  396  361  364  453  637  842  973  1011  1006  985  935  855  811  864  991  1120  1200  1216  1198  1184  1182  1183  1171  1126  997  711  281  -161  -483  -660  -761  -841  -901  -937  -969  -1025  -1119  -1215  -1249  -1209  -1137  -1044  -909  -752  -634  -574  -515  -441  -390  -376  -419  -544  -711  -857  -972  -1052  -1092  -1102  -1109  -1116  -1087  -968  -746  -474  -234  -96  -80  -147  -245  -337  -404  -419  -359  -253  -158  -105  -83  -72  -73  -131  -282  -482  -638  -719  -767  -811  -853  -888  -925  -969  -999  -975  -868  -704  -557  -491  -538  -607  -383  453  1958  4012  6311  8194  8904  8024  5710  2755  203  -1304  -1792  -1687  -1392  -1134  -1028  -1052  -1093  -1088  -1044  -977  -925  -924  -955  -980  -982  -953  -871  -709  -495  -342  -323  -415  -540  -621  -632  -603  -577  -576  -591  -599  -605  -626  -638  -542  -247  170  518  724  851  936  1001  1083  1185  1261  1287  1282  1273  1269  1278  1304  1342  1382  1407  1386  1287  1128  960  792  596  345  37  -259  -458  -539  -548  -538  -532  -529  -508  -449  -369  -343  -422  -563  -674  -719  -724  -713  -689  -647  -596  -551  -527  -529  -542  -548  -543  -550  -604  -705  -789  -803  -772  -729  -690  -671  -668  -651  -593  -486  -355  -277  -300  -388  -495  -615  -720  -759  -722  -660  -636  -652  -642  -578  -539  -603  -726  -795  -767  -718  -720  -740  -713  -643  -585  -567  -579  -618  -721  -909  -1114  -1198  -885  229  2330  5091  7712  9162  8711  6456  3281  360  -1417  -1939  -1764  -1398  -1010  -712  -588  -600  -669  -738  -782  -822  -907  -1026  -1098  -1047  -917  -848  -914  -1028  -1060  -1001  -938  -919  -921  -893  -791  -599  -353  -129  5  48  41  29  44  125  281  450  558  612  678  781  879  932  956  992  1049  1098  1119  1131  1170  1256  1355  1403  1359  1232  1062  870  658  446  277  186  157  112  -28  -268  -515  -667  -706  -672  -596  -507  -443  -419  -433  -489  -595  -737  -877  -962  -967  -904  -812  -723  -630  -512  -395  -325  -308  -320  -345  -372  -384  -376  -351  -325  -313  -317  -337  -369  -406  -437  -460  -486  -539  -645  -783  -893  -936  -903  -776  -565  -322  -115  12  62  66  41  -23  -118  -202  -244  -242  -213  -190  -237  -421  -754  -1153  -1477  -1652  -1707  -1652  -1440  -1072  -613  -49  831  2336  4570  7129  9159  9749  8448  5659  2450  -72  -1336  -1556  -1317  -1008  -842  -918  -1112  -1246  -1279  -1251  -1208  -1176  -1155  -1129  -1094  -1067  -1051  -1031  -961  -797  -571  -380  -286  -266  -272  -276  -265  -234  -194  -180  -234  -370  -519  -580  -530  -383  -153  75  198  228  314  582  960  1240  1335  1321  1287  1263  1241  1208  1167  1144  1158  1191  1208  1192  1138  1040  898  734  572  421  281  121  -92  -342  -570  -760  -922  -1025  -1035  -952  -817  -676  -549  -441  -362  -321  -320  -372  -466  -524  -469  -357  -349  -508  -756  -984  -1129  -1188  -1165  -1014  -705  -344  -103  -51  -147  -326  -505  -614  -648  -643  -621  -589  -559  -545  -549  -563  -584  -602  -573  -423  -141  159  345  388  336  223  50  -202  -513  -789  -953  -1025  -1037  -984  -884  -796  -748  -722  -709  -736  -851  -1009  -1059  -980  -881  -637  62  1444  3552  6096  8391  9590  9049  6771  3564  601  -1224  -1743  -1473  -1047  -776  -681  -692  -750  -834  -922  -985  -1017  -1033  -1047  -1065  -1085  -1086  -1056  -1013  -985  -975  -969  -953  -931  -905  -861  -777  -654  -520  -383  -258  -160  -80  -9  33  46  62  115  199  281  338  380  454  611  855  1110  1284  1349  1348  1338  1343  1340  1278  1130  919  721  600  561  563  552  484  334  126  -79  -233  -311  -321  -304  -284  -259  -231  -222  -286  -461  -688  -849  -900  -892  -874  -863  -852  -837  -820  -803  -781  -736  -665  -595  -556  -551  -566  -586  -593  -567  -506  -452  -446  -482  -539  -598  -656  -745  -871  -992  -1058  -1055  -1023  -997  -969  -912  -831  -730  -587  -394  -200  -54  17  24  7  -22  -126  -357  -642  -846  -919  -915  -891  -874  -873  -885  -900  -912  -925  -949  -977  -980  -941  -889  -830  -664  -199  849  2768  5479  8268  10002  9732  7374  3905  751  -1053  -1314  -682  -129  -147  -536  -917  -1160  -1291  -1343  -1350  -1368  -1435  -1519  -1546  -1489  -1374  -1231  -1055  -841  -618  -436  -323  -289  -313  -358  -402  -423  -417  -410  -415  -422  -401  -327  -214  -104  -15  56  123  237  445  692  862  912  891  859  858  922  1074  1312  1568  1731  1720  1530  1255  1030  919  889  871  792  617  385  190  65  -61  -282  -559  -760  -836  -847  -839  -803  -714  -552  -311  -37  163  200  81  -129  -371  -574  -679  -704  -705  -709  -711  -699  -687  -709  -794  -934  -1082  -1193  -1194  -992  -648  -373  -272  -277  -305  -320  -317  -307  -319  -374  -455  -537  -620  -695  -731  -709  -642  -551  -452  -385  -378  -419  -462  -460  -415  -368  -344  -338  -338  -348  -390  -478  -589  -670  -698  -696  -704  -747  -825  -932  -1113  -1354  -1476  -1354  -963  -51  1664  4066  6714  8918  9752  8640  5864  2423  -433  -1850  -1889  -1306  -835  -721  -820  -971  -1120  -1257  -1382  -1489  -1548  -1521  -1376  -1147  -927  -780  -704  -678  -677  -673  -660  -642  -608  -550  -480  -414  -351  -281  -189  -68  82  229  326  361  356  336  322  354  477  668  832  911  935  960  1007  1071  1157  1257  1323  1331  1325  1324  1304  1267  1234  1202  1142  1013  811  585  400  279  202  120  9  -104  -188  -240  -287  -371  -517  -672  -762  -795  -819  -835  -823  -794  -756  -695  -619  -560  -516  -450  -361  -296  -289  -335  -429  -564  -708  -826  -911  -971  -1005  -999  -914  -720  -465  -254  -151  -146  -219  -356  -509  -609  -620  -547  -415  -266  -132  -37  -3  -32  -96  -162  -191  -183  -207  -299  -413  -516  -619  -734  -869  -1004  -1097  -1133  -1140  -1141  -1135  -1104  -1038  -945  -790  -509  -34  769  2109  4140  6643  8827  9761  8897  6352  3024  99  -1679  -2222  -1932  -1400  -1054  -995  -1099  -1220  -1289  -1309  -1290  -1226  -1135  -1032  -878  -629  -348  -155  -92  -144  -304  -531  -728  -830  -850  -828  -787  -736  -696  -696  -734  -781  -823  -858  -855  -759  -522  -120  422  965  1324  1462  1476  1457  1414  1317  1151  974  867  846  866  885  897  908  911  868  745  580  457  401  359  290  198  94  -26  -177  -342  -483  -595  -717  -893  -1092  -1227  -1241  -1124  -908  -679  -521  -449  -424  -424  -453  -520  -627  -744  -823  -850  -851  -842  -801  -697  -548  -410  -316  -290  -342  -430  -498  -532  -543  -552  -581  -622  -626  -561  -468  -408  -405  -456  -558  -706  -868  -983  -1015  -955  -807  -618  -459  -330  -185  -18  121  191  172  50  -154  -380  -567  -695  -785  -856  -909  -941  -950  -936  -907  -867  -824  -792  -772  -681  -327  525  2088  4417  7143  9366  10036  8654  5699  2340  -234  -1410  -1402  -956  -701  -772  -991  -1182  -1286  -1322  -1307  -1260  -1217  -1191  -1158  -1092  -990  -885  -813  -762  -685  -550  -391  -279  -233  -220  -220  -234  -253  -269  -291  -328  -376  -413  -419  -378  -249  -17  220  350  387  431  561  807  1107  1342  1458  1483  1449  1372  1260  1149  1102  1161  1297  1437  1532  1561  1459  1141  675  272  55  -46  -173  -383  -639  -863  -994  -1023  -974  -864  -727  -615  -560  -551  -560  -560  -545  -528  -519  -519  -520  -515  -504  -496  -500  -501  -481  -444  -415  -427  -503  -615  -715  -787  -840  -867  -865  -837  -784  -703  -609  -532  -473  -404  -321  -260  -239  -242  -249  -250  -247  -251  -276  -339  -460  -638  -814  -921  -960  -983  -1009  -1019  -1015  -1022  -1040  -1030  -953  -804  -602  -379  -206  -173  -326  -686  -1244  -1784  -1885  -1260  -12  1528  3195  5116  7297  9162  9730  8347  5304  1790  -878  -2055  -1925  -1227  -757  -782  -1005  -1120  -1114  -1087  -1066  -1033  -971  -891  -820  -780  -774  -788  -811  -844  -899  -946  -913  -771  -591  -466  -420  -412  -413  -416  -411  -369  -254  -71  121  266  342  365  365  363  392  515  759  1043  1239  1309  1307  1300  1307  1333  1383  1447  1503  1535  1546  1535  1485  1377  1208  982  735  525  355  148  -119  -349  -456  -462  -442  -456  -528  -629  -716  -799  -921  -1060  -1152  -1178  -1173  -1162  -1121  -988  -734  -434  -224  -144  -147  -214  -362  -548  -669  -676  -615  -555  -533  -565  -667  -803  -901  -906  -825  -710  -628  -607  -632  -677  -723  -757  -757  -673  -475  -230  -61  -18  -67  -160  -257  -313  -279  -111  161  412  514  396  61  -361  -669  -779  -768  -767  -869  -1080  -1315  -1480  -1557  -1551  -1448  -1249  -954  -459  505  2251  4831  7786  10214  11108  9853  6738  2954  -138  -1769  -2033  -1644  -1332  -1356  -1544  -1694  -1756  -1725  -1584  -1361  -1121  -920  -761  -582  -339  -81  90  148  142  113  55  -48  -219  -468  -741  -941  -1017  -1002  -960  -926  -885  -793  -610  -319  45  416  712  891  980  1032  1068  1100  1153  1227  1292  1327  1342  1347  1334  1292  1237  1191  1153  1092  999  890  764  565  253  -96  -348  -463  -484  -443  -365  -281  -226  -228  -270  -302  -307  -328  -420  -581  -734  -819  -856  -910  -1010  -1120  -1166  -1119  -1032  -962  -900  -806  -659  -482  -341  -277  -275  -307  -358  -417  -476  -547  -644  -735  -761  -724  -688  -681  -669  -617  -533  -451  -408  -406  -414  -405  -389  -395  -441  -532  -642  -718  -743  -739  -732  -732  -746  -770  -780  -747  -670  -588  -546  -564  -645  -819  -1124  -1494  -1714  -1604  -1165  -503  387  1758  3855  6420  8563  9242  7913  4940  1554  -948  -2026  -1930  -1326  -820  -645  -739  -916  -1044  -1113  -1147  -1150  -1105  -997  -848  -717  -665  -723  -854  -951  -946  -861  -764  -690  -621  -528  -411  -304  -235  -196  -155  -96  -27  56  158  256  329  378  418  476  563  665  754  812  845  867  878  879  897  984  1178  1436  1646  1742  1761  1760  1739  1646  1427  1064  592  141  -134  -219  -213  -192  -183  -213  -303  -425  -514  -543  -533  -512  -502  -508  -519  -530  -560  -637  -762  -898  -985  -1007  -1002  -991  -929  -755  -507  -307  -218  -213  -272  -411  -598  -751  -832  -861  -865  -848  -803  -743  -696  -672  -665  -669  -673  -646  -553  -394  -217  -78  -7  3  -10  -23  -39  -73  -121  -174  -227  -288  -376  -515  -712  -943  -1159  -1318  -1394  -1364  -1179  -803  -339  -4  62  -152  -563  -930  -1032  -938  -807  -509  363  2167  4837  7738  9861  10261  8599  5488  2184  -203  -1276  -1313  -944  -740  -808  -919  -959  -963  -948  -917  -875  -821  -752  -678  -617  -595  -635  -730  -818  -819  -732  -627  -562  -541  -542  -537  -509  -465  -414  -349  -265  -174  -85  -7  44  59  48  29  33  110  305  598  891  1094  1183  1201  1201  1220  1260  1302  1327  1341  1350  1342  1266  1081  834  639  551  532  521  462  315  75  -183  -343  -382  -398  -520  -781  -1080  -1272  -1308  -1236  -1118  -1006  -922  -863  -824  -808  -814  -824  -775  -624  -432  -309  -299  -349  -400  -434  -450  -448  -429  -409  -439  -605  -941  -1327  -1571  -1574  -1351  -1004  -685  -509  -485  -510  -484  -422  -379  -360  -349  -347  -362  -387  -376  -278  -120  4  36  -24  -162  -353  -544  -665  -693  -660  -610  -580  -604  -703  -843  -956  -1006  -1002  -991  -1033  -1100  -1058  -774  -207  624  1800  3591  6126  8856  10623  10405  8037  4418  1002  -1037  -1494  -1111  -709  -602  -769  -1049  -1263  -1357  -1386  -1386  -1328  -1158  -912  -704  -599  -576  -606  -674  -744  -759  -678  -524  -379  -304  -292  -296  -288  -268  -247  -223  -188  -155  -140  -120  -72  -5  52  93  153  273  445  644  896  1180  1389  1462  1437  1360  1241  1090  958  890  885  920  968  998  972  862  698  543  405  235  41  -106  -179  -220  -277  -355  -430  -500  -586  -691  -780  -825  -836  -836  -833  -805  -738  -668  -654  -683  -689  -663  -641  -650  -683  -719  -733  -717  -675  -622  -555  -464  -380  -325  -278  -253  -291  -368  -438  -521  -657  -816  -924  -959  -967  -984  -999  -983  -925  -826  -712  -621  -569  -545  -541  -550  -555  -528  -434  -252  -9  213  299  154  -208  -625  -898  -988  -1005  -1049  -1114  -1129  -1054  -911  -814  -865  -972  -1006  -994  -856  -317  879  2909  5651  8416  10166  10067  7953  4519  1037  -1318  -2145  -1880  -1267  -862  -818  -973  -1147  -1280  -1375  -1436  -1452  -1385  -1190  -908  -666  -544  -517  -527  -538  -541  -537  -530  -533  -564  -629  -727  -857  -964  -943  -781  -578  -393  -194  18  189  287  335  380  460  586  724  832  910  1000  1105  1189  1239  1268  1299  1357  1466  1630  1800  1893  1814  1498  1043  687  548  530  478  331  133  -73  -295  -512  -667  -728  -682  -522  -320  -225  -314  -520  -715  -841  -896  -876  -797  -712  -656  -616  -578  -522  -417  -263  -122  -54  -62  -116  -177  -227  -310  -489  -745  -970  -1081  -1091  -1053  -954  -744  -470  -260  -158  -105  -50  6  56  101  137  130  51  -96  -276  -437  -542  -587  -593  -588  -580  -565  -542  -540  -599  -693  -744  -702  -603  -520  -483  -493  -571  -750  -1010  -1240  -1351  -1352  -1225  -841  -37  1395  3635  6388  8768  9803  8894  6218  2804  -125  -1815  -2205  -1857  -1473  -1358  -1410  -1453  -1428  -1366  -1306  -1256  -1201  -1097  -865  -487  -95  130  106  -139  -468  -703  -782  -772  -748  -738  -745  -768  -789  -773  -691  -569  -470  -426  -425  -440  -437  -358  -144  217  670  1096  1380  1495  1475  1351  1184  1064  1036  1102  1248  1425  1551  1595  1582  1516  1377  1178  981  822  677  502  286  63  -126  -257  -328  -360  -372  -372  -360  -346  -349  -389  -490  -665  -863  -996  -1038  -1031  -1011  -985  -952  -911  -853  -778  -691  -580  -455  -368  -353  -398  -462  -507  -526  -530  -517  -467  -389  -359  -427  -525  -573  -574  -577  -619  -701  -781  -824  -822  -789  -746  -718  -713  -719  -719  -695  -636  -546  -453  -387  -347  -309  -262  -213  -167  -142  -157  -226  -325  -412  -482  -559  -637  -710  -786  -844  -860  -850  -831  -789  -725  -681  -671  -601  -242  798  2874  5815  8735  10463  10140  7691  4081  858  -925  -1311  -1018  -755  -857  -1199  -1458  -1521  -1489  -1451  -1414  -1360  -1296  -1229  -1131  -959  -742  -575  -515  -533  -576  -614  -647  -675  -687  -664  -590  -477  -400  -425  -536  -677  -799  -871  -846  -652  -275  153  454  568  567  541  531  547  586  653  773  956  1170  1363  1500  1573  1593  1573  1526  1449  1322  1125  876  609  318  -12  -326  -540  -636  -654  -618  -530  -409  -299  -226  -182  -155  -134  -108  -100  -188  -451  -813  -1076  -1124  -993  -799  -668  -679  -841  -1071  -1231  -1222  -1042  -794  -615  -549  -537  -532  -539  -569  -621  -690  -761  -809  -830  -831  -794  -694  -559  -458  -419  -406  -389  -375  -385  -426  -496  -579  -641  -660  -637  -573  -494  -443  -429  -418  -371  -284  -185  -103  -70  -122  -276  -490  -673  -764  -779  -762  -743  -725  -712  -719  -746  -727  -550  -244  -141  -540  -1211  -1544  -1021  625  3329  6509  9136  10261  9431  6837  3428  507  -1093  -1342  -797  -191  25  -154  -484  -732  -853  -932  -1063  -1282  -1527  -1678  -1644  -1407  -1067  -805  -704  -698  -697  -672  -634  -589  -525  -439  -342  -246  -160  -97  -69  -64  -66  -68  -74  -93  -120  -120  -35  154  381  554  664  746  804  853  937  1090  1312  1570  1789  1899  1907  1874  1850  1824  1728  1512  1230  978  801  657  437  73  -333  -600  -676  -626  -510  -377  -289  -270  -297  -329  -340  -333  -327  -335  -376  -446  -504  -520  -508  -512  -582  -732  -904  -1023  -1056  -992  -819  -580  -372  -248  -214  -253  -340  -458  -587  -683  -722  -722  -712  -706  -704  -706  -711  -718  -723  -711  -673  -621  -580  -552  -526  -506  -512  -535  -529  -470  -379  -297  -257  -296  -439  -637  -777  -767  -598  -359  -191  -169  -272  -419  -521  -544  -510  -456  -409  -392  -437  -578  -780  -947  -1016  -963  -798  -669  -755  -950  -892  -245  1213  3548  6395  8841  9861  8934  6326  2998  175  -1291  -1391  -804  -246  -55  -252  -663  -1054  -1305  -1414  -1420  -1371  -1300  -1206  -1099  -1022  -1007  -1049  -1125  -1199  -1246  -1263  -1248  -1159  -942  -614  -301  -103  0  43  1  -112  -221  -268  -255  -203  -110  27  194  379  580  757  854  862  826  821  909  1096  1324  1513  1646  1763  1885  1979  1982  1868  1683  1492  1281  1019  746  514  320  127  -64  -215  -302  -347  -380  -426  -508  -615  -707  -762  -782  -767  -726  -659  -568  -482  -431  -413  -426  -473  -546  -615  -650  -650  -631  -588  -497  -374  -274  -236  -274  -402  -590  -753  -833  -851  -845  -822  -777  -721  -662  -569  -436  -313  -232  -172  -119  -93  -143  -308  -533  -699  -762  -770  -764  -729  -623  -451  -292  -212  -199  -200  -179  -138  -103  -85  -71  -60  -91  -224  -455  -685  -822  -870  -881  -873  -847  -807  -813  -941  -1098  -1044  -593  448  2265  4732  7336  9271  9638  8011  4930  1600  -818  -1771  -1560  -999  -687  -732  -925  -1033  -1017  -968  -929  -887  -832  -772  -721  -683  -669  -727  -914  -1181  -1370  -1329  -1012  -560  -215  -81  -90  -174  -315  -478  -600  -626  -503  -212  144  405  532  588  612  607  603  673  867  1122  1303  1362  1351  1329  1313  1310  1331  1374  1420  1451  1462  1447  1379  1229  1013  805  671  606  547  433  240  25  -118  -184  -240  -332  -469  -665  -890  -1067  -1138  -1085  -908  -674  -506  -459  -502  -586  -672  -734  -770  -792  -789  -722  -580  -425  -323  -281  -279  -330  -454  -611  -723  -757  -748  -734  -736  -765  -817  -870  -900  -889  -829  -738  -657  -611  -593  -587  -591  -603  -625  -666  -731  -808  -853  -778  -521  -169  93  193  183  107  -18  -151  -265  -406  -627  -877  -1044  -1094  -1083  -1064  -1051  -1046  -1051  -1062  -1049  -961  -807  -705  -708  -654  -361  292  1576  3737  6506  9070  10464  9904  7331  3790  718  -1043  -1499  -1275  -1085  -1148  -1249  -1261  -1262  -1304  -1342  -1332  -1275  -1165  -988  -798  -676  -643  -659  -692  -720  -716  -657  -559  -472  -434  -442  -476  -531  -613  -702  -756  -745  -668  -554  -434  -295  -102  157  450  708  878  960  994  1017  1064  1155  1268  1351  1383  1385  1387  1401  1429  1462  1486  1456  1302  1011  684  423  235  82  -42  -131  -160  -137  -124  -158  -213  -261  -307  -383  -524  -706  -857  -938  -959  -932  -865  -763  -647  -563  -535  -557  -619  -695  -749  -761  -740  -710  -688  -671  -623  -526  -434  -414  -444  -454  -437  -429  -439  -451  -453  -450  -458  -496  -568  -665  -784  -913  -1025  -1099  -1127  -1094  -976  -778  -559  -392  -311  -296  -303  -308  -306  -302  -313  -355  -422  -489  -538  -570  -601  -647  -704  -765  -834  -880  -877  -861  -879  -943  -1041  -1171  -1342  -1525  -1535  -1172  -424  756  2599  5116  7844  9992  10644  9207  6032  2346  -537  -1919  -1926  -1301  -873  -998  -1425  -1726  -1731  -1526  -1267  -1092  -1037  -1046  -1072  -1112  -1160  -1175  -1086  -863  -593  -413  -361  -370  -368  -336  -286  -240  -196  -135  -56  14  60  77  65  30  -16  -44  -16  76  226  409  589  762  966  1185  1349  1423  1427  1416  1465  1597  1744  1837  1864  1847  1776  1576  1208  795  523  432  389  256  7  -279  -510  -639  -672  -630  -519  -377  -275  -256  -312  -414  -533  -634  -671  -622  -537  -486  -494  -532  -573  -617  -676  -744  -819  -919  -1040  -1148  -1215  -1235  -1167  -948  -617  -322  -168  -151  -218  -313  -397  -464  -514  -557  -614  -673  -683  -659  -682  -799  -963  -1080  -1108  -1058  -937  -775  -634  -558  -539  -548  -554  -520  -412  -225  -9  162  260  299  286  183  -85  -530  -991  -1272  -1346  -1316  -1258  -1197  -1144  -1099  -1074  -1107  -1196  -1232  -1062  -536  498  2165  4479  7110  9274  10050  8888  6066  2667  -71  -1409  -1411  -855  -536  -632  -872  -1036  -1068  -1002  -918  -869  -855  -860  -866  -862  -846  -827  -810  -793  -780  -770  -742  -669  -540  -379  -237  -144  -96  -87  -133  -256  -414  -510  -483  -348  -150  94  375  631  783  829  827  819  831  886  991  1119  1226  1293  1329  1347  1340  1301  1251  1233  1253  1261  1211  1119  985  748  400  49  -193  -315  -379  -452  -544  -616  -647  -655  -649  -630  -608  -613  -670  -754  -808  -786  -697  -604  -578  -628  -732  -865  -981  -1035  -997  -853  -650  -480  -395  -380  -408  -458  -513  -558  -585  -614  -681  -793  -907  -976  -1002  -1009  -992  -901  -691  -370  -32  187  195  -13  -337  -597  -708  -718  -698  -670  -632  -586  -546  -523  -505  -485  -476  -505  -591  -700  -774  -817  -896  -1019  -1122  -1192  -1278  -1332  -1173  -778  -386  -100  287  1141  2868  5539  8377  10017  9495  6908  3305  99  -1700  -2045  -1630  -1185  -1022  -1031  -992  -878  -788  -759  -763  -772  -776  -772  -761  -748  -743  -751  -757  -720  -610  -460  -344  -277  -220  -177  -177  -212  -250  -280  -301  -317  -322  -278  -150  24  152  187  162  165  327  730  1232  1578  1684  1666  1641  1638  1635  1618  1610  1629  1646  1608  1482  1273  1027  794  575  362  179  39  -59  -97  -66  -3  48  74  69  25  -64  -192  -319  -410  -492  -634  -838  -1025  -1143  -1210  -1245  -1250  -1230  -1186  -1129  -1075  -994  -824  -577  -344  -192  -120  -100  -126  -223  -391  -563  -666  -693  -685  -674  -670  -665  -660  -666  -694  -742  -789  -815  -808  -761  -676  -574  -500  -491  -538  -586  -589  -539  -467  -412  -384  -370  -362  -363  -388  -451  -545  -630  -676  -694  -708  -734  -779  -850  -929  -994  -1065  -1193  -1360  -1425  -1204  -557  636  2546  5162  7905  9769  9856  7865  4470  1075  -1074  -1591  -1009  -281  -69  -390  -838  -1117  -1221  -1249  -1252  -1254  -1262  -1271  -1260  -1200  -1087  -942  -784  -618  -463  -353  -299  -280  -274  -272  -271  -271  -277  -290  -281  -213  -107  -24  18  54  101  136  135  103  73  98  231  485  783  1006  1142  1271  1412  1506  1530  1519  1498  1464  1426  1398  1369  1278  1075  813  619  526  427  204  -144  -501  -737  -823  -820  -788  -749  -711  -682  -658  -636  -623  -623  -623  -604  -559  -505  -468  -467  -495  -531  -552  -551  -560  -613  -702  -779  -820  -843  -867  -881  -837  -675  -413  -170  -48  -71  -215  -416  -580  -661  -676  -663  -650  -647  -645  -617  -540  -421  -302  -225  -212  -266  -397  -628  -897  -1043  -982  -797  -596  -389  -158  35  109  37  -136  -318  -430  -470  -486  -524  -608  -718  -801  -836  -842  -824  -760  -657  -596  -651  -798  -948  -919  -418  845  3031  5909  8664  10256  10008  7918  4695  1478  -750  -1655  -1584  -1135  -738  -581  -672  -852  -956  -950  -872  -770  -686  -632  -596  -580  -613  -731  -922  -1104  -1203  -1224  -1219  -1217  -1189  -1066  -822  -546  -368  -312  -288  -189  34  307  493  548  534  517  524  550  575  597  633  688  760  845  947  1088  1249  1364  1403  1403  1414  1460  1529  1592  1640  1668  1608  1359  937  522  263  139  53  -56  -222  -421  -572  -645  -673  -685  -691  -699  -702  -673  -582  -455  -350  -295  -282  -302  -355  -447  -586  -739  -847  -896  -917  -920  -883  -786  -661  -568  -528  -517  -519  -530  -549  -575  -595  -601  -601  -602  -604  -610  -642  -716  -775  -715  -510  -252  -41  88  123  18  -271  -660  -958  -1071  -1043  -928  -729  -460  -204  -75  -102  -214  -297  -291  -221  -125  -27  33  5  -128  -314  -453  -505  -505  -490  -467  -442  -441  -516  -731  -1047  -1244  -1142  -797  -340  193  889  2058  4037  6595  8890  10020  9361  6891  3531  650  -952  -1266  -740  -120  -18  -384  -747  -869  -846  -810  -805  -811  -796  -776  -792  -814  -753  -609  -485  -447  -471  -511  -539  -539  -490  -404  -324  -261  -202  -128  -18  138  306  447  559  660  760  815  790  752  801  955  1164  1360  1478  1517  1532  1571  1632  1686  1708  1696  1647  1580  1525  1501  1502  1521  1549  1546  1420  1117  731  422  227  89  -4  -46  -48  -37  -36  -66  -146  -280  -465  -681  -885  -1026  -1090  -1081  -993  -824  -632  -503  -463  -468  -463  -417  -330  -239  -183  -163  -176  -240  -363  -498  -580  -592  -580  -605  -709  -862  -983  -1032  -1034  -1014  -974  -917  -861  -822  -801  -788  -779  -776  -774  -759  -730  -704  -705  -734  -761  -755  -731  -746  -836  -969  -1088  -1159  -1184  -1181  -1165  -1155  -1189  -1306  -1484  -1650  -1738  -1651  -1251  -552]
