reading_id,reading_time,wire_id,result_classification,heart_rate,heart_rate_alert,firmware_version,device_app_version,hardware_version,waveform_samples
91138700-58be-11ed-8080-808080808080,Mon Oct 31 01:51:41 UTC 2022,4101e3b01d39,NSR,60,NONE,20001.171.50,2.10.0,Charge 5,[0  199  -733  -3549  -8045  -13029  -17054  -19350  -20100  -19555  -17353  -13475  -9164  -5847  -3769  -2376  -1256  -384  82  33  -481  -1187  -1675  -1677  -1204  -534  -38  113  -45  -456  -1006  -1521  -1877  -2050  -2102  -2133  -2258  -2562  -2973  -3264  -3241  -2879  -2368  -1982  -1829  -1843  -2014  -2377  -2787  -2994  -3128  -4027  -6744  -11178  -15530  -18010  -18379  -17272  -15140  -12323  -9471  -7406  -6372  -5856  -5332  -4792  -4520  -4649  -5002  -5271  -5322  -5250  -5161  -5070  -5030  -5271  -6048  -7224  -8322  -9188  -10115  -11239  -12326  -13110  -13474  -13315  -12485  -11120  -9788  -8977  -8647  -8461  -8209  -7937  -7752  -7593  -7262  -6673  -5993  -5475  -5210  -5136  -5222  -5555  -6199  -7049  -7915  -8626  -9065  -9243  -9292  -9313  -9270  -9003  -8404  -7605  -6812  -6043  -5247  -4491  -3846  -3256  -2664  -2166  -1894  -1978  -2603  -3868  -5595  -7379  -8887  -10190  -11644  -13323  -14807  -15677  -15933  -15664  -14727  -13076  -11097  -9336  -8045  -7126  -6444  -5923  -5397  -4782  -4261  -4005  -3959  -3983  -3996  -4000  -4062  -4314  -4881  -5731  -6608  -7231  -7492  -7380  -6854  -5985  -5043  -4278  -3712  -3155  -2420  -1559  -705  215  1347  2659  3994  5107  5742  5788  5203  4014  2508  1131  167  -360  -563  -567  -436  -143  339  900  1346  1645  1932  2250  2469  2469  2256  1966  1743  1557  1250  783  292  -59  -216  -215  -111  65  304  609  937  1171  1253  1236  1192  1126  978  713  377  -12  -516  -1135  -1785  -2438  -3128  -3823  -4370  -4603  -4478  -4077  -3509  -2889  -2298  -1688  -977  -253  287  542  549  380  105  -162  -330  -470  -762  -1318  -2123  -3045  -3813  -4215  -4303  -4251  -4126  -3889  -3523  -3078  -2630  -2203  -1802  -1485  -1329  -1396  -1744  -2323  -2955  -3490  -3881  -4119  -4196  -4053  -3611  -2907  -2073  -1199  -323  577  1437  1972  2147  2453  3294  4756  6895  9380  11127  11041  8906  5440  1867  -581  -1336  -834  -86  96  -405  -1136  -1615  -1697  -1451  -961  -326  296  763  1046  1225  1364  1465  1493  1374  1025  464  -179  -746  -1124  -1290  -1291  -1203  -1130  -1180  -1415  -1772  -2125  -2420  -2659  -2852  -3050  -3263  -3380  -3295  -3079  -2932  -2944  -2994  -2986  -3186  -4173  -6167  -8503  -10221  -10991  -11022  -10292  -8461  -5529  -2252  307  1629  2032  2183  2455  2796  3033  3203  3553  4256  5221  6186  6922  7333  7486  7532  7535  7352  6766  5785  4616  3461  2548  2078  2014  2156  2365  2601  2870  3131  3303  3347  3298  3235  3230  3291  3375  3460  3534  3485  3072  2177  1083  245  -197  -396  -474  -455  -337  -129  91  216  208  150  255  815  1888  3049  3748  3794  3345  2715  2235  2016  1889  1650  1309  1008  759  445  76  -169  -87  420  1184  1833  2170  2294  2351  2400  2462  2545  2599  2596  2582  2483  1986  882  -490  -1502  -1923  -2002  -2009  -2013  -1989  -1923  -1795  -1562  -1241  -922  -657  -439  -266  -105  151  546  951  1189  1163  834  278  -285  -677  -903  -1059  -1206  -1356  -1501  -1619  -1691  -1699  -1617  -1426  -1175  -920  -579  -22  645  1143  1359  1392  1353  1256  1003  487  -239  -963  -1506  -1812  -1901  -1765  -1350  -691  53  765  1419  1973  2379  2667  2885  3024  3069  2998  2755  2292  1554  481  -796  -1975  -2859  -3478  -3984  -4449  -4796  -4938  -4803  -4278  -3386  -2380  -1464  -602  288  1159  1938  2572  2958  2973  2497  1500  162  -1216  -2471  -3634  -4709  -5524  -5761  -5194  -4038  -2720  -1333  314  2445  5235  8469  11291  12726  12399  10650  8272  6097  4465  3224  2164  1193  270  -608  -1388  -1946  -2171  -2047  -1619  -984  -339  118  442  844  1338  1710  1849  1834  1751  1612  1443  1306  1230  1211  1227  1259  1297  1298  1182  972  802  734  701  624  488  338  227  163  149  279  668  1231  1715  2007  2196  2396  2707  3200  3766  4158  4238  4044  3676  3272  2962  2794  2733  2745  2862  3163  3697  4416  5152  5705  5997  6097  6094  6007  5842  5653  5492  5291  4919  4328  3539  2538  1372  265  -535  -993  -1273  -1558  -1900  -2235  -2532  -2790  -2957  -2935  -2651  -2159  -1677  -1403  -1327  -1357  -1485  -1759  -2151  -2566  -2917  -3141  -3248  -3360  -3606  -3943  -4203  -4292  -4223  -4023  -3750  -3529  -3436  -3381  -3178  -2738  -2220  -1886  -1874  -2159  -2607  -3040  -3331  -3451  -3472  -3539  -3755  -4064  -4325  -4529  -4843  -5392  -6090  -6782  -7455  -8239  -9249  -10431  -11522  -12247  -12560  -12629  -12630  -12617  -12505  -12148  -11502  -10650  -9568  -8092  -6289  -4555  -3285  -2586  -2261  -2036  -1812  -1628  -1483  -1316  -1074  -746  -366  24  400  724  956  1093  1158  1175  1172  1180  1217  1271  1312  1329  1339  1384  1539  1865  2289  2644  2847  2939  3055  3414  4144  5067  5825  6235  6395  6510  6723  7031  7305  7433  7396  7224  7000  6819  6674  6482  6201  5837  5402  4933  4486  4119  3880  3749  3670  3622  3597  3577  3509  3317  2999  2683  2507  2482  2523  2588  2727  3000  3391  3806  4125  4284  4314  4295  4267  4210  4051  3677  3019  2146  1188  255  -552  -1208  -1734  -2169  -2624  -3190  -3802  -4217  -4132  -3468  -2419  -1248  -143  926  2257  4017  5831  6906  6470  4243  835  -2497  -4768  -5761  -5871  -5751  -5859  -6248  -6805  -7385  -7824  -8032  -8003  -7634  -6681  -5038  -3034  -1202  210  1214  1809  2052  2129  2215  2390  2648  2928  3189  3441  3701  4005  4396  4837  5241  5611  5980  6291  6453  6467  6386  6110  5338  3954  2436  1459  1124  1001  756  490  478  714  969  1262  1872  2823  3705  4158  4205  4048  3844  3677  3573  3514  3485  3478  3495  3536  3581  3581  3511  3415  3366  3357  3306  3163  2994  2883  2757  2369  1547  445  -621  -1566  -2428  -3095  -3488  -3741  -4008  -4304  -4562  -4723  -4781  -4751  -4627  -4485  -4464  -4603  -4816  -5054  -5351  -5679  -5915  -5987  -5902  -5655  -5243  -4738  -4184  -3412  -2215  -779  371  931  1022  900  725  529  287  -45  -540  -1196  -1871  -2408  -2758  -2947  -3044  -3127  -3211  -3231  -3114  -2856  -2498  -1992  -1248  -354  489  1249  1923  2373  2520  2388  1919  1043  -52  -1032  -1803  -2481  -3065  -3403  -3378  -3095  -2812  -2628  -2402  -2005  -1527  -1085  -504  473  1758  2969  3720  3702  2856  1481  13  -1325  -2696  -4304  -6109  -7874  -9196  -9757  -9598  -8943  -8022  -6991  -5873  -4696  -3508  -2283  -1014  230  1357  2195  2588  2554  2213  1720  1246  876  554  163  -317  -800  -1242  -1603  -1739  -1560  -1203  -879  -538  85  1009  1866  2364  2530  2416  1876  818  -463  -1481  -2020  -2218  -2274  -2255  -2133  -1877  -1496  -1022  -506  -47  286  537  784  1054  1339  1583  1711  1713  1643  1565  1536  1638  1939  2371  2754  2922  2643  1618  -58  -1683  -2566  -2566  -1925  -1039  -334  30  195  319  466  648  839  983  1033  932  560  -197  -1278  -2382  -3184  -3591  -3746  -3830  -3913  -3980  -3998  -3910  -3644  -3181  -2627  -2159  -1855  -1634  -1344  -764  281  1614  2719  3243  3251  2972  2597  2258  1993  1779  1602  1472  1434  1591  2042  2774  3709  4770  5813  6643  7160  7473  7831  8439  9372  10512  11512  12051  12030  11442  10397  9231  8217  7339  6466  5519  4494  3533  2835  2449  2276  2235  2287  2374  2433  2454  2482  2552  2645  2695  2548  1944  824  -372  -1102  -1293  -1237  -1147  -1051  -908  -654  -211  367  864  1152  1341  1618  2048  2511  2835  2977  3011  2948  2666  2085  1352  712  258  -53  -274  -422  -487  -467  -375  -216  -23  106  116  35  -137  -441  -791  -1019  -1108  -1269  -1736  -2491  -3310  -4087  -4881  -5715  -6484  -7047  -7363  -7482  -7441  -7261  -7008  -6747  -6441  -5990  -5433  -4958  -4702  -4641  -4675  -4733  -4851  -5128  -5539  -5903  -6088  -6133  -6150  -6189  -6151  -5790  -4961  -3929  -3150  -2753  -2551  -2340  -1879  -983  119  939  1284  1319  1239  1125  990  837  673  464  139  -367  -1053  -1751  -2228  -2429  -2461  -2328  -1887  -1074  -17  1054  1904  2457  2829  3113  3285  3317  3264  3183  3036  2725  2216  1565  865  217  -352  -907  -1432  -1744  -1591  -872  118  833  1010  786  424  141  16  -19  -64  -152  -348  -882  -1920  -3148  -4003  -4257  -3985  -3287  -2425  -1787  -1470  -1296  -1158  -1075  -1053  -1052  -1013  -897  -734  -592  -512  -483  -478  -475  -470  -481  -545  -695  -914  -1141  -1275  -1094  -323  1024  2613  4135  5408  6273  6670  6577  5864  4538  3077  2095  1750  1762  1845  1893  1890  1814  1622  1281  801  241  -293  -694  -914  -946  -743  -305  241  810  1462  2170  2743  3075  3231  3321  3411  3494  3520  3462  3331  3126  2760  2153  1403  727  256  -21  -179  -271  -312  -298  -225  -109  36  217  430  625  736  757  754  810  975  1256  1606  1972  2349  2728  3063  3375  3747  4147  4446  4596  4660  4691  4668  4514  4148  3560  2832  2048  1250  508  -32  -294  -382  -457  -608  -851  -1138  -1369  -1508  -1648  -1910  -2262  -2564  -2787  -2993  -3176  -3256  -3125  -2719  -2135  -1584  -1202  -990  -809  -422  302  1221  2020  2463  2507  2176  1509  624  -335  -1285  -2170  -2931  -3483  -3793  -3957  -4082  -4145  -4059  -3788  -3379  -2933  -2508  -2048  -1511  -1023  -741  -667  -691  -718  -715  -697  -695  -740  -838  -957  -1048  -1107  -1169  -1247  -1282  -1228  -1136  -1074  -1017  -867  -560  -140  292  674  931  864  148  -1290  -2916  -3992  -4305  -4168  -3945  -3792  -3644  -3386  -3038  -2649  -2082  -1121  176  1401  2153  2394  2371  2303  2256  2204  2094  1837  1337  599  -189  -781  -1064  -1119  -1092  -1038  -918  -712  -464  -157  375  1214  2101  2675  2854  2723  2285  1537  594  -399  -1373  -2305  -3117  -3657  -3817  -3586  -3068  -2507  -2126  -1934  -1819  -1732  -1684  -1689  -1752  -1862  -1990  -2113  -2244  -2425  -2633  -2776  -2817  -2810  -2828  -2891  -2952  -2958  -2918  -2855  -2732  -2478  -2091  -1700  -1445  -1315  -1158  -864  -492  -180  41  211  318  354  359  368  346  193  -160  -650  -1105  -1368  -1299  -858  -219  480  1388  2709  4641  7325  10312  12551  13085  11509  8170  4266  1252  -154  -172  490  880  347  -806  -1785  -2182  -2000  -1328  -414  341  744  913  1109  1580  2380  3240  3816  4001  3802  3160  2172  1176  415  -158  -708  -1244  -1606  -1739  -1745  -1671  -1441  -975  -305  427  1094  1673  2177  2572  2816  2915  2887  2688  2292  1807  1385  1074  859  719  593  407  163  -72  -224  -181  217  1015  1956  2697  3144  3426  3671  3939  4269  4657  5002  5189  5165  4907  4465  3981  3520  2973  2257  1493  879  497  314  264  309  484  839  1330  1819  2187  2416  2525  2501  2293  1889  1429  1110  967  875  747  554  236  -202  -618  -874  -928  -783  -472  -42  482  1057  1599  2066  2455  2773  3054  3339  3609  3731  3478  2706  1629  731  225  -112  -510  -922  -1239  -1455  -1580  -1552  -1257  -684  -43  416  684  945  1350  1840  2203  2324  2207  1828  1118  102  -1051  -2180  -3238  -4200  -5006  -5615  -6006  -6187  -6220  -6148  -5929  -5525  -4982  -4393  -3823  -3308  -2874  -2561  -2387  -2347  -2505  -3048  -4098  -5449  -6643  -7382  -7685  -7745  -7729  -7617  -7210  -6304  -4927  -3374  -1954  -835  -76  415  844  1308  1714  1916  1852  1515  855  -109  -1077  -1695  -1926  -1922  -1762  -1489  -1204  -966  -622  64  1020  1877  2416  2747  3087  3584  4242  4883  5265  5213  4649  3684  2587  1526  478  -683  -2028  -3391  -4479  -5132  -5404  -5465  -5393  -5061  -4369  -3551  -2998  -2823  -2873  -3033  -3309  -3775  -4509  -5499  -6646  -7867  -9069  -10096  -10797  -11110  -11042  -10621  -9933  -9057  -7923  -6502  -4960  -3393  -1713  210  2511  5257  8094  10086  10219  8058  4175  -23  -3221  -4846  -5103  -4671  -4140  -3667  -3102  -2334  -1405  -318  868  1920  2734  3405  3963  4363  4565  4512  4121  3381  2391  1260  152  -723  -1280  -1543  -1496  -1060  -262  628  1347  1950  2683  3656  4727  5586  6027  6095  5876  5338  4456  3330  2175  1165  322  -396  -973  -1347  -1525  -1562  -1401  -894  -65  920  2019  3152  4053  4679  5363  6334  7459  8432  9010  9101  8663  7677  6331  4917  3532  2183  1079  436  158  -22  -260  -557  -835  -999  -958  -620  2  697  1199  1411  1412  1311  1177  1057  985  962  976  1017  1055  988  654  16  -684  -1120  -1177  -945  -583  -261  -49  134  462  1057  1793  2351  2564  2507  2291  1957  1555  1122  604  -70  -891  -1740  -2418  -2805  -2952  -2955  -2851  -2667  -2437  -2105  -1477  -469  620  1392  1790  1989  2049  1908  1528  941  235  -558  -1513  -2501  -3169  -3383  -3305  -3086  -2807  -2552  -2327  -2020  -1565  -1066  -636  -243  221  766  1232  1448  1375  1054  503  -250  -1146  -2126  -3061  -3763  -4153  -4269  -4064  -3418  -2467  -1637  -1197  -1034  -889  -602  -143  406  862  1054  936  556  7  -563  -1037  -1438  -1831  -2195  -2485  -2703  -2849  -2823  -2400  -1475  -380  385  759  1083  1543  1994  2259  2320  2170  1749  1130  563  177  -146  -568  -1139  -1814  -2473  -2963  -3223  -3324  -3362  -3363  -3268  -2985  -2441  -1574  -446  626  1326  1675  1877  2036  2167  2279  2305  2005  1075  -506  -2226  -3427  -3947  -4064  -4034  -3934  -3776  -3593  -3395  -3102  -2543  -1598  -269  1395  3435  5882  8446  10445  11101  9921  7078  3414  41  -2227  -3266  -3465  -3328  -3184  -3062  -2814  -2330  -1697  -1111  -609  -114  433  1123  1954  2804  3614  4307  4730  4875  4887  4851  4755  4578  4290  3826  3167  2454  1909  1653  1705  2117  2860  3666  4221  4460  4518  4529  4546  4558  4487  4263  3933  3640  3455  3324  3162  2905  2522  2080  1737  1573  1523  1488  1418  1273  1025  720  466  383  600  1195  2102  3048  3687  3893  3796  3560  3273  2976  2704  2508  2423  2381  2211  1805  1273  822  447  -129  -1107  -2268  -3193  -3692  -3858  -3856  -3778  -3648  -3500  -3399  -3372  -3388  -3415  -3433  -3434  -3409  -3361  -3358  -3568  -4137  -5001  -5891  -6540  -6859  -6940  -6917  -6826  -6593  -6138  -5453  -4671  -4035  -3629  -3240  -2590  -1643  -655  54  374  439  418  360  219  -40  -359  -617  -766  -823  -780  -594  -262  153  577  949  1242  1489  1734  1952  2076  2061  1908  1660  1349  962  544  245  139  137  69  -177  -548  -862  -1013  -1044  -1008  -876  -603  -244  79  282  367  387  382  324  160  -76  -281  -409  -513  -651  -831  -1027  -1208  -1336  -1369  -1259  -957  -506  -84  152  200  100  -137  -471  -799  -1028  -1100  -1011  -859  -796  -908  -1143  -1381  -1560  -1687  -1782  -1841  -1863  -1883  -1948  -2048  -2121  -2133  -2125  -2143  -2177  -2153  -1948  -1484  -879  -376  -54  198  485  822  1145  1356  1432  1408  1276  1005  640  321  175  210  339  487  657  869  1089  1282  1452  1602  1682  1586  1231  718  309  225  612  1572  3013  4488  5425  5530  4793  3411  1893  808  329  217  209  250  383  610  865  1059  1150  1090  760  105  -696  -1341  -1669  -1754  -1726  -1625  -1448  -1236  -1081  -1052  -1145  -1308  -1482  -1589  -1518  -1177  -632  -59  457  901  1193  1267  1103  681  63  -557  -979  -1113  -1004  -763  -498  -280  -146  -83  -52  -27  -8  24  166  547  1174  1856  2349  2549  2518  2379  2242  2177  2184  2230  2278  2252  2041  1603  1076  677  516  587  864  1249  1560  1707  1753  1787  1830  1884  1958  2032  1988  1618  837  -159  -1101  -1861  -2384  -2620  -2510  -1976  -1102  -235  307  504  516  482  469  528  682  881  1032  1094  1047  773  115  -891  -1906  -2562  -2736  -2374  -1408  -156  737  984  809  534  348  287  296  320  339  338  274  123  -63  -191  -224  -199  -188  -279  -524  -845  -1103  -1248  -1317  -1344  -1347  -1344  -1352  -1373  -1371  -1290  -1121  -936  -804  -732  -701  -686  -657  -604  -552  -543  -583  -656  -788  -1028  -1355  -1661  -1862  -1957  -1980  -1934  -1768  -1457  -1048  -645  -343  -165  -71  0  113  298  506  671  800  915  961  835  510  113  -173  -291  -294  -221  -73  104  228  264  246  217  200  215  274  365  458  532  571  547  409  98  -437  -1150  -1842  -2290  -2420  -2325  -2145  -1961  -1730  -1391  -986  -605  -283  0  264  476  580  559  440  259  51  -148  -328  -542  -869  -1257  -1524  -1569  -1417  -1129  -811  -600  -539  -565  -605  -600  -482  -224  88  315  387  296  57  -239  -460  -561  -589  -685  -1126  -2113  -3374  -4069  -3356  -1275  1276  3578  5527  7223  8679  9602  9431  7916  5507  3003  1022  -212  -824  -1117  -1304  -1336  -1218  -1199  -1371  -1560  -1652  -1662  -1626  -1557  -1475  -1409  -1369  -1282  -1035  -600  -72  402  705  809  758  613  451  346  302  259  164  18  -115  -162  -112  -11  119  255  345  384  433  551  714  851  926  954  953  937  920  907  896  902  954  1071  1220  1350  1428  1427  1370  1368  1473  1604  1719  1884  2132  2377  2528  2586  2588  2539  2431  2288  2165  2099  2098  2141  2161  2017  1598  1013  503  125  -195  -462  -653  -781  -826  -771  -670  -619  -666  -775  -873  -915  -875  -724  -487  -258  -104  -32  -36  -118  -276  -497  -748  -978  -1117  -1093  -856  -421  105  569  843  923  908  902  1042  1490  2213  2906  3292  3311  2965  2279  1413  570  -174  -838  -1495  -2257  -3035  -3545  -3675  -3568  -3399  -3265  -3198  -3189  -3188  -3048  -2577  -1798  -1035  -571  -436  -635  -1283  -2307  -3347  -4107  -4537  -4657  -4484  -4088  -3572  -3022  -2480  -1961  -1488  -1112  -861  -659  -321  314  1227  2142  2707  2781  2452  1881  1198  451  -281  -879  -1342  -1721  -1975  -2032  -1831  -1340  -681  -105  263  504  727  951  1151  1295  1354  1340  1303  1266  1182  985  647  205  -278  -764  -1203  -1532  -1719  -1769  -1682  -1443  -1101  -774  -517  -276  -10  245  493  805  1160  1428  1532  1473  1206  671  -69  -820  -1384  -1681  -1765  -1736  -1638  -1468  -1240  -1039  -965  -1003  -1012  -804  -251  507  1120  1405  1335  817  37  -353  33  967  2319  4260  6531  8336  8953  7906  5167  1685  -1010  -2070  -1829  -1133  -636  -598  -780  -816  -719  -656  -617  -553  -527  -663  -1002  -1438  -1796  -2012  -2179  -2382  -2572  -2651  -2600  -2492  -2410  -2371  -2327  -2193  -1873  -1369  -837  -430  -155  58  235  341  341  263  173  95  -2  -169  -431  -764  -1124  -1533  -2043  -2574  -2921  -2952  -2697  -2289  -1864  -1441  -957  -402  110  431  533  531  562  717  1015  1380  1702  1962  2248  2616  2973  3182  3227  3196  3168  3161  3139  3060  2913  2738  2584  2474  2413  2406  2465  2595  2749  2859  2909  2920  2886  2786  2654  2556  2483  2347  2107  1846  1664  1540  1367  1068  643  166  -228  -457  -564  -660  -812  -1009  -1188  -1285  -1279  -1192  -1074  -976  -908  -860  -815  -748  -660  -565  -477  -410  -354  -285  -241  -303  -491  -719  -888  -1019  -1263  -1727  -2280  -2652  -2765  -2774  -2850  -3060  -3362  -3644  -3795  -3811  -3794  -3811  -3804  -3666  -3397  -3097  -2793  -2360  -1683  -863  -170  200  288  212  8  -325  -734  -1135  -1486  -1762  -1916  -1916  -1772  -1491  -1122  -787  -576  -491  -486  -517  -561  -585  -503  -230  168  498  618  483  102  -380  -728  -847  -810  -699  -569  -460  -356  -193  32  240  376  464  529  590  663  723  734  752  946  1452  2127  2626  2797  2777  2727  2712  2737  2793  2873  2974  3064  3111  3148  3271  3530  3838  4070  4194  4215  4023  3484  2738  2143  1884  1857  1848  1670  1268  779  383  155  67  48  27  6  45  132  110  -187  -694  -997  -571  968  3654  6721  8757  8686  6455  2953  -464  -2633  -3197  -2772  -2346  -2388  -2674  -2882  -2979  -3069  -3154  -3144  -3045  -2956  -2896  -2749  -2430  -2030  -1740  -1712  -2061  -2784  -3591  -4105  -4249  -4204  -4105  -3956  -3732  -3465  -3200  -2878  -2337  -1525  -684  -147  35  99  303  778  1460  2100  2457  2458  2122  1530  877  359  4  -303  -601  -806  -873  -845  -755  -588  -327  6  402  952  1798  2924  4052  4825  5093  4971  4668  4282  3794  3236  2729  2369  2174  2080  1953  1689  1304  890  528  279  203  370  810  1433  2061  2557  2933  3236  3364  3199  2765  2082  1208  431  80  192  375  62  -957  -2355  -3422  -3453  -2352  -821  243  536  404  269  240  242  220  125  -119  -571  -1219  -1965  -2692  -3344  -3860  -4141  -4167  -4018  -3781  -3466  -2978  -2210  -1168  -10  960  1503  1635  1461  974  232  -543  -1213  -1811  -2300  -2573  -2686  -2827  -3087  -3378  -3523  -3438  -3205  -2919  -2603  -2256  -1839  -1326  -810  -429  -226  -141  -108  -129  -252  -507  -853  -1178  -1362  -1340  -1100  -714  -333  -37  206  421  589  719  859  1034  1236  1428  1554  1580  1503  1329  1102  895  762  711  714  726  709  642  551  490  476  488  535  717  1104  1505  1586  1306  942  701  587  512  370  78  -350  -806  -1186  -1440  -1565  -1586  -1499  -1247  -825  -336  85  363  499  557  614  721  872  1022  1106  1006  596  -47  -627  -934  -1033  -1136  -1430  -1950  -2504  -2783  -2563  -1836  -750  593  2322  4556  7025  9007  9587  8322  5804  3243  1606  1127  1274  1259  762  65  -477  -864  -1231  -1544  -1675  -1599  -1428  -1271  -1099  -812  -401  40  471  919  1346  1643  1746  1623  1252  742  247  -263  -890  -1581  -2177  -2552  -2709  -2746  -2736  -2681  -2567  -2430  -2300  -2059  -1520  -686  207  908  1332  1573  1745  1853  1850  1722  1502  1254  1030  862  745  655  597  593  669  834  1049  1285  1613  2110  2733  3381  4001  4559  5002  5269  5268  4834  3877  2632  1464  497  -336  -1127  -1943  -2714  -3264  -3528  -3591  -3515  -3289  -2934  -2505  -1991  -1378  -786  -348  -32  260  557  798  898  830  662  448  204  -30  -222  -395  -565  -697  -732  -623  -403  -159  56  220  318  382  501  750  1078  1339  1456  1461  1372  1148  790  403  120  -3  7  102  229  348  422  406  258  -4  -271  -443  -515  -522  -504  -503  -519  -509  -436  -263  7  278  428  421  298  146  44  10  35  78  37  -111  -255  -312  -307  -292  -292  -306  -324  -350  -426  -631  -1013  -1466  -1782  -1893  -1899  -1897  -1891  -1819  -1591  -1173  -669  -272  -82  -75  -254  -630  -1087  -1427  -1566  -1560  -1511  -1494  -1560  -1765  -2117  -2485  -2705  -2743  -2669  -2558  -2491  -2575  -2888  -3345  -3736  -3942  -4000  -3987  -3962  -3950  -3951  -3954  -3942  -3904  -3845  -3760  -3650  -3530  -3386  -3185  -2914  -2586  -2248  -1962  -1769  -1629  -1416  -1054  -637  -341  -218  -164  -6  390  926  1315  1384  1187  895  680  604  621  651  575  246  -362  -1076  -1582  -1472  -412  1632  4358  7132  9117  9635  8501  6148  3471  1403  475  671  1391  1766  1516  1042  675  447  294  177  138  209  314  339  280  245  310  473  673  811  835  760  632  528  490  470  408  293  171  101  107  164  234  300  411  613  859  1032  1082  1080  1156  1358  1605  1797  1893  1862  1628  1183  701  413  369  468  646  900  1175  1358  1429  1515  1773  2212  2667  2976  3139  3260  3400  3536  3615  3617  3522  3265  2805  2205  1569  968  434  27  -194  -259  -245  -165  29  323  633  909  1152  1366  1542  1658  1703  1656  1445  994  326  -439  -1224  -1988  -2600  -2917  -2921  -2669  -2267  -1933  -1884  -2146  -2480  -2398  -1580  -384  545  1000  1178  1355  1715  2119  1998  916  -802  -2372  -3170  -2890  -1820  -916  -797  -1108  -1269  -1124  -820  -540  -327  -97  189  470  670  782  840  876  889  867  817  765  716  632  482  295  110  -117  -473  -917  -1285  -1469  -1505  -1472  -1419  -1367  -1308  -1150  -748  -92  582  1008  1145  1126  1037  876  684  559  529  486  274  -153  -648  -1002  -1143  -1126  -1032  -922  -838  -785  -748  -726  -718  -714  -703  -700  -752  -895  -1084  -1222  -1264  -1225  -1123  -952  -707  -465  -369  -481  -714  -920  -973  -861  -673  -498  -375  -318  -327  -389  -473  -531  -507  -371  -169  -17  -37  -306  -775  -1263  -1617  -1828  -1970  -2105  -2247  -2375  -2450  -2438  -2364  -2293  -2249  -2189  -2051  -1783  -1416  -1093  -914  -848  -829  -786  -664  -495  -417  -562  -948  -1425  -1647  -1306  -579  17  334  715  1589  3305  5805  8295  9654  9089  6599  3162  132  -1647  -2112  -1698  -956  -419  -440  -860  -1266  -1506  -1649  -1736  -1782  -1808  -1812  -1741  -1540  -1249  -992  -829  -726  -645  -595  -581  -585  -582  -560  -529  -512  -522  -545  -564  -574  -590  -635  -704  -739  -724  -725  -735  -680  -550  -384  -218  -96  -38  -42  -131  -294  -451  -545  -588  -611  -625  -613  -516  -285  22  267  383  424  543  982  1852  2850  3504  3700  3664  3577  3443  3201  2809  2246  1589  1038  705  516  375  276  227  208  200  233  382  701  1124  1491  1711  1824  1886  1906  1882  1843  1806  1721  1523  1247  1027  937  945  983  993  897  661  412  360  532  756  904  972  998  1011  1028  1059  1088  1099  1108  1137  1172  1188  1188  1186  1182  1134  966  667  332  47  -161  -250  -211  -142  -130  -161  -187  -182  -173  -213  -297  -375  -408  -382  -308  -205  -109  -55  -50  -67  -87  -135  -258  -480  -795  -1132  -1375  -1470  -1450  -1363  -1244  -1128  -1039  -972  -905  -836  -784  -728  -616  -458  -331  -313  -450  -731  -1044  -1247  -1327  -1393  -1564  -1842  -2128  -2334  -2427  -2430  -2406  -2398  -2396  -2346  -2189  -1896  -1514  -1101  -639  -155  186  250  5  -520  -1210  -1840  -2189  -2172  -1851  -1423  -1118  -1013  -1016  -999  -832  -413  208  841  1292  1499  1538  1511  1439  1273  980  526  -140  -898  -1343  -1201  -577  448  1964  3926  6060  7841  8573  7777  5600  2899  842  116  485  1200  1528  1117  266  -507  -1061  -1497  -1842  -2064  -2157  -2144  -2059  -1947  -1845  -1750  -1631  -1465  -1260  -1068  -945  -907  -956  -1096  -1296  -1478  -1586  -1634  -1640  -1541  -1237  -760  -302  -38  18  -43  -126  -159  -124  -65  -12  99  383  820  1245  1522  1649  1695  1741  1849  2004  2151  2271  2402  2579  2800  3021  3151  3070  2751  2380  2234  2430  2826  3176  3356  3389  3357  3342  3352  3329  3269  3200  3020  2497  1569  537  -211  -591  -803  -1044  -1323  -1546  -1708  -1888  -2097  -2270  -2357  -2347  -2194  -1846  -1345  -865  -588  -556  -681  -852  -991  -1095  -1189  -1283  -1398  -1551  -1717  -1863  -1952  -1919  -1681  -1245  -764  -381  -108  97  257  354  357  271  128  -72  -331  -632  -998  -1458  -1926  -2243  -2350  -2286  -2085  -1788  -1443  -1059  -688  -455  -423  -512  -527  -331  -14  229  335  349  263  9  -385  -748  -918  -914  -867  -833  -741  -569  -446  -499  -712  -974  -1184  -1273  -1176  -900  -555  -271  -121  -85  -92  -110  -157  -278  -530  -953  -1443  -1790  -1909  -1869  -1726  -1502  -1243  -992  -786  -669  -648  -675  -687  -663  -641  -670  -734  -791  -829  -862  -907  -956  -987  -988  -964  -934  -909  -869  -783  -667  -552  -398  -95  400  971  1423  1657  1660  1420  989  488  -6  -526  -1081  -1547  -1785  -1787  -1639  -1440  -1252  -1060  -843  -603  -272  116  360  508  924  1865  3439  5654  8020  9608  9714  8211  5563  2699  523  -681  -1151  -1036  -509  -61  26  -25  57  341  742  1088  1264  1275  1151  902  590  307  107  -7  -69  -123  -191  -261  -310  -330  -323  -279  -176  5  267  571  842  1043  1263  1608  2007  2269  2266  1987  1539  1124  865  743  696  675  646  612  595  629  823  1292  1960  2566  2927  3066  3123  3242  3478  3751  3932  3945  3755  3383  2955  2584  2270  2002  1815  1684  1474  1059  481  -56  -394  -537  -549  -464  -325  -207  -203  -445  -1009  -1699  -2174  -2312  -2244  -2113  -2002  -1965  -2016  -2103  -2134  -2051  -1877  -1671  -1461  -1247  -1012  -714  -315  142  520  708  703  566  369  162  -53  -259  -400  -467  -518  -581  -602  -521  -368  -235  -167  -121  -28  115  242  310  318  245  22  -356  -765  -1080  -1312  -1504  -1628  -1673  -1673  -1653  -1585  -1442  -1262  -1132  -1089  -1097  -1127  -1187  -1296  -1449  -1646  -1925  -2251  -2494  -2593  -2620  -2653  -2697  -2718  -2711  -2664  -2457  -1965  -1291  -736  -484  -460  -509  -540  -515  -409  -256  -174  -327  -796  -1448  -2033  -2426  -2654  -2742  -2630  -2266  -1778  -1423  -1312  -1354  -1431  -1434  -1213  -686  -30  440  611  595  491  326  131  -36  -161  -267  -364  -440  -507  -624  -823  -985  -902  -572  -202  52  216  387  595  777  891  946  953  919  862  795  682  485  250  86  28  21  14  2  -4  -6  -13  -25  -3  128  404  703  825  712  479  314  526  1530  3497  6105  8650  10261  10301  8764  6247  3645  1669  517  -3  -184  -252  -303  -346  -382  -386  -306  -163  -67  -109  -255  -393  -466  -484  -411  -163  261  744  1129  1297  1221  999  789  690  681  667  555  332  67  -184  -429  -668  -862  -912  -711  -307  95  372  545  653  712  723  693  640  586  553  564  620  669  599  250  -418  -1163  -1616  -1574  -1064  -352  184  389  390  419  679  1222  1900  2493  2901  3142  3223  3159  3022  2814  2430  1846  1197  660  320  123  -16  -125  -227  -356  -499  -610  -662  -661  -624  -563  -469  -295  -15  301  532  607  491  151  -302  -629  -676  -467  -135  147  288  315  291  252  219  222  289  414  554  658  693  609  337  -83  -480  -723  -816  -827  -815  -797  -758  -680  -575  -490  -449  -428  -396  -341  -229  -9  280  481  424  62  -446  -836  -1029  -1199  -1577  -2220  -2912  -3371  -3542  -3584  -3652  -3769  -3871  -3918  -3928  -3941  -3975  -3999  -3929  -3678  -3237  -2728  -2333  -2139  -2092  -2108  -2176  -2304  -2450  -2559  -2578  -2470  -2292  -2144  -2024  -1858  -1652  -1476  -1305  -982  -403  291  822  1066  1116  1060  897  674  519  489  516  519  495  486  497  486  411  252  67  -42  -65  -84  -172  -302  -337  -171  138  472  712  745  612  483  474  584  766  960  1114  1175  1093  854  518  231  193  470  843  1093  1340  1963  3418  5905  8768  10536  10006  7244  3528  536  -618  -98  943  1442  1123  396  -198  -455  -475  -398  -281  -145  -33  20  7  -68  -181  -283  -316  -193  166  681  1115  1319  1344  1292  1202  1093  1000  952  946  979  1057  1184  1322  1411  1439  1435  1427  1412  1381  1351  1372  1472  1578  1544  1293  913  578  423  445  545  683  912  1243  1611  1926  2137  2270  2399  2616  3007  3497  3843  3866  3566  3099  2670  2349  2070  1769  1375  802  154  -290  -441  -483  -596  -775  -900  -920  -882  -832  -806  -881  -1155  -1584  -1962  -2136  -2140  -2110  -2178  -2409  -2720  -2939  -3006  -2993  -2972  -2963  -2952  -2932  -2921  -2945  -2964  -2820  -2349  -1638  -995  -590  -342  -148  -19  -47  -293  -645  -894  -980  -1035  -1222  -1615  -2120  -2535  -2743  -2795  -2774  -2685  -2451  -2003  -1404  -842  -455  -207  12  227  392  485  525  521  406  97  -353  -786  -1111  -1320  -1416  -1427  -1402  -1377  -1364  -1363  -1355  -1280  -1057  -697  -333  -90  9  25  21  10  -53  -241  -603  -1072  -1465  -1678  -1778  -1855  -1918  -1959  -1982  -1963  -1824  -1519  -1145  -872  -755  -708  -617  -438  -203  16  151  159  21  -250  -594  -895  -1062  -1095  -1060  -1013  -974  -944  -946  -1012  -1126  -1210  -1184  -1029  -821  -616  -255  485  1610  3020  4687  6466  7938  8457  7460  4992  1843  -935  -2551  -2803  -2189  -1456  -981  -757  -658  -570  -493  -468  -442  -330  -130  74  235  384  510  475  144  -398  -880  -1124  -1163  -1102  -1017  -944  -893  -839  -732  -548  -341  -166  55  446  937  1301  1426  1333  1054  676  354  190  173  240  309  337  400  666  1179  1732  2063  2129  2076  2067  2222  2576  3066  3588  4029  4321  4544  4828  5152  5405  5569  5681  5710  5566  5197  4611  3849  3059  2481  2215  2111  1892  1381  723  252  97  126  188  212  134  -96  -410  -651  -753  -792  -878  -1053  -1265  -1434  -1533  -1579  -1597  -1601  -1601  -1605  -1615  -1614  -1557  -1418  -1246  -1126  -1085  -1082  -1089  -1107  -1144  -1189  -1225  -1246  -1251  -1223  -1136  -1000  -844  -661  -421  -167  6  74  100  116  65  -81  -243  -349  -405  -431  -459  -564  -814  -1171  -1494  -1674  -1748  -1819  -1902  -1925  -1837  -1682  -1535  -1424  -1340  -1273  -1215  -1148  -1048  -911  -773  -685  -699  -834  -1020  -1195  -1378  -1567  -1694  -1730  -1711  -1673  -1635  -1604  -1582  -1551  -1483  -1371  -1220  -1047  -903  -863  -944  -1070  -1159  -1203  -1225  -1220  -1140  -938  -666  -451  -352  -324  -312  -294  -276  -259  -237  -206  -173  -156  -165  -186  -193  -171  -125  -80  -77  -170  -402  -706  -924  -976  -906  -798  -699  -603  -511  -448  -428  -426  -425  -436  -493  -621  -823  -1102  -1432  -1729  -1860  -1662  -1022  52  1452  3141  5157  7290  8979  9536  8475  5993  3061  773  -378  -648  -627  -743  -1021  -1218  -1226  -1170  -1153  -1174  -1220  -1277  -1320  -1334  -1311  -1243  -1152  -1080  -1054  -1058  -1058  -1040  -1019  -1003  -983  -950  -909  -864  -809  -741  -659  -519  -225  229  712  1122  1452  1687  1797  1775  1625  1382  1125  936  837  768  643  449  258  145  136  240  465  808  1241  1697  2106  2452  2735  2968  3200  3423  3569  3620  3634  3640  3581  3350  2901  2326  1768  1312  989  798  700  650  615  570  477  306  99  -41  -59  12  87  97  65  68  125  183  200  171  123  71  -17  -163  -311  -433  -583  -778  -968  -1111  -1205  -1256  -1250  -1135  -852  -393  159  670  1043  1252  1326  1308  1210  1033  824  646  471  202  -138  -415  -554  -569  -493  -392  -327  -305  -292  -237  -114  44  190  326  478  621  687  645  545  464  432  429  414  331  102  -339  -936  -1468  -1764  -1876  -1918  -1899  -1769  -1529  -1261  -1045  -894  -731  -462  -105  205  347  321  211  101  -1  -212  -684  -1417  -2230  -2937  -3440  -3724  -3833  -3834  -3788  -3729  -3628  -3436  -3169  -2868  -2505  -2014  -1416  -852  -468  -273  -169  -45  156  393  551  546  381  149  -26  -99  -81  32  209  336  292  58  -253  -465  -490  -360  -161  -9  39  37  39  28  -5  -31  -33  -58  -191  -468  -810  -1130  -1497  -2004  -2542  -2928  -3142  -3245  -3199  -2949  -2520  -1973  -1389  -860  -461  -257  -302  -592  -992  -1293  -1404  -1397  -1356  -1318  -1317  -1434  -1738  -2191  -2688  -3117  -3340  -3329  -3185  -2931  -2496  -1716  -299  1928  4678  7209  8643  8327  6287  3400  812  -739  -1173  -981  -793  -918  -1303  -1731  -2009  -2085  -1995  -1782  -1531  -1343  -1253  -1241  -1293  -1364  -1275  -720  424  1772  2726  3131  3270  3323  3218  2947  2654  2394  2074  1686  1330  1007  633  235  -66  -221  -260  -166  136  630  1176  1633  1915  2037  2125  2287  2493  2641  2697  2692  2631  2474  2184  1788  1406  1156  1058  1107  1366  1857  2403  2780  3016  3383  4038  4785  5295  5453  5357  5126  4816  4379  3644  2501  1141  -17  -719  -1061  -1236  -1300  -1253  -1153  -1077  -1048  -1033  -995  -901  -719  -443  -145  66  134  31  -277  -738  -1187  -1488  -1576  -1461  -1240  -1023  -842  -694  -593  -530  -478  -455  -495  -576  -639  -639  -589  -536  -505  -491  -491  -545  -695  -901  -1053  -1078  -987  -832  -674  -556  -493  -472  -466  -455  -418  -354  -331  -434  -628  -760  -749  -658  -584  -538  -449  -269  -45  99  90  -23  -200  -484  -872  -1249  -1501  -1608  -1626  -1620  -1613  -1566  -1442  -1276  -1130  -958  -667  -316  -70  17  16  -9  -38  -68  -128  -268  -493  -729  -906  -1007  -1026  -963  -850  -716  -546  -358  -222  -169  -170  -214  -323  -489  -668  -842  -1024  -1183  -1254  -1230  -1165  -1095  -1018  -913  -731  -460  -187  -20  39  86  202  398  608  729  691  469  69  -414  -795  -963  -948  -814  -619  -462  -450  -607  -803  -862  -763  -599  -374  -32  367  705  913  967  866  671  484  354  244  94  -108  -336  -601  -943  -1308  -1573  -1694  -1694  -1591  -1428  -1277  -1210  -1243  -1305  -1354  -1384  -1215  -531  834  2814  5245  7803  9798  10373  9120  6422  3282  881  -101  50  505  670  464  60  -367  -720  -943  -1023  -1014  -1020  -1083  -1159  -1189  -1131  -945  -619  -247  12  76  -45  -311  -646  -964  -1205  -1338  -1367  -1324  -1225  -1084  -924  -761  -606  -475  -333  -33  521  1198  1737  2026  2135  2170  2176  2112  1907  1588  1310  1178  1149  1110  1014  922  901  916  913  950  1185  1679  2247  2634  2848  3122  3607  4190  4651  4893  4931  4808  4625  4424  4044  3233  1970  585  -499  -1084  -1205  -1028  -783  -649  -643  -723  -887  -1100  -1252  -1225  -969  -558  -158  111  228  232  181  119  42  -144  -561  -1147  -1674  -1984  -2112  -2180  -2246  -2278  -2243  -2179  -2138  -2082  -1885  -1480  -936  -403  -33  90  -1  -185  -364  -536  -720  -904  -1089  -1280  -1442  -1556  -1695  -1944  -2268  -2537  -2646  -2594  -2439  -2231  -1986  -1704  -1419  -1191  -1044  -961  -913  -896  -967  -1217  -1654  -2173  -2689  -3175  -3589  -3883  -4091  -4342  -4794  -5468  -6157  -6590  -6539  -5759  -4279  -2736  -1846  -1680  -1855  -1970  -1720  -1125  -596  -493  -837  -1500  -2302  -2960  -3175  -2867  -2308  -1855  -1629  -1610  -1707  -1645  -1226  -546  227  930  1408  1627  1670  1626  1542  1433  1301  1161  1028  873  673  458  283  168  87  21  -13  3  78  214  415  689  1028  1400  1764  2091  2380  2631  2818  2920  2938  2868  2692  2455  2219  1934  1528  1089  791  703  831  1190  1670  2049  2236  2324  2451  2703  3033  3287  3374  3298  3076  2758  2397  2044  1911  2429  4009  6675  9695  11756  11820  9846  6778  3912  2129  1511  1514  1529  1312  937  555  239  15  -98  -150  -231  -369  -525  -678  -833  -1024  -1291  -1587  -1791  -1851  -1827  -1792  -1780  -1795  -1809  -1751  -1559  -1276  -1020  -846  -706  -583  -522  -555  -637  -701  -734  -773  -834  -878  -861  -772  -637  -514  -450  -438  -419  -345  -206  6  338  768  1155  1389  1525  1687  1892  2051  2115  2125  2128  2152  2219  2312  2378  2372  2289  2174  2092  2057  2017  1891  1623  1259  930  731  639  550  362  29  -437  -987  -1515  -1921  -2171  -2290  -2361  -2474  -2627  -2756  -2885  -3082  -3268  -3259  -3036  -2777  -2611  -2514  -2406  -2244  -2044  -1862  -1731  -1624  -1518  -1467  -1500  -1527  -1403  -1094  -735  -512  -503  -670  -904  -1077  -1111  -984  -707  -362  -75  89  157  197  253  316  336  276  148  -39  -308  -607  -821  -926  -1004  -1119  -1253  -1353  -1386  -1340  -1213  -1049  -908  -755  -488  -91  300  529  564  479  319  45  -388  -869  -1193  -1301  -1299  -1312  -1388  -1501  -1587  -1604  -1521  -1302  -970  -629  -377  -231  -144  -58  49  158  227  247  240  229  231  283  423  621  782  850  849  834  875  1018  1218  1366  1410  1380  1315  1234  1152  1083  1037  1029  1043  1005  855  609  320  67  -69  -83  -43  -8  7  24  53  71  14  -170  -430  -632  -709  -680  -579  -441  -303  -181  -98  -85  -142  -257  -479  -846  -1253  -1524  -1617  -1655  -1783  -2055  -2412  -2725  -2889  -2903  -2826  -2690  -2481  -2193  -1871  -1609  -1424  -1149  -579  306  1436  2923  4930  7171  8918  9469  8415  5872  2654  -57  -1379  -1288  -593  -224  -472  -899  -970  -561  104  702  1055  1205  1205  1050  799  552  352  183  26  -114  -219  -274  -289  -292  -306  -349  -438  -545  -592  -515  -338  -131  96  380  672  866  922  870  733  560  441  444  565  732  851  901  928  962  991  1007  1013  1003  938  772  528  311  238  420  933  1656  2281  2620  2739  2817  2984  3247  3500  3614  3556  3409  3247  3025  2657  2147  1581  1067  667  319  -83  -515  -834  -960  -946  -880  -828  -825  -896  -1090  -1424  -1822  -2161  -2377  -2493  -2555  -2549  -2399  -2055  -1621  -1300  -1175  -1179  -1226  -1253  -1156  -831  -342  52  158  0  -300  -666  -1062  -1413  -1629  -1700  -1694  -1661  -1577  -1385  -1047  -569  -15  483  856  1182  1507  1750  1869  1861  1672  1315  805  64  -804  -1487  -1812  -1744  -1320  -851  -698  -817  -947  -975  -874  -574  -99  357  607  643  572  493  441  380  223  -70  -443  -783  -1017  -1148  -1197  -1170  -1092  -1021  -989  -983  -972  -917  -768  -530  -286  -117  -15  77  184  285  345  361  357  358  368  361  286  89  -232  -615  -983  -1265  -1385  -1333  -1205  -1103  -994  -764  -417  -111  20  -23  -185  -406  -606  -687  -608  -441  -311  -279  -337  -467  -636  -773  -796  -610  -181  328  668  763  727  683  706  842  1061  1267  1395  1468  1576  1805  2126  2360  2288  1793  1024  344  -23  -152  -205  -267  -361  -510  -703  -865  -936  -888  -693  -373  -50  128  66  -259  -684  -895  -712  -118  854  2080  3513  5290  7254  8711  8826  7170  4102  730  -1752  -2824  -2827  -2423  -2051  -1965  -2222  -2555  -2662  -2463  -2060  -1644  -1367  -1267  -1327  -1523  -1775  -1953  -1993  -1921  -1793  -1632  -1425  -1188  -1012  -992  -1129  -1295  -1332  -1222  -1022  -690  -176  421  950  1333  1560  1655  1639  1487  1169  751  384  175  117  138  199  336  606  967  1268  1408  1434  1496  1707  2017  2267  2385  2400  2364  2317  2266  2181  2072  1990  1957  1958  1985  2048  2120  2109  1919  1577  1241  1037  931  773  489  177  -25  -146  -325  -621  -985  -1334  -1605  -1782  -1910  -2068  -2313  -2592  -2764  -2776  -2709  -2624  -2498  -2311  -2050  -1722  -1391  -1087  -785  -518  -385  -413  -512  -589  -627  -647  -657  -640  -566  -444  -329  -277  -299  -374  -484  -607  -723  -811  -847  -785  -597  -322  -45  180  346  448  481  440  308  96  -176  -514  -855  -1072  -1114  -1041  -940  -873  -854  -862  -884  -912  -910  -801  -520  -125  218  389  380  252  80  -80  -237  -389  -489  -519  -534  -619  -831  -1166  -1515  -1698  -1599  -1293  -947  -658  -457  -348  -274  -168  -38  53  87  89  90  96  84  10  -126  -241  -241  -118  103  386  643  783  795  725  619  506  394  301  250  201  71  -158  -444  -743  -987  -1082  -995  -794  -591  -450  -376  -340  -317  -298  -276  -255  -225  -133  79  384  631  680  508  166  -254  -614  -781  -653  -188  440  891  970  726  327  -66  -369  -527  -486  -294  -128  -145  -326  -569  -857  -1174  -1420  -1509  -1455  -1394  -1399  -1194  -365  1084  2880  4952  7181  9057  9943  9354  7174  4022  1087  -708  -1219  -911  -464  -384  -737  -1221  -1536  -1628  -1583  -1448  -1241  -980  -690  -402  -142  72  224  300  264  61  -237  -441  -428  -267  -160  -228  -390  -526  -622  -688  -664  -437  29  568  938  1078  1090  1064  1030  988  898  729  529  374  306  341  452  569  661  789  1055  1453  1818  2017  2081  2093  2106  2190  2442  2860  3292  3591  3743  3793  3759  3663  3541  3384  3164  2899  2640  2400  2137  1785  1300  752  297  28  -64  -40  49  158  239  272  244  124  -80  -304  -489  -620  -694  -713  -701  -701  -761  -896  -1052  -1153  -1182  -1170  -1139  -1051  -861  -622  -456  -407  -409  -399  -375  -368  -388  -428  -502  -612  -719  -779  -789  -775  -758  -743  -735  -755  -832  -980  -1157  -1287  -1348  -1384  -1428  -1471  -1502  -1523  -1543  -1570  -1643  -1817  -2067  -2300  -2480  -2611  -2698  -2799  -2979  -3170  -3195  -3005  -2750  -2579  -2482  -2347  -2113  -1852  -1667  -1574  -1541  -1545  -1547  -1501  -1410  -1325  -1278  -1235  -1135  -976  -812  -683  -599  -540  -467  -371  -290  -255  -256  -258  -229  -155  -61  6  15  -22  -66  -86  -84  -69  -40  27  169  368  545  631  626  567  479  351  157  -83  -313  -499  -634  -719  -735  -618  -315  86  419  624  730  736  655  555  501  482  404  196  -78  -274  -323  -271  -189  -136  -170  -327  -559  -745  -758  -494  19  466  425  -131  -690  -572  485  2197  4240  6382  8126  8867  8317  6573  4135  1768  4  -1090  -1708  -2016  -1956  -1375  -498  147  348  281  140  -5  -129  -197  -212  -232  -314  -459  -621  -763  -862  -909  -921  -929  -968  -1068  -1210  -1277  -1094  -579  82  594  886  1078  1205  1206  1036  753  493  340  286  288  296  276  245  229  227  228  269  442  812  1306  1742  1982  2039  2013  1977  1961  1978  2035  2110  2164  2187  2197  2205  2200  2165  2077  1894  1598  1256  963  737  570  478  455  433  324  101  -145  -303  -355  -352  -331  -318  -373  -564  -877  -1230  -1552  -1803  -1966  -2039  -1992  -1786  -1483  -1237  -1120  -1083  -1063  -1056  -1075  -1106  -1128  -1142  -1160  -1167  -1097  -889  -614  -438  -459  -654  -924  -1119  -1156  -1104  -1056  -1034  -1021  -999  -964  -928  -906  -905  -895  -833  -722  -603  -524  -507  -525  -536  -539  -556  -606  -698  -808  -909  -1004  -1116  -1271  -1475  -1667  -1764  -1750  -1662  -1552  -1448  -1325  -1136  -872  -549  -182  164  356  325  145  -63  -225  -304  -328  -338  -342  -334  -332  -390  -538  -702  -763  -718  -616  -484  -392  -394  -436  -433  -348  -214  -100  -37  -22  -72  -212  -401  -547  -614  -632  -612  -540  -435  -359  -366  -437  -492  -467  -350  -131  212  657  1078  1335  1412  1409  1418  1457  1495  1480  1357  1098  755  447  281  257  287  318  390  581  863  1100  1193  1164  1102  1063  1030  961  855  733  625  557  525  458  260  -89  -474  -715  -730  -555  -305  -105  2  56  81  58  -59  -257  -336  -45  573  1258  1916  2761  4123  6070  8075  9209  8734  6576  3467  628  -979  -1286  -900  -381  -18  98  78  59  61  60  43  5  -44  -100  -182  -334  -574  -847  -1055  -1154  -1179  -1174  -1145  -1080  -992  -928  -921  -925  -787  -358  262  770  1011  1071  1052  985  903  858  890  991  1137  1294  1421  1511  1578  1599  1551  1490  1498  1590  1712  1791  1807  1793  1794  1852  1987  2182  2375  2532  2762  3230  3888  4454  4730  4753  4622  4376  4040  3652  3210  2639  1909  1198  731  469  190  -175  -522  -772  -922  -1000  -1044  -1074  -1088  -1073  -1032  -994  -987  -1018  -1082  -1183  -1332  -1522  -1701  -1819  -1892  -1951  -1956  -1831  -1573  -1284  -1076  -983  -969  -979  -951  -776  -365  163  534  584  367  58  -161  -244  -281  -366  -493  -592  -631  -638  -634  -596  -490  -340  -232  -233  -351  -531  -702  -831  -881  -807  -611  -350  -149  -126  -257  -424  -599  -842  -1139  -1370  -1480  -1539  -1632  -1778  -1956  -2124  -2224  -2210  -2080  -1893  -1711  -1527  -1316  -1109  -943  -850  -850  -892  -897  -875  -894  -996  -1176  -1370  -1499  -1535  -1477  -1318  -1108  -948  -880  -865  -860  -860  -866  -853  -811  -753  -673  -524  -294]
