reading_id,reading_time,wire_id,result_classification,heart_rate,heart_rate_alert,firmware_version,device_app_version,hardware_version,waveform_samples
7df33cb0-5490-11ed-8080-808080808080,Tue Oct 25 18:11:48 UTC 2022,4101e3b01d39,NSR,73,NONE,20001.171.50,2.10.0,Charge 5,[-7158  -7337  -7151  -6241  -4624  -2709  -843  766  1953  2745  3269  3558  3652  3659  3675  3734  3809  3831  3747  3527  3172  2745  2339  1967  1552  1058  550  92  -312  -650  -873  -974  -995  -982  -963  -950  -945  -963  -1021  -1119  -1230  -1321  -1379  -1422  -1466  -1496  -1504  -1503  -1509  -1518  -1486  -1334  -1039  -706  -484  -411  -422  -452  -480  -477  -376  -128  194  456  617  728  822  913  1042  1237  1443  1566  1590  1581  1600  1684  1831  1990  2117  2225  2359  2547  2758  2946  3097  3216  3290  3324  3353  3399  3458  3519  3558  3547  3476  3342  3180  3060  3021  3059  3163  3293  3389  3454  3544  3682  3843  3988  4098  4188  4294  4428  4583  4754  4915  5001  4918  4616  4204  3903  3805  3845  3951  4100  4273  4420  4506  4560  4640  4752  4841  4894  4995  5216  5560  6147  7268  9199  11982  15062  17230  17458  15542  11997  8025  5030  3646  3544  4013  4459  4645  4650  4618  4609  4632  4688  4754  4795  4800  4788  4795  4858  4987  5138  5238  5239  5147  4958  4633  4236  3958  3924  4098  4348  4533  4610  4633  4656  4695  4741  4782  4796  4774  4744  4743  4779  4836  4887  4927  5009  5205  5476  5697  5809  5864  5936  6061  6218  6388  6532  6575  6490  6350  6232  6155  6093  6014  5895  5692  5350  4852  4267  3716  3233  2741  2261  1940  1790  1636  1359  1017  725  528  404  320  267  251  276  329  378  404  423  432  408  354  279  188  110  86  127  203  271  310  324  329  334  330  300  253  242  267  215  0  -296  -519  -617  -647  -675  -724  -773  -797  -776  -714  -646  -615  -656  -790  -970  -1102  -1145  -1133  -1104  -1074  -1056  -1050  -1057  -1077  -1101  -1119  -1124  -1121  -1115  -1109  -1105  -1097  -1085  -1078  -1099  -1171  -1280  -1382  -1450  -1499  -1559  -1630  -1683  -1703  -1708  -1706  -1682  -1616  -1524  -1455  -1431  -1446  -1490  -1544  -1578  -1575  -1544  -1503  -1475  -1505  -1663  -1970  -2315  -2533  -2551  -2394  -2155  -1988  -2006  -2111  -1972  -1191  512  3158  6311  9033  10241  9275  6333  2493  -809  -2564  -2753  -2177  -1661  -1490  -1551  -1678  -1772  -1821  -1857  -1906  -1976  -2054  -2104  -2097  -2069  -2088  -2169  -2259  -2320  -2347  -2316  -2174  -1918  -1639  -1432  -1324  -1287  -1287  -1295  -1298  -1296  -1297  -1310  -1342  -1386  -1429  -1444  -1348  -1053  -623  -271  -101  -32  42  190  455  778  1014  1116  1179  1291  1446  1593  1727  1883  2042  2141  2143  2056  1920  1777  1615  1328  804  115  -479  -833  -1035  -1216  -1434  -1709  -2004  -2241  -2378  -2433  -2442  -2439  -2459  -2543  -2704  -2841  -2797  -2581  -2366  -2271  -2278  -2349  -2475  -2626  -2731  -2761  -2747  -2731  -2756  -2849  -2983  -3085  -3096  -2997  -2818  -2639  -2535  -2509  -2517  -2527  -2530  -2535  -2547  -2565  -2582  -2595  -2603  -2607  -2612  -2632  -2672  -2720  -2754  -2765  -2756  -2724  -2673  -2623  -2600  -2605  -2615  -2618  -2622  -2622  -2615  -2603  -2588  -2567  -2539  -2502  -2457  -2412  -2390  -2412  -2464  -2521  -2571  -2613  -2662  -2730  -2792  -2820  -2838  -2863  -2841  -2747  -2635  -2542  -2450  -2353  -2275  -2225  -2192  -2183  -2215  -2262  -2262  -2169  -1988  -1790  -1651  -1593  -1588  -1601  -1622  -1676  -1798  -2001  -2244  -2451  -2555  -2530  -2385  -2190  -2042  -1992  -2041  -2184  -2340  -2335  -2073  -1617  -1001  -56  1528  3985  7117  10026  11476  10690  7788  3798  208  -1933  -2553  -2278  -1852  -1657  -1637  -1630  -1592  -1512  -1365  -1188  -1068  -1036  -1044  -1029  -961  -849  -741  -678  -655  -642  -628  -621  -617  -590  -514  -391  -264  -172  -107  -45  13  58  88  117  164  237  361  580  862  1103  1282  1490  1750  1981  2136  2240  2314  2375  2493  2742  3089  3403  3593  3666  3696  3750  3833  3894  3886  3795  3610  3332  2977  2568  2149  1773  1445  1137  854  624  453  324  235  197  193  173  82  -87  -281  -427  -501  -532  -545  -508  -383  -213  -79  -3  77  233  435  584  634  609  540  460  408  398  409  405  360  264  135  3  -104  -180  -228  -236  -171  -24  144  259  308  347  423  549  696  804  841  810  710  562  411  298  226  179  144  122  123  152  167  126  67  69  161  305  423  473  470  444  412  382  344  298  261  250  255  231  137  1  -91  -100  -55  4  55  85  98  108  113  103  79  58  46  27  -21  -107  -216  -318  -376  -378  -351  -305  -219  -102  -4  34  19  -18  -65  -127  -200  -253  -268  -259  -251  -278  -368  -491  -580  -615  -642  -701  -750  -608  -86  843  2224  4259  7018  10051  12360  12887  11183  7718  3727  639  -765  -754  -147  321  278  -197  -718  -1009  -1100  -1122  -1122  -1085  -1007  -926  -876  -849  -805  -720  -617  -551  -541  -550  -513  -388  -216  -99  -72  -88  -99  -93  -80  -55  10  131  295  478  627  692  692  690  721  786  887  1038  1221  1384  1521  1686  1920  2189  2440  2681  2922  3146  3356  3559  3708  3745  3674  3562  3453  3258  2810  2114  1418  938  652  431  213  3  -194  -399  -607  -780  -886  -936  -961  -976  -987  -1002  -1035  -1094  -1174  -1243  -1276  -1277  -1262  -1245  -1248  -1288  -1353  -1419  -1467  -1480  -1431  -1304  -1141  -1024  -984  -986  -990  -991  -997  -1005  -1007  -992  -963  -940  -950  -1018  -1135  -1243  -1287  -1265  -1210  -1155  -1125  -1114  -1095  -1070  -1052  -1046  -1048  -1050  -1047  -1036  -1020  -1008  -1001  -999  -1008  -1035  -1083  -1145  -1202  -1209  -1134  -1027  -977  -1007  -1061  -1073  -1045  -1021  -1010  -996  -990  -1017  -1064  -1086  -1058  -1002  -957  -935  -930  -942  -982  -1036  -1073  -1079  -1066  -1063  -1088  -1123  -1144  -1148  -1128  -1066  -947  -806  -710  -700  -768  -871  -966  -1035  -1082  -1117  -1135  -1095  -967  -797  -666  -606  -594  -596  -597  -582  -543  -497  -481  -504  -552  -615  -703  -810  -913  -993  -1039  -1042  -1012  -959  -888  -822  -802  -840  -916  -958  -824  -363  613  2377  5069  8383  11368  12717  11621  8432  4449  1144  -616  -1023  -893  -768  -775  -909  -1069  -1159  -1185  -1183  -1171  -1167  -1172  -1178  -1177  -1169  -1165  -1182  -1228  -1279  -1295  -1258  -1171  -1027  -855  -743  -746  -829  -928  -1003  -1046  -1062  -1068  -1075  -1081  -1064  -979  -796  -535  -283  -118  -32  28  102  216  366  515  650  822  1090  1434  1775  2072  2335  2535  2640  2671  2677  2674  2636  2545  2435  2347  2216  1875  1263  586  95  -201  -456  -726  -973  -1165  -1303  -1389  -1427  -1438  -1462  -1516  -1556  -1505  -1355  -1187  -1082  -1053  -1108  -1267  -1490  -1685  -1796  -1822  -1766  -1646  -1515  -1417  -1342  -1272  -1216  -1183  -1168  -1157  -1132  -1087  -1034  -994  -974  -954  -909  -844  -795  -771  -754  -726  -683  -645  -656  -728  -826  -921  -992  -986  -851  -624  -413  -283  -211  -173  -197  -272  -328  -335  -330  -339  -359  -365  -326  -229  -98  8  60  84  117  156  157  109  74  103  170  223  245  239  221  214  223  234  221  183  147  134  137  149  156  135  67  -19  -76  -89  -95  -120  -137  -111  -57  -12  9  9  4  51  198  408  580  668  685  650  588  507  388  224  35  -142  -264  -317  -324  -316  -304  -299  -312  -349  -409  -485  -546  -521  -327  91  797  1971  3892  6619  9611  11831  12243  10409  6936  3230  580  -616  -807  -648  -562  -641  -735  -729  -688  -680  -678  -645  -585  -524  -468  -395  -308  -245  -218  -196  -151  -110  -109  -141  -166  -166  -160  -156  -128  -64  8  68  122  181  249  314  359  382  382  385  439  584  819  1113  1403  1615  1739  1846  1998  2186  2354  2461  2529  2608  2718  2853  3034  3274  3504  3642  3669  3597  3399  3034  2528  2012  1564  1104  600  170  -95  -241  -369  -531  -691  -803  -867  -906  -942  -973  -985  -981  -998  -1087  -1252  -1421  -1519  -1535  -1497  -1442  -1426  -1475  -1562  -1648  -1703  -1693  -1609  -1488  -1379  -1317  -1316  -1364  -1429  -1473  -1472  -1427  -1360  -1297  -1241  -1192  -1164  -1159  -1154  -1132  -1099  -1082  -1112  -1215  -1368  -1497  -1556  -1569  -1562  -1518  -1413  -1283  -1219  -1243  -1269  -1229  -1162  -1126  -1126  -1133  -1133  -1139  -1172  -1241  -1319  -1368  -1383  -1387  -1395  -1387  -1319  -1175  -1012  -916  -914  -973  -1045  -1104  -1140  -1159  -1166  -1166  -1160  -1156  -1162  -1179  -1203  -1214  -1167  -1028  -838  -701  -656  -656  -651  -630  -609  -596  -590  -600  -650  -759  -917  -1076  -1178  -1206  -1195  -1179  -1172  -1182  -1209  -1240  -1242  -1189  -1101  -1050  -1050  -947  -506  485  2224  4725  7603  10135  11461  10932  8556  5150  1905  -317  -1297  -1321  -967  -759  -788  -841  -828  -817  -850  -923  -1013  -1080  -1101  -1080  -1025  -929  -820  -745  -705  -657  -587  -508  -420  -328  -265  -244  -244  -234  -193  -113  -9  82  146  186  222  290  425  625  848  1051  1214  1357  1509  1669  1825  1975  2106  2208  2298  2421  2624  2894  3149  3334  3465  3566  3622  3622  3578  3508  3428  3341  3194  2881  2315  1561  829  304  32  -87  -235  -503  -798  -983  -1032  -1009  -958  -890  -815  -746  -702  -690  -711  -765  -841  -928  -1013  -1067  -1065  -1027  -992  -982  -992  -1006  -1020  -1046  -1085  -1106  -1074  -989  -867  -731  -622  -577  -589  -628  -668  -695  -696  -640  -492  -288  -147  -184  -433  -780  -1028  -1094  -1037  -946  -860  -770  -676  -629  -673  -779  -841  -809  -769  -797  -858  -904  -921  -889  -756  -501  -210  -17  29  -46  -218  -479  -809  -1116  -1252  -1164  -936  -700  -557  -520  -540  -572  -601  -623  -637  -641  -631  -596  -536  -477  -445  -450  -497  -595  -719  -801  -804  -762  -728  -720  -725  -732  -748  -764  -740  -640  -494  -380  -337  -337  -345  -351  -356  -362  -372  -392  -425  -464  -491  -513  -568  -690  -856  -1023  -1189  -1353  -1417  -1290  -1088  -998  -890  -318  1115  3597  6916  10197  12217  12098  9817  6284  2808  371  -766  -989  -899  -901  -1060  -1223  -1281  -1252  -1195  -1142  -1090  -1019  -938  -876  -829  -769  -693  -632  -608  -616  -635  -653  -668  -678  -680  -670  -646  -600  -534  -448  -322  -147  29  146  208  267  343  433  570  775  992  1134  1194  1239  1351  1577  1857  2059  2149  2217  2344  2531  2732  2911  3046  3140  3213  3279  3325  3322  3219  2942  2495  2038  1735  1542  1278  853  373  -5  -249  -415  -544  -660  -766  -846  -891  -918  -959  -1017  -1062  -1077  -1070  -1058  -1051  -1050  -1054  -1062  -1061  -1034  -960  -847  -729  -638  -588  -580  -602  -644  -684  -690  -654  -614  -610  -638  -656  -629  -585  -578  -633  -702  -711  -662  -621  -631  -681  -727  -729  -695  -669  -674  -719  -816  -932  -1010  -1041  -1053  -1058  -1038  -967  -863  -794  -799  -840  -866  -864  -852  -842  -832  -807  -774  -749  -741  -742  -745  -747  -748  -746  -734  -715  -711  -738  -772  -791  -794  -792  -783  -762  -734  -714  -707  -708  -710  -710  -710  -709  -709  -702  -686  -669  -662  -666  -672  -673  -664  -627  -550  -458  -401  -393  -408  -418  -427  -450  -491  -538  -586  -629  -660  -674  -672  -669  -697  -786  -916  -1026  -1104  -1191  -1297  -1375  -1311  -902  90  1903  4584  7741  10582  12144  11611  8916  5051  1470  -763  -1429  -1107  -655  -542  -695  -862  -940  -960  -949  -916  -887  -887  -913  -931  -918  -893  -881  -881  -880  -867  -845  -814  -768  -711  -663  -637  -626  -618  -573  -441  -211  49  248  352  388  390  383  384  393  409  444  525  659  798  897  994  1182  1469  1765  1985  2124  2240  2400  2614  2845  3082  3318  3498  3540  3371  2962  2379  1780  1294  932  631  330  -6  -348  -606  -757  -864  -975  -1082  -1161  -1208  -1239  -1269  -1294  -1312  -1323  -1329  -1333  -1337  -1343  -1347  -1345  -1337  -1339  -1367  -1400  -1394  -1320  -1212  -1141  -1138  -1158  -1120  -969  -745  -563  -492  -517  -604  -740  -889  -999  -1051  -1062  -1037  -962  -855  -767  -716  -682  -652  -639  -651  -666  -661  -647  -642  -642  -642  -640  -642  -661  -700  -739  -753  -729  -677  -630  -612  -606  -594  -593  -647  -773  -901  -945  -919  -892  -890  -881  -817  -700  -614  -628  -706  -774  -793  -756  -694  -652  -643  -643  -611  -538  -490  -537  -649  -734  -740  -680  -603  -547  -498  -433  -376  -352  -372  -451  -596  -773  -925  -1004  -1008  -975  -939  -913  -893  -865  -823  -809  -902  -1087  -1214  -1118  -662  360  2223  4962  8056  10495  11226  9768  6625  3013  168  -1265  -1469  -1110  -783  -731  -858  -979  -1046  -1086  -1115  -1134  -1140  -1138  -1141  -1157  -1188  -1236  -1285  -1262  -1065  -736  -459  -332  -312  -325  -330  -307  -247  -160  -75  -15  12  16  11  13  48  159  357  590  772  888  1009  1194  1396  1550  1671  1820  2014  2241  2505  2812  3125  3385  3561  3650  3678  3683  3673  3606  3437  3203  3003  2882  2799  2682  2424  1899  1162  499  123  -32  -137  -250  -335  -379  -422  -488  -578  -688  -801  -883  -909  -885  -824  -752  -704  -682  -659  -612  -535  -439  -334  -241  -181  -169  -224  -357  -526  -657  -729  -778  -836  -900  -972  -1045  -1067  -1007  -919  -866  -843  -817  -781  -757  -759  -792  -841  -891  -941  -991  -1027  -1040  -1036  -1026  -1015  -1016  -1041  -1091  -1148  -1181  -1172  -1118  -1042  -980  -948  -943  -952  -965  -972  -968  -956  -945  -942  -948  -950  -919  -837  -752  -734  -786  -854  -918  -977  -1018  -1013  -969  -935  -949  -975  -964  -922  -884  -848  -784  -693  -605  -531  -449  -344  -233  -153  -148  -282  -587  -951  -1196  -1260  -1214  -1141  -1070  -1003  -960  -967  -1006  -1051  -1108  -1189  -1274  -1303  -1197  -887  -243  1001  3081  5952  9124  11602  12306  10760  7449  3596  534  -1016  -1240  -879  -627  -680  -820  -872  -862  -846  -822  -781  -744  -749  -785  -802  -777  -738  -716  -712  -706  -695  -687  -667  -601  -457  -268  -106  11  115  212  302  367  372  318  258  219  200  230  376  654  955  1151  1226  1242  1250  1297  1428  1620  1808  1991  2227  2534  2860  3149  3374  3526  3610  3642  3604  3431  3104  2727  2425  2197  1931  1525  980  409  -91  -498  -796  -971  -1036  -1036  -1020  -1034  -1104  -1211  -1315  -1398  -1453  -1468  -1449  -1410  -1343  -1256  -1173  -1109  -1070  -1051  -1047  -1053  -1084  -1152  -1249  -1347  -1423  -1431  -1324  -1132  -939  -821  -808  -875  -979  -1104  -1227  -1295  -1280  -1214  -1127  -1013  -875  -757  -691  -663  -659  -683  -735  -802  -875  -962  -1061  -1145  -1185  -1175  -1134  -1090  -1050  -1008  -957  -886  -790  -696  -636  -627  -672  -747  -810  -840  -848  -846  -827  -780  -718  -670  -645  -636  -639  -652  -670  -685  -688  -671  -628  -572  -529  -511  -508  -515  -533  -559  -583  -577  -525  -451  -403  -397  -413  -432  -452  -482  -523  -561  -546  -438  -278  -156  -107  -100  -102  -128  -207  -328  -440  -510  -549  -587  -646  -722  -802  -889  -986  -1073  -1104  -1072  -1050  -1076  -1059  -847  -309  694  2330  4708  7624  10397  12077  11827  9451  5783  2237  -94  -982  -981  -834  -906  -1121  -1275  -1291  -1198  -1030  -855  -775  -833  -962  -1065  -1103  -1097  -1055  -953  -801  -653  -550  -489  -452  -427  -413  -406  -405  -408  -411  -406  -399  -402  -411  -386  -268  -56  162  304  360  371  386  464  659  965  1301  1582  1786  1923  2004  2064  2166  2338  2540  2715  2843  2936  3003  3041  3042  3011  2949  2805  2484  1946  1311  759  357  83  -99  -251  -426  -621  -782  -880  -959  -1094  -1294  -1486  -1590  -1583  -1484  -1342  -1231  -1188  -1194  -1207  -1186  -1106  -995  -914  -886  -889  -898  -908  -924  -940  -948  -946  -938  -940  -963  -997  -1032  -1069  -1117  -1165  -1193  -1199  -1186  -1148  -1063  -920  -780  -725  -763  -848  -936  -993  -1010  -1004  -988  -964  -930  -893  -890  -951  -1050  -1122  -1117  -1029  -906  -819  -791  -796  -805  -811  -817  -823  -819  -784  -718  -655  -619  -603  -598  -596  -586  -572  -567  -569  -563  -532  -476  -415  -373  -349  -333  -323  -327  -344  -364  -371  -352  -317  -268  -193  -88  16  87  117  126  129  119  61  -105  -404  -740  -967  -1035  -1009  -976  -968  -954  -875  -760  -772  -904  -808  -207  929  2662  5017  7690  10020  11181  10498  7932  4340  1018  -1061  -1677  -1302  -663  -263  -210  -349  -507  -612  -644  -602  -513  -416  -340  -298  -288  -298  -315  -326  -306  -242  -161  -110  -101  -109  -118  -130  -153  -183  -183  -103  72  298  500  621  668  685  698  710  731  769  841  947  1072  1207  1358  1539  1763  2012  2236  2429  2641  2877  3072  3188  3250  3287  3309  3311  3276  3176  2973  2642  2191  1652  1106  654  295  -30  -314  -498  -584  -626  -661  -702  -759  -834  -917  -999  -1069  -1112  -1127  -1128  -1127  -1130  -1143  -1164  -1186  -1201  -1189  -1112  -963  -800  -702  -707  -804  -945  -1059  -1113  -1135  -1166  -1234  -1341  -1467  -1582  -1660  -1688  -1673  -1639  -1604  -1563  -1504  -1424  -1326  -1227  -1167  -1164  -1185  -1206  -1241  -1305  -1392  -1494  -1603  -1699  -1739  -1705  -1632  -1575  -1545  -1520  -1483  -1428  -1362  -1305  -1265  -1229  -1189  -1145  -1095  -1055  -1069  -1148  -1248  -1319  -1343  -1324  -1266  -1189  -1131  -1095  -1057  -1011  -982  -979  -990  -994  -980  -943  -901  -889  -927  -994  -1051  -1074  -1056  -976  -820  -614  -414  -281  -236  -274  -384  -526  -651  -740  -792  -804  -792  -783  -788  -807  -825  -829  -815  -786  -765  -784  -791  -659  -290  416  1641  3578  6194  8968  10966  11272  9530  6290  2792  230  -885  -805  -196  259  211  -169  -496  -644  -710  -732  -682  -570  -419  -237  -69  -11  -116  -316  -478  -542  -544  -533  -526  -506  -448  -350  -244  -154  -59  49  137  187  224  286  399  550  680  741  740  719  732  832  1028  1265  1471  1620  1735  1848  1983  2201  2546  2925  3184  3293  3358  3471  3609  3681  3635  3496  3310  3068  2722  2283  1830  1406  978  513  52  -285  -443  -492  -531  -585  -641  -692  -713  -696  -656  -603  -552  -524  -537  -609  -728  -858  -970  -1057  -1112  -1142  -1151  -1114  -1007  -850  -709  -630  -604  -603  -605  -603  -598  -599  -617  -648  -663  -628  -541  -416  -283  -192  -176  -249  -398  -565  -688  -751  -767  -744  -693  -638  -603  -587  -570  -539  -499  -455  -414  -374  -326  -260  -189  -138  -119  -134  -190  -284  -396  -529  -703  -906  -1074  -1168  -1203  -1211  -1199  -1162  -1086  -977  -885  -846  -830  -770  -659  -562  -520  -508  -507  -552  -694  -916  -1128  -1262  -1316  -1318  -1290  -1250  -1216  -1194  -1164  -1091  -949  -768  -634  -592  -614  -656  -696  -734  -779  -822  -846  -855  -860  -876  -922  -995  -1054  -1062  -1011  -916  -786  -642  -525  -470  -499  -632  -846  -1046  -1154  -1174  -1147  -1092  -1023  -969  -947  -944  -939  -950  -1059  -1303  -1511  -1398  -812  246  1806  3987  6758  9608  11593  11792  9900  6564  3018  377  -878  -1019  -731  -555  -585  -656  -680  -687  -711  -769  -846  -902  -917  -912  -917  -951  -1006  -1058  -1078  -1025  -868  -655  -483  -383  -320  -285  -265  -230  -172  -79  63  210  275  242  196  207  255  302  355  418  465  489  560  762  1065  1340  1538  1735  1961  2134  2203  2228  2304  2479  2728  2994  3208  3322  3325  3236  3079  2851  2515  2068  1604  1211  871  537  216  -88  -405  -708  -912  -983  -968  -915  -854  -816  -839  -941  -1089  -1210  -1255  -1192  -1005  -769  -635  -678  -827  -963  -1037  -1066  -1069  -1018  -880  -697  -581  -593  -695  -818  -917  -971  -975  -930  -859  -820  -848  -897  -913  -904  -894  -892  -889  -880  -864  -840  -804  -761  -729  -713  -706  -718  -778  -897  -1032  -1118  -1119  -1028  -873  -723  -642  -636  -674  -722  -752  -760  -757  -759  -769  -773  -761  -768  -831  -912  -952  -951  -942  -949  -975  -1000  -1009  -1006  -1006  -1022  -1052  -1073  -1067  -1036  -992  -953  -927  -873  -731  -520  -386  -456  -669  -850  -918  -922  -915  -904  -884  -853  -817  -785  -760  -726  -660  -566  -476  -414  -384  -378  -380  -378  -378  -400  -455  -524  -574  -613  -673  -746  -775  -731  -658  -623  -647  -699  -761  -870  -1034  -1137  -1012  -648  -182  421  1488  3389  6202  9310  11456  11537  9332  5645  1946  -474  -1281  -1033  -493  -109  3  -87  -235  -320  -337  -333  -337  -343  -319  -242  -138  -60  -34  -55  -120  -213  -294  -332  -318  -247  -119  23  125  184  237  289  329  358  379  395  414  454  547  700  878  1041  1163  1236  1279  1343  1479  1715  2003  2223  2301  2287  2279  2352  2519  2724  2893  3008  3098  3184  3258  3287  3230  3067  2845  2609  2277  1748  1116  572  158  -206  -542  -794  -941  -1017  -1064  -1122  -1211  -1283  -1255  -1137  -1028  -986  -988  -995  -996  -992  -977  -942  -893  -858  -862  -916  -997  -1063  -1097  -1118  -1146  -1175  -1197  -1211  -1215  -1176  -1064  -911  -797  -748  -734  -728  -743  -808  -925  -1062  -1179  -1256  -1282  -1217  -1014  -718  -471  -380  -462  -675  -917  -1071  -1097  -1037  -948  -865  -799  -756  -754  -799  -872  -948  -1008  -1042  -1046  -991  -850  -677  -596  -677  -857  -1014  -1102  -1147  -1159  -1124  -1059  -992  -927  -868  -830  -831  -873  -941  -1006  -1042  -1037  -988  -920  -862  -808  -732  -653  -609  -606  -618  -620  -591  -516  -400  -289  -229  -229  -270  -338  -425  -517  -594  -640  -652  -643  -632  -644  -696  -771  -874  -1066  -1374  -1636  -1589  -1113  -218  1208  3374  6198  9017  10778  10616  8445  5103  1874  -223  -921  -687  -258  -119  -280  -484  -586  -634  -714  -835  -939  -992  -1016  -1040  -1079  -1122  -1136  -1085  -964  -811  -661  -512  -346  -182  -73  -38  -48  -74  -106  -150  -202  -248  -289  -330  -367  -397  -407  -350  -179  55  236  357  531  791  1056  1283  1503  1716  1898  2075  2293  2532  2718  2820  2884  2964  3067  3166  3210  3179  3101  2996  2808  2458  1965  1439  939  454  35  -222  -323  -368  -452  -613  -840  -1076  -1258  -1365  -1391  -1327  -1199  -1046  -902  -805  -768  -765  -777  -804  -851  -900  -932  -941  -938  -937  -941  -946  -951  -959  -965  -948  -883  -778  -671  -596  -568  -582  -617  -646  -659  -661  -655  -631  -577  -521  -505  -523  -531  -498  -426  -337  -272  -291  -435  -646  -804  -854  -841  -821  -814  -817  -825  -833  -838  -828  -789  -725  -654  -596  -558  -546  -568  -619  -676  -712  -724  -723  -720  -720  -725  -728  -714  -677  -652  -676  -728  -761  -766  -760  -755  -754  -752  -747  -746  -753  -764  -760  -715  -604  -440  -292  -233  -286  -410  -534  -612  -650  -661  -632  -557  -472  -423  -412  -401  -357  -289  -231  -196  -161  -103  -16  90  188  243  233  164  76  9  -48  -149  -309  -496  -663  -769  -806  -801  -792  -803  -823  -791  -617  -204  596  1991  4122  6845  9568  11343  11340  9445  6321  3009  518  -677  -878  -721  -614  -668  -833  -987  -1059  -1062  -1023  -963  -902  -851  -814  -802  -812  -825  -827  -843  -914  -1032  -1136  -1149  -1021  -779  -516  -310  -212  -227  -299  -379  -452  -502  -510  -449  -305  -104  110  307  478  627  750  828  872  925  1017  1161  1364  1638  1947  2205  2373  2479  2562  2647  2745  2859  2992  3128  3210  3153  2897  2502  2115  1803  1516  1209  913  652  358  -24  -457  -851  -1134  -1283  -1337  -1345  -1338  -1324  -1312  -1317  -1359  -1447  -1551  -1597  -1531  -1379  -1216  -1110  -1083  -1117  -1170  -1195  -1186  -1176  -1192  -1214  -1208  -1176  -1154  -1148  -1114  -1041  -989  -1016  -1129  -1281  -1392  -1430  -1418  -1378  -1319  -1256  -1209  -1183  -1167  -1120  -1003  -843  -717  -663  -660  -675  -686  -685  -673  -650  -619  -598  -624  -730  -893  -1034  -1098  -1088  -1017  -907  -795  -716  -681  -681  -701  -726  -747  -765  -782  -791  -782  -759  -732  -716  -713  -717  -718  -714  -702  -685  -668  -659  -648  -624  -586  -535  -462  -357  -255  -214  -242  -277  -269  -219  -183  -203  -265  -358  -499  -651  -717  -643  -491  -373  -332  -341  -370  -408  -444  -465  -453  -400  -321  -267  -299  -449  -661  -813  -824  -695  -506  -386  -454  -720  -1006  -1102  -964  -587  128  1356  3367  6197  9101  10830  10495  8101  4600  1358  -647  -1247  -990  -583  -385  -402  -488  -541  -568  -600  -619  -599  -559  -529  -511  -487  -449  -417  -441  -562  -756  -921  -963  -865  -698  -558  -461  -350  -204  -76  -2  23  18  27  102  231  360  468  577  708  854  980  1052  1067  1055  1070  1179  1414  1742  2079  2339  2510  2671  2890  3133  3316  3410  3450  3469  3439  3269  2908  2443  2040  1762  1518  1223  896  565  224  -103  -365  -540  -648  -725  -810  -910  -1011  -1102  -1184  -1228  -1190  -1074  -950  -868  -825  -801  -784  -776  -796  -873  -998  -1113  -1157  -1123  -1057  -1006  -980  -956  -925  -890  -836  -747  -654  -619  -664  -738  -779  -780  -771  -757  -735  -723  -745  -804  -873  -914  -903  -837  -744  -664  -612  -588  -595  -620  -633  -623  -615  -633  -683  -746  -812  -875  -903  -872  -819  -780  -752  -726  -709  -709  -737  -787  -840  -882  -904  -909  -908  -916  -935  -959  -973  -958  -910  -838  -751  -654  -563  -502  -487  -517  -570  -598  -575  -528  -498  -492  -494  -496  -499  -515  -554  -605  -642  -645  -624  -610  -624  -669  -737  -823  -913  -998  -1094  -1185  -1175  -1033  -854  -633  -135  995  3051  5934  8943  10993  11125  9095  5628  2056  -412  -1316  -1072  -467  -68  -44  -269  -532  -758  -956  -1086  -1104  -1038  -960  -910  -888  -881  -879  -880  -883  -887  -889  -873  -816  -721  -625  -563  -529  -478  -364  -199  -50  34  65  78  101  142  190  235  286  381  546  750  930  1067  1185  1305  1436  1590  1792  2049  2323  2563  2778  3006  3228  3383  3442  3423  3357  3234  3046  2826  2623  2420  2098  1565  928  390  25  -201  -315  -351  -387  -482  -647  -852  -1034  -1138  -1162  -1147  -1128  -1117  -1106  -1089  -1071  -1050  -1020  -974  -904  -819  -746  -696  -666  -649  -641  -637  -646  -689  -779  -895  -991  -1019  -963  -863  -773  -702  -620  -532  -498  -569  -723  -882  -987  -1037  -1044  -1005  -926  -829  -730  -646  -591  -575  -611  -715  -853  -956  -990  -972  -922  -866  -842  -872  -932  -984  -1013  -1020  -995  -920  -814  -721  -666  -628  -565  -456  -340  -297  -384  -572  -751  -836  -845  -837  -835  -849  -918  -1091  -1328  -1503  -1523  -1374  -1121  -887  -767  -761  -827  -919  -996  -1035  -1033  -973  -840  -679  -568  -544  -580  -632  -667  -675  -671  -669  -693  -767  -894  -1028  -1115  -1141  -1130  -1101  -1063  -1026  -1020  -1083  -1224  -1383  -1431  -1255  -893  -512  -186  294  1407  3584  6670  9745  11599  11347  8948  5354  1928  -365  -1298  -1235  -831  -608  -634  -716  -764  -805  -858  -900  -912  -906  -896  -876  -832  -772  -735  -727  -725  -707  -663  -585  -483  -388  -339  -342  -355  -288  -74  234  477  546  456  270  64  -69  -50  157  488  786  944  999  1042  1096  1139  1189  1306  1507  1773  2114  2528  2946  3277  3480  3579  3629  3656  3656  3606  3484  3307  3140  3023  2870  2515  1931  1278  698  225  -116  -309  -393  -451  -525  -576  -582  -602  -643  -651  -635  -641  -661  -668  -653  -626  -602  -582  -573  -599  -685  -798  -855  -812  -709  -623  -590  -616  -702  -833  -959  -1037  -1040  -960  -812  -641  -512  -488  -592  -762  -886  -907  -855  -795  -754  -714  -669  -632  -611  -611  -638  -692  -774  -882  -995  -1082  -1130  -1142  -1102  -990  -825  -675  -582  -521  -453  -372  -310  -305  -394  -591  -856  -1090  -1194  -1153  -1048  -971  -943  -919  -867  -823  -861  -977  -1084  -1107  -1041  -937  -853  -804  -776  -753  -730  -724  -746  -777  -794  -797  -814  -875  -996  -1132  -1191  -1118  -960  -819  -755  -753  -774  -780  -728  -591  -414  -291  -272  -345  -466  -597  -733  -871  -974  -1026  -1058  -1124  -1259  -1423  -1526  -1526  -1484  -1494  -1493  -1234  -518  730  2595  5077  7818  10069  10999  10091  7529  4232  1322  -462  -1038  -938  -781  -765  -852  -1033  -1252  -1396  -1397  -1266  -1078  -912  -802  -749  -731  -725  -730  -755  -776  -744  -660  -590  -586  -629  -674  -701  -702  -652  -518  -329  -173  -91  -46  -1  45  98  187  348  592  858  1051  1153  1224  1308  1400  1491  1583  1695  1849  2035  2212  2356  2472  2585  2745  2991  3264  3430  3409  3225  2956  2666  2353  1982  1569  1191  906  714  524  214  -211  -599  -828  -916  -936  -937  -946  -966  -991  -1021  -1054  -1073  -1063  -1020  -963  -907  -858  -815  -784  -776  -782  -756  -669  -566  -505  -515  -611  -797  -1020  -1170  -1165  -1004  -775  -615  -611  -757  -964  -1108  -1128  -1043  -921  -830  -792  -793  -812  -826  -814  -767  -699  -634  -593  -585  -605  -662  -774  -911  -1008  -1042  -1039  -1018  -973  -913  -858  -821  -797  -784  -784  -791  -795  -773  -711  -633  -598  -629  -690  -750  -806  -837  -820  -786  -767  -763  -764  -756  -754  -778  -817  -834  -808  -736  -651  -594  -575  -563  -533  -491  -467  -477  -501  -533  -609  -760  -978  -1203  -1347  -1370  -1289  -1146  -998  -920  -963  -1062  -1100  -973  -499  575  2464  5170  8217  10593  11166  9472  6143  2492  -208  -1342  -1269  -829  -546  -496  -571  -659  -708  -723  -721  -721  -733  -756  -787  -826  -863  -880  -873  -836  -750  -623  -492  -391  -337  -321  -322  -323  -330  -355  -396  -432  -441  -403  -281  -58  198  370  418  422  475  608  803  1013  1195  1343  1479  1605  1735  1915  2144  2344  2469  2572  2724  2916  3070  3143  3161  3161  3137  3062  2924  2730  2484  2169  1753  1256  780  413  142  -104  -360  -607  -855  -1097  -1264  -1330  -1332  -1283  -1162  -991  -848  -771  -739  -729  -747  -803  -881  -942  -964  -944  -881  -790  -703  -649  -656  -740  -873  -988  -1044  -1057  -1054  -1044  -1013  -956  -877  -797  -738  -709  -706  -722  -749  -778  -802  -820  -832  -835  -829  -813  -795  -784  -802  -868  -964  -1043  -1072  -1047  -976  -892  -836  -827  -856  -901  -941  -952  -898  -753  -570  -469  -513  -659  -818  -934  -989  -1001  -1005  -1014  -1016  -996  -959  -920  -896  -895  -903  -905  -901  -897  -893  -873  -812  -708  -597  -492  -374  -255  -205  -267  -401  -520  -586  -638  -724  -842  -943  -991  -997  -997  -1031  -1114  -1210  -1268  -1305  -1306  -1202  -999  -655  79  1537  3953  7160  10260  11933  11253  8404  4618  1334  -544  -986  -757  -668  -901  -1177  -1292  -1278  -1193  -1046  -880  -764  -719  -719  -729  -731  -741  -787  -862  -887  -797  -641  -510  -435  -404  -404  -424  -437  -409  -339  -264  -198  -112  13  145  234  268  279  300  362  501  698  862  923  912  909  1025  1370  1913  2441  2772  2898  2923  2933  2953  2975  2991  2993  2972  2922  2853  2769  2647  2455  2171  1782  1298  773  307  -6  -188  -344  -508  -625  -670  -691  -740  -818  -870  -872  -892  -981  -1080  -1130  -1123  -1066  -957  -823  -715  -665  -658  -660  -657  -665  -709  -784  -847  -878  -895  -914  -941  -973  -999  -1009  -1022  -1056  -1100  -1121  -1093  -1022  -939  -884  -879  -914  -963  -1000  -1012  -1000  -964  -916  -876  -858  -854  -854  -852  -847  -838  -808  -741  -659  -626  -678  -778  -856  -884  -884  -879  -866  -840  -818  -813  -803  -774  -757  -770  -789  -802  -812  -818  -814  -790  -745  -697  -664  -651  -644  -642  -672  -757  -875  -965  -1000  -1001  -974  -904  -788  -653  -520  -389  -305  -341  -478  -609  -667  -671  -668  -701  -786  -885  -933  -920  -892  -895  -966  -1106  -1239  -1289  -1257  -1074  -552  463  2089  4423  7203  9695  11072  10699  8465  5128  1893  -322  -1206  -1101  -666  -365  -330  -477  -655  -775  -835  -868  -908  -966  -1016  -1019  -977  -928  -893  -872  -864  -863  -858  -831  -772  -683  -576  -463  -366  -311  -299  -302  -290  -230  -96  100  292  392  396  367  354  378  440  538  703  939  1185  1385  1549  1711  1865  1974  2034  2095  2246  2554  2971  3337  3521  3496  3292  2993  2722  2550  2444  2272  1882  1291  685  178  -256  -617  -862  -992  -1045  -1052  -1027  -989  -960  -944  -936  -934  -943  -975  -1040  -1122  -1188  -1213  -1206  -1192  -1179  -1163  -1149  -1148  -1167  -1198  -1229  -1251  -1266  -1275  -1266  -1221  -1150  -1093  -1058  -1022  -973  -923  -879  -841  -817  -816  -843  -893  -955  -1009  -1030  -999  -932  -862  -817  -793  -788  -830  -955  -1111  -1177  -1125  -1041  -994  -977  -968  -942  -882  -798  -732  -707  -719  -760  -818  -869  -896  -903  -906  -922  -970  -1071  -1201  -1286  -1249  -1058  -795  -603  -540  -559  -606  -647  -642  -554  -403  -262  -183  -167  -225  -391  -635  -847  -945  -949  -924  -910  -926  -967  -1019  -1075  -1135  -1186  -1215  -1233  -1235  -1149  -862  -231  917  2735  5237  8048  10283  10944  9549  6482  2883  80  -1240  -1361  -970  -611  -547  -684  -804  -878  -965  -1051  -1093  -1094  -1093  -1087  -1038  -944  -828  -699  -570  -478  -432  -406  -382  -373  -391  -406  -371  -291  -224  -205  -215  -216  -181  -109  -12  86  163  226  323  480  667  821  904  971  1143  1470  1860  2172  2335  2383  2398  2458  2614  2853  3087  3229  3273  3263  3209  3078  2856  2589  2330  2057  1711  1317  967  693  450  187  -109  -395  -599  -711  -765  -784  -777  -750  -706  -643  -574  -551  -662  -947  -1303  -1542  -1567  -1407  -1170  -975  -875  -844  -841  -850  -887  -971  -1076  -1140  -1128  -1052  -955  -868  -796  -735  -686  -658  -664  -716  -803  -884  -928  -939  -936  -935  -915  -832  -712  -647  -678  -755  -821  -857  -879  -914  -947  -934  -860  -769  -720  -728  -764  -791  -799  -805  -825  -858  -879  -869  -843  -803  -735  -650  -588  -559  -530  -478  -409  -340  -270  -179  -68  12  9  -96  -278  -481  -655  -775  -847  -907  -984  -1057  -1075  -1038  -984  -939  -921  -935  -998  -1110  -1150  -922  -248  1106  3346  6311  9312  11269  11203  8956  5367  1739  -772  -1707  -1518  -1025  -719  -650  -703  -780  -835  -860  -849  -814  -818  -877  -903  -852  -768  -728  -799  -939  -1011  -950  -785  -593  -464  -419  -405  -375  -316  -239  -156  -65  40  144  231  306  363  388  402  438  515  625  747  880  1054  1281  1517  1706  1852  2004  2191  2384  2525  2595  2633  2686  2777  2923  3118  3288  3323  3162  2792  2256  1693  1241  891  538  131  -285  -621  -815  -875  -876  -898  -978  -1087  -1157  -1161  -1128  -1097  -1080  -1068  -1046  -1016  -998  -1012  -1060  -1115  -1150  -1158  -1132  -1082  -1034  -1006  -996  -985  -957  -915  -877  -849  -827  -813  -807  -802  -800  -816  -864  -922  -954  -956  -956  -975  -1009  -1039  -1058  -1069  -1084  -1125  -1191  -1247  -1254  -1195  -1073  -908  -749  -687  -797  -1014  -1136  -1033  -801  -635  -618  -687  -750  -788  -835  -904  -975  -1025  -1047  -1043  -1027  -1010  -996  -984  -961  -913  -840  -761  -694  -651  -626  -609  -596  -585  -573  -562  -559  -574  -610  -652  -696  -762  -849  -940  -1019  -1061  -1057  -1034  -1013  -991  -969  -1007  -1157  -1311  -1239  -838  -171  764  2207  4429  7305  10078  11597  10967  8249  4526  1215  -718  -1184  -829  -455  -459  -691  -835  -843  -826  -822  -822  -821  -830  -860  -906  -938  -936  -916  -894  -863  -798  -687  -565  -478  -438  -423  -418  -413  -387  -322  -229  -141  -61  38  168  290  357  392  486  695  949  1122  1172  1155  1125  1122  1208  1435  1730  1943  2039  2134  2346  2683  3036  3268  3344  3313  3206  3044  2862  2653  2370  1989  1546  1087  683  381  155  -53  -277  -498  -674  -816  -945  -1047  -1098  -1104  -1087  -1066  -1045  -1019  -987  -958  -939  -930  -929  -951  -1010  -1085  -1119  -1078  -997  -938  -927  -943  -959  -965  -964  -963  -964  -965  -961  -946  -910  -850  -783  -737  -725  -738  -757  -771  -776  -772  -756  -729  -702  -683  -670  -662  -676  -726  -766  -726  -613  -513  -487  -524  -590  -658  -722  -781  -833  -875  -898  -895  -869  -825  -768  -720  -698  -704  -737  -793  -866  -931  -962  -945  -886  -791  -677  -593  -569  -593  -651  -719  -769  -786  -779  -762  -743  -725  -708  -691  -651  -563  -440  -337  -279  -258  -283  -397  -608  -833  -980  -1047  -1089  -1130  -1157  -1167  -1166  -1163  -1152  -1113  -1051  -994  -949  -922  -903  -734  -145  1074  3104  5943  9025  11305  11809  10097  6672  2895  86  -1216  -1242  -688  -294  -356  -682  -996  -1186  -1267  -1256  -1145  -976  -837  -782  -802  -845  -866  -854  -829  -806  -772  -714  -639  -568  -525  -515  -519  -506  -453  -372  -292  -219  -137  -41  56  145  235  334  435  518  591  698  891  1149  1369  1487  1544  1627  1783  2011  2281  2557  2810  3029  3213  3376  3522  3621  3628  3496  3209  2821  2404  1999  1633  1288  917  543  235  -7  -252  -515  -735  -850  -872  -873  -901  -952  -995  -1011  -1005  -981  -941  -891  -840  -793  -752  -725  -725  -746  -765  -772  -786  -829  -898  -969  -1001  -954  -843  -732  -672  -660  -668  -677  -690  -714  -738  -747  -739  -718  -709  -739  -796  -853  -900  -936  -954  -953  -927  -866  -786  -722  -694  -691  -693  -686  -678  -701  -783  -894  -959  -933  -852  -781  -746  -731  -722  -715  -709  -700  -684  -659  -616  -562  -515  -487  -476  -478  -496  -539  -613  -712  -810  -878  -906  -913  -915  -923  -937  -942  -906  -814  -692  -583  -512  -460  -395  -305  -213  -144  -114  -121  -153  -206  -285  -389  -516  -674  -840  -952  -989  -987  -980  -975  -972  -989  -1049  -1117  -1088  -829  -194  995  2915  5552  8502  10931  11829  10572  7465  3662  483  -1263  -1611  -1251  -879  -734  -741  -792  -838  -871  -895  -907  -910  -911  -908  -893  -856  -786  -690  -604  -556  -519  -458  -374  -301  -268  -280  -324  -398  -505  -614  -677  -654  -513  -260  29  269  426  522  593  664  733  786  830  882  949  1017  1087  1199  1400  1665  1912  2101  2267  2464  2699  2927  3089  3166  3154  3023  2753  2422  2161  1994  1793  1419  852  198  -352  -659  -773  -850  -976  -1120  -1218  -1258  -1276  -1311  -1367  -1413  -1406  -1348  -1281  -1244  -1235  -1234  -1235  -1236  -1232  -1221  -1213  -1220  -1241  -1259  -1274  -1302  -1344  -1379  -1388  -1372  -1326  -1241  -1136  -1055  -1018  -1005  -1002  -1004  -1008  -985  -909  -795  -698  -651  -650  -693  -780  -885  -968  -1012  -1026  -1023  -1012  -1000  -994  -996  -996  -973  -909  -823  -759  -736  -733  -722  -683  -622  -563  -531  -534  -574  -647  -726  -778  -791  -768  -727  -691  -659  -628  -612  -609  -601  -592  -594  -600  -595  -559  -483  -373  -249  -147  -92  -82  -118  -227  -415  -625  -766  -819  -840  -871  -902  -905  -880  -852  -846  -869  -893  -880  -791  -473  385  2053  4526  7470  10157  11554  10905  8307  4686  1318  -778  -1374  -1049  -624  -563  -802  -1043  -1138  -1133  -1103  -1086  -1088  -1094  -1077  -1019  -922  -816  -737  -688  -639  -575  -505  -453  -447  -472  -482  -436  -328  -188  -44  84  153  120  9  -114  -170  -76  198  561  845  986  1061  1157  1268  1344  1385  1480  1715  2063  2410  2668  2825  2907  2961  3037  3162  3311  3422  3449  3361  3142  2842  2543  2242  1857  1366  878  527  337  200  -7  -290  -544  -694  -763  -807  -857  -910  -945  -956  -953  -947  -943  -941  -943  -946  -945  -930  -900  -868  -841  -800  -734  -648  -568  -535  -548  -577  -605  -624  -642  -669  -690  -696  -708  -735  -765  -782  -780  -770  -776  -801  -821  -819  -806  -810  -842  -889  -922  -934  -934  -934  -931  -903  -832  -737  -663  -630  -627  -637  -668  -731  -813  -874  -908  -938  -969  -987  -971  -918  -889  -917  -942  -922  -897  -886  -875  -859  -838  -815  -792  -768  -760  -787  -837  -880  -907  -927  -941  -950  -956  -967  -987  -1005  -991  -917  -782  -626  -497  -402  -354  -403  -572  -780  -908  -924  -883  -846  -834  -838  -849  -865  -885  -914  -944  -929  -808  -622  -611  -931  -1325  -1312  -510  1323  4192  7613  10612  12122  11472  8778  5016  1564  -540  -1143  -867  -473  -363  -539  -793  -968  -1058  -1104  -1112  -1075  -1018  -975  -958  -956  -954  -931  -861  -744  -628  -561  -544  -551  -563  -576  -586  -572  -511  -405  -295  -226  -211  -231  -241  -203  -115  33  277  575  800  882  870  833  815  856  1003  1247  1509  1720  1899  2144  2489  2829  3036  3087  3042  2967  2907  2873  2858  2849  2804  2635  2264  1714  1077  460  -4  -248  -342  -416  -533  -675  -798  -883  -947  -1003  -1041  -1055  -1055  -1046  -1024  -1001  -1015  -1073  -1122  -1124  -1099  -1066  -1003  -892  -764  -657  -578  -527  -520  -551  -611  -741  -939  -1096  -1098  -931  -692  -532  -526  -630  -759  -847  -879  -881  -880  -881  -868  -829  -772  -726  -706  -706  -713  -715  -702  -670  -633  -610  -602  -584  -539  -487  -464  -468  -476  -482  -509  -580  -681  -771  -838  -898  -944  -962  -940  -871  -779  -713  -692  -691  -685  -671  -659  -662  -678  -686  -629  -461  -251  -164  -283  -492  -620  -636  -612  -593  -576  -549  -536  -573  -649  -712  -735  -733  -728  -727  -731  -737  -729  -687  -610  -521  -444  -390  -351  -307  -252  -206  -206  -253  -324  -407  -512  -633  -748  -843  -930  -1012  -1073  -1101  -1093  -1037  -948  -844  -631  -73  1129  3218  6143  9318  11680  12181  10441  7035  3243  383  -941  -1035  -654  -435  -544  -787  -989  -1110  -1156  -1157  -1142  -1129  -1124  -1122  -1105  -1047  -934  -800  -704  -668  -660  -642  -598  -540  -491  -436  -346  -233  -150  -110  -88  -64  -41  -19  19  109  280  489  637  687  691  713  813  1038  1336  1573  1689  1743  1836  2026  2277  2495  2641  2762  2899  3035  3144  3209  3223  3194  3105  2915  2594  2184  1775  1421  1128  853  514  104  -252  -464  -590  -721  -858  -956  -988  -961  -917  -886  -863  -833  -807  -808  -844  -900  -957  -986  -968  -908  -816  -716  -654  -659  -727  -817  -873  -874  -862  -866  -858  -806  -728  -667  -662  -731  -827  -866  -837  -784  -732  -689  -652  -607  -562  -545  -572  -644  -734  -798  -817  -809  -799  -802  -812  -799  -750  -702  -703  -729  -732  -707  -676  -645  -612  -580  -576  -636  -741  -823  -851  -856  -878  -928  -976  -981  -941  -889  -854  -838  -831  -825  -823  -832  -845  -851  -850  -852  -870  -907  -948  -975  -979  -957  -915  -870  -841  -836  -844  -851  -834  -775  -689  -613  -567  -550  -558  -591  -637  -671  -683  -689  -723  -816  -955  -1078  -1128  -1124  -1152  -1276  -1422  -1470  -1365  -1004  -152  1430  3802  6690  9390  10907  10453  8031  4528  1183  -1033  -1810  -1554  -972  -567  -510  -716  -977  -1155  -1240  -1267  -1242  -1152  -1028  -932  -884  -866  -855  -822  -754  -671  -616  -604  -618  -633  -641  -641  -605  -497  -327  -157  -43  -11  -57  -152  -248  -301  -250  -25  342  686  873  935  977  1039  1127  1296  1588  1938  2229  2419  2547  2665  2794  2937  3092  3244  3364  3410  3333  3109  2799  2506  2251  1948  1516  1043  713  558  398  80  -322  -623  -764  -832  -901  -968  -1011  -1038  -1074  -1112  -1139  -1154  -1159  -1150  -1137  -1128  -1131  -1152  -1181  -1201  -1205  -1198  -1184  -1148  -1056  -897  -711  -564  -502  -521  -574  -612  -618  -608  -602  -607  -622  -652  -705  -767  -801  -781  -714  -622  -528  -456  -432  -475  -588  -724  -817  -848  -845  -830  -813  -799  -792  -784  -765  -729  -678  -618  -562  -532  -547  -614  -708  -787  -829  -836  -803  -735  -647  -568  -525  -528  -569  -624  -663  -676  -674  -670  -669  -669  -670  -672  -677  -686  -701  -722  -747  -766  -765  -725  -659  -607  -590  -580  -541  -461  -362  -264  -177  -117  -109  -138  -181  -250  -385  -580  -761  -865  -898  -901  -897  -892  -881  -859  -840  -832  -832  -848  -836  -653  -85  1126  3173  5967  8931  11020  11266  9464  6269  2802  183  -1043  -1184  -926  -737  -728  -790  -806  -758  -675  -581  -512  -488  -508  -551  -595  -623  -640  -651  -658  -662  -665  -669  -668  -648  -595  -512  -427  -361  -287  -174  -38  73  145  193  234  272  306  341  390  489  667  874  1025  1115  1222  1389  1588  1784  1991  2223  2449  2650  2842  3035  3211  3350  3444  3495  3509  3467  3316  3017  2594  2139  1738  1397  1039  584  77  -328  -553  -650  -695  -724  -764  -841  -943  -1024  -1057  -1047  -1012  -980  -969  -974  -982  -978  -969  -970  -972  -943  -873  -796  -754  -753  -768  -777  -780  -783  -789  -797  -807  -826  -851  -871  -886  -902  -915  -906  -860  -784  -694  -605  -559  -588  -654  -698  -716  -722  -723  -729  -749  -785  -824  -857  -882  -897  -903  -903  -892  -862  -822  -793  -790  -813  -848  -881  -906  -919  -893  -802  -657  -536  -518  -587  -665  -719  -768  -832  -891  -904  -862  -818  -830  -910  -1036  -1140  -1130  -996  -816  -672  -599  -596  -640  -698  -737  -736  -697  -643  -601  -586  -597  -632  -684  -742  -801  -863  -916  -931  -893  -823  -760  -715  -661  -583  -502  -456  -458  -501  -560  -600  -609  -598  -588  -612  -700  -833  -946  -1000  -1005  -988  -965  -961  -1019  -1122  -1082  -585  619  2665  5495  8612  11054  11828  10484  7449  3879  1011  -499  -811  -626  -540  -644  -749  -787  -834  -917  -994  -1051  -1123  -1213  -1286  -1318  -1320  -1319  -1317  -1256  -1072  -786  -513  -345  -299  -339  -414  -474  -492  -474  -425  -342  -240  -168  -148  -162  -179  -156  -46  152  382  588  775  957  1115  1221  1292  1365  1473  1638  1854  2089  2333  2588  2825  3014  3148  3236  3298  3353  3385  3321  3093  2708  2255  1809  1394  1042  786  543  173  -284  -629  -773  -808  -839  -876  -887  -869  -853  -869  -923  -1007  -1100  -1165  -1185  -1157  -1077  -952  -826  -751  -735  -746  -748  -725  -687  -653  -633  -628  -645  -689  -745  -786  -800  -799  -806  -827  -850  -840  -765  -639  -512  -422  -381  -381  -407  -443  -475  -496  -500  -488  -480  -495  -529  -560  -574  -572  -558  -539  -527  -535  -571  -623  -663  -674  -648  -579  -473  -364  -294  -272  -275  -283  -281  -258  -220  -186  -160  -132  -110  -117  -157  -199  -213  -214  -220  -204  -147  -59  20  35  -8  -32  -9  12  10  3  7  25  56  101  155  200  223  234  238  216  135  0]
