reading_id,reading_time,wire_id,result_classification,heart_rate,heart_rate_alert,firmware_version,device_app_version,hardware_version,waveform_samples
2ddd02a0-54eb-11ed-8080-808080808080,Wed Oct 26 05:00:58 UTC 2022,e100e3fd2639,NSR,86,NONE,20001.171.50,2.10.0,Charge 5,[-5269  -5446  -5296  -4460  -2955  -1388  -372  104  489  1078  1849  2651  3396  4137  4984  5969  6981  7840  8437  8826  9161  9531  9919  10313  10699  11021  11260  11496  11872  12487  13201  13738  14062  14387  14820  15230  15450  15432  15231  14967  14780  14715  14725  14779  14893  15055  15202  15262  15190  14978  14681  14375  14060  13719  13401  13194  13124  13142  13184  13220  13249  13276  13278  13182  12924  12567  12285  12177  12193  12206  12048  11592  10971  10519  10412  10566  10809  11012  11113  11038  10706  10230  9869  9703  9572  9334  9030  8792  8676  8616  8510  8329  8140  8007  7935  7897  7869  7834  7786  7725  7608  7346  6922  6460  6110  5916  5765  5504  5151  4883  4788  4802  4848  4896  4937  4956  4901  4712  4412  4109  3897  3805  3789  3743  3573  3284  2966  2703  2521  2383  2230  2008  1678  1248  786  377  80  -37  85  324  298  -146  -586  -510  293  1874  4121  6695  9184  11151  11994  11174  8699  5268  1980  -282  -1347  -1640  -1709  -1864  -2138  -2449  -2692  -2802  -2830  -2896  -3082  -3359  -3601  -3728  -3738  -3656  -3540  -3461  -3442  -3455  -3470  -3472  -3464  -3460  -3483  -3556  -3656  -3733  -3770  -3785  -3766  -3669  -3513  -3401  -3395  -3449  -3481  -3460  -3410  -3333  -3200  -3041  -2933  -2896  -2892  -2889  -2926  -3104  -3455  -3823  -3967  -3786  -3417  -3098  -2951  -2956  -3080  -3307  -3555  -3716  -3772  -3791  -3865  -4050  -4297  -4480  -4545  -4540  -4507  -4446  -4365  -4298  -4262  -4222  -4133  -4006  -3899  -3857  -3872  -3904  -3923  -3917  -3882  -3831  -3796  -3811  -3890  -4004  -4101  -4143  -4096  -3915  -3619  -3329  -3152  -3121  -3226  -3414  -3599  -3722  -3775  -3782  -3773  -3769  -3775  -3782  -3769  -3706  -3584  -3427  -3282  -3192  -3161  -3157  -3179  -3284  -3527  -3845  -4066  -4041  -3739  -3289  -2893  -2649  -2529  -2471  -2438  -2450  -2502  -2504  -2393  -2201  -2006  -1868  -1789  -1751  -1786  -1930  -2131  -2278  -2337  -2372  -2445  -2566  -2708  -2823  -2881  -2895  -2888  -2849  -2761  -2648  -2564  -2494  -2330  -2000  -1461  -529  1083  3490  6381  8985  10457  10343  8694  5988  2945  300  -1381  -1962  -1816  -1539  -1586  -1996  -2434  -2636  -2633  -2525  -2345  -2113  -1885  -1752  -1789  -1962  -2120  -2161  -2127  -2091  -2049  -1957  -1832  -1741  -1712  -1696  -1611  -1422  -1200  -1048  -980  -925  -831  -699  -548  -390  -238  -116  -50  -50  -102  -176  -234  -243  -169  5  243  460  603  667  656  553  346  96  -88  -182  -244  -293  -314  -323  -329  -321  -307  -298  -288  -283  -329  -473  -680  -850  -909  -808  -513  -116  157  115  -279  -837  -1232  -1263  -962  -535  -236  -185  -330  -550  -731  -825  -829  -726  -493  -194  -1  -35  -239  -469  -610  -646  -632  -622  -648  -707  -762  -759  -675  -533  -384  -282  -250  -299  -436  -615  -744  -780  -748  -688  -619  -554  -526  -555  -614  -664  -681  -663  -629  -596  -570  -563  -560  -488  -293  -37  155  220  197  183  254  389  487  477  402  352  326  201  -140  -622  -1015  -1178  -1115  -854  -402  162  663  928  847  375  -349  -1034  -1518  -1714  -1440  -641  715  2844  5621  8421  10688  11964  11764  10041  7395  4621  2321  732  -271  -849  -1028  -950  -849  -818  -890  -1079  -1307  -1481  -1566  -1569  -1506  -1401  -1302  -1256  -1261  -1265  -1183  -955  -652  -426  -350  -387  -497  -641  -756  -776  -626  -277  142  427  518  507  487  486  492  491  479  483  535  629  723  827  1004  1288  1597  1751  1621  1269  947  885  1051  1247  1371  1441  1458  1363  1083  645  211  -66  -175  -193  -186  -184  -202  -243  -288  -294  -234  -105  76  254  328  206  -118  -507  -750  -713  -390  55  377  461  352  147  -48  -157  -176  -153  -136  -171  -288  -454  -584  -630  -601  -506  -354  -196  -83  -32  -55  -165  -307  -389  -373  -306  -251  -235  -263  -335  -431  -511  -570  -621  -667  -699  -712  -725  -745  -716  -604  -440  -264  -111  -29  -64  -236  -486  -660  -571  -130  502  998  1171  1030  641  169  -156  -256  -219  -133  -54  -56  -206  -478  -763  -975  -1080  -1066  -977  -891  -817  -694  -527  -451  -562  -755  -879  -806  -151  1610  4526  7996  11032  12628  12233  10018  6799  3559  1002  -556  -1162  -1086  -739  -533  -649  -1046  -1542  -1895  -1998  -1902  -1669  -1369  -1109  -975  -981  -1100  -1279  -1449  -1561  -1594  -1532  -1374  -1174  -1017  -945  -933  -937  -945  -974  -1025  -1050  -991  -823  -553  -256  -56  3  -18  -55  -85  -103  -86  20  242  525  771  907  911  836  767  737  707  651  588  544  500  418  291  144  3  -116  -207  -268  -325  -402  -500  -586  -628  -636  -680  -822  -1024  -1175  -1217  -1175  -1094  -1010  -959  -960  -1001  -1049  -1084  -1096  -1058  -931  -739  -565  -476  -480  -545  -628  -695  -734  -748  -745  -727  -686  -618  -544  -512  -553  -643  -700  -662  -537  -382  -234  -114  -71  -201  -569  -1054  -1388  -1388  -1068  -622  -292  -144  -82  -36  -26  -76  -145  -223  -406  -696  -915  -927  -780  -649  -647  -685  -608  -392  -97  278  745  1178  1413  1384  1122  742  376  60  -192  -289  -187  0  121  150  122  26  -181  -461  -683  -759  -648  -313  128  360  200  -182  -407  64  1779  4807  8516  11813  13531  12976  10365  6707  3245  835  -350  -662  -648  -636  -604  -531  -492  -479  -420  -280  -135  -124  -286  -535  -773  -950  -1046  -1051  -963  -778  -510  -248  -96  -59  -57  -23  38  86  96  87  99  172  310  481  632  721  744  737  726  713  693  683  738  915  1183  1409  1504  1493  1443  1361  1227  1086  1005  975  920  809  698  646  650  674  691  699  703  679  567  347  102  -60  -117  -124  -145  -205  -282  -359  -443  -511  -546  -586  -661  -713  -647  -475  -316  -231  -219  -330  -639  -1064  -1371  -1396  -1147  -776  -484  -353  -319  -319  -346  -420  -544  -665  -713  -706  -718  -779  -856  -886  -839  -766  -731  -739  -771  -814  -864  -917  -979  -1066  -1190  -1327  -1429  -1474  -1452  -1337  -1141  -958  -885  -928  -1020  -1084  -1104  -1104  -1105  -1107  -1089  -1019  -890  -735  -595  -501  -462  -453  -433  -413  -454  -617  -887  -1154  -1308  -1345  -1331  -1313  -1302  -1320  -1429  -1667  -1952  -2144  -2186  -2116  -2014  -1979  -2020  -1887  -1210  116  1989  4403  7146  9580  10973  10785  8962  6121  3156  788  -655  -1300  -1472  -1454  -1453  -1526  -1602  -1625  -1597  -1538  -1477  -1424  -1368  -1319  -1297  -1289  -1270  -1238  -1201  -1162  -1124  -1087  -1018  -878  -705  -597  -580  -564  -493  -394  -291  -158  10  141  142  53  4  11  2  -18  -5  66  240  603  1155  1704  2019  2005  1678  1166  720  543  636  853  1046  1157  1195  1142  930  537  96  -194  -284  -271  -245  -212  -148  -62  11  68  113  105  20  -82  -137  -151  -191  -318  -506  -664  -747  -775  -759  -659  -432  -133  98  179  106  -97  -356  -557  -655  -667  -625  -579  -567  -583  -600  -603  -593  -586  -619  -722  -863  -968  -1004  -1001  -1005  -1039  -1093  -1134  -1141  -1120  -1096  -1087  -1085  -1080  -1073  -1066  -1058  -1046  -1039  -1049  -1058  -1040  -1001  -957  -898  -807  -680  -527  -374  -255  -182  -140  -116  -136  -238  -409  -584  -719  -811  -903  -1030  -1143  -1180  -1169  -1212  -1392  -1684  -1965  -2135  -2197  -2243  -2322  -2331  -2163  -1852  -1486  -1044  -166  1653  4489  7847  10809  12263  11493  8716  4991  1675  -287  -942  -995  -1001  -1216  -1637  -1991  -2098  -2026  -1886  -1754  -1682  -1672  -1691  -1701  -1655  -1530  -1373  -1245  -1157  -1109  -1107  -1130  -1146  -1144  -1140  -1154  -1184  -1190  -1084  -798  -424  -152  -50  -23  12  69  151  276  427  549  603  603  586  582  622  724  873  1024  1129  1158  1134  1091  1025  912  767  649  596  584  556  453  247  4  -155  -191  -186  -270  -522  -865  -1128  -1218  -1141  -915  -620  -396  -322  -411  -656  -942  -1017  -731  -259  50  38  -158  -328  -395  -394  -354  -269  -156  -77  -87  -204  -381  -536  -644  -735  -812  -832  -784  -664  -476  -302  -230  -267  -367  -469  -544  -604  -629  -589  -515  -449  -400  -368  -354  -357  -381  -414  -448  -491  -535  -564  -577  -559  -454  -217  81  297  361  310  197  73  -8  7  176  485  816  1044  1109  918  376  -351  -884  -1031  -877  -584  -315  -204  -284  -474  -669  -809  -870  -829  -678  -556  -712  -1071  -1170  -698  447  2371  4955  7742  10212  11913  12291  10931  8181  5032  2400  732  -35  -296  -422  -566  -767  -1031  -1224  -1194  -966  -690  -498  -430  -481  -665  -952  -1214  -1320  -1244  -1066  -890  -755  -628  -499  -407  -369  -358  -355  -360  -377  -392  -366  -262  -116  -29  -47  -80  5  285  749  1276  1664  1784  1708  1601  1542  1508  1477  1464  1483  1497  1406  1120  725  436  368  469  627  751  785  670  372  -9  -288  -396  -377  -257  -86  3  -81  -285  -479  -594  -628  -591  -478  -292  -83  55  51  -120  -410  -704  -926  -1057  -1066  -918  -667  -426  -261  -156  -83  -53  -83  -157  -267  -424  -591  -704  -764  -828  -911  -975  -996  -995  -999  -1014  -1010  -905  -641  -320  -179  -350  -704  -1000  -1140  -1190  -1218  -1250  -1308  -1397  -1517  -1652  -1759  -1809  -1819  -1821  -1833  -1853  -1863  -1828  -1721  -1577  -1473  -1437  -1432  -1424  -1413  -1418  -1438  -1444  -1424  -1415  -1447  -1513  -1593  -1667  -1710  -1700  -1646  -1579  -1521  -1464  -1401  -1340  -1297  -1294  -1392  -1661  -2080  -2442  -2363  -1501  112  2150  4433  6897  9254  11068  11846  11039  8558  5174  1992  -219  -1282  -1604  -1654  -1518  -1266  -1108  -1067  -1064  -1097  -1175  -1278  -1370  -1433  -1456  -1423  -1333  -1239  -1181  -1087  -897  -688  -588  -639  -773  -881  -921  -928  -938  -946  -901  -754  -516  -231  90  383  515  480  426  468  579  665  683  670  709  862  1089  1274  1341  1283  1151  1018  914  822  750  727  752  774  676  361  -85  -436  -549  -394  27  570  930  816  141  -797  -1476  -1641  -1405  -1004  -662  -502  -504  -586  -683  -729  -691  -599  -510  -491  -603  -816  -996  -1013  -785  -335  150  448  464  224  -164  -517  -706  -774  -830  -901  -936  -891  -795  -712  -668  -657  -681  -748  -837  -903  -917  -881  -808  -727  -669  -646  -646  -651  -644  -618  -583  -555  -542  -539  -545  -556  -562  -527  -420  -272  -162  -142  -203  -302  -374  -331  -98  281  622  756  660  433  213  70  -6  -20  45  166  261  261  159  -30  -317  -643  -869  -926  -865  -764  -706  -782  -1014  -1200  -1089  -713  -141  804  2273  4364  7166  10197  12373  12824  11286  8202  4725  2000  415  -247  -447  -632  -859  -913  -819  -790  -875  -961  -978  -975  -1004  -1050  -1069  -1088  -1213  -1474  -1725  -1751  -1463  -1020  -683  -554  -559  -589  -591  -571  -556  -556  -547  -491  -372  -240  -167  -164  -188  -198  -174  -91  91  373  674  894  997  1019  1002  941  820  676  590  597  668  756  829  877  907  917  855  641  272  -105  -328  -374  -328  -269  -235  -239  -286  -366  -465  -586  -729  -854  -913  -907  -871  -852  -860  -851  -780  -651  -505  -396  -351  -346  -350  -354  -370  -415  -476  -537  -618  -751  -921  -1068  -1105  -982  -750  -522  -377  -321  -356  -509  -771  -1034  -1183  -1187  -1090  -962  -875  -865  -921  -1001  -1068  -1111  -1122  -1043  -809  -473  -200  -77  -54  -66  -101  -183  -330  -504  -629  -661  -596  -449  -280  -160  -89  -10  88  173  229  282  347  411  463  500  481  308  -81  -589  -986  -1126  -1067  -999  -1022  -1060  -1023  -969  -963  -858  -462  34  198  88  384  1681  4104  7279  10300  12089  12000  10068  6949  3750  1474  368  29  -64  -204  -364  -451  -531  -721  -999  -1256  -1469  -1676  -1859  -1970  -1977  -1874  -1666  -1398  -1172  -1046  -984  -942  -909  -895  -922  -967  -973  -938  -897  -863  -829  -767  -645  -496  -387  -336  -324  -313  -253  -105  103  287  393  477  643  942  1300  1532  1452  1002  383  -69  -225  -200  -94  82  296  449  474  361  116  -208  -503  -660  -640  -464  -220  -26  46  -46  -369  -880  -1366  -1643  -1713  -1663  -1531  -1321  -1085  -901  -792  -733  -699  -664  -612  -551  -518  -541  -611  -707  -803  -872  -900  -880  -803  -681  -557  -473  -437  -431  -428  -429  -458  -542  -653  -736  -783  -840  -919  -978  -965  -869  -733  -635  -602  -602  -589  -538  -482  -468  -470  -437  -387  -382  -452  -566  -666  -721  -739  -741  -733  -695  -595  -432  -251  -105  -20  28  103  239  406  539  589  510  255  -122  -475  -704  -812  -842  -839  -840  -855  -865  -873  -925  -1083  -1299  -1398  -1299  -976  -232  1069  2863  5074  7553  9895  11525  11904  10738  8246  5168  2306  242  -766  -953  -832  -809  -1017  -1293  -1442  -1466  -1453  -1445  -1445  -1447  -1451  -1457  -1459  -1439  -1402  -1376  -1383  -1394  -1323  -1093  -761  -499  -395  -413  -488  -577  -639  -641  -558  -398  -230  -130  -106  -108  -84  -9  114  268  445  644  850  1032  1158  1217  1225  1219  1232  1263  1254  1145  948  727  536  407  340  306  271  204  92  -49  -191  -299  -334  -293  -230  -213  -271  -387  -510  -596  -637  -671  -729  -794  -835  -851  -860  -848  -769  -591  -357  -182  -144  -219  -330  -418  -464  -473  -468  -461  -453  -450  -468  -527  -609  -652  -637  -644  -717  -806  -859  -868  -852  -835  -834  -833  -797  -730  -668  -610  -516  -405  -377  -501  -720  -902  -987  -1000  -981  -947  -879  -727  -491  -310  -352  -592  -852  -972  -895  -705  -546  -408  -122  392  945  1184  945  422  -25  -219  -230  -187  -147  -126  -167  -330  -592  -822  -909  -863  -765  -682  -645  -656  -680  -698  -808  -1042  -1085  -568  603  2557  5439  8893  11986  13563  12792  9794  5753  2235  177  -521  -566  -638  -949  -1222  -1208  -1031  -910  -883  -887  -891  -916  -1008  -1151  -1221  -1138  -1015  -1006  -1132  -1297  -1385  -1344  -1220  -1062  -891  -739  -607  -467  -391  -514  -794  -1013  -1048  -962  -843  -687  -481  -277  -115  38  193  300  363  455  611  777  886  917  893  856  823  752  593  387  220  107  18  -46  -92  -154  -253  -366  -451  -486  -474  -426  -358  -275  -207  -222  -352  -540  -688  -748  -762  -776  -770  -708  -632  -655  -780  -864  -827  -734  -660  -607  -538  -459  -411  -425  -504  -632  -776  -881  -896  -819  -687  -514  -330  -210  -208  -313  -459  -562  -597  -596  -586  -562  -513  -468  -479  -533  -518  -399  -329  -463  -729  -914  -908  -773  -621  -516  -469  -467  -488  -517  -550  -601  -668  -720  -707  -586  -370  -136  61  239  400  504  518  423  224  -16  -199  -279  -314  -399  -574  -806  -1015  -1144  -1232  -1377  -1568  -1661  -1541  -1258  -961  -717  -517  -348  -206  -37  601  2386  5382  8862  11697  12789  11728  9013  5664  2766  934  39  -426  -801  -1085  -1195  -1180  -1153  -1198  -1359  -1591  -1784  -1854  -1799  -1661  -1514  -1428  -1417  -1444  -1442  -1336  -1093  -805  -619  -622  -808  -1081  -1305  -1385  -1245  -831  -278  114  180  -29  -340  -560  -568  -330  96  581  992  1252  1326  1168  758  242  -116  -184  0  342  752  1139  1400  1453  1249  812  322  -7  -142  -188  -238  -336  -468  -588  -677  -747  -790  -802  -793  -787  -805  -836  -843  -821  -815  -837  -857  -846  -803  -742  -683  -661  -718  -828  -911  -944  -964  -992  -1011  -962  -814  -631  -512  -482  -504  -542  -578  -597  -573  -485  -362  -268  -236  -265  -345  -445  -508  -516  -513  -576  -764  -1068  -1374  -1499  -1302  -804  -244  99  132  -61  -336  -584  -804  -1000  -1081  -972  -737  -532  -447  -403  -292  -129  10  88  113  123  157  212  235  153  -60  -326  -515  -571  -537  -503  -546  -688  -869  -1000  -1046  -1025  -949  -823  -678  -611  -750  -979  -909  -315  823  2592  4957  7663  10314  12190  12417  10689  7535  3969  1039  -608  -983  -585  -40  199  -37  -623  -1198  -1487  -1529  -1480  -1415  -1337  -1258  -1229  -1270  -1316  -1282  -1147  -937  -695  -499  -434  -506  -634  -774  -927  -1012  -887  -527  -105  166  234  198  169  212  316  438  573  728  872  975  1041  1099  1160  1209  1235  1239  1201  1093  940  830  842  997  1224  1385  1346  1060  633  267  76  49  94  57  -143  -436  -686  -807  -789  -681  -553  -461  -445  -545  -797  -1133  -1385  -1426  -1221  -829  -423  -177  -109  -128  -184  -284  -416  -512  -532  -511  -496  -504  -533  -604  -744  -912  -996  -933  -782  -662  -631  -678  -783  -914  -1000  -962  -764  -484  -283  -264  -423  -666  -863  -946  -948  -926  -914  -932  -997  -1086  -1149  -1150  -1089  -1005  -938  -895  -853  -797  -699  -521  -300  -139  -51  44  187  328  417  450  423  302  54  -293  -634  -875  -999  -1040  -1041  -1030  -1009  -978  -939  -899  -881  -937  -1141  -1530  -1959  -2054  -1490  -295  1289  3142  5236  7517  9782  11502  11984  10741  7955  4571  1591  -452  -1379  -1361  -962  -739  -807  -994  -1223  -1495  -1751  -1911  -1938  -1890  -1844  -1797  -1723  -1657  -1635  -1642  -1619  -1488  -1205  -845  -547  -363  -280  -339  -594  -1000  -1407  -1662  -1697  -1481  -1026  -496  -131  -7  -4  40  207  449  678  886  1086  1226  1248  1128  888  614  409  301  268  303  399  506  565  568  547  533  528  508  420  225  -33  -310  -624  -927  -1110  -1130  -1029  -888  -790  -760  -768  -784  -795  -801  -812  -840  -877  -906  -921  -933  -938  -905  -803  -656  -531  -465  -442  -436  -443  -469  -503  -527  -537  -539  -533  -506  -462  -457  -558  -736  -876  -918  -891  -848  -817  -797  -770  -732  -703  -708  -762  -843  -889  -852  -745  -628  -555  -525  -499  -462  -427  -409  -418  -471  -572  -672  -704  -637  -474  -257  -64  51  79  36  -44  -125  -197  -274  -355  -417  -444  -445  -432  -417  -430  -511  -683  -933  -1191  -1355  -1378  -1296  -1160  -1019  -906  -792  -544  105  1474  3787  6964  10348  12825  13434  11903  8739  5031  1966  198  -368  -350  -446  -892  -1408  -1723  -1835  -1830  -1762  -1655  -1507  -1326  -1165  -1064  -1022  -1017  -1024  -1029  -1030  -1030  -1028  -1024  -1021  -1031  -1067  -1126  -1176  -1165  -1035  -765  -401  -26  272  446  523  553  572  601  647  701  750  778  781  774  776  815  909  1040  1152  1210  1225  1211  1159  1048  879  690  533  434  388  381  402  440  465  396  146  -248  -628  -843  -854  -765  -712  -722  -746  -763  -788  -832  -896  -959  -959  -851  -694  -590  -560  -556  -541  -517  -492  -459  -414  -366  -317  -276  -271  -337  -475  -658  -836  -959  -998  -939  -786  -598  -479  -467  -514  -567  -634  -739  -872  -985  -1050  -1066  -1028  -913  -740  -569  -440  -381  -431  -573  -713  -784  -793  -783  -782  -798  -808  -753  -580  -336  -133  2  136  283  388  417  392  352  320  305  290  236  123  -47  -277  -545  -784  -939  -996  -975  -902  -797  -683  -604  -601  -694  -869  -1072  -1252  -1272  -788  496  2545  5114  7899  10410  11993  12057  10441  7640  4561  2079  647  84  -124  -367  -746  -1098  -1244  -1233  -1210  -1231  -1295  -1382  -1466  -1517  -1478  -1306  -1069  -900  -846  -851  -858  -852  -840  -836  -859  -904  -936  -938  -930  -932  -913  -825  -675  -509  -323  -105  91  216  275  297  317  368  443  494  520  580  699  836  947  1011  1018  992  980  985  931  766  552  389  310  290  282  205  -25  -386  -736  -969  -1101  -1174  -1186  -1144  -1068  -974  -899  -890  -952  -1044  -1102  -1090  -1030  -985  -985  -980  -932  -873  -860  -893  -922  -902  -825  -718  -622  -565  -546  -546  -555  -563  -567  -577  -599  -626  -651  -676  -724  -833  -1005  -1169  -1250  -1235  -1138  -958  -743  -628  -696  -866  -982  -977  -909  -844  -798  -769  -762  -783  -823  -838  -780  -646  -490  -371  -314  -328  -420  -559  -684  -751  -725  -570  -297  14  264  366  300  144  11  -44  -39  -23  -58  -191  -433  -710  -906  -989  -1008  -1007  -1000  -993  -993  -1004  -1017  -1000  -899  -779  -860  -1108  -979  85  2292  5419  8764  11488  12931  12601  10465  7269  4044  1468  -157  -902  -1135  -1135  -1035  -995  -1072  -1169  -1214  -1225  -1240  -1250  -1203  -1093  -1004  -1029  -1163  -1299  -1319  -1230  -1137  -1095  -1065  -1000  -905  -830  -798  -789  -763  -675  -467  -126  244  477  467  226  -114  -348  -323  -27  383  693  856  955  972  835  586  365  289  375  524  602  552  433  340  313  320  316  273  195  93  -50  -265  -523  -734  -846  -866  -824  -759  -706  -679  -664  -643  -635  -718  -968  -1305  -1487  -1305  -779  -168  221  253  -8  -361  -626  -779  -868  -903  -868  -773  -688  -651  -622  -613  -683  -788  -840  -794  -682  -616  -655  -715  -753  -824  -900  -878  -705  -412  -107  70  30  -232  -595  -871  -985  -994  -964  -903  -790  -631  -490  -429  -449  -491  -475  -416  -415  -489  -550  -522  -395  -223  -66  56  134  176  205  236  270  290  275  214  115  7  -144  -405  -706  -894  -938  -921  -928  -995  -1095  -1167  -1192  -1204  -1233  -1265  -1214  -929  -246  990  2899  5506  8583  11408  12960  12519  10128  6543  2837  43  -1264  -1333  -939  -662  -663  -941  -1381  -1741  -1873  -1791  -1553  -1263  -1063  -1013  -1069  -1167  -1265  -1358  -1466  -1581  -1662  -1695  -1707  -1718  -1699  -1579  -1312  -931  -451  148  769  1151  1055  426  -448  -1072  -1155  -759  -157  352  671  877  1026  1128  1217  1327  1426  1449  1398  1347  1345  1366  1312  1073  652  208  -81  -164  -95  21  109  153  174  138  -46  -408  -805  -1052  -1124  -1130  -1137  -1107  -982  -795  -641  -559  -527  -525  -567  -680  -835  -955  -999  -964  -853  -695  -562  -504  -517  -553  -574  -573  -551  -513  -468  -427  -400  -392  -407  -450  -508  -551  -560  -537  -504  -508  -583  -696  -780  -805  -788  -759  -740  -732  -733  -737  -732  -701  -645  -594  -573  -570  -551  -492  -415  -363  -353  -383  -458  -562  -642  -639  -513  -270  18  271  446  551  605  603  493  239  -71  -282  -339  -308  -261  -241  -304  -498  -767  -964  -998  -882  -697  -576  -696  -1143  -1637  -1647  -968  222  1875  4094  6786  9531  11624  12239  10895  7947  4536  1826  253  -403  -591  -773  -1139  -1422  -1398  -1279  -1294  -1390  -1455  -1471  -1445  -1368  -1243  -1110  -1023  -998  -1005  -1005  -984  -960  -928  -857  -747  -655  -623  -637  -666  -695  -708  -663  -515  -262  35  294  460  547  603  644  674  716  778  833  849  830  805  792  789  785  786  802  812  799  778  774  787  789  742  614  371  8  -379  -644  -729  -698  -644  -619  -631  -677  -735  -770  -770  -758  -791  -924  -1140  -1361  -1525  -1595  -1499  -1177  -734  -417  -390  -640  -1006  -1271  -1281  -991  -492  -13  231  150  -243  -773  -1144  -1192  -968  -650  -412  -298  -251  -263  -369  -549  -744  -909  -994  -951  -795  -604  -465  -402  -398  -490  -729  -1050  -1295  -1377  -1311  -1122  -885  -717  -665  -690  -743  -801  -824  -702  -339  153  513  626  588  515  432  315  179  89  44  -49  -286  -623  -904  -1034  -1047  -1004  -925  -828  -747  -697  -693  -797  -1052  -1372  -1563  -1425  -815  316  1996  4196  6774  9497  11853  12949  12054  9374  5940  2741  419  -755  -1069  -1037  -912  -804  -872  -1114  -1335  -1429  -1439  -1431  -1434  -1437  -1403  -1311  -1210  -1147  -1083  -990  -929  -956  -1038  -1111  -1140  -1121  -1051  -931  -783  -632  -502  -418  -387  -372  -311  -172  -8  87  106  142  283  497  681  775  805  802  760  661  533  445  439  515  632  741  807  825  792  679  444  83  -325  -662  -857  -913  -828  -586  -226  112  249  71  -376  -883  -1242  -1405  -1442  -1434  -1430  -1429  -1382  -1242  -1050  -894  -785  -665  -506  -345  -281  -425  -764  -1121  -1328  -1344  -1249  -1149  -1076  -999  -887  -739  -596  -517  -511  -530  -535  -532  -567  -686  -884  -1080  -1196  -1214  -1170  -1100  -1017  -900  -719  -515  -361  -268  -186  -98  -43  -71  -190  -342  -439  -462  -448  -420  -362  -236  -36  170  304  352  359  359  363  359  314  192  -11  -254  -469  -593  -611  -563  -524  -578  -714  -805  -789  -736  -711  -689  -607  -483  -480  -685  -830  -518  408  1973  4290  7308  10440  12745  13463  12290  9542  6190  3256  1190  -139  -1032  -1543  -1611  -1412  -1217  -1133  -1129  -1148  -1169  -1222  -1326  -1446  -1523  -1544  -1530  -1478  -1364  -1200  -1046  -937  -874  -850  -853  -867  -874  -840  -739  -603  -503  -458  -423  -355  -268  -208  -191  -185  -139  -14  195  468  750  960  1052  1063  1056  1055  1039  962  802  596  423  336  323  337  337  291  184  33  -126  -255  -338  -385  -417  -444  -480  -543  -606  -609  -555  -519  -548  -638  -754  -813  -819  -909  -1109  -1232  -1121  -852  -660  -677  -806  -903  -931  -913  -887  -900  -979  -1085  -1139  -1104  -1011  -904  -776  -627  -508  -459  -482  -564  -669  -743  -768  -763  -751  -746  -764  -817  -881  -902  -853  -779  -755  -787  -827  -849  -879  -939  -989  -954  -836  -695  -562  -442  -358  -326  -329  -336  -342  -352  -349  -300  -194  -55  66  130  124  70  12  -26  -51  -85  -173  -344  -556  -728  -814  -835  -834  -816  -758  -670  -598  -585  -685  -918  -1198  -1376  -1271  -751  163  1535  3573  6245  9164  11666  12800  11906  9286  5891  2715  556  -357  -517  -526  -619  -781  -956  -1115  -1227  -1253  -1214  -1180  -1210  -1328  -1500  -1665  -1790  -1857  -1860  -1805  -1700  -1564  -1423  -1304  -1194  -1043  -835  -619  -455  -368  -323  -255  -159  -83  -55  -60  -83  -110  -102  -2  199  454  686  830  879  882  879  877  874  874  888  930  988  1034  1053  1047  1031  1018  989  900  722  469  198  -30  -215  -374  -504  -595  -648  -671  -677  -656  -576  -434  -283  -185  -169  -246  -399  -567  -684  -732  -737  -730  -718  -695  -664  -641  -635  -631  -599  -517  -403  -305  -250  -245  -297  -397  -526  -658  -754  -791  -782  -756  -737  -729  -721  -735  -817  -954  -1073  -1110  -1033  -860  -648  -460  -343  -305  -315  -343  -372  -390  -391  -382  -376  -401  -481  -595  -686  -725  -726  -714  -695  -657  -605  -575  -578  -551  -378  13  533  958  1118  958  499  -98  -567  -773  -791  -754  -723  -706  -716  -789  -933  -1086  -1171  -1180  -1151  -1097  -1055  -1041  -882  -337  752  2680  5621  8999  11761  13093  12564  10255  6960  3777  1365  -169  -849  -829  -579  -545  -823  -1223  -1544  -1748  -1848  -1786  -1570  -1338  -1206  -1169  -1175  -1223  -1342  -1509  -1630  -1605  -1389  -1054  -773  -646  -630  -627  -591  -536  -507  -523  -547  -508  -366  -163  4  90  124  151  181  192  179  193  334  650  1052  1374  1539  1584  1538  1374  1110  849  677  585  518  427  286  104  -58  -150  -189  -216  -237  -238  -230  -225  -273  -459  -749  -981  -1070  -1067  -1035  -998  -968  -951  -949  -955  -963  -968  -961  -931  -873  -783  -653  -506  -417  -433  -496  -523  -523  -577  -753  -1001  -1187  -1252  -1234  -1169  -1069  -987  -997  -1095  -1177  -1139  -962  -749  -636  -650  -731  -822  -887  -921  -928  -874  -712  -482  -318  -358  -651  -1074  -1371  -1326  -897  -291  147  233  5  -385  -744  -932  -930  -765  -491  -221  -57  -3  -7  -29  -48  -34  35  135  191  149  1  -226  -496  -777  -1017  -1151  -1146  -1021  -847  -713  -669  -728  -895  -1127  -1226  -816  449  2700  5786  9127  11751  12724  11604  8679  4984  1832  36  -446  -216  26  -164  -704  -1149  -1277  -1233  -1181  -1158  -1129  -1063  -978  -922  -911  -920  -926  -920  -900  -892  -933  -1001  -1004  -900  -758  -674  -671  -692  -666  -538  -295  -15  180  242  227  239  307  368  360  318  384  670  1057  1273  1205  1020  946  1029  1152  1238  1294  1319  1256  1054  773  568  525  618  770  866  756  345  -228  -675  -873  -931  -963  -999  -1036  -1078  -1122  -1149  -1140  -1084  -1003  -947  -963  -1066  -1215  -1329  -1360  -1293  -1127  -895  -680  -556  -520  -525  -533  -533  -527  -518  -506  -498  -528  -633  -799  -944  -979  -888  -751  -673  -691  -758  -782  -737  -692  -690  -705  -710  -712  -727  -765  -824  -880  -906  -888  -827  -735  -625  -529  -490  -524  -589  -629  -599  -464  -241  -20  125  204  239  228  179  133  112  117  140  159  99  -125  -485  -816  -992  -1023  -985  -945  -931  -938  -955  -990  -1045  -1098  -1127  -1133  -1131  -1061  -722  80  1452  3453  6012  8704  10818  11686  10907  8640  5673  2895  818  -475  -1192  -1483  -1378  -1103  -965  -1021  -1159  -1299  -1384  -1367  -1231  -1013  -798  -679  -770  -1147  -1647  -1911  -1753  -1346  -972  -711  -516  -394  -365  -390  -394  -323  -176  4  168  258  214  11  -275  -491  -534  -379  -44  391  778  988  1032  1024  1062  1167  1308  1442  1543  1590  1522  1230  706  156  -188  -323  -373  -415  -463  -510  -547  -565  -553  -496  -412  -367  -406  -501  -602  -706  -824  -940  -1034  -1062  -1004  -899  -787  -676  -578  -508  -471  -471  -541  -677  -812  -892  -890  -832  -824  -887  -921  -901  -880  -868  -819  -706  -579  -515  -493  -465  -479  -560  -642  -670  -657  -631  -612  -605  -606  -608  -613  -627  -648  -663  -655  -606  -500  -336  -182  -181  -420  -754  -890  -714  -449  -350  -403  -469  -499  -505  -469  -345  -142  53  165  169  52  -194  -509  -787  -988  -1129  -1211  -1218  -1143  -1024  -983  -1103  -1299  -1444  -1490  -1378  -1065  -610  -21  884  2313  4336  6841  9445  11403  11795  10201  7110  3606  750  -889  -1363  -1134  -732  -456  -362  -444  -709  -1136  -1590  -1893  -1988  -1895  -1597  -1126  -664  -404  -371  -472  -644  -842  -1002  -1090  -1124  -1136  -1143  -1140  -1103  -1008  -865  -669  -374  -8  275  389  376  302  210  147  194  433  827  1194  1393  1442  1420  1350  1225  1113  1134  1302  1477  1504  1317  987  686  521  451  389  263  23  -278  -495  -547  -481  -383  -316  -295  -313  -366  -455  -567  -672  -743  -768  -752  -724  -691  -641  -583  -567  -631  -751  -862  -921  -940  -938  -911  -849  -769  -712  -704  -734  -777  -814  -839  -855  -853  -823  -771  -724  -715  -744  -777  -798  -811  -817  -800  -714  -539  -343  -232  -258  -400  -609  -840  -1039  -1152  -1174  -1149  -1124  -1100  -1038  -916  -802  -804  -912  -985  -905  -695  -467  -285  -110  79  224  278  267  236  190  67  -171  -446  -629  -678  -660  -661  -742  -907  -1090  -1214  -1259  -1252  -1228  -1223  -1246  -1247  -1168  -984  -647  -198  325  1245  3031  5705  8590  10550  10694  8953  6029  3061  1085  376  447  593  331  -388  -1213  -1756  -1938  -1923  -1871  -1834  -1801  -1737  -1605  -1431  -1292  -1219  -1188  -1170  -1136  -1077  -1023  -1002  -1012  -1026  -1015  -964  -884  -807  -754  -704  -624  -500  -341  -142  86  236  232  198  294  531  806  986  1035  1056  1135  1262  1433  1646  1831  1905  1824  1590  1292  1062  947  873  735  497  220  -20  -189  -274  -294  -290  -297  -324  -357  -381  -389  -392  -391  -380  -343  -290  -246  -229  -240  -267  -292  -310  -322  -325  -319  -323  -376  -487  -592  -620  -585  -538  -487  -423  -341  -227  -105  -47  -97  -222  -328  -331  -247  -171  -138  -87  8  98  134  114  64  11  -40  -108  -186  -269  -387  -535  -643  -639  -502  -290  -123  -60  -64  -85  -92  -63  -28  -43  -137  -271  -369  -410  -428  -439  -386  -185  148  467  654  728  761  792  808  770  676  586  528  484  440  399  361  326  293  247  134  -103  -417  -644  -689  -610  -508  -454  -477  -575  -753  -999  -1246  -1382  -1230  -609  500  2037  4052  6541  9145  11144  11743  10541  7924  4885  2388  843  113  -112  -186  -452  -928  -1324  -1477  -1476  -1420  -1310  -1131  -910  -712  -593  -593  -757  -1082  -1438  -1663  -1724  -1688  -1614  -1537  -1491  -1491  -1511  -1492  -1358  -1084  -740  -417  -152  48  171  211  201  186  211  305  440  555  624  674  724  766  786  771  718  649  596  571  553  505  409  276  153  109  169  266  300  238  76  -203  -552  -845  -1032  -1145  -1203  -1216  -1208  -1197  -1193  -1201  -1222  -1248  -1266  -1272  -1274  -1278  -1277  -1243  -1152  -1037  -971  -979  -1015  -1046  -1078  -1117  -1151  -1177  -1190  -1177  -1111  -992  -905  -960  -1125  -1226  -1152  -972  -826  -770  -771  -807  -882  -984  -1067  -1087  -1009  -819  -585  -432  -453  -656  -936  -1136  -1196  -1167  -1114  -1081  -1110  -1240  -1448  -1639  -1738  -1734  -1624  -1392  -1082  -820  -711  -760  -905  -1084  -1209  -1208  -1148  -1138  -1161  -1166  -1163  -1170  -1192  -1218  -1211  -1120  -927  -685  -486  -390  -417  -561  -762  -898  -831  -506  -56  266  342  241  96  2  -22  -28  -59  -120  -204  -322  -456  -552  -594  -618  -643  -644  -601  -544  -512  -469  -305  4  224  24  -546  -960  -599  974  3864  7620  11290  13677  13822  11662  8134  4605  2139  967  540  139  -427  -810  -795  -620  -557  -649  -842  -1063  -1212  -1244  -1195  -1123  -1062  -1003  -952  -974  -1088  -1172  -1074  -758  -297  159  436  442  225  -49  -204  -199  -132  -81  -63  -81  -144  -249  -346  -375  -308  -136  146  472  720  845  910  992  1077  1102  1073  1032  988  938  888  834  747  575  313  54  -102  -161  -179  -157  -71  40  75  -29  -242  -462  -608  -666  -673  -688  -746  -842  -931  -973  -950  -832  -590  -293  -91  -68  -209  -435  -627  -702  -670  -597  -538  -506  -486  -478  -509  -609  -768  -903  -921  -789  -563  -341  -172  -58  -5  -14  -81  -228  -456  -682  -806  -832  -845  -917  -1039  -1134  -1128  -986  -728  -424  -158  -14  -69  -347  -732  -1007  -1036  -834  -518  -232  -59  -9  -58  -151  -228  -285  -398  -631  -900  -1054  -1059  -966  -806  -592  -375  -230  -179  -195  -272  -408  -535  -548  -433  -256  -82  50  121  144  149  147  145  174  260  381  484  547  568  538  444  289  108  -94  -372  -698  -937  -1009  -948  -812  -663  -595  -705  -960  -1126  -1037  -755  -279  585  2154  4624  7663  10422  11998  11852  10003  7027  3945  1726  630  267  139  -44  -347  -692  -962  -1086  -1078  -1005  -930  -886  -877  -897  -944  -991  -961  -789  -528  -316  -231  -248  -319  -406  -462  -449  -349  -200  -96  -146  -406  -789  -1105  -1246  -1199  -917  -359  360  977  1288  1278  1050  755  553  533  679  912  1135  1283  1323  1246  1099  963  881  833  789  745  705  676  670  667  603  403  61  -314  -596  -770  -916  -1054  -1119  -1069  -949  -848  -801  -777  -745  -716  -696  -668  -605  -518  -449  -425  -435  -465  -504  -549  -634  -793  -973  -1038  -906  -670  -511  -515  -623  -737  -811  -844  -858  -879  -927  -1010  -1095  -1109  -994  -785  -596  -513  -531  -600  -663  -675  -629  -536  -395  -231  -125  -168  -403  -746  -1019  -1124  -1109  -1047  -952  -816  -683  -609  -595  -604  -613  -611  -600  -581  -557  -524  -486  -458  -441  -419  -389  -364  -348  -321  -242  -93  84  209  217  135  54  29  45  49  -25  -206  -412  -545  -623  -713  -813  -880  -912  -948  -1033  -1153  -1257  -1339  -1459  -1644  -1724  -1353  -341  1189  3063  5182  7453  9656  11237  11388  9714  6753  3677  1506  533  304  70  -587  -1374  -1699  -1494  -1180  -1024  -983  -963  -962  -1036  -1197  -1347  -1360  -1243  -1117  -1051  -1029  -1020  -1008  -991  -978  -977  -969  -913  -771  -541  -293  -126  -68  -64  -74  -71  -20  87  228  391  563  709  796  826  847  928  1111  1344  1504  1499  1327  1085  913  880  957  1073  1161  1170  1063  839  580  384  243  76  -140  -354  -519  -630  -693  -717  -715  -703  -698  -714  -759  -817  -852  -840  -796  -769  -795  -852  -900  -924  -932  -925  -887  -798  -668  -552  -506  -517  -532  -530  -518  -511  -515  -515  -499  -471  -439  -413  -406  -451  -579  -754  -884  -931  -916  -860  -771  -683  -635  -643  -680  -688  -618  -481  -339  -243  -215  -317  -612  -1013  -1302  -1341  -1164  -910  -720  -631  -589  -550  -503  -420  -277  -63  221  500  597  414  85  -151  -203  -152  -84  -27  -19  -108  -287  -492  -668  -777  -794  -762  -763  -803  -839  -878  -993  -1195  -1338  -1251  -893  -322  429  1574  3445  6012  8793  11037  11910  10925  8297  4916  1864  -193  -1142  -1244  -955  -669  -594  -761  -1028  -1231  -1293  -1211  -1047  -907  -913  -1126  -1451  -1700  -1784  -1729  -1573  -1382  -1250  -1204  -1188  -1141  -1043  -926  -850  -829  -806  -710  -501  -189  149  396  497  496  460  438  484  642  864  1040  1121  1134  1116  1094  1086  1096  1114  1119  1099  1072  1050  1028  1009  1009  1038  1088  1142  1182  1173  1043  737  300  -122  -403  -512  -505  -477  -510  -607  -706  -751  -736  -715  -740  -816  -899  -940  -923  -878  -839  -803  -750  -692  -662  -686  -769  -844  -839  -776  -719  -695  -704  -729  -733  -694  -649  -656  -709  -739  -705  -651  -656  -732  -805  -822  -800  -780  -773  -774  -779  -792  -811  -831  -840  -821  -762  -683  -628  -635  -716  -837  -922  -883  -668  -348  -85  33  54  48  43  34  17  -11  -67  -151  -237  -307  -370  -429  -501  -621  -825  -1076  -1272  -1354  -1357  -1338  -1325  -1279  -1087  -724  -284  284  1199  2655  4794  7435  9843  11108  10671  8590  5569  2602  471  -588  -916  -965  -874  -657  -459  -464  -760  -1238  -1641  -1834  -1863  -1749  -1447  -1026  -685  -546  -578  -711  -874  -997  -1060  -1079  -1055  -978  -880  -815  -779  -688  -519  -354  -249  -169  -84  -11  39  99  216  418  667  901  1088  1216  1275  1269  1202  1089  979  916  902  909  917  923  928  930  918  869  758  576  345  96  -164  -407  -567  -647  -722  -823  -909  -964  -1001  -1001  -907  -714  -510  -423  -501  -661  -786  -836  -836  -794  -693  -560  -463  -442  -485  -558  -630  -688  -724  -731  -727  -734  -752  -771  -801  -843  -872  -841  -730  -608  -587  -677  -788  -850  -862  -850  -833  -823  -827  -841  -867  -907  -951  -961  -848  -550  -163  104  135  -34  -277  -444  -459  -343  -178  -61  -35  -85  -183  -300  -411  -489  -510  -470  -404  -392  -521  -798  -1105  -1293  -1318  -1226  -1067  -896  -822  -918  -1046  -978  -562  432  2248  4794  7637  10140  11523  11201  9183  6169  3191  941  -395  -953  -1130  -1281  -1435  -1518  -1536  -1515  -1475  -1430  -1358  -1222  -1057  -978  -1056  -1238  -1414  -1516  -1524  -1443  -1319  -1222  -1186  -1198  -1225  -1212  -1056  -692  -228  116  234  187  93  29  7  8  23  71  156  266  388  520  638  721  796  916  1083  1241  1335  1318  1164  933  760  711  738  764  755  693  534  272  -2  -188  -268  -304  -342  -379  -401  -426  -482  -584  -727  -878  -1008  -1117  -1191  -1183  -1096  -998  -937  -907  -898  -923  -1000  -1103  -1164  -1142  -1053  -922  -760  -596  -479  -433  -481  -657  -931  -1172  -1264  -1207  -1092  -1016  -1013  -1049  -1084  -1097  -1057  -919  -696  -496  -417  -472  -598  -711  -768  -772  -740  -677  -588  -460  -283  -98  31  104  154  186  185  146  86  9  -118  -312  -544  -783  -996  -1136  -1187  -1180  -1141  -1079  -1012  -971  -998  -1111  -1247  -1243  -980  -485  198  1261  3036  5636  8705  11361  12507  11532  8739  5138  1958  90  -381  -168  -94  -406  -875  -1264  -1477  -1522  -1459  -1332  -1182  -1066  -1017  -1031  -1094  -1190  -1300  -1416  -1488  -1471  -1408  -1372  -1370  -1341  -1216  -995  -744  -546  -437  -376  -289  -176  -120  -167  -259  -317  -330  -290  -129  186  553  839  1041  1229  1411  1550  1632  1674  1683  1620  1436  1172  940  771  578  283  -48  -282  -386  -414  -406  -396  -413  -450  -483  -503  -516  -523  -522  -502  -450  -385  -363  -429  -569  -719  -829  -891  -926  -976  -1065  -1168  -1208  -1135  -992  -868  -808  -777  -721  -633  -557  -526  -528  -530  -513  -489  -503  -595  -751  -901  -982  -992  -968  -943  -931  -898  -783  -562  -308  -124  -50  -64  -144  -269  -412  -560  -697  -796  -840  -821  -695  -410  -1  385  614  670  595  416  197  47  -6  -59  -216  -467  -702  -848  -930  -992  -1016  -995  -993  -1053  -1127  -1160  -1126  -1016  -842  -609  -268  374  1723  4055  7105  10134  12238  12640  11004  7771  4125  1287  -195  -518  -310  -176  -314  -598  -890  -1192  -1558  -1939  -2192  -2229  -2081  -1843  -1613  -1420  -1245  -1105  -1034  -999  -927  -805  -711  -715  -787  -843  -860  -874  -905  -941  -960  -919  -775  -553  -339  -191  -100  -18  109  270  391  437  443  451  479  571  815  1229  1659  1894  1789  1315  680  223  75  101  156  187  175  97  -51  -233  -386  -468  -497  -520  -560  -601  -626  -636  -635  -625  -612  -620  -695  -856  -1042  -1162  -1177  -1106  -992  -882  -803  -760  -742  -735  -722  -693  -652  -603  -546  -474  -390  -327  -312  -344  -434  -578  -725  -829  -887  -928  -969  -991  -958  -852  -687  -492  -308  -198  -220  -391  -641  -845  -944  -972  -971  -953  -933  -910  -861  -759  -619  -498  -438  -430  -447  -473  -481  -408  -193  117  365  432  348  181  -59  -337  -544  -627  -626  -592  -543  -503  -520  -605  -683  -695  -697  -762  -866  -957  -1046  -1176  -1353  -1467  -1269  -502  992  3328  6395  9552  11881  12727  11871  9611  6728  4030  1922  432  -498  -934  -1046  -1070  -1164  -1319  -1450  -1508  -1502  -1453  -1369  -1265  -1182  -1145  -1141  -1153  -1181  -1224  -1265  -1280  -1266  -1237  -1200  -1126  -990  -830  -706  -626  -571  -517  -414  -230  -31  67  38  -17  -6  84  245  457  667  834  959  1041  1086  1118  1149  1167  1147  1056  899  734  627  598  618  649  633  485  167  -209  -470  -553  -534  -502  -499  -538  -629  -759  -885  -970  -991  -915  -740  -521  -347  -283  -354  -539  -759  -919  -980  -972  -935  -893  -857  -825  -780  -720  -653  -579  -521  -522  -586  -664  -727  -777  -822  -876  -937  -962  -906  -789  -663  -577  -571  -631  -673  -635  -542  -459  -411  -393  -421  -514  -630  -699  -717  -727  -742  -745  -744  -769  -846  -943  -971  -871  -688  -527  -438  -409  -409  -421  -429  -408  -324  -165  53  275  426  494  511  475  344  127  -74  -183  -239  -338  -556  -861  -1111  -1210  -1189  -1108  -1009  -939  -935  -1021  -1211  -1480  -1696  -1616  -1071  -97  1184  2830  5104  7962  10716  12438  12390  10429  7298  4124  1676  213  -376  -462  -457  -664  -1141  -1626  -1857  -1837  -1684  -1503  -1370  -1296  -1248  -1212  -1190  -1178  -1167  -1154  -1148  -1155  -1164  -1137  -1031  -858  -699  -617  -618  -675  -757  -807  -732  -468  -104  166  259  236  173  105  71  138  358  658  875  937  902  867  936  1186  1548  1821  1841  1546  1019  503  209  137  159  190  207  227  268  320  343  258  -14  -419  -769  -936  -944  -863  -725  -556  -417  -358  -421  -633  -922  -1126  -1139  -972  -737  -571  -538  -608  -713  -782  -760  -630  -450  -319  -293  -357  -462  -558  -626  -693  -769  -838  -896  -953  -996  -985  -877  -654  -354  -87  -28  -273  -686  -1013  -1144  -1146  -1108  -1056  -985  -905  -837  -800  -793  -797  -786  -756  -722  -700  -685  -664  -629  -574  -510  -476  -499  -560  -636  -713  -761  -736  -616  -441  -280  -162  -94  -93  -149  -237  -328  -389  -408  -403  -387  -366  -369  -465  -693  -973  -1161  -1214  -1194  -1172  -1185  -1239  -1308  -1326  -1183  -769  25  1450  3742  6696  9613  11650  12171  10980  8386  5175  2271  205  -893  -1153  -950  -691  -567  -599  -786  -1113  -1459  -1671  -1722  -1690  -1639  -1559  -1413  -1228  -1094  -1051  -1059  -1069  -1055  -1001  -911  -820  -775  -790  -844  -894  -913  -876  -712  -372  46  363  523  587  598  577  550  540  567  647  777  942  1124  1255  1234  1066  889  814  829  857  850  828  831  872  918  913  779  457  34  -292  -456  -548  -630  -686  -692  -649  -570  -469  -375  -373  -545  -827  -1059  -1144  -1103  -1012  -926  -846  -760  -685  -641  -617  -578  -508  -426  -362  -348  -408  -551  -727  -852  -896  -893  -860  -783  -666  -562  -533  -583  -652  -698  -792  -1044  -1401  -1653  -1646  -1393  -1067  -865  -812  -816  -823  -823  -798  -726  -635  -601  -683  -858  -1052  -1198  -1248  -1153  -900  -571  -298  -153  -127  -177  -249  -294  -288  -238  -159  -73  -9  10  -49  -240  -577  -958  -1226  -1339  -1367  -1373  -1378  -1381  -1361  -1296  -1197  -1111  -1089  -1158  -1252  -1247  -1139  -961  -467  777  2996  6010  9342  12125  13147  11735  8531  4887  1920  209  -328  -411  -752  -1390  -1887  -1978  -1740  -1398  -1167  -1138  -1270  -1457  -1593  -1637  -1593  -1469  -1310  -1195  -1161  -1189  -1245  -1285  -1280  -1236  -1177  -1137  -1138  -1147  -1074  -858  -573  -365  -271  -209  -136  -98  -131  -195  -213  -137  34  283  570  837  1024  1104  1100  1058  1035  1136  1452  1898  2229  2248  1908  1313  652  69  -353  -565  -607  -587  -574  -583  -604  -637  -678  -698  -671  -612  -564  -570  -676  -902  -1220  -1538  -1737  -1761  -1623  -1352  -1036  -825  -815  -995  -1254  -1435  -1423  -1199  -866  -592  -487  -582  -883  -1277  -1566  -1678  -1674  -1578  -1355  -1065  -856  -807  -867  -944  -979  -983  -968  -900  -773  -640  -543  -514  -594  -778  -982  -1096  -1082  -992  -889  -785  -687  -622  -602  -608  -626  -649  -651  -563  -325  21  340  508  486  265  -101  -476  -729  -826  -814  -753  -718  -853  -1284  -1892  -2327  -2310  -1824  -1136  -641  -518  -687  -950  -1042  -648  519  2521  5067  7751  10126  11509  11302  9483  6617  3605  1281  -4  -484  -613  -696  -817  -908  -890  -801  -736  -770  -961  -1294  -1640  -1869  -1933  -1844  -1653  -1447  -1303  -1222  -1163  -1107  -1044  -968  -895  -853  -839  -822  -762  -638  -486  -376  -325  -296  -269  -240  -142  105  442  691  776  765  732  698  677  708  822  965  1038  1018  970  946  945  949  947  936  914  869  796  701  606  540  494  414  260  63  -90  -128  -59  39  104  116  82  7  -121  -270  -344  -288  -149  0]
