reading_id,reading_time,wire_id,result_classification,heart_rate,heart_rate_alert,firmware_version,device_app_version,hardware_version,waveform_samples
9764fc80-782e-11ed-8080-808080808080,Sat Dec 10 02:01:42 UTC 2022,e100e3fd2639,NSR,81,NONE,20001.171.50,2.10.0,Charge 5,[0  263  541  728  668  293  -266  -774  -1068  -1010  -531  123  657  1217  2239  3956  6192  8419  9898  10011  8691  6413  3836  1606  136  -608  -866  -806  -656  -663  -850  -1066  -1209  -1276  -1297  -1263  -1095  -736  -305  6  162  248  280  155  -191  -607  -843  -862  -806  -778  -790  -828  -870  -888  -805  -507  6  533  834  831  593  275  56  14  108  255  394  511  624  764  940  1104  1196  1212  1193  1178  1208  1307  1448  1565  1633  1642  1510  1121  507  -102  -494  -662  -717  -725  -707  -684  -676  -677  -676  -674  -678  -683  -684  -689  -704  -723  -741  -772  -831  -905  -950  -943  -928  -920  -855  -682  -445  -251  -173  -229  -414  -659  -843  -905  -853  -703  -522  -449  -599  -926  -1216  -1275  -1122  -898  -680  -501  -430  -492  -606  -681  -713  -739  -754  -732  -674  -603  -550  -547  -608  -701  -770  -793  -788  -774  -761  -754  -758  -779  -812  -835  -808  -704  -550  -408  -311  -275  -308  -402  -542  -711  -858  -916  -868  -769  -675  -588  -498  -430  -401  -383  -340  -267  -197  -157  -158  -197  -258  -335  -425  -491  -503  -493  -543  -715  -962  -1142  -1164  -1036  -837  -648  -491  -413  -595  -1146  -1797  -1993  -1339  163  2299  4716  6948  8616  9376  8869  7096  4647  2411  1035  601  731  798  298  -597  -1238  -1378  -1279  -1173  -1100  -1043  -1003  -984  -980  -979  -979  -970  -929  -842  -741  -706  -784  -917  -1025  -1096  -1144  -1130  -939  -511  6  344  337  7  -458  -786  -801  -507  -53  358  633  795  894  943  931  847  705  536  371  278  310  440  612  779  893  936  942  942  939  900  778  554  297  122  39  -44  -176  -317  -427  -507  -553  -533  -432  -294  -192  -176  -233  -321  -408  -474  -501  -453  -297  -76  85  79  -131  -475  -785  -947  -974  -900  -720  -461  -230  -141  -222  -410  -591  -685  -683  -619  -538  -479  -454  -445  -432  -399  -342  -267  -197  -150  -137  -160  -223  -295  -306  -210  -50  77  124  97  12  -98  -199  -289  -372  -429  -450  -454  -459  -473  -502  -537  -525  -420  -264  -148  -101  -88  -90  -150  -318  -547  -723  -797  -798  -722  -538  -307  -193  -304  -563  -782  -843  -766  -625  -468  -324  -220  -185  -223  -311  -407  -474  -487  -451  -381  -281  -159  -37  56  68  -63  -331  -616  -798  -862  -860  -822  -743  -627  -492  -346  -196  -55  61  174  308  440  508  487  408  316  232  169  138  137  143  128  75  -14  -146  -313  -451  -511  -510  -470  -401  -341  -273  -93  353  1287  2873  5009  7317  9256  10268  10021  8570  6333  3931  1950  649  -113  -590  -914  -1125  -1195  -1107  -946  -804  -706  -645  -600  -543  -470  -415  -390  -382  -384  -405  -446  -465  -438  -429  -498  -592  -633  -622  -602  -596  -606  -626  -641  -602  -442  -166  106  255  282  293  377  527  663  730  740  731  719  697  669  649  659  710  785  842  849  792  679  560  495  504  568  651  695  597  274  -197  -594  -773  -785  -739  -695  -671  -671  -710  -791  -890  -967  -995  -950  -815  -638  -527  -548  -690  -903  -1110  -1218  -1194  -1099  -1010  -946  -878  -794  -716  -669  -671  -716  -781  -841  -878  -893  -899  -891  -847  -765  -702  -733  -850  -959  -1010  -1012  -969  -866  -740  -677  -727  -840  -930  -967  -976  -962  -900  -791  -688  -648  -668  -689  -665  -611  -575  -561  -534  -502  -523  -596  -632  -585  -534  -586  -705  -763  -743  -722  -722  -711  -683  -676  -690  -667  -570  -445  -362  -332  -327  -341  -399  -521  -672  -788  -840  -831  -736  -528  -286  -194  -357  -644  -789  -654  -358  -120  -27  -22  -30  -32  -58  -141  -261  -354  -393  -401  -397  -381  -364  -368  -402  -433  -422  -352  -214  -43  79  85  -44  -263  -466  -570  -569  -506  -427  -369  -332  -291  -208  -59  131  293  387  431  439  401  304  167  33  -60  -90  -44  57  171  255  261  88  -333  -869  -1237  -1240  -858  -225  420  843  1018  1267  2019  3483  5556  7816  9607  10271  9436  7232  4369  1756  -80  -1043  -1200  -800  -284  -4  -33  -321  -815  -1342  -1659  -1637  -1304  -844  -488  -325  -323  -459  -698  -931  -1048  -1026  -877  -587  -224  38  85  -75  -359  -629  -787  -838  -832  -774  -612  -319  16  257  370  434  484  501  545  692  893  1037  1097  1103  1086  1071  1064  1059  1044  1032  1061  1135  1181  1129  985  771  531  342  228  153  92  41  -6  -60  -129  -215  -312  -400  -449  -444  -394  -333  -299  -297  -307  -315  -314  -296  -258  -227  -226  -245  -257  -258  -262  -288  -344  -406  -440  -435  -411  -389  -345  -234  -70  74  136  72  -136  -412  -609  -644  -512  -232  104  330  326  95  -228  -464  -536  -479  -336  -148  26  136  176  161  82  -62  -225  -340  -384  -388  -388  -388  -351  -225  7  318  657  952  1090  893  231  -671  -1330  -1489  -1254  -845  -455  -190  -63  -39  -74  -133  -195  -250  -299  -353  -405  -429  -412  -382  -376  -390  -397  -396  -403  -415  -421  -422  -432  -459  -501  -551  -612  -690  -761  -757  -630  -423  -240  -136  -115  -210  -447  -746  -955  -1015  -976  -894  -795  -691  -578  -465  -384  -345  -333  -352  -431  -583  -754  -870  -909  -881  -789  -643  -475  -329  -220  -135  -66  -41  -61  -84  -89  -107  -187  -356  -587  -814  -958  -1000  -968  -886  -788  -746  -831  -1026  -1191  -1210  -1117  -910  -405  612  2263  4517  6991  8975  9830  9290  7458  4802  2149  253  -677  -859  -668  -552  -769  -1154  -1416  -1494  -1475  -1411  -1314  -1215  -1170  -1190  -1219  -1208  -1168  -1118  -1058  -986  -907  -830  -792  -810  -844  -858  -860  -865  -873  -859  -762  -550  -290  -86  33  102  140  161  193  249  317  377  430  510  640  810  991  1137  1191  1117  949  774  669  659  747  924  1130  1278  1304  1149  789  326  -40  -176  -124  -13  64  78  25  -99  -297  -529  -722  -818  -811  -725  -608  -517  -481  -502  -579  -692  -795  -842  -781  -574  -281  -31  122  199  184  45  -162  -317  -363  -319  -216  -87  22  90  111  39  -181  -502  -766  -866  -812  -646  -433  -257  -174  -166  -182  -189  -185  -174  -152  -105  -25  64  132  172  207  248  270  198  -27  -337  -584  -698  -706  -659  -573  -434  -268  -155  -149  -246  -385  -481  -476  -373  -230  -126  -84  -72  -71  -99  -179  -300  -427  -535  -624  -701  -753  -726  -578  -340  -115  2  -26  -189  -412  -580  -639  -587  -406  -98  223  363  235  -53  -328  -530  -674  -742  -696  -548  -376  -274  -271  -330  -421  -519  -580  -546  -391  -177  -22  15  -33  -109  -158  -139  -37  109  221  257  241  222  245  331  461  591  642  448  -138  -942  -1525  -1651  -1421  -1072  -789  -590  -373  -158  -101  -168  -134  204  1098  2733  4944  7297  9225  10071  9339  7097  4065  1257  -543  -1128  -796  -155  214  139  -221  -702  -1167  -1455  -1499  -1364  -1168  -1049  -1098  -1294  -1498  -1553  -1448  -1276  -1084  -888  -745  -694  -739  -876  -1059  -1212  -1292  -1267  -1031  -501  209  813  1035  741  14  -802  -1343  -1518  -1383  -866  86  1178  1933  2174  1997  1495  842  341  156  218  416  681  923  1018  919  723  569  489  420  323  230  175  149  123  72  -15  -120  -197  -236  -257  -269  -272  -297  -391  -561  -716  -743  -652  -542  -467  -423  -404  -416  -468  -554  -651  -727  -754  -720  -647  -578  -538  -528  -535  -535  -498  -422  -365  -375  -418  -448  -489  -588  -714  -765  -671  -491  -354  -316  -343  -406  -512  -637  -722  -725  -655  -557  -487  -462  -450  -408  -324  -202  -51  94  153  13  -373  -864  -1213  -1315  -1203  -907  -471  -57  110  -85  -534  -976  -1207  -1177  -923  -545  -188  60  201  279  334  364  358  316  177  -149  -615  -1010  -1185  -1145  -957  -724  -564  -512  -514  -516  -496  -443  -368  -292  -213  -128  -57  -26  -40  -89  -145  -193  -238  -277  -281  -209  -51  143  302  404  472  520  549  565  561  500  346  121  -116  -330  -492  -567  -592  -648  -736  -773  -672  -508  -495  -552  -224  779  2397  4417  6537  8344  9403  9407  8245  6060  3366  951  -531  -944  -594  -6  196  -246  -907  -1273  -1284  -1101  -855  -641  -524  -537  -657  -809  -914  -938  -910  -873  -834  -782  -684  -511  -274  -7  242  395  356  84  -303  -592  -700  -705  -684  -648  -599  -543  -430  -159  270  698  977  1111  1178  1228  1288  1401  1601  1856  2065  2092  1844  1373  884  581  531  637  751  811  829  794  645  364  52  -175  -326  -449  -540  -582  -590  -590  -596  -599  -563  -461  -340  -319  -459  -648  -704  -606  -481  -409  -365  -326  -312  -339  -413  -525  -637  -713  -754  -776  -773  -721  -606  -466  -367  -336  -360  -429  -521  -603  -662  -707  -745  -771  -784  -787  -766  -702  -612  -550  -546  -570  -584  -577  -557  -545  -564  -610  -652  -660  -635  -610  -601  -602  -595  -568  -529  -501  -492  -493  -489  -479  -483  -546  -694  -856  -903  -813  -705  -668  -687  -719  -745  -757  -749  -729  -706  -683  -661  -646  -641  -645  -659  -675  -676  -647  -599  -559  -538  -530  -528  -534  -547  -562  -568  -526  -396  -210  -47  61  160  269  357  381  292  62  -232  -460  -569  -610  -658  -734  -783  -788  -789  -766  -618  -326  -86  -97  -276  -310  62  940  2390  4379  6563  8396  9333  8964  7261  4779  2408  753  -150  -572  -771  -880  -920  -877  -794  -750  -761  -797  -832  -864  -892  -879  -788  -657  -581  -610  -698  -775  -811  -813  -765  -640  -480  -395  -439  -550  -608  -559  -451  -360  -288  -172  16  239  422  499  464  397  396  481  583  625  606  612  730  928  1064  1079  1083  1166  1280  1352  1356  1297  1196  1096  1038  1016  953  774  492  205  -34  -251  -458  -609  -631  -499  -305  -173  -144  -196  -311  -479  -664  -808  -871  -842  -730  -584  -469  -414  -413  -472  -604  -766  -878  -904  -869  -809  -745  -686  -658  -671  -689  -684  -637  -531  -404  -327  -330  -396  -488  -563  -604  -611  -592  -557  -520  -487  -453  -425  -399  -378  -411  -515  -611  -639  -629  -626  -640  -660  -680  -704  -730  -742  -715  -631  -515  -422  -375  -362  -366  -387  -448  -553  -669  -764  -829  -860  -866  -872  -890  -893  -812  -637  -520  -596  -751  -806  -763  -701  -644  -586  -525  -460  -374  -264  -167  -107  -50  40  158  241  207  41  -169  -314  -364  -363  -372  -429  -541  -670  -759  -765  -652  -419  -135  105  196  32  -247  -153  821  2826  5518  8161  9875  9953  8332  5743  3138  1154  54  -259  -153  4  13  -169  -452  -704  -876  -996  -1077  -1088  -1002  -854  -715  -627  -595  -632  -757  -928  -1056  -1082  -995  -812  -581  -352  -163  -50  -16  -42  -118  -237  -372  -498  -594  -653  -645  -480  -96  388  753  910  939  931  936  976  1048  1135  1210  1238  1166  972  728  567  589  804  1109  1328  1342  1142  824  538  355  202  -17  -281  -482  -576  -630  -712  -825  -937  -1019  -1019  -883  -609  -260  38  116  -140  -622  -1056  -1266  -1293  -1262  -1232  -1193  -1126  -1049  -990  -951  -919  -884  -839  -786  -749  -752  -804  -882  -940  -922  -791  -566  -327  -176  -200  -399  -667  -878  -976  -993  -981  -962  -927  -871  -804  -733  -626  -433  -187  -8  21  -90  -273  -446  -571  -668  -763  -859  -944  -1010  -1056  -1072  -1036  -943  -823  -718  -644  -599  -588  -615  -668  -716  -742  -753  -749  -725  -682  -602  -467  -299  -156  -81  -66  -76  -84  -86  -90  -101  -107  -116  -213  -487  -871  -1150  -1170  -938  -593  -334  -307  -582  -1096  -1543  -1561  -995  122  1607  3232  4955  6787  8452  9420  9227  7740  5281  2568  395  -828  -1227  -1181  -1024  -926  -882  -838  -823  -874  -945  -957  -840  -583  -282  -89  -119  -410  -867  -1271  -1471  -1463  -1290  -1002  -692  -444  -292  -261  -360  -520  -620  -590  -437  -214  4  139  177  164  141  120  113  159  299  513  723  860  900  901  974  1132  1266  1307  1300  1305  1321  1294  1152  885  605  438  393  370  290  163  48  -32  -109  -206  -316  -426  -545  -691  -848  -964  -1001  -938  -758  -502  -280  -179  -202  -315  -500  -715  -885  -989  -1043  -1012  -841  -582  -372  -287  -289  -319  -344  -358  -361  -359  -348  -326  -301  -310  -421  -664  -946  -1110  -1074  -875  -626  -445  -371  -361  -365  -370  -406  -500  -625  -723  -764  -762  -711  -587  -416  -300  -354  -630  -1019  -1309  -1370  -1205  -888  -565  -379  -372  -504  -699  -873  -983  -1013  -944  -774  -538  -291  -86  29  61  55  45  23  -26  -90  -138  -180  -263  -391  -518  -628  -723  -762  -711  -638  -632  -678  -660  -522  -407  -429  -419  -80  810  2379  4563  6954  8851  9598  8875  6884  4290  1891  326  -303  -517  -765  -1016  -1111  -1070  -977  -854  -719  -611  -551  -533  -578  -715  -903  -1040  -1059  -986  -891  -806  -722  -664  -681  -775  -903  -1008  -1044  -946  -659  -274  5  97  74  24  2  80  319  644  880  945  892  810  758  762  817  891  944  962  961  951  930  908  919  974  1033  1052  1025  980  950  946  941  880  719  487  253  34  -170  -332  -449  -547  -629  -695  -748  -790  -823  -843  -824  -744  -630  -538  -498  -500  -517  -532  -551  -620  -768  -917  -968  -937  -903  -894  -877  -821  -733  -649  -588  -550  -532  -526  -526  -539  -579  -637  -697  -743  -757  -718  -636  -531  -437  -384  -373  -380  -386  -398  -449  -569  -748  -937  -1083  -1137  -1076  -931  -763  -614  -505  -452  -450  -475  -507  -549  -603  -668  -746  -831  -887  -853  -700  -476  -271  -161  -148  -166  -176  -203  -257  -339  -442  -544  -629  -705  -770  -809  -821  -812  -781  -742  -777  -996  -1314  -1385  -976  -162  883  2054  3423  5200  7231  8827  9274  8240  5971  3323  1192  -47  -511  -576  -613  -747  -900  -988  -1032  -1071  -1090  -1081  -1070  -1063  -1041  -1003  -965  -943  -941  -952  -959  -927  -828  -692  -592  -559  -562  -568  -566  -558  -552  -539  -489  -371  -200  -42  54  105  138  163  188  240  342  461  547  594  638  736  932  1177  1361  1432  1413  1362  1325  1285  1223  1165  1119  1010  756  406  119  -19  -48  -31  -4  23  57  84  36  -152  -424  -631  -711  -721  -723  -738  -754  -754  -744  -748  -765  -764  -721  -658  -622  -633  -665  -682  -668  -625  -563  -482  -368  -237  -152  -189  -376  -636  -829  -893  -860  -771  -667  -600  -585  -598  -608  -608  -599  -559  -449  -281  -136  -74  -85  -123  -161  -202  -244  -274  -279  -266  -257  -291  -407  -573  -695  -686  -519  -250  15  196  246  138  -100  -355  -512  -561  -558  -536  -485  -406  -360  -377  -406  -430  -484  -563  -655  -784  -935  -1035  -1026  -904  -728  -574  -444  -273  8  396  833  1478  2655  4406  6435  8284  9348  9035  7183  4416  1782  -48  -928  -990  -590  -144  44  -178  -736  -1349  -1723  -1713  -1359  -868  -520  -472  -702  -1075  -1403  -1561  -1531  -1338  -1042  -743  -525  -412  -387  -434  -543  -679  -761  -729  -560  -273  43  251  275  143  -49  -195  -219  -78  232  625  966  1198  1326  1326  1169  931  755  707  759  872  1012  1126  1171  1094  860  548  323  246  241  219  94  -194  -572  -850  -944  -915  -836  -752  -708  -721  -761  -781  -765  -727  -662  -542  -379  -230  -181  -293  -506  -693  -809  -881  -918  -897  -767  -524  -273  -152  -204  -354  -487  -549  -554  -529  -474  -370  -255  -254  -457  -776  -1016  -1097  -1085  -1061  -1051  -1057  -1072  -1079  -1057  -1000  -923  -839  -742  -593  -373  -139  -8  -102  -479  -999  -1385  -1484  -1323  -996  -634  -355  -197  -136  -132  -145  -153  -157  -157  -150  -129  -103  -137  -332  -705  -1085  -1244  -1114  -855  -673  -606  -495  -222  47  8  -334  -724  -944  -737  155  1801  4031  6426  8393  9388  9104  7596  5309  2937  1116  102  -303  -494  -710  -937  -1086  -1111  -1015  -851  -695  -610  -628  -737  -880  -990  -1042  -1075  -1126  -1183  -1192  -1109  -961  -830  -763  -718  -623  -488  -389  -358  -345  -272  -114  63  165  145  41  -64  -110  -41  186  519  817  997  1067  1039  901  679  470  379  445  641  901  1154  1349  1435  1328  972  489  140  55  171  358  517  579  446  22  -582  -1069  -1281  -1301  -1236  -1094  -866  -592  -352  -212  -176  -210  -289  -379  -433  -433  -419  -480  -682  -965  -1176  -1230  -1150  -996  -818  -624  -403  -204  -129  -217  -386  -516  -561  -557  -536  -503  -467  -470  -563  -745  -937  -1051  -1060  -977  -831  -677  -563  -508  -512  -546  -571  -575  -570  -563  -556  -561  -597  -673  -762  -818  -811  -740  -643  -566  -518  -468  -406  -359  -334  -308  -259  -211  -215  -302  -451  -599  -689  -722  -739  -754  -741  -692  -650  -644  -645  -604  -520  -467  -541  -748  -906  -727  -101  833  1963  3377  5181  7189  8857  9503  8667  6493  3827  1673  438  -106  -336  -487  -647  -767  -813  -862  -961  -1081  -1208  -1331  -1406  -1377  -1222  -1002  -823  -723  -667  -639  -654  -726  -843  -965  -1043  -1057  -999  -875  -722  -585  -462  -341  -234  -137  -6  150  269  314  314  303  293  278  260  243  231  221  233  308  460  653  813  873  830  769  761  796  837  859  836  717  476  191  -30  -175  -287  -370  -411  -425  -438  -464  -508  -576  -664  -747  -808  -844  -854  -821  -725  -581  -430  -320  -286  -331  -405  -450  -456  -448  -440  -432  -428  -445  -493  -546  -583  -593  -568  -550  -594  -669  -725  -766  -804  -802  -706  -524  -361  -330  -449  -650  -849  -981  -1023  -959  -762  -471  -220  -124  -213  -441  -698  -854  -849  -700  -494  -346  -316  -393  -538  -681  -763  -773  -721  -616  -492  -409  -397  -437  -466  -356  7  527  895  828  267  -509  -1067  -1245  -1210  -1151  -1150  -1220  -1327  -1415  -1435  -1345  -1090  -623  20  676  1077  906  92  -796  -811  618  3350  6661  9370  10386  9526  7405  4782  2384  692  -307  -800  -850  -602  -382  -387  -546  -760  -1037  -1339  -1529  -1510  -1304  -1047  -901  -911  -1005  -1111  -1169  -1145  -1036  -848  -625  -472  -464  -596  -791  -947  -998  -897  -605  -205  125  275  257  155  67  64  183  421  692  888  980  1020  1071  1140  1188  1177  1113  1066  1129  1313  1520  1654  1688  1594  1333  986  736  659  664  601  373  -7  -407  -661  -695  -587  -467  -399  -380  -402  -470  -565  -631  -593  -409  -142  44  -2  -328  -785  -1110  -1158  -973  -710  -524  -466  -495  -564  -638  -682  -687  -692  -748  -875  -1034  -1151  -1170  -1072  -888  -689  -524  -403  -350  -427  -660  -933  -1060  -1011  -911  -856  -859  -871  -837  -751  -656  -590  -545  -508  -501  -538  -592  -633  -662  -702  -765  -822  -845  -842  -827  -804  -746  -603  -367  -129  -2  -15  -104  -150  -83  43  124  84  -90  -320  -474  -513  -496  -474  -466  -484  -540  -620  -697  -764  -820  -847  -854  -897  -1038  -1207  -1225  -1051  -756  -188  927  2664  4888  7200  8880  9309  8408  6475  3962  1504  -289  -1241  -1534  -1402  -1094  -847  -748  -731  -722  -706  -692  -677  -664  -664  -690  -734  -745  -686  -595  -533  -513  -516  -527  -551  -583  -613  -624  -591  -495  -368  -277  -238  -213  -163  -70  83  300  538  732  849  894  889  872  869  893  968  1133  1397  1698  1907  1911  1743  1535  1344  1164  1032  984  988  983  947  892  761  477  110  -157  -251  -247  -227  -221  -237  -283  -375  -509  -629  -674  -622  -493  -358  -273  -253  -304  -404  -508  -613  -724  -815  -861  -888  -941  -1018  -1084  -1111  -1078  -953  -736  -475  -215  -44  -89  -346  -637  -803  -839  -812  -768  -718  -662  -612  -592  -632  -734  -856  -941  -970  -947  -867  -745  -634  -574  -554  -530  -477  -412  -378  -405  -477  -539  -565  -586  -614  -615  -554  -439  -320  -247  -229  -249  -289  -331  -360  -370  -356  -311  -244  -186  -156  -148  -150  -161  -188  -230  -277  -320  -357  -396  -469  -606  -783  -925  -914  -667  -367  -336  -574  -716  -288  1023  3169  5718  7952  9142  8911  7383  5112  2772  847  -416  -1076  -1442  -1657  -1607  -1323  -1020  -829  -749  -733  -738  -756  -802  -868  -922  -945  -936  -860  -674  -413  -192  -97  -177  -448  -814  -1094  -1197  -1126  -897  -578  -266  12  257  410  449  427  409  413  432  469  536  637  791  1034  1321  1534  1613  1579  1468  1329  1232  1226  1313  1453  1542  1423  997  412  -16  -166  -156  -115  -85  -75  -119  -246  -436  -585  -584  -487  -461  -525  -558  -525  -492  -509  -577  -665  -763  -875  -969  -1010  -1014  -1010  -999  -969  -921  -871  -830  -812  -814  -818  -824  -849  -882  -901  -903  -875  -788  -640  -514  -496  -559  -610  -611  -589  -567  -542  -507  -466  -430  -435  -519  -656  -758  -782  -758  -736  -732  -730  -711  -672  -613  -549  -503  -476  -455  -443  -454  -482  -498  -489  -470  -461  -465  -462  -436  -408  -404  -417  -428  -428  -425  -432  -460  -503  -531  -507  -414  -279  -154  -66  -31  -57  -140  -276  -445  -588  -675  -736  -784  -789  -743  -685  -645  -627  -635  -691  -778  -767  -523  35  1066  2755  5056  7525  9394  9909  8750  6324  3552  1237  -207  -740  -683  -453  -315  -343  -449  -535  -603  -702  -843  -993  -1109  -1174  -1201  -1185  -1097  -924  -708  -530  -453  -465  -499  -510  -506  -512  -532  -542  -526  -498  -481  -479  -485  -481  -430  -285  -34  250  449  520  525  554  636  732  785  785  783  849  1007  1211  1377  1464  1487  1475  1427  1316  1117  849  588  424  369  358  339  290  201  61  -125  -329  -489  -564  -583  -599  -633  -665  -671  -647  -620  -621  -661  -706  -699  -616  -488  -367  -291  -257  -255  -316  -487  -730  -933  -1027  -1035  -999  -942  -886  -847  -806  -744  -666  -592  -546  -550  -618  -736  -849  -901  -875  -789  -672  -558  -488  -478  -508  -541  -557  -572  -629  -732  -806  -787  -719  -679  -678  -681  -649  -564  -457  -378  -344  -345  -396  -524  -695  -819  -838  -760  -636  -533  -486  -480  -485  -486  -492  -527  -601  -676  -681  -589  -439  -297  -214  -191  -196  -204  -214  -230  -245  -225  -141  -23  63  95  94  85  60  -5  -136  -318  -481  -568  -589  -590  -597  -627  -689  -771  -847  -910  -937  -821  -439  210  1040  2091  3499  5231  7091  8717  9501  8944  7023  4208  1360  -651  -1459  -1312  -719  -106  223  107  -348  -847  -1175  -1308  -1320  -1284  -1221  -1123  -997  -869  -765  -703  -680  -677  -677  -670  -665  -691  -778  -905  -994  -953  -746  -458  -240  -158  -164  -175  -97  130  448  709  837  866  857  832  781  712  675  750  969  1249  1450  1523  1519  1471  1370  1232  1118  1062  1041  999  868  626  345  101  -106  -265  -303  -223  -128  -78  -61  -76  -181  -420  -721  -933  -984  -928  -853  -798  -768  -756  -760  -785  -841  -912  -940  -870  -695  -451  -193  8  93  18  -237  -580  -838  -930  -881  -716  -479  -303  -320  -522  -740  -806  -725  -623  -567  -522  -447  -356  -317  -391  -544  -669  -716  -712  -691  -657  -610  -565  -540  -546  -584  -634  -670  -682  -679  -669  -653  -615  -534  -423  -334  -312  -357  -426  -493  -564  -626  -654  -656  -652  -639  -602  -539  -476  -440  -426  -421  -438  -507  -633  -761  -819  -775  -655  -502  -324  -108  61  59  -67  -159  -169  -145  -115  -87  -79  -103  -174  -306  -485  -647  -713  -645  -487  -381  -449  -680  -978  -1195  -1196  -902  -218  872  2269  3945  5836  7540  8519  8508  7534  5828  3852  2108  779  -213  -867  -1116  -1037  -823  -652  -592  -621  -710  -826  -914  -927  -882  -834  -813  -811  -804  -773  -722  -680  -663  -661  -660  -659  -665  -683  -706  -716  -697  -634  -521  -366  -202  -58  36  76  87  101  132  195  349  650  1031  1333  1466  1436  1276  1071  976  1092  1370  1649  1801  1786  1607  1299  940  634  461  413  402  351  229  39  -190  -405  -545  -590  -557  -459  -333  -246  -261  -386  -561  -688  -730  -731  -744  -788  -847  -892  -916  -919  -878  -765  -612  -498  -457  -467  -502  -546  -574  -554  -480  -395  -360  -382  -420  -458  -506  -579  -666  -727  -736  -701  -649  -613  -623  -687  -781  -856  -885  -869  -807  -707  -583  -460  -414  -500  -643  -734  -736  -668  -568  -475  -401  -377  -476  -734  -1047  -1214  -1126  -860  -569  -347  -224  -195  -242  -348  -474  -559  -586  -576  -548  -512  -476  -451  -443  -449  -474  -514  -534  -501  -444  -406  -388  -383  -397  -443  -509  -563  -574  -521  -398  -252  -154  -127  -145  -175  -201  -215  -220  -219  -212  -201  -213  -306  -524  -804  -1000  -1022  -879  -665  -536  -665  -1102  -1563  -1497  -529  1283  3555  5768  7505  8546  8780  8133  6604  4494  2412  864  -63  -552  -793  -890  -864  -746  -651  -671  -804  -979  -1104  -1148  -1145  -1114  -1049  -963  -898  -877  -876  -859  -800  -711  -629  -587  -584  -600  -607  -565  -435  -223  -10  114  137  114  103  125  178  262  364  455  539  642  751  822  842  846  875  934  1018  1144  1316  1479  1567  1557  1467  1350  1264  1220  1184  1152  1119  1001  688  240  -132  -322  -390  -433  -478  -503  -509  -517  -521  -509  -497  -505  -528  -537  -513  -485  -502  -566  -625  -637  -614  -591  -584  -588  -587  -565  -524  -499  -518  -560  -603  -650  -706  -756  -775  -723  -562  -339  -179  -188  -381  -664  -889  -971  -873  -571  -167  116  120  -144  -506  -753  -828  -865  -996  -1204  -1379  -1472  -1484  -1343  -955  -429  -46  51  -62  -252  -427  -559  -631  -630  -603  -611  -655  -682  -654  -576  -490  -440  -428  -430  -450  -511  -591  -620  -549  -397  -246  -162  -156  -205  -286  -385  -494  -589  -628  -596  -539  -506  -508  -535  -568  -589  -582  -550  -549  -615  -680  -652  -510  -306  -133  -50  -37  -39  -24  -17  -73  -167  -186  -97  2  25  -31  -119  -207  -326  -514  -720  -852  -876  -812  -691  -539  -381  -281  -284  -264  58  944  2568  4919  7533  9539  10219  9468  7645  5298  3067  1420  448  -5  -178  -281  -436  -671  -930  -1125  -1210  -1208  -1168  -1100  -981  -825  -704  -687  -754  -826  -865  -882  -886  -848  -727  -553  -430  -459  -678  -992  -1215  -1196  -911  -493  -156  -13  -41  -163  -292  -374  -407  -415  -386  -265  -2  353  668  864  984  1125  1318  1489  1560  1528  1446  1347  1199  970  722  569  574  730  958  1113  1025  607  14  -440  -612  -607  -555  -501  -451  -415  -402  -412  -437  -462  -471  -456  -423  -390  -371  -370  -396  -472  -595  -715  -781  -785  -742  -652  -502  -320  -186  -151  -189  -261  -369  -517  -672  -780  -806  -764  -707  -680  -685  -698  -704  -710  -727  -755  -769  -737  -650  -534  -431  -365  -330  -319  -318  -309  -312  -362  -448  -583  -811  -1065  -1205  -1143  -869  -500  -229  -138  -182  -310  -479  -639  -767  -850  -846  -751  -646  -591  -566  -531  -485  -446  -418  -414  -458  -542  -651  -759  -818  -803  -745  -714  -744  -780  -759  -692  -637  -620  -623  -614  -573  -496  -407  -321  -221  -99  10  73  86  73  54  36  17  -20  -112  -256  -396  -485  -519  -549  -650  -839  -1038  -1161  -1212  -1226  -1167  -931  -515  -82  181  203  136  438  1541  3463  5905  8351  10076  10469  9339  6965  4094  1664  239  -198  -46  144  -8  -460  -902  -1124  -1153  -1106  -1048  -1000  -982  -1027  -1149  -1308  -1419  -1410  -1253  -993  -745  -574  -441  -316  -234  -239  -329  -451  -534  -560  -549  -488  -337  -135  13  61  36  -15  -30  123  542  1094  1483  1545  1337  1029  796  718  788  973  1199  1358  1409  1380  1300  1202  1129  1102  1103  1096  1066  1035  1015  947  740  337  -206  -705  -990  -1037  -925  -741  -556  -412  -317  -258  -230  -252  -351  -528  -723  -849  -886  -880  -872  -864  -835  -771  -698  -650  -637  -636  -629  -617  -610  -606  -584  -528  -470  -462  -506  -546  -556  -567  -638  -786  -945  -1011  -941  -793  -668  -606  -589  -584  -563  -502  -420  -359  -326  -288  -240  -225  -299  -481  -739  -994  -1156  -1190  -1143  -1079  -1014  -907  -727  -544  -490  -574  -677  -720  -718  -701  -676  -647  -626  -624  -650  -703  -764  -815  -839  -815  -698  -449  -113  184  360  424  426  408  394  394  409  412  335  115  -185  -427  -560  -628  -663  -675  -681  -687  -669  -601  -539  -644  -1011  -1507  -1825  -1734  -1234  -456  502  1646  3086  4899  6852  8447  9185  8618  6683  3998  1405  -504  -1430  -1487  -1205  -1034  -1028  -1057  -1056  -1036  -997  -924  -817  -704  -614  -552  -532  -576  -676  -782  -844  -855  -846  -838  -815  -750  -633  -483  -343  -261  -268  -363  -503  -595  -529  -248  138  420  514  495  449  427  500  748  1142  1514  1727  1799  1819  1832  1842  1849  1851  1834  1779  1688  1581  1457  1293  1094  910  774  686  639  604  539  424  223  -124  -550  -856  -953  -923  -866  -820  -790  -775  -771  -771  -771  -778  -799  -830  -860  -879  -869  -795  -640  -461  -349  -370  -527  -745  -910  -970  -933  -801  -603  -446  -426  -522  -635  -696  -711  -698  -651  -544  -370  -175  -30  24  -23  -203  -489  -764  -922  -956  -899  -761  -562  -377  -270  -238  -250  -293  -366  -451  -492  -446  -346  -246  -175  -155  -237  -467  -758  -917  -843  -637  -467  -406  -440  -546  -687  -779  -729  -497  -181  53  159  213  242  191  52  -112  -268  -428  -582  -699  -762  -782  -784  -782  -777  -765  -759  -801  -938  -1154  -1342  -1333  -1017  -497  48  708  1774  3398  5430  7416  8675  8619  7186  4916  2568  698  -492  -1090  -1280  -1227  -1091  -999  -988  -1028  -1069  -1087  -1084  -1067  -1031  -968  -878  -805  -790  -811  -813  -776  -731  -716  -721  -705  -648  -550  -437  -365  -353  -363  -326  -193  -7  129  174  162  141  140  187  310  526  806  1074  1272  1408  1525  1630  1697  1710  1687  1651  1627  1637  1694  1785  1865  1875  1731  1371  834  299  -39  -149  -170  -205  -257  -336  -446  -540  -581  -583  -570  -549  -526  -523  -581  -728  -933  -1121  -1228  -1203  -1040  -806  -607  -505  -482  -491  -505  -512  -497  -427  -287  -133  -66  -170  -442  -756  -961  -1028  -1020  -986  -931  -837  -708  -603  -569  -585  -604  -611  -614  -625  -642  -651  -645  -630  -646  -757  -997  -1289  -1481  -1463  -1231  -900  -637  -503  -449  -444  -498  -592  -666  -675  -651  -633  -616  -592  -570  -562  -570  -596  -635  -673  -689  -673  -634  -564  -421  -202  15  146  163  79  -53  -159  -204  -208  -212  -279  -455  -700  -918  -1059  -1129  -1150  -1107  -958  -701  -383  -94  24  69  481  1574  3326  5517  7647  9049  9170  7821  5450  2895  856  -282  -568  -442  -346  -435  -597  -704  -772  -824  -845  -860  -909  -1013  -1145  -1243  -1263  -1204  -1084  -924  -745  -581  -464  -419  -480  -657  -878  -1022  -1002  -840  -651  -521  -457  -432  -426  -427  -439  -439  -334  -30  389  721  876  920  941  978  1024  1071  1153  1279  1420  1538  1582  1533  1445  1370  1305  1248  1199  1131  1038  922  754  514  236  -15  -201  -328  -442  -578  -701  -752  -732  -698  -673  -633  -561  -498  -519  -632  -749  -785  -730  -627  -537  -504  -582  -817  -1136  -1375  -1457  -1410  -1273  -1098  -966  -906  -885  -868  -855  -848  -835  -804  -775  -786  -845  -900  -868  -731  -576  -490  -474  -481  -462  -407  -363  -400  -508  -595  -600  -542  -492  -486  -504  -544  -602  -629  -609  -567  -519  -468  -415  -372  -404  -564  -790  -956  -1003  -943  -798  -625  -507  -474  -488  -500  -462  -343  -179  -49  5  -8  -99  -253  -402  -483  -476  -406  -315  -227  -155  -127  -185  -332  -519  -697  -866  -1030  -1173  -1286  -1354  -1355  -1257  -1003  -591  -136  152  131  25  352  1391  3066  5165  7288  8823  9248  8423  6590  4217  1900  125  -927  -1279  -1126  -841  -735  -863  -1106  -1335  -1475  -1513  -1443  -1242  -941  -660  -488  -414  -418  -512  -675  -820  -869  -827  -754  -694  -649  -608  -558  -485  -404  -353  -345  -343  -317  -263  -174  -48  114  312  516  671  754  801  893  1090  1335  1507  1575  1618  1686  1715  1635  1477  1301  1140  1030  993  996  980  904  784  660  527  343  119  -86  -242  -337  -327  -206  -102  -169  -384  -595  -736  -849  -957  -1028  -1022  -910  -711  -502  -357  -286  -260  -262  -295  -360  -433  -474  -483  -494  -513  -526  -529  -528  -528  -532  -541  -543  -500  -382  -226  -113  -75  -81  -97  -116  -169  -302  -503  -698  -820  -848  -808  -743  -686  -645  -605  -542  -460  -396  -384  -434  -519  -582  -589  -559  -532  -535  -559  -583  -604  -629  -652  -650  -627  -609  -601  -563  -453  -303  -197  -165  -157  -107  -19  30  -22  -143  -210  -130  88  328  431  334  137  -8  -62  -102  -211  -406  -619  -752  -745  -603  -391  -205  -103  -82  -100  -27  350  1236  2749  4781  6941  8715  9580  9104  7311  4806  2344  454  -610  -954  -933  -851  -865  -993  -1138  -1215  -1231  -1223  -1213  -1207  -1196  -1167  -1116  -1054  -999  -967  -958  -961  -966  -966  -958  -945  -943  -979  -1055  -1128  -1159  -1147  -1080  -928  -723  -539  -390  -251  -128  -14  127  276  378  449  556  704  830  910  968  1017  1053  1067  1038  957  863  819  821  804  714  545  359  246  228  240  186  -1  -298  -582  -752  -833  -916  -1024  -1105  -1136  -1150  -1170  -1185  -1191  -1186  -1130  -984  -779  -608  -530  -538  -600  -687  -769  -802  -766  -700  -661  -683  -787  -938  -1049  -1061  -984  -872  -780  -712  -645  -579  -531  -502  -485  -475  -461  -436  -421  -451  -531  -615  -662  -676  -682  -683  -643  -529  -373  -258  -216  -212  -219  -257  -355  -484  -564  -572  -574  -614  -643  -595  -495  -409  -357  -312  -265  -234  -251  -320  -398  -429  -419  -409  -387  -299  -126  52  126  84  16  -11  -2  13  -7  -118  -326  -538  -628  -557  -409  -300  -269  -279  -294  -328  -422  -576  -775  -1003  -1156  -1040  -564  213  1292  2716  4401  6246  8077  9342  9365  7973  5604  2997  878  -317  -619  -401  -107  -26  -211  -526  -788  -910  -930  -919  -917  -939  -998  -1081  -1137  -1093  -910  -656  -472  -430  -497  -605  -694  -742  -754  -717  -623  -513  -448  -430  -408  -337  -241  -173  -140  -88  30  182  291  336  384  501  681  857  975  1022  1015  992  993  1033  1096  1154  1218  1302  1343  1224  914  542  293  222  248  293  332  330  219  -30  -338  -569  -659  -650  -611  -587  -585  -588  -588  -587  -589  -594  -595  -588  -573  -549  -518  -488  -473  -483  -515  -542  -552  -560  -570  -567  -550  -537  -545  -577  -615  -639  -646  -645  -642  -640  -639  -637  -630  -605  -549  -474  -421  -424  -487  -579  -660  -718  -754  -755  -721  -678  -654  -660  -691  -738  -791  -823  -792  -671  -487  -304  -138  14  127  148  54  -107  -256  -360  -420  -416  -314  -112  121  291  372  400  404  363  238  41  -153  -292  -386  -457  -499  -505  -510  -557  -633  -676  -649  -582  -512  -428  -325  -269  -235  1  622  1677  3244  5272  7358  8844  9143  8044  5795  3065  789  -403  -610  -391  -311  -571  -911  -1035  -961  -844  -779  -817  -974  -1186  -1340  -1377  -1321  -1219  -1106  -1008  -948  -930  -933  -937  -939  -938  -929  -902  -842  -740  -602  -471  -369  -308  -329  -394  -379  -277  -197  -189  -185  -59  236  581  804  864  825  734  603  461  357  313  342  487  758  1061  1275  1361  1324  1153  880  575  269  -17  -230  -353  -414  -436  -435  -441  -485  -573  -670  -712  -634  -430  -201  -120  -280  -581  -827  -923  -906  -833  -739  -664  -631  -632  -639  -624  -575  -514  -472  -452  -445  -478  -585  -733  -836  -845  -779  -690  -622  -575  -520  -453  -409  -415  -451  -485  -500  -500  -496  -493  -489  -488  -512  -582  -687  -780  -818  -774  -637  -448  -295  -230  -244  -305  -380  -431  -450  -454  -447  -392  -246  -49  95  120  43  -77  -185  -251  -277  -273  -247  -201  -143  -98  -95  -159  -294  -453  -582  -667  -703  -685  -632  -570  -521  -472  -423  -470  -613  -606  -229  570  1846  3605  5631  7536  8868  9146  8073  5849  3205  1056  -50  -188  171  425  143  -549  -1137  -1327  -1225  -1046  -920  -864  -823  -766  -729  -749  -775  -721  -583  -453  -426  -517  -670  -823  -918  -907  -755  -488  -226  -77  -42  -54  -67  -73  -76  -79  -73  -42  21  104  174  206  200  199  257  371  483  572  679  830  997  1101  1053  819  495  258  186  240  360  500  611  630  490  197  -121  -317  -394  -478  -642  -831  -965  -1030  -1057  -1055  -997  -859  -680  -535  -459  -425  -391  -367  -385  -434  -485  -536  -598  -640  -640  -620  -572  -476  -372  -305  -287  -319  -392  -487  -589  -686  -767  -797  -748  -650  -564  -519  -509  -512  -514  -512  -521  -564  -643  -730  -788  -806  -808  -827  -867  -890  -861  -786  -706  -655  -637  -649  -708  -825  -960  -1057  -1095  -1066  -939  -716  -482  -316  -178  14  251  435  512  500  430  324  182  -15  -256  -459  -554  -561  -544  -562  -641  -757  -840  -835  -732  -585  -495  -545  -724  -878  -792  -310  679  2220  4246  6658  9121  10858  11107  9704  7116  4186  1773  295  -439  -823  -1046  -1168  -1223  -1221  -1191  -1162  -1121  -1044  -954  -896  -896  -949  -1025  -1090  -1132  -1149  -1117  -998  -794  -564  -383  -324  -411  -584  -746  -854  -902  -855  -669  -395  -174  -74  -47  -23  53  219  440  629  751  838  928  1029  1127  1223  1352  1503  1581  1525  1393  1306  1313  1352  1344  1277  1202  1156  1082  841  365  -196  -587  -722  -711  -673  -652  -641  -615  -552  -470  -432  -510  -720  -972  -1140  -1190  -1165  -1086  -949  -788  -667  -600  -553  -500  -456  -441  -442  -433  -420  -436  -507  -619  -728  -822  -926  -1040  -1122  -1147  -1113  -1012  -844  -657  -527  -475  -464  -458  -470  -547  -707  -895  -1028  -1083  -1092  -1075  -1031  -959  -871  -778  -692  -638  -624  -631  -635  -620  -577  -506  -426  -369  -342  -328  -313  -278  -185  -44  60  30  -162  -434  -654  -783  -862  -913  -944  -965  -977  -973  -952  -929  -911  -887  -841  -749  -638  -600  -613  -571  -506  -358  348  2084  4718  7622  10032  11106  10350  8056  4975  2005  -72  -1047  -1205  -952  -693  -672  -847  -1072  -1296  -1507  -1664  -1749  -1747  -1649  -1504  -1381  -1302  -1277  -1310  -1354  -1350  -1281  -1188  -1128  -1100  -1038  -887  -660  -412  -198  -90  -117  -194  -213  -142  -22  96  201  312  435  568  713  865  1006  1122  1226  1322  1378  1370  1323  1302  1341  1401  1441  1466  1468  1399  1231  1007  808  677  603  554  501  423  302  129  -64  -214  -294  -347  -449  -645  -887  -1066  -1139  -1140  -1090  -982  -831  -695  -601  -532  -481  -454  -446  -443  -443  -465  -526  -605  -644  -610  -536  -476  -445  -423  -408  -418  -445  -447  -392  -302  -265  -371  -579  -755  -864  -942  -1009  -1040  -950  -706  -442  -321  -374  -504  -604  -655  -701  -759  -805  -834  -869  -918  -972  -1026  -1065  -1061  -999  -887  -726  -544  -424  -431  -564  -750  -890  -954  -984  -1025  -1106  -1232  -1353  -1389  -1322  -1209  -1115  -1089  -1135  -1221  -1305  -1329  -1246  -1068  -751  -119  1051  2958  5593  8476  10701  11320  9967  7212  4118  1570  17  -608  -783  -887  -944  -915  -868  -873  -981  -1186  -1381  -1489  -1525  -1520  -1501  -1498  -1506  -1481  -1379  -1195  -1000  -881  -848  -854  -862  -867  -868  -848  -787  -698  -614  -532  -437  -347  -269  -179  -91  -39  -20  11  116  311  535  719  837  913  993  1115  1272  1417  1518  1558  1490  1274  979  752  658  660  703  739  719  605  388  125  -75  -168  -212  -291  -408  -499  -539  -560  -587  -608  -616  -623  -623  -582  -473  -331  -223  -178  -192  -277  -443  -631  -752  -777  -743  -693  -644  -587  -521  -463  -413  -365  -328  -315  -341  -416  -516  -589  -617  -617  -606  -569  -494  -402  -341  -324  -323  -333  -372  -445  -532  -593  -588  -528  -470  -460  -493  -521  -509  -460  -385  -278  -148  -53  -70  -185  -283  -279  -197  -139  -173  -276  -439  -695  -984  -1173  -1194  -1075  -891  -727  -625  -578  -586  -706  -985  -1287  -1298  -833  38  1295  3101  5522  8230  10545  11687  11119  8901  5811  2906  916  30  -16  231  272  -82  -679  -1222  -1541  -1657  -1638  -1515  -1303  -1058  -861  -769  -806  -973  -1198  -1356  -1359  -1205  -975  -785  -697  -693  -717  -727  -725  -722  -712  -694  -668  -629  -580  -522  -451  -365  -275  -189  -123  -94  -95  -91  -29  119  308  444  491  485  458  407  323  227  166  167  215  278  330  353  330  225  35  -169  -321  -423  -507  -579  -626  -650  -675  -736  -825  -899  -934  -941  -935  -909  -843  -732  -636  -635  -721  -799  -819  -801  -783  -774  -744  -654  -502  -343  -237  -208  -278  -473  -730  -914  -969  -950  -917  -881  -828  -763  -714  -682  -648  -614  -597  -577  -529  -463  -403  -349  -300  -280  -354  -568  -853  -1052  -1059  -884  -631  -433  -309  -175  -8  123  185  205  211  224  271  322  274  57  -265  -549  -720  -798  -823  -811  -764  -696  -653  -710  -915  -1161  -1194  -885  -362  375  1655  3753  6568  9484  11448  11595  9837  6893  3875  1641  378  -229  -554  -730  -750  -691  -687  -801  -1001  -1192  -1300  -1328  -1319  -1290  -1235  -1166  -1117  -1101  -1107  -1122  -1136  -1125  -1042  -875  -687  -572  -567  -652  -769  -855  -874  -827  -713  -541  -360  -242  -210  -230  -258  -258  -210  -106  54  250  443  583  632  583  460  316  208  162  157  166  191  247  317  359  309  111  -193  -472  -637  -674  -587  -438  -329  -298  -308  -330  -381  -500  -687  -877  -980  -968  -893  -825  -803  -809  -775  -680  -621  -687  -839  -954  -967  -924  -892  -914  -1001  -1117  -1205  -1242  -1238  -1174  -1015  -801  -638  -581  -592  -622  -654  -694  -733  -744  -716  -685  -697  -721  -696  -633  -574  -518  -453  -354  -181  36  197  252  243  227  236  280  343  394  425  447  460  445  378  263  123  -23  -150  -225  -256  -279  -312  -334  -314  -257  -201  -169  -161  -201  -315  -406  -185  634  2145  4193  6410  8401  9757  10005  8880  6629  3999  1878  766  527  619  514  60  -479  -806  -902  -921  -938  -922  -864  -805  -766  -730  -686  -651  -634  -629  -631  -638  -644  -641  -625  -593  -542  -507  -536  -622  -711  -780  -834  -856  -806  -664  -453  -218  -7  144  245  333  414  465  487  506  534  558  559  535  499  473  464  461  454  446  439  433  420  385  308  193  81  -16  -132  -267  -361  -388  -381  -393  -456  -571  -716  -854  -942  -959  -912  -805  -661  -536  -468  -452  -471  -519  -595  -675  -728  -742  -736  -730  -731  -729  -719  -728  -770  -840  -934  -1038  -1113  -1140  -1129  -1084  -1011  -937  -894  -887  -904  -926  -919  -831  -644  -462  -443  -602  -814  -997  -1133  -1204  -1165  -985  -713  -469  -294  -132  -5  -32  -228  -450  -572  -593  -580  -580  -590  -589  -575  -571  -585  -603  -608  -600  -587  -589  -639  -746  -867  -927  -761  -53  1475  3715  6036  7610  7954  7134  5538  3680  2094  934  -64  -879  -1230  -1261  -1275  -1283  -1203  -1062  -964  -1001  -1140  -1266  -1323  -1325  -1276  -1158  -1003  -890  -854  -870  -904  -921  -856  -653  -372  -168  -128  -223  -365  -468  -467  -335  -102  124  248  263  230  206  227  283  341  385  423  484  619  867  1164  1367  1398  1291  1136  996  845  620  391  332  458  579  557  422  271  177  143  124  78  -11  -125  -223  -272  -277  -265  -268  -316  -408  -507  -574  -614  -649  -685  -717  -739  -734  -669  -554  -488  -541  -646  -707  -725  -742  -768  -763  -688  -558  -437  -358  -315  -309  -325  -334  -345  -356  -347  -327  -325  -359  -429  -516  -588  -614  -587  -537  -499  -471  -423  -337  -225  -120  -53  -34  -57  -119  -201  -264  -284  -267  -236  -220  -231  -269  -317  -353  -380  -428  -531  -700  -886  -1022  -1094  -1098  -981  -672  -35  1065  2596  4402  6130  7171  7126  6117  4490  2661  1109  56  -652  -1140  -1309  -1142  -813  -500  -284  -171  -143  -193  -288  -373  -438  -533  -686  -852  -968  -1006  -953  -793  -574  -404  -336  -326  -288  -170  0  149  256  339  398  431  449  452  444  450  513  660  843  979  1033  1032  1025  1033  1055  1112  1259  1507  1770  1943  2008  1976  1809  1477  1080  777  606  501  414  344  300  275  252  216  162  102  62  57  88  152  245  354  431  361  18  -559  -1099  -1341  -1261  -1028  -804  -649  -545  -473  -426  -385  -328  -255  -168  -48  93  194  193  69  -139  -372  -596  -790  -908  -926  -856  -718  -539  -356  -212  -139  -147  -206  -260  -282  -276  -256  -231  -223  -280  -437  -643  -788  -817  -756  -668  -602  -572  -567  -581  -614  -654  -667  -641  -627  -679  -772  -827  -806  -733  -586  -203  602  1821  3224  4498  5395  5816  5687  4826  3237  1411  -59  -945  -1336  -1423  -1392  -1346  -1304  -1271  -1281  -1368  -1503  -1615  -1656  -1604  -1448  -1227  -1044  -958  -951  -972  -981  -960  -928  -934  -1011  -1130  -1224  -1262  -1262  -1236  -1175  -1092  -1018  -942  -810  -608]
