reading_id,reading_time,wire_id,result_classification,heart_rate,heart_rate_alert,firmware_version,device_app_version,hardware_version,waveform_samples
d76ccfd0-6d05-11ed-8080-808080808080,Fri Nov 25 21:12:17 UTC 2022,e100e3fd2639,NSR,78,NONE,20001.171.50,2.10.0,Charge 5,[3960  4565  4886  4863  4614  4280  3919  3559  3281  3145  3105  3096  3097  3109  3128  3125  3018  2719  2280  1884  1641  1531  1492  1477  1461  1439  1419  1403  1350  1181  890  593  393  259  122  3  -53  -101  -274  -623  -1013  -1255  -1310  -1267  -1229  -1297  -1540  -1858  -1995  -1770  -1111  27  1486  2876  3890  4495  4733  4412  3221  1282  -747  -2254  -2934  -2772  -2297  -2279  -2823  -3402  -3674  -3741  -3756  -3741  -3701  -3707  -3819  -3986  -4111  -4166  -4185  -4206  -4253  -4327  -4388  -4393  -4373  -4398  -4472  -4536  -4560  -4564  -4575  -4589  -4577  -4518  -4436  -4379  -4335  -4229  -4013  -3745  -3531  -3410  -3354  -3321  -3255  -3095  -2848  -2607  -2455  -2396  -2385  -2399  -2466  -2600  -2708  -2670  -2514  -2358  -2250  -2209  -2261  -2414  -2636  -2860  -3022  -3114  -3168  -3216  -3254  -3272  -3283  -3301  -3310  -3237  -3017  -2715  -2494  -2434  -2486  -2569  -2634  -2677  -2698  -2691  -2672  -2673  -2704  -2731  -2718  -2666  -2641  -2702  -2820  -2920  -2958  -2926  -2831  -2696  -2564  -2485  -2465  -2451  -2391  -2281  -2112  -1848  -1534  -1304  -1219  -1226  -1255  -1261  -1238  -1224  -1271  -1398  -1548  -1644  -1692  -1747  -1828  -1881  -1821  -1597  -1245  -904  -720  -704  -723  -596  -267  44  95  -37  -141  -156  -133  -117  -128  -171  -242  -307  -331  -278  -93  234  579  784  800  683  527  412  351  294  152  -160  -574  -869  -886  -640  -294  -50  22  -6  -52  -77  -67  -21  34  61  47  38  152  478  919  1247  1364  1341  1244  1077  844  630  564  688  902  1097  1233  1316  1354  1331  1186  899  587  414  379  359  305  242  180  123  80  76  141  282  415  442  441  654  1261  2270  3512  4686  5552  6028  6053  5580  4712  3611  2356  1014  -112  -608  -487  -180  17  -33  -353  -653  -661  -463  -252  -117  -83  -133  -206  -225  -162  -53  77  214  265  145  -67  -172  -64  167  361  468  531  577  617  663  714  783  902  1052  1175  1273  1392  1532  1642  1686  1681  1668  1650  1598  1519  1463  1517  1760  2151  2488  2562  2326  1943  1667  1599  1652  1728  1800  1852  1817  1595  1153  606  156  -65  -91  -51  -80  -287  -719  -1250  -1628  -1702  -1473  -1038  -598  -341  -279  -301  -325  -343  -374  -434  -551  -766  -1037  -1237  -1297  -1244  -1129  -1007  -933  -917  -925  -919  -880  -820  -746  -631  -469  -334  -290  -293  -261  -199  -187  -311  -595  -924  -1136  -1194  -1177  -1165  -1187  -1213  -1163  -981  -718  -477  -313  -235  -235  -317  -470  -650  -806  -916  -984  -1014  -989  -901  -794  -692  -559  -387  -214  -75  -18  -103  -342  -634  -852  -983  -1073  -1094  -987  -780  -557  -372  -231  -168  -318  -803  -1481  -1974  -2010  -1577  -893  -273  121  267  126  -280  -805  -1256  -1487  -1439  -1133  -682  -287  -86  -60  -127  -249  -425  -616  -735  -694  -475  -194  -27  1  107  528  1185  1644  1444  481  -718  -1226  -532  897  1977  1784  304  -1400  -2130  -1484  112  1761  2802  3398  4018  4696  5213  5456  5339  4759  3768  2517  1081  -291  -1145  -1325  -1083  -748  -536  -524  -673  -878  -1027  -1077  -1042  -932  -771  -613  -513  -510  -602  -725  -789  -761  -680  -563  -355  -35  292  501  569  486  213  -171  -466  -591  -641  -688  -704  -655  -578  -525  -497  -466  -432  -415  -430  -426  -278  83  531  832  901  844  784  755  738  713  648  475  160  -193  -424  -488  -468  -442  -449  -496  -566  -628  -667  -679  -665  -641  -618  -599  -591  -580  -517  -354  -158  -118  -359  -748  -1009  -1025  -904  -777  -661  -514  -304  -39  190  280  237  190  237  337  417  468  481  358  -9  -526  -896  -884  -475  102  511  572  349  33  -185  -242  -193  -99  45  271  507  626  627  603  569  423  66  -412  -758  -824  -664  -424  -234  -139  -104  -69  16  137  189  83  -139  -323  -399  -469  -591  -668  -648  -606  -634  -734  -795  -711  -508  -303  -192  -198  -301  -466  -637  -747  -781  -780  -778  -772  -746  -716  -716  -750  -786  -805  -810  -812  -810  -791  -741  -662  -574  -484  -368  -234  -136  -100  -100  -109  -123  -148  -184  -219  -236  -228  -192  -139  -102  -124  -233  -395  -519  -498  -264  138  526  687  485  -78  -781  -1301  -1501  -1422  -1100  -566  161  1159  2481  4028  5569  6779  7265  6615  4613  1774  -586  -1276  -222  1585  2837  2451  241  -2529  -4150  -4003  -2524  -644  467  318  -413  -898  -984  -877  -704  -530  -430  -441  -524  -618  -692  -758  -796  -679  -249  431  1049  1356  1330  1043  611  220  12  12  171  394  561  626  635  668  765  891  977  994  985  1012  1095  1199  1276  1328  1379  1418  1427  1425  1419  1381  1289  1113  814  451  157  -29  -161  -231  -129  237  755  1137  1174  839  260  -339  -786  -1029  -1099  -1037  -849  -527  -114  265  485  442  44  -665  -1388  -1813  -1879  -1678  -1308  -884  -506  -210  3  155  294  475  689  814  629  -15  -907  -1576  -1809  -1704  -1320  -645  104  465  203  -397  -869  -1030  -1007  -953  -923  -912  -915  -929  -954  -962  -864  -580  -174  164  340  407  437  419  265  -72  -471  -755  -917  -1049  -1101  -970  -713  -479  -340  -272  -223  -171  -120  -69  -33  -52  -155  -323  -509  -649  -646  -448  -159  16  1  -101  -203  -306  -417  -526  -580  -452  -106  290  564  685  711  690  602  399  84  -240  -432  -397  -141  201  446  555  647  812  1008  1139  1177  1159  1091  945  753  608  546  517  475  426  377  320  269  246  273  357  459  508  444  236  -59  -367  -678  -881  -651  188  1381  2486  3232  3707  4284  5258  6489  7324  7069  5611  3402  1133  -450  -1023  -920  -648  -535  -638  -762  -790  -777  -756  -732  -714  -702  -698  -733  -841  -993  -1100  -1088  -948  -757  -619  -554  -501  -424  -328  -207  -76  14  44  44  46  48  7  -111  -268  -379  -420  -436  -440  -343  -26  473  925  1152  1186  1137  1065  1002  994  1072  1200  1303  1348  1351  1312  1211  1070  948  874  824  748  618  475  410  469  589  684  714  651  441  102  -216  -391  -424  -366  -239  -86  21  64  91  147  220  253  214  138  82  51  4  -92  -232  -371  -457  -482  -476  -466  -459  -452  -448  -450  -460  -476  -488  -485  -457  -410  -369  -398  -567  -869  -1174  -1361  -1415  -1353  -1145  -814  -501  -356  -401  -557  -736  -903  -1048  -1139  -1150  -1081  -955  -827  -757  -757  -805  -833  -699  -282  302  717  690  190  -519  -1067  -1307  -1345  -1271  -1097  -876  -713  -638  -580  -488  -382  -301  -258  -259  -339  -555  -892  -1223  -1439  -1511  -1421  -1144  -768  -501  -496  -763  -1166  -1517  -1746  -1889  -1973  -2024  -2114  -2281  -2468  -2590  -2626  -2593  -2480  -2271  -2028  -1855  -1739  -1529  -1100  -557  -182  -186  -565  -1095  -1480  -1603  -1543  -1389  -1215  -1103  -1105  -1212  -1367  -1528  -1734  -1973  -2016  -1694  -1135  -533  -35  322  928  2290  4265  6109  6934  6031  3543  718  -1051  -1311  -686  -260  -701  -1641  -2162  -1961  -1524  -1291  -1301  -1446  -1623  -1744  -1769  -1697  -1541  -1325  -1080  -827  -595  -410  -252  -102  7  21  -78  -204  -197  -33  139  233  284  333  369  377  365  360  406  541  744  933  1049  1099  1130  1190  1326  1554  1803  1970  2018  1950  1767  1534  1371  1325  1339  1330  1250  1122  1032  1084  1325  1657  1898  1973  1952  1921  1940  2039  2195  2296  2150  1630  908  361  172  280  603  1009  1306  1417  1415  1381  1336  1280  1222  1187  1182  1178  1132  1019  855  700  611  612  780  1217  1807  2242  2352  2196  1904  1592  1349  1215  1183  1242  1391  1581  1711  1685  1463  1119  826  699  704  736  685  494  227  25  -63  -96  -90  0  158  296  349  333  296  265  237  202  168  167  256  467  715  829  697  375  44  -129  -68  227  624  904  954  826  646  523  475  450  427  467  590  694  684  610  558  534  487  397  317  260  128  -108  -315  -336  -85  394  913  1271  1425  1440  1367  1213  999  758  522  341  262  251  211  68  -127  -253  -281  -337  -580  -1028  -1559  -2064  -2533  -2951  -3145  -2894  -2192  -1254  -429  -28  64  492  1767  3507  4645  4241  2084  -1029  -3677  -4845  -4544  -3581  -2832  -2710  -3202  -3983  -4585  -4777  -4594  -4117  -3524  -3093  -2951  -3017  -3153  -3266  -3320  -3327  -3303  -3246  -3149  -3038  -2970  -2971  -3007  -2982  -2761  -2300  -1736  -1267  -938  -667  -462  -441  -640  -944  -1214  -1360  -1374  -1321  -1248  -1159  -1041  -893  -741  -625  -556  -519  -498  -474  -420  -313  -139  90  341  557  646  553  348  169  71  15  -62  -255  -652  -1164  -1527  -1571  -1332  -977  -686  -512  -411  -351  -318  -295  -280  -283  -320  -390  -463  -495  -464  -389  -312  -253  -208  -177  -169  -183  -195  -178  -100  49  223  323  307  230  154  100  71  68  79  88  61  -30  -167  -281  -307  -187  100  451  691  747  656  502  397  410  513  692  964  1245  1335  1072  504  -81  -420  -506  -495  -471  -381  -144  178  416  492  474  446  457  529  613  582  399  218  197  313  406  400  376  396  447  516  561  534  403  139  -175  -391  -470  -472  -420  -268  26  443  865  1126  1126  895  579  356  286  306  347  393  448  504  545  572  595  610  572  423  182  -32  -118  -76  12  77  85  -6  -238  -524  -656  -453  68  719  1524  2715  4169  5476  6392  6731  6205  4777  2922  1202  -58  -647  -597  -350  -365  -597  -713  -643  -554  -520  -488  -383  -204  -53  -25  -94  -165  -194  -205  -223  -241  -234  -168  -30  136  255  302  310  310  323  383  518  717  919  1063  1164  1277  1396  1475  1502  1516  1572  1695  1845  1949  1981  1984  2019  2126  2303  2496  2624  2666  2672  2691  2718  2699  2598  2458  2364  2358  2400  2377  2117  1557  917  524  478  637  844  1005  1077  1067  1041  1061  1141  1253  1358  1407  1283  860  219  -329  -581  -605  -553  -488  -380  -202  -40  -13  -94  -173  -208  -217  -225  -256  -323  -395  -436  -426  -386  -433  -686  -1054  -1316  -1389  -1358  -1320  -1307  -1313  -1322  -1318  -1281  -1192  -1052  -900  -791  -742  -738  -779  -865  -927  -866  -699  -556  -515  -547  -589  -605  -617  -681  -832  -1028  -1172  -1221  -1198  -1131  -1041  -950  -875  -847  -878  -928  -952  -956  -973  -1021  -1081  -1113  -1091  -1026  -944  -870  -815  -779  -769  -798  -867  -956  -1023  -1017  -946  -870  -824  -811  -837  -920  -1043  -1157  -1228  -1254  -1263  -1319  -1510  -1801  -1946  -1823  -1687  -1747  -1835  -1680  -1084  134  1958  3870  5129  5294  4284  2392  324  -1204  -1916  -2053  -2016  -1901  -1661  -1427  -1346  -1407  -1545  -1709  -1861  -1964  -2009  -1977  -1795  -1409  -965  -760  -943  -1320  -1543  -1450  -1185  -981  -910  -864  -738  -565  -454  -435  -452  -463  -464  -470  -496  -534  -532  -407  -128  204  449  567  613  635  647  645  627  598  574  571  592  643  743  890  1046  1170  1248  1274  1219  1039  755  461  226  75  9  13  52  94  118  131  146  157  139  62  -61  -177  -263  -332  -346  -250  -97  -19  -58  -119  -109  -51  11  94  199  271  242  85  -130  -287  -335  -321  -299  -308  -376  -496  -615  -677  -644  -504  -315  -178  -155  -233  -362  -490  -585  -628  -608  -529  -436  -385  -373  -360  -335  -321  -349  -451  -643  -868  -1030  -1084  -1047  -918  -680  -403  -212  -152  -160  -172  -178  -214  -309  -423  -491  -529  -596  -690  -767  -820  -838  -723  -358  181  631  830  857  852  840  741  514  248  47  -78  -202  -380  -546  -551  -385  -199  -101  -73  -42  29  24  -252  -662  -741  -266  649  1824  3042  4148  5133  5817  5704  4499  2546  583  -802  -1409  -1389  -1185  -1189  -1391  -1486  -1287  -938  -700  -673  -793  -961  -1113  -1220  -1267  -1260  -1215  -1159  -1123  -1120  -1133  -1124  -1045  -870  -616  -362  -201  -155  -167  -184  -191  -193  -197  -204  -194  -134  -10  108  122  34  -66  -132  -147  -33  279  698  1018  1157  1205  1266  1345  1373  1322  1232  1143  1040  862  593  301  67  -56  -50  38  103  69  -30  -152  -290  -428  -531  -576  -563  -522  -497  -508  -526  -511  -408  -166  147  363  382  239  46  -84  -139  -175  -219  -259  -290  -299  -226  -16  268  476  539  514  485  526  678  894  1048  1045  882  657  502  458  458  421  341  301  351  427  480  551  677  828  971  1087  1147  1139  1096  1053  1018  984  920  797  641  564  680  989  1376  1712  1943  2047  1987  1747  1424  1188  1101  1105  1159  1269  1415  1528  1572  1579  1585  1591  1577  1538  1486  1448  1465  1588  1817  2064  2228  2254  2085  1690  1211  884  779  767  707  568  423  360  419  590  807  1020  1240  1447  1530  1428  1264  1362  2115  3632  5461  6884  7290  6336  4325  2181  657  -7  169  793  1035  544  -169  -623  -792  -793  -725  -649  -580  -524  -489  -483  -506  -540  -560  -555  -534  -508  -459  -366  -247  -154  -134  -205  -324  -418  -458  -465  -459  -449  -441  -448  -472  -508  -546  -577  -578  -526  -401  -194  58  281  416  450  381  219  32  -90  -126  -119  -107  -98  -86  -75  -77  -108  -196  -352  -523  -632  -663  -651  -624  -594  -574  -586  -655  -795  -1016  -1278  -1398  -1237  -936  -744  -765  -942  -1114  -1146  -1065  -984  -964  -977  -992  -1042  -1176  -1361  -1506  -1566  -1553  -1459  -1267  -1028  -867  -878  -1030  -1199  -1326  -1427  -1468  -1388  -1241  -1150  -1159  -1192  -1178  -1131  -1089  -1053  -1000  -933  -902  -940  -997  -1009  -984  -970  -997  -1050  -1093  -1110  -1108  -1087  -1035  -952  -862  -802  -789  -816  -880  -993  -1144  -1265  -1312  -1312  -1297  -1234  -1059  -802  -581  -475  -473  -569  -772  -1031  -1252  -1369  -1370  -1272  -1104  -883  -611  -279  60  290  364  328  217  36  -185  -379  -516  -669  -920  -1220  -1434  -1497  -1402  -1165  -919  -888  -1202  -1757  -2088  -1595  -203  1510  2988  4086  4872  5365  5429  4826  3421  1496  -205  -1052  -1102  -955  -1124  -1560  -1848  -1790  -1504  -1175  -965  -969  -1174  -1464  -1673  -1693  -1511  -1200  -904  -729  -697  -830  -1175  -1671  -2126  -2379  -2354  -1966  -1223  -416  96  236  119  -166  -521  -786  -877  -836  -748  -666  -600  -525  -438  -373  -351  -349  -313  -198  -34  112  226  336  447  552  644  717  771  817  882  947  920  766  574  374  70  -336  -685  -854  -863  -759  -565  -356  -237  -211  -154  57  398  701  836  742  387  -121  -536  -711  -703  -625  -533  -457  -423  -423  -398  -270  -38  196  334  373  364  332  271  189  130  138  230  373  488  494  347  90  -183  -432  -645  -779  -820  -818  -808  -752  -565  -225  180  527  745  834  829  766  649  463  248  99  50  60  84  116  174  282  439  631  816  929  951  920  845  698  517  428  502  669  802  853  859  854  815  701  553  491  585  752  824  732  577  489  457  420  400  435  466  437  398  412  455  473  456  431  423  425  406  343  248  165  147  257  540  873  898  466  31  180  1099  2619  4301  5623  6396  6716  6534  5654  4122  2303  634  -463  -766  -556  -323  -291  -437  -625  -714  -690  -584  -388  -149  15  59  26  -18  -49  -87  -156  -227  -256  -225  -143  -47  20  51  49  24  -4  -11  48  204  400  541  614  687  786  881  959  1033  1092  1119  1109  1070  1020  984  974  976  980  976  967  973  1063  1309  1651  1903  1907  1628  1160  671  269  -30  -235  -335  -343  -315  -327  -453  -690  -914  -1005  -984  -944  -925  -926  -951  -1019  -1133  -1255  -1323  -1272  -1067  -781  -562  -503  -623  -901  -1241  -1502  -1614  -1605  -1550  -1507  -1489  -1482  -1481  -1497  -1556  -1654  -1751  -1804  -1798  -1732  -1600  -1421  -1272  -1217  -1241  -1263  -1228  -1162  -1117  -1103  -1100  -1104  -1130  -1210  -1356  -1520  -1597  -1507  -1273  -1007  -820  -758  -790  -836  -819  -731  -653  -671  -770  -861  -892  -882  -883  -947  -1069  -1138  -1060  -896  -770  -740  -784  -823  -778  -666  -575  -548  -558  -572  -582  -589  -580  -546  -496  -425  -284  -43  239  476  616  652  624  579  523  420  252  36  -183  -355  -459  -531  -625  -739  -836  -902  -926  -807  -409  173  567  524  256  203  712  1932  3688  5418  6480  6503  5496  3852  2168  856  -35  -647  -1035  -1171  -1116  -1026  -1002  -1036  -1081  -1107  -1102  -1067  -1018  -978  -963  -977  -1042  -1174  -1336  -1449  -1472  -1427  -1351  -1247  -1087  -894  -744  -663  -620  -595  -599  -653  -764  -891  -928  -778  -504  -291  -219  -199  -126  18  175  293  364  419  495  604  731  879  1032  1108  1052  951  892  839  712  530  397  377  451  546  604  626  635  632  583  444  223  13  -113  -180  -237  -275  -232  -62  181  393  548  673  761  801  790  693  492  298  295  502  758  938  1042  1119  1173  1173  1139  1120  1122  1135  1152  1171  1203  1244  1294  1373  1472  1545  1571  1565  1554  1553  1566  1590  1619  1639  1645  1638  1622  1604  1587  1564  1534  1521  1551  1602  1623  1580  1480  1343  1193  1071  1003  982  988  1010  1049  1101  1155  1191  1168  1049  874  744  728  813  934  1029  1085  1132  1175  1189  1171  1141  1122  1143  1206  1270  1285  1233  1139  1027  897  767  697  718  793  870  923  957  986  984  868  555  84  -332  -375  76  741  1399  2234  3365  4641  5957  7217  8112  8165  7029  4870  2392  425  -563  -724  -551  -414  -389  -313  -48  268  424  396  297  230  217  224  220  207  192  171  146  128  121  117  110  114  154  224  283  313  330  333  268  80  -176  -370  -447  -450  -394  -244  -32  101  72  -24  -43  68  251  413  514  558  565  562  551  523  488  460  451  461  441  284  -85  -619  -1127  -1402  -1411  -1308  -1238  -1243  -1320  -1472  -1684  -1898  -2036  -2070  -2042  -1999  -1972  -1976  -2027  -2119  -2220  -2311  -2386  -2414  -2397  -2416  -2521  -2669  -2771  -2753  -2638  -2529  -2500  -2542  -2612  -2671  -2705  -2717  -2713  -2701  -2699  -2740  -2830  -2937  -3052  -3200  -3330  -3356  -3261  -3087  -2914  -2812  -2784  -2784  -2786  -2817  -2937  -3158  -3386  -3492  -3436  -3221  -2845  -2411  -2132  -2169  -2537  -3048  -3411  -3471  -3282  -2994  -2729  -2518  -2387  -2378  -2442  -2479  -2433  -2330  -2277  -2341  -2447  -2455  -2300  -2054  -1890  -1896  -1988  -2049  -2026  -1918  -1774  -1670  -1636  -1647  -1674  -1704  -1732  -1771  -1843  -1940  -2036  -2143  -2299  -2529  -2758  -2725  -2279  -1651  -1016  -192  944  2298  3658  4637  4859  4209  2825  1100  -440  -1467  -1947  -2014  -1855  -1690  -1649  -1693  -1743  -1781  -1799  -1737  -1519  -1165  -803  -546  -428  -436  -532  -658  -744  -740  -641  -494  -361  -261  -178  -87  42  212  369  464  497  499  502  525  556  578  616  701  791  824  809  819  932  1161  1430  1643  1765  1821  1857  1920  2016  2087  2097  2078  2058  2014  1913  1770  1651  1594  1590  1608  1627  1627  1544  1315  999  750  600  446  262  148  186  364  609  842  1047  1245  1428  1552  1601  1600  1571  1529  1511  1571  1696  1804  1851  1867  1866  1793  1582  1292  1081  1046  1161  1326  1441  1458  1400  1315  1254  1247  1298  1393  1488  1539  1555  1616  1830  2212  2612  2861  2939  2924  2855  2725  2558  2426  2376  2393  2449  2539  2670  2820  2918  2880  2672  2378  2170  2178  2408  2728  2964  3055  3064  3057  3072  3129  3213  3271  3251  3135  2977  2865  2829  2825  2803  2747  2624  2377  2046  1848  2063  2763  3533  3789  3448  2900  2665  3181  4465  6099  7633  8752  9149  8539  6924  4828  3039  2048  1793  1873  1934  1867  1731  1575  1362  1082  830  689  645  638  626  619  648  724  816  879  888  835  707  526  344  182  57  49  214  455  556  398  89  -157  -245  -195  -35  183  366  473  550  634  715  802  933  1102  1254  1312  1223  1010  762  533  350  241  210  219  229  228  227  250  314  374  320  63  -377  -883  -1311  -1566  -1664  -1705  -1743  -1740  -1656  -1534  -1495  -1612  -1821  -1987  -2045  -1999  -1867  -1701  -1585  -1548  -1556  -1567  -1565  -1551  -1536  -1528  -1516  -1481  -1410  -1336  -1348  -1533  -1913  -2378  -2738  -2886  -2825  -2581  -2243  -1967  -1846  -1862  -1976  -2151  -2312  -2400  -2420  -2416  -2408  -2382  -2322  -2256  -2233  -2253  -2285  -2320  -2354  -2382  -2406  -2420  -2423  -2436  -2441  -2386  -2266  -2126  -1968  -1763  -1532  -1352  -1256  -1246  -1332  -1513  -1770  -2068  -2328  -2450  -2425  -2364  -2358  -2392  -2416  -2432  -2479  -2571  -2677  -2765  -2823  -2820  -2729  -2562  -2293  -1883  -1395  -748  397  2075  3672  4410  3931  2453  594  -925  -1708  -1989  -2296  -2785  -3162  -3150  -2838  -2527  -2364  -2247  -2052  -1846  -1793  -1904  -2035  -2090  -2080  -2036  -1954  -1822  -1654  -1506  -1430  -1430  -1451  -1436  -1360  -1257  -1160  -1073  -1038  -1075  -1126  -1116  -1023  -891  -795  -763  -767  -777  -787  -792  -757  -641  -466  -298  -146  8  152  260  317  317  243  83  -160  -460  -735  -895  -932  -913  -904  -938  -1023  -1126  -1201  -1234  -1242  -1233  -1215  -1205  -1225  -1283  -1358  -1425  -1462  -1428  -1324  -1220  -1157  -1126  -1116  -1136  -1189  -1268  -1358  -1426  -1445  -1411  -1330  -1237  -1185  -1193  -1243  -1296  -1343  -1403  -1471  -1525  -1569  -1608  -1634  -1643  -1642  -1638  -1631  -1630  -1653  -1729  -1887  -2124  -2374  -2561  -2683  -2779  -2853  -2891  -2938  -3088  -3394  -3761  -4018  -4117  -4147  -4170  -4153  -4039  -3841  -3624  -3432  -3281  -3178  -3109  -2980  -2633  -2042  -1415  -997  -841  -840  -875  -886  -868  -840  -821  -821  -829  -814  -748  -631  -495  -368  -262  -167  -53  83  175  182  230  511  1086  1943  3189  4739  6068  6773  6824  6108  4635  2899  1413  419  53  228  614  914  1031  1049  1066  1123  1259  1486  1747  1961  2087  2123  2095  2045  1985  1908  1832  1790  1785  1786  1775  1768  1824  1992  2217  2346  2297  2145  2018  1964  1947  1947  2023  2247  2567  2836  2975  3002  2967  2935  2958  3044  3151  3224  3257  3287  3341  3412  3484  3530  3488  3305  3034  2810  2690  2622  2555  2492  2441  2380  2268  2068  1819  1635  1571  1572  1563  1503  1399  1299  1260  1284  1328  1356  1350  1301  1220  1131  1045  951  855  798  792  805  782  685  534  393  304  271  282  305  311  291  248  190  132  98  126  241  409  525  477  222  -132  -394  -483  -450  -359  -257  -190  -177  -199  -233  -270  -296  -253  -88  138  302  350  314  228  86  -127  -369  -542  -606  -605  -587  -562  -516  -429  -288  -96  126  332  458  464  330  82  -174  -331  -374  -365  -350  -341  -322  -265  -174  -94  -68  -99  -167  -269  -428  -622  -782  -891  -973  -987  -831  -564  -491  -662  -696  -358  374  1579  3216  4943  6151  6283  5308  3695  1985  592  -225  -524  -564  -507  -448  -547  -853  -1189  -1358  -1295  -1022  -662  -392  -263  -208  -186  -226  -357  -536  -663  -690  -655  -626  -645  -684  -689  -669  -672  -724  -792  -800  -678  -418  -115  97  200  260  314  356  392  423  466  549  657  721  684  572  503  553  656  719  733  731  728  721  701  695  797  1090  1456  1573  1233  612  84  -174  -237  -236  -252  -298  -323  -314  -352  -473  -607  -689  -711  -658  -506  -301  -147  -101  -149  -275  -462  -651  -770  -779  -681  -505  -305  -168  -177  -319  -489  -564  -487  -324  -209  -212  -310  -435  -517  -540  -551  -603  -686  -724  -648  -489  -335  -213  -112  -37  10  44  68  79  82  82  80  68  46  32  80  234  452  614  631  491  255  37  -82  -114  -107  -98  -105  -138  -189  -235  -261  -275  -299  -354  -446  -547  -602  -568  -437  -215  57  292  423  470  470  388  162  -152  -414  -568  -661  -710  -698  -625  -519  -454  -460  -487  -521  -554  -492  -317  -142  -32  43  44  -178  -634  -1069  -1215  -974  -354  646  2064  3758  5285  6114  5911  4720  2962  1321  342  -86  -481  -1070  -1660  -1852  -1461  -828  -388  -210  -204  -344  -589  -836  -969  -962  -890  -831  -801  -789  -788  -792  -793  -788  -769  -725  -651  -565  -513  -521  -566  -603  -596  -542  -452  -310  -106  97  217  253  263  283  305  317  319  318  314  306  293  302  378  545  753  919  989  938  774  595  533  605  675  630  511  397  288  172  73  -14  -158  -366  -526  -534  -382  -163  1  72  74  -12  -237  -541  -775  -875  -885  -853  -795  -712  -621  -555  -508  -437  -343  -274  -259  -283  -318  -348  -361  -342  -269  -154  -52  -6  -1  13  63  131  181  199  197  179  145  105  69  0  -145  -306  -339  -224  -142  -225  -351  -330  -123  176  441  544  447  237  29  -140  -278  -359  -354  -266  -130  8  150  310  424  383  195  -10  -139  -193  -189  -93  141  455  690  771  730  610  447  291  181  175  301  483  609  663  698  733  741  721  690  633  517  361  220  118  54  37  68  108  111  77  21  -70  -184  -286  -406  -513  -465  -212  242  1029  2279  3888  5483  6564  6690  5652  3750  1768  434  -63  -32  35  -274  -976  -1671  -2028  -2072  -1999  -1954  -1987  -2095  -2249  -2418  -2578  -2727  -2862  -2967  -3022  -3007  -2922  -2819  -2745  -2666  -2504  -2248  -2019  -1936  -1951  -1959  -1940  -1895  -1811  -1658  -1393  -1059  -780  -637  -616  -627  -506  -138  355  680  702  545  395  348  439  685  1004  1242  1335  1331  1241  1062  920  1008  1299  1525  1462  1089  543  23  -311  -405  -284  -16  276  460  496  435  332  227  160  146  163  178  180  190  221  249  263  287  361  480  590  661  697  676  561  354  123  -17  -17  60  158  302  509  683  681  515  343  257  233  227  219  207  203  251  395  598  741  709  469  133  -106  -146  -23  154  288  356  375  335  204  13  -116  -138  -190  -349  -509  -573  -567  -545  -523  -488  -444  -417  -422  -444  -459  -466  -472  -482  -480  -424  -286  -102  42  96  73  18  -49  -138  -237  -336  -485  -740  -1026  -1208  -1262  -1289  -1379  -1520  -1635  -1602  -1264  -639  24  465  556  501  899  2144  3829  4990  4899  3668  2118  967  380  53  -610  -1735  -2588  -2626  -2103  -1521  -1151  -991  -928  -873  -772  -648  -565  -554  -611  -696  -760  -789  -795  -771  -681  -515  -319  -167  -117  -158  -208  -173  -10  258  543  752  859  891  882  876  933  1126  1467  1830  2056  2141  2212  2351  2500  2563  2538  2500  2496  2514  2561  2729  3094  3544  3858  3915  3726  3375  3025  2828  2791  2813  2794  2696  2552  2435  2379  2405  2560  2857  3192  3409  3390  3062  2480  1913  1646  1722  1950  2129  2217  2281  2324  2212  1818  1250  811  695  852  1141  1430  1600  1564  1315  975  732  659  695  759  794  734  534  257  48  -22  22  154  313  379  251  -52  -381  -599  -708  -769  -827  -896  -930  -873  -763  -671  -616  -598  -625  -692  -784  -877  -944  -979  -992  -1002  -1027  -1072  -1131  -1194  -1248  -1277  -1257  -1158  -975  -733  -504  -415  -600  -1061  -1588  -1928  -2029  -2009  -1971  -1937  -1894  -1844  -1790  -1699  -1557  -1409  -1196  -864  -639  -754  -1069  -1174  -623  814  2844  4607  5266  4657  3235  1669  426  -508  -1315  -2001  -2475  -2652  -2590  -2509  -2478  -2393  -2231  -2051  -1833  -1534  -1233  -1054  -1013  -1035  -1058  -1048  -989  -893  -824  -880  -1137  -1537  -1884  -2049  -2053  -1951  -1782  -1599  -1447  -1301  -1098  -856  -669  -597  -658  -862  -1135  -1317  -1280  -1010  -639  -360  -255  -262  -296  -318  -346  -449  -658  -877  -1007  -1075  -1129  -1147  -1116  -1074  -1103  -1272  -1557  -1845  -1987  -1922  -1748  -1619  -1618  -1711  -1818  -1919  -2038  -2154  -2213  -2181  -2062  -1877  -1692  -1610  -1694  -1904  -2142  -2327  -2434  -2485  -2497  -2455  -2344  -2193  -2068  -2009  -2003  -2010  -1946  -1781  -1581  -1299  -786  -137  323  435  304  113  -10  -36  -6  17  -48  -269  -580  -811  -849  -695  -417  -97  213  439  459  266  20  -119  -111  -7  152  388  663  864  951  977  969  925  869  816  767  739  741  742  712  686  775  1028  1312  1420  1278  1000  754  592  505  491  500  448  313  135  -52  -244  -411  -508  -534  -532  -533  -537  -521  -398  -22  693  1683  2776  3861  4897  5622  5612  4730  3129  1155  -550  -1515  -1945  -2148  -2148  -2060  -1967  -1775  -1512  -1304  -1181  -1103  -1041  -1005  -1029  -1130  -1272  -1389  -1445  -1421  -1258  -935  -577  -351  -296  -324  -341  -279  -82  232  543  730  768  684  494  256  80  53  214  542  900  1129  1192  1165  1108  1045  998  1034  1252  1658  2068  2242  2100  1787  1510  1325  1135  913  747  688  692  704  716  746  804  877  896  713  213  -449  -915  -932  -497  159  685  907  932  930  942  837  486  52  -149  -96  2  41  46  56  77  99  121  142  140  97  28  -23  -27  3  16  -32  -164  -362  -566  -712  -769  -699  -439  -41  292  414  373  248  16  -312  -618  -781  -787  -686  -521  -323  -132  11  84  73  -9  -124  -230  -333  -445  -525  -490  -271  90  427  603  636  613  585  557  548  603  719  818  844  824  798  766  702  616  543  492  438  359  264  226  298  413  434  275  -25  -357  -623  -771  -770  -597  -309  -156  -309  -465  -148  779  2150  3643  4922  5848  6326  6164  5279  3834  2184  818  90  -156  -380  -819  -1304  -1474  -1244  -920  -755  -741  -791  -870  -957  -1017  -1042  -1054  -1058  -1005  -843  -610  -426  -351  -342  -344  -332  -310  -315  -420  -667  -997  -1277  -1429  -1436  -1233  -762  -172  260  420  341  67  -287  -551  -648  -615  -508  -319  -8  357  616  706  702  685  659  561  332  39  -168  -235  -225  -205  -184  -151  -140  -231  -471  -783  -1029  -1160  -1197  -1178  -1136  -1053  -925  -821  -746  -631  -490  -414  -452  -565  -633  -567  -414  -265  -148  -61  -33  -138  -410  -748  -984  -1062  -1045  -973  -857  -749  -712  -711  -680  -630  -600  -560  -466  -337  -239  -206  -216  -250  -308  -383  -454  -495  -484  -413  -305  -189  -93  -41  -65  -208  -451  -686  -822  -854  -843  -835  -842  -856  -858  -815  -703  -556  -451  -416  -421  -430  -433  -432  -433  -437  -446  -457  -460  -431  -340  -212  -108  -71  -123  -275  -465  -545  -406  -93  246  489  602  617  579  508  425  336  177  -110  -442  -660  -723  -717  -725  -757  -785  -795  -795  -793  -785  -764  -752  -803  -910  -945  -780  -272  736  2139  3566  4705  5331  5286  4539  3173  1436  -257  -1626  -2619  -3079  -2852  -2214  -1657  -1423  -1456  -1568  -1633  -1671  -1745  -1839  -1861  -1743  -1545  -1396  -1346  -1354  -1365  -1334  -1232  -1056  -813  -508  -213  -30  19  -10  -84  -184  -270  -286  -195  -5  256  565  869  1114  1283  1410  1527  1610  1626  1596  1546  1512  1531  1567  1556  1486  1392  1323  1304  1339  1448  1643  1898  2149  2328  2404  2372  2235  2054  1896  1760  1635  1553  1542  1594  1678  1769  1843  1849  1732  1529  1370  1349  1435  1522  1558  1571  1604  1655  1693  1696  1679  1696  1839  2147  2498  2697  2683  2563  2476  2470  2488  2402  2121  1741  1493  1483  1597  1668  1623  1518  1470  1547  1690  1738  1574  1295  1117  1112  1177  1220  1231  1228  1212  1169  1107  1042  981  913  840  783  740  688  628  592  577  515  334  65  -168  -278  -268  -195  -122  -78  -56  -49  -77  -161  -274  -357  -410  -509  -708  -950  -1140  -1268  -1362  -1400  -1354  -1256  -1159  -1085  -1038  -1034  -1109  -1287  -1525  -1727  -1820  -1780  -1616  -1400  -1245  -1197  -1217  -1276  -1416  -1708  -2145  -2606  -2954  -3140  -3228  -3294  -3320  -3220  -2961  -2654  -2464  -2442  -2586  -2913  -3303  -3455  -3063  -1938  -178  1710  3156  3863  3703  2615  873  -870  -2057  -2501  -2364  -2119  -2218  -2659  -3127  -3410  -3506  -3443  -3166  -2660  -2089  -1685  -1527  -1523  -1553  -1567  -1565  -1565  -1570  -1576  -1580  -1586  -1593  -1583  -1527  -1423  -1319  -1278  -1334  -1445  -1472  -1364  -1210  -1040  -808  -540  -278  -86  -37  -48  30  193  339  425  460  463  437  373  286  224  228  299  399  472  497  487  460  426  401  397  409  415  372  232  2  -229  -369  -406  -389  -345  -270  -180  -119  -120  -177  -251  -303  -335  -369  -404  -427  -430  -428  -436  -446  -441  -410  -338  -209  -15  210  380  430  394  332  290  323  466  680  872  973  993  980  975  990  1019  1048  1067  1050  958  784  598  474  417  394  390  392  381  344  316  368  539  733  753  503  143  -76  -104  -47  19  50  -65  -452  -1045  -1595  -1882  -1818  -1466  -1032  -719  -611  -678  -846  -1050  -1195  -1162  -963  -752  -644  -629  -623  -563  -453  -318  -192  -115  -87  -78  -80  -145  -333  -613  -875  -1043  -1120  -1130  -1064  -894  -667  -487  -405  -413  -551  -844  -1094  -999  -546  25  530  952  1527  2554  3996  5418  6224  5858  4115  1557  -754  -2076  -2292  -1737  -917  -285  -170  -590  -1172  -1537  -1637  -1614  -1567  -1502  -1402  -1242  -1008  -796  -782  -966  -1118  -1057  -854  -679  -586  -503  -397  -313  -298  -350  -438  -518  -549  -487  -301  -49  144  220  210  150  58  4  163  691  1452  2064  2284  2076  1481  724  184  75  388  990  1608  1977  2031  1856  1533  1128  735  460  338  319  339  348  297  160  -24  -183  -265  -257  -174  -35  141  319  439  453  328  84  -172  -337  -412  -487  -614  -737  -766  -683  -511  -236  101  381  553  693  841  901  791  554  228  -137  -408  -521  -543  -539  -502  -391  -198  30  224  324  292  121  -121  -310  -379  -379  -406  -509  -609  -537  -285  -47  79  193  369  578  750  788  562  40  -565  -952  -1001  -799  -521  -331  -300  -396  -541  -650  -633  -418  -7  491  923  1128  954  335  -503  -1020  -729  332  1525  2062  1610  547  -339  -483  102  864  1124  744  153  -303  -584  -718  -703  -523  -225  96  405  721  1090  1656  2551  3627  4496  4927  5003  4847  4397  3544  2399  1309  563  182  42  31  73  98  58  -48  -161  -220  -222  -202  -182  -175  -214  -337  -513  -660  -724  -682  -519  -257  31  266  394  423  411  401  403  400  396  427  516  598  559  378  167  45  52  155  312  521  752  915  980  1016  1069  1099  1052  950  876  902  1004  1073  1069  1046  1046  1047  966  714  334  8  -137  -142  -138  -246  -494  -779  -959  -979  -879  -740  -647  -647  -736  -861  -958  -1006  -1009  -927  -712  -421  -219  -237  -489  -843  -1104  -1190  -1137  -994  -824  -714  -695  -711  -661  -483  -232  -47  14  2  -25  -47  -58  -60  -58  -55  -55  -61  -89  -177  -348  -539  -644  -625  -518  -409  -360  -365  -381  -368  -307  -234  -220  -272  -296  -233  -178  -240  -387  -505  -533  -491  -414  -334  -283  -278  -318  -388  -431  -334  -7  453  804  892  701  292  -142  -354  -254  11  250  395  478  521  537  541  540  519  457  335  156  -45  -205  -286  -318  -341  -351  -321  -258  -200  -163  -127  -32  159  368  531  808  1416  2424  3760  5082  5964  6248  5857  4734  3171  1622  416  -235  -477  -719  -1060  -1295  -1336  -1260  -1132  -986  -856  -769  -745  -818  -988  -1164  -1181  -939  -552  -254  -149  -206  -381  -624  -896  -1201  -1506  -1715  -1800  -1807  -1737  -1539  -1240  -979  -853  -833  -840  -848  -893  -1017  -1177  -1254  -1179  -1021  -906  -889  -917  -876  -648  -244  161  366  305  143  162  415  694  831  808  692  574  503  467  448  441  456  505  575  625  596  455  251  99  100  294  642  1028  1344  1549  1674  1759  1812  1848  1898  1956  1952  1827  1618  1423  1299  1241  1242  1333  1534  1779  1952  1998  1929  1766  1531  1266  1071  1053  1157  1213  1157  1015  830  667  581  552  527  487  453  437  425  416  445  569  783  999  1112  1051  789  418  102  -90  -203  -287  -357  -399  -391  -325  -226  -159  -200  -390  -657  -851  -881  -759  -563  -394  -312  -308  -332  -347  -364  -432  -566  -675  -672  -610  -575  -581  -600  -621  -668  -778  -927  -1036  -1065  -1037  -992  -948  -898  -845  -806  -795  -804  -832  -898  -1048  -1306  -1600  -1807  -1892  -1911  -1911  -1899  -1879  -1877  -1943  -2094  -2249  -2278  -2015  -1257  2  1537  3145  4539  5274  5071  3867  1859  -304  -1841  -2345  -2070  -1749  -1866  -2254  -2509  -2489  -2344  -2237  -2203  -2208  -2218  -2224  -2225  -2216  -2196  -2186  -2253  -2451  -2722  -2921  -2985  -2971  -2948  -2954  -3002  -3082  -3179  -3299  -3429  -3521  -3555  -3560  -3557  -3517  -3392  -3190  -2976  -2792  -2648  -2545  -2440  -2281  -2083  -1903  -1780  -1712  -1657  -1572  -1477  -1379  -1250  -1110  -1022  -998  -1012  -1061  -1154  -1282  -1398  -1443  -1416  -1356  -1284  -1190  -1080  -1001  -982  -1004  -1023  -969  -778  -495  -262  -161  -164  -220  -299  -381  -447  -486  -498  -488  -447  -346  -149  120  372  527  579  566  542  568  674  820  895  845  777  843  1095  1461  1799  2009  2086  2089  2081  2094  2122  2153  2197  2272  2371  2465  2521  2509  2445  2394  2439  2619  2861  3031  3083  3093  3164  3328  3495  3550  3544  3591  3670  3691  3596  3378  3147  3071  3198  3435  3667  3849  3985  4076  4132  4164  4160  4110  4021  3914  3808  3714  3632  3544  3424  3296  3248  3292  3350  3379  3392  3395  3373  3337  3309  3293  3267  3206  3113  2990  2824  2637  2475  2332  2149  1905  1630  1357  1103  900  765  665  551  459  519  791  1118  1243  1030  677  635  1172  2303  3777  4998  5501  5191  4080  2475  1024  131  -285  -525  -878  -1430  -1912  -2028  -1866  -1690  -1632  -1773  -2183  -2734  -3133  -3236  -3128  -2950  -2787  -2665  -2625  -2693  -2809  -2875  -2825  -2659  -2452  -2293  -2205  -2168  -2140  -2087  -2032  -2042  -2161  -2364  -2572  -2682  -2571  -2170  -1621  -1206  -1046  -1071  -1209  -1399  -1548  -1577  -1461  -1226  -944  -746  -754  -912  -1011  -941  -825  -835  -958  -1043  -1023  -988  -1032  -1143  -1268  -1387  -1502  -1600  -1659  -1679  -1684  -1680  -1644  -1552  -1448  -1426  -1495  -1533  -1440  -1275  -1163  -1192  -1372  -1595  -1729  -1756  -1752  -1789  -1872  -1961  -2026  -2067  -2083  -2059  -1980  -1871  -1786  -1757  -1787  -1879  -2000  -2091  -2121  -2114  -2124  -2201  -2330  -2435  -2471  -2463  -2455  -2481  -2530  -2546  -2486  -2393  -2334  -2327  -2348  -2362  -2313  -2159  -1945  -1792  -1772  -1861  -1978  -2052  -2063  -2010  -1884  -1722  -1605  -1572  -1591  -1611  -1574  -1439  -1236  -1052  -935  -879  -868  -882  -894  -925  -1051  -1266  -1437  -1436  -1235  -915  -621  -449  -425  -510  -577  -481  -221  90  379  613  747  780  763  740  727  736  788  883  982  1039  1049  1037  1032  1066  1162  1298  1427  1516  1536  1497  1457  1430  1335  1081  677  231  -160  -352  -37  897  2105  3210  4186  5135  6009  6720  7112  6704  5170  2969  884  -479  -817  -478  -72  193  290  253  258  344  414  435  438  446  450  405  272  90  -40  -78  -68  -77  -138  -228  -296  -318  -313  -302  -290  -272  -249  -231  -221  -222  -246  -295  -332  -305  -219  -142  -112  -93  -27  86  193  259  277  257  223  181  109  6  -117  -281  -470  -608  -674  -744  -871  -1027  -1160  -1251  -1330  -1450  -1634  -1831  -1964  -2007  -1998  -1991  -2025  -2111  -2216  -2296  -2337  -2354  -2364  -2379  -2406  -2434  -2425  -2359  -2268  -2194  -2133  -2057  -1960  -1852  -1752  -1684  -1650  -1620  -1566  -1488  -1436  -1452  -1511  -1554  -1553  -1519  -1465  -1383  -1280  -1189  -1131  -1105  -1118  -1148  -1112  -968  -783  -649  -595  -593  -608  -624  -627  -584  -486  -389  -350  -337  -298  -268  -299  -375  -455  -529  -596  -656  -691  -675  -586  -403  -160  43  152  214  294  360  333  206  68  1  10  61  178  441  832  1185  1370  1393  1286  1056  776  590  599  797  1075  1290  1403  1462  1491  1483  1434  1368  1328  1323  1319  1256  1070  728  299  -34  -20  627  1965  3539  4769  5517  5950  6187  6278  6199  5809  5035  4037  3058  2248  1706  1470  1451  1512  1571  1585  1543  1511  1674  2175  2804  3019  2582  1993  1924  2559  3643  4482  4256  3068  1891  1377  1522  2026  2522  2808  2916  2965  3038  3117  3154  3152  3141  3126  3109  3107  3159  3251  3254  3048  2795  2809  3099  3372  3433  3312  3137  2991  2881  2790  2686  2547  2410  2325  2306  2290  2172  1925  1597  1217  862  655  595  552  424  218  25  -100  -170  -196  -183  -157  -162  -248  -446  -701  -876  -852  -609  -262  1  86  -14  -289  -641  -906  -1012  -1011  -966  -890  -757  -593  -476  -447  -453  -379  -140  194  442  495  356  65  -264  -493  -636  -820  -997  -955  -654  -311  -111  -56  -82  -173  -359  -622  -868  -998  -949  -729  -449  -260  -222  -275  -327  -341  -345  -410  -597  -856  -1058  -1148  -1184  -1222  -1266  -1255  -1088  -724  -299  -24  13  -121  -321  -506  -670  -818  -921  -967  -980  -985  -974  -907  -761  -592  -508  -564  -727  -950  -1223  -1479  -1584  -1494  -1291  -1079  -920  -860  -874  -832  -784  -832  -647  92  1296  2870  4568  5727  5830  4817  2988  1056  -243  -746  -803  -933  -1427  -1983  -2141  -1981  -1864  -1850  -1786  -1621  -1437  -1296  -1139  -922  -740  -704  -812  -964  -1056  -1086  -1166  -1392  -1668  -1782  -1663  -1430  -1226  -1113  -1088  -1114  -1173  -1246  -1305  -1336  -1344  -1341  -1334  -1335  -1352  -1345  -1185  -755  -176  266  462  501  483  454  427  385  310  194  -1  -328  -717  -1008  -1178  -1362  -1605  -1805  -1874  -1777  -1507  -1153  -891  -863  -1126  -1624  -2187  -2622  -2829  -2820  -2654  -2408  -2165  -1981  -1876  -1860  -1937  -2029  -1992  -1813  -1647  -1645  -1831  -2101  -2303  -2369  -2325  -2205  -2059  -1957  -1922  -1919  -1926  -1956  -2036  -2147  -2241  -2300  -2342  -2388  -2462  -2545  -2520  -2326  -2105  -2034  -2108  -2210  -2274  -2329  -2422  -2540  -2623  -2653  -2670  -2709  -2737  -2671  -2460  -2128  -1781  -1550  -1480  -1541  -1701  -1901  -2045  -2102  -2113  -2104  -2062  -1975  -1883  -1869  -1955  -2046  -2047  -1996  -2000  -2098  -2206  -2194  -2037  -1832  -1653  -1474  -1253  -1030  -884  -835  -837  -848  -837  -776  -653  -485  -332  -300  -458  -780  -1134  -1353  -1383  -1310  -1180  -910  -441  29  184  45  -51  85  517  1441  2977  4841  6542  7535  7269  5660  3279  974  -510  -875  -415  286  784  960  942  886  847  812  778  771  797  839  855  786  651  594  709  916  1100  1232  1324  1383  1410  1401  1357  1297  1260  1268  1325  1429  1554  1637  1658  1688  1826  2085  2381  2610  2727  2756  2730  2681  2665  2717  2783  2798  2780  2748  2670  2525  2350  2215  2156  2150  2149  2133  2120  2151  2247  2345  2329  2140  1846  1571  1391  1308  1283  1279  1284  1295  1302  1268  1155  984  830  738  703  701  715  745  791  845  873  854  859  980  1180  1340  1397  1369  1309  1248  1192  1153  1128  1073  951  776  612  531  597  835  1157  1394  1469  1430  1328  1182  1002  806  645  587  647  758  860  958  1069  1179  1276  1373  1489  1581  1571  1474  1383  1319  1236  1145  1131  1215  1308  1341  1328  1298  1238  1113  938  778  680  641  637  638  636  653  702  753  714  549  357  207  49  -110  -200  -214  -189  -146  -68  67  169  69  -223  -503  -650  -724  -799  -859  -936  -1182  -1630  -2101  -2460  -2699  -2706  -2257  -1325  -309  166  -23  -182  527  2251  4281  5528  5210  3278  491  -1988  -3374  -3675  -3410  -3065  -2893  -2933  -3029  -3016  -2866  -2664  -2527  -2501  -2533  -2562  -2571  -2573  -2577  -2585  -2589  -2562  -2467  -2290  -2069  -1879  -1776  -1756  -1776  -1789  -1762  -1668  -1527  -1386  -1267  -1133  -918  -632  -387  -244  -155  -76  -8  45  101  173  240  276  290  334  472  731  1048  1284  1367  1334  1258  1180  1092  974  828  648  393  73  -219  -420  -539  -621  -688  -740  -773  -795  -822  -872  -940  -998  -1035  -1055  -1078  -1114  -1131  -1070  -905  -706  -588  -580  -615  -626  -597  -549  -513  -494  -455  -358  -227  -136  -130  -178  -208  -176  -97  6  147  328  537  757  973  1182  1361  1462  1445  1288  1029  791  685  719  819  925  1030  1121  1158  1166  1247  1427  1600  1688  1715  1719  1712  1692  1671  1693  1798  1945  2062  2140  2216  2292  2340  2353  2342  2302  2209  2050  1883  1832  1972  2218  2415  2499  2503  2427  2229  1939  1684  1551  1515  1504  1472  1421  1381  1377  1409  1459  1492  1473  1387  1262  1142  1030  906  754  541  284  80  3  60  272  692  1202  1617  2083  2817  3735  4734  5721  6377  6384  5714  4451  2754  1147  190  -83  -42  -67  -287  -510  -555  -478  -405  -386  -443  -589  -778  -920  -977  -974  -926  -828  -708  -620  -585  -581  -610  -710  -888  -1073  -1189  -1255  -1330  -1393  -1324  -1058  -706  -449  -357  -382  -485  -659  -854  -988  -1058  -1139  -1248  -1307  -1266  -1170  -1068  -961  -810  -621  -550  -733  -1042  -1246  -1270  -1216  -1224  -1339  -1505  -1677  -1831  -1936  -1989  -2011  -2000  -1932  -1821  -1759  -1867  -2162  -2508  -2744  -2831  -2837  -2838  -2840  -2762  -2524  -2184  -1909  -1767  -1710  -1687  -1680  -1680  -1693  -1738  -1813  -1859  -1836  -1772  -1720  -1734  -1823  -1870  -1772  -1572  -1400  -1329  -1299  -1223  -1133  -1109  -1166  -1267  -1377  -1504  -1648  -1763  -1819  -1801  -1682  -1465  -1204  -1003  -934  -930  -881  -800  -748  -727  -701  -653  -605  -591  -609  -600  -505  -344  -219  -215  -311  -422  -511  -610  -720  -747  -585  -269  48  258  368  450  547  657  783  929  1084  1215  1274  1211  1023  789  673  753  898  887  574  0]
