reading_id,reading_time,wire_id,result_classification,heart_rate,heart_rate_alert,firmware_version,device_app_version,hardware_version,waveform_samples
85a6f460-6ee9-11ed-8080-808080808080,Mon Nov 28 06:54:36 UTC 2022,e100e3fd2639,UNCLASSIFIABLE,110,NONE,20001.171.50,2.10.0,Charge 5,[0  1680  3268  4319  4409  3361  1338  -965  -2685  -3463  -3592  -3513  -3429  -3356  -3296  -3271  -3291  -3310  -3285  -3238  -3212  -3217  -3241  -3254  -3192  -3003  -2744  -2555  -2493  -2506  -2530  -2533  -2495  -2400  -2240  -2040  -1870  -1785  -1771  -1787  -1810  -1827  -1799  -1662  -1407  -1111  -866  -683  -541  -438  -373  -310  -200  -56  30  -33  -219  -398  -478  -486  -497  -563  -682  -815  -938  -1064  -1191  -1300  -1395  -1482  -1539  -1531  -1441  -1301  -1166  -1061  -983  -941  -949  -1001  -1059  -1086  -1093  -1096  -1061  -954  -807  -700  -700  -785  -872  -918  -951  -985  -982  -896  -755  -620  -512  -419  -328  -236  -161  -116  -102  -115  -147  -180  -184  -136  -56  -22  -78  -183  -299  -431  -565  -681  -775  -810  -750  -633  -532  -496  -529  -593  -675  -779  -861  -873  -782  -504  9  777  2023  3899  5901  7066  6676  4710  1918  -516  -1720  -1695  -1132  -796  -974  -1347  -1499  -1416  -1292  -1183  -1047  -901  -802  -770  -779  -807  -850  -906  -963  -994  -956  -816  -623  -481  -434  -442  -458  -465  -459  -434  -391  -342  -291  -215  -98  33  131  168  179  268  515  834  1034  1065  1003  893  748  606  506  425  313  186  110  106  117  41  -181  -478  -694  -773  -778  -754  -670  -490  -266  -80  59  190  323  469  614  708  717  668  601  549  540  629  858  1157  1378  1468  1487  1485  1416  1188  812  453  255  232  339  543  785  982  1102  1152  1145  1114  1120  1201  1322  1388  1335  1209  1111  1088  1109  1083  899  533  115  -182  -312  -338  -324  -297  -260  -233  -216  -131  43  234  442  741  1318  2441  4028  5609  6755  7108  6299  4444  2281  460  -744  -1238  -1255  -1188  -1085  -780  -303  135  366  300  -92  -689  -1194  -1385  -1262  -976  -705  -550  -494  -482  -492  -539  -631  -741  -828  -876  -873  -759  -480  -105  216  421  534  588  609  628  662  714  782  841  869  899  1000  1160  1258  1233  1165  1145  1160  1109  910  618  389  294  282  258  162  7  -127  -190  -186  -144  -95  -59  -42  -57  -107  -156  -169  -162  -162  -182  -219  -248  -278  -339  -408  -435  -394  -294  -177  -99  -69  -69  -107  -202  -333  -440  -496  -514  -501  -424  -255  -40  127  213  235  197  102  -14  -96  -95  -20  71  118  64  -97  -306  -505  -682  -843  -965  -1010  -956  -829  -691  -592  -559  -541  -374  -5  344  447  282  79  386  1647  3640  5692  7060  7003  5337  2775  341  -1188  -1633  -1416  -1055  -858  -884  -985  -1076  -1166  -1202  -1171  -1149  -1145  -1099  -1005  -907  -839  -812  -824  -877  -976  -1096  -1183  -1189  -1089  -894  -686  -552  -500  -486  -477  -439  -348  -229  -140  -76  23  166  285  335  338  331  330  327  292  217  135  22  -204  -524  -782  -839  -722  -552  -388  -236  -141  -160  -306  -506  -658  -740  -802  -877  -943  -1003  -1107  -1244  -1301  -1193  -939  -626  -345  -158  -89  -152  -358  -635  -847  -943  -975  -977  -908  -719  -465  -285  -257  -346  -501  -676  -789  -758  -563  -295  -102  -42  -61  -90  -82  0  158  327  431  435  331  138  -77  -248  -352  -407  -464  -579  -750  -934  -1111  -1241  -1243  -1139  -1043  -983  -844  -546  -234  -144  -295  -400  -10  1172  2997  4959  6419  6732  5730  3942  1917  -72  -1652  -2485  -2571  -2046  -1133  -318  3  -66  -211  -325  -501  -805  -1152  -1370  -1338  -1047  -629  -306  -180  -181  -210  -222  -214  -196  -179  -171  -188  -251  -345  -408  -346  -105  230  497  637  706  741  750  743  736  748  802  897  994  1063  1116  1164  1167  1053  810  544  380  342  367  388  356  244  92  -19  -62  -58  -44  -57  -98  -150  -222  -314  -415  -507  -574  -613  -637  -651  -627  -514  -285  16  250  230  -58  -387  -531  -481  -385  -353  -361  -333  -244  -137  -90  -126  -198  -248  -256  -255  -287  -338  -358  -309  -200  -112  -115  -162  -163  -99  -3  86  161  248  377  502  512  328  -32  -460  -818  -1058  -1206  -1248  -1137  -876  -562  -330  -209  -93  96  425  994  1705  2496  3608  5011  6157  6395  5342  3303  1215  -131  -582  -452  -228  -301  -708  -1120  -1275  -1230  -1121  -1018  -971  -980  -950  -786  -540  -384  -399  -482  -498  -443  -413  -449  -503  -531  -536  -522  -485  -434  -401  -393  -342  -175  63  254  355  412  490  608  701  666  466  198  26  3  93  249  383  422  375  288  190  77  -78  -265  -449  -628  -798  -909  -905  -770  -545  -340  -237  -241  -314  -410  -494  -565  -633  -675  -661  -584  -493  -453  -473  -504  -519  -541  -604  -699  -779  -806  -745  -574  -347  -181  -119  -103  -67  -18  -31  -187  -448  -675  -807  -886  -912  -829  -619  -336  -60  164  300  307  211  90  -17  -100  -140  -126  -89  -70  -107  -234  -465  -777  -1079  -1258  -1244  -1050  -780  -558  -424  -338  -252  -159  -93  37  600  2014  4234  6478  7609  6969  4896  2396  440  -552  -878  -1089  -1374  -1529  -1439  -1303  -1294  -1339  -1335  -1269  -1185  -1096  -958  -762  -584  -485  -435  -388  -343  -323  -334  -376  -429  -454  -418  -341  -318  -401  -484  -442  -312  -187  -95  -29  16  57  125  245  447  742  1054  1251  1285  1208  1101  1021  978  915  747  454  137  -81  -208  -326  -438  -505  -555  -627  -693  -732  -773  -835  -896  -923  -904  -863  -834  -837  -878  -935  -962  -929  -854  -785  -756  -763  -768  -717  -586  -452  -410  -414  -354  -254  -238  -388  -684  -998  -1200  -1271  -1277  -1269  -1235  -1131  -962  -803  -720  -709  -722  -725  -703  -655  -594  -539  -505  -485  -462  -441  -457  -557  -756  -984  -1131  -1172  -1170  -1195  -1269  -1358  -1429  -1463  -1430  -1321  -1111  -788  -501  -312  77  951  2248  3767  5188  5984  5790  4600  2632  427  -1264  -2053  -2083  -1707  -1234  -853  -623  -518  -468  -398  -297  -224  -214  -258  -327  -391  -449  -521  -582  -590  -541  -452  -316  -100  155  340  401  395  401  469  596  723  798  831  883  1023  1270  1580  1867  2042  2092  2076  2046  2013  1975  1936  1907  1901  1924  1962  1965  1849  1549  1099  662  398  313  307  308  294  254  198  142  94  60  21  -57  -145  -176  -157  -147  -166  -198  -229  -233  -153  64  359  574  597  430  138  -226  -595  -848  -898  -773  -563  -361  -201  -40  160  368  490  461  280  24  -163  -186  -101  -26  5  34  96  208  360  513  614  614  449  105  -303  -608  -758  -816  -840  -836  -782  -682  -573  -488  -433  -397  -372  -311  -77  489  1476  2885  4468  5685  6037  5283  3562  1527  -53  -884  -1170  -1215  -1172  -1112  -1075  -1002  -850  -679  -541  -456  -437  -486  -589  -701  -744  -698  -651  -677  -706  -641  -535  -485  -491  -498  -468  -412  -361  -334  -318  -278  -172  -5  150  237  291  392  547  695  790  808  778  795  901  1054  1227  1383  1406  1209  880  604  473  453  489  552  625  665  575  257  -241  -737  -1098  -1290  -1276  -1078  -826  -639  -533  -475  -438  -427  -475  -607  -777  -895  -923  -899  -840  -725  -573  -455  -403  -398  -415  -442  -475  -503  -511  -510  -562  -724  -956  -1145  -1242  -1259  -1165  -911  -571  -322  -242  -271  -342  -435  -529  -592  -611  -603  -595  -615  -681  -769  -830  -855  -881  -949  -1069  -1210  -1324  -1378  -1351  -1243  -1075  -823  -415  153  897  1967  3382  4765  5592  5449  4215  2355  669  -393  -881  -1049  -1162  -1316  -1409  -1382  -1315  -1259  -1167  -1010  -827  -690  -639  -640  -609  -549  -574  -735  -934  -1044  -1040  -987  -937  -864  -706  -438  -110  168  291  264  187  130  111  167  340  595  799  859  810  751  761  867  1028  1173  1278  1352  1376  1284  1027  666  354  168  69  46  114  223  298  314  284  237  202  178  118  -26  -230  -422  -595  -759  -868  -868  -750  -566  -394  -288  -274  -368  -538  -709  -823  -875  -870  -812  -701  -537  -346  -188  -131  -218  -428  -650  -738  -648  -464  -243  -9  110  -3  -245  -354  -192  136  450  667  733  529  -1  -686  -1220  -1456  -1450  -1263  -920  -538  -266  -131  -67  -42  -98  -269  -468  -595  -616  -402  220  1328  2873  4591  5968  6457  5785  4135  2042  184  -929  -1259  -1154  -1033  -1061  -1127  -1133  -1110  -1095  -1092  -1089  -1064  -993  -876  -757  -686  -690  -738  -766  -735  -667  -595  -524  -449  -399  -427  -566  -769  -913  -873  -603  -205  141  360  456  402  212  12  -43  115  428  741  944  1033  1047  1009  927  807  656  510  410  338  252  161  94  47  27  35  47  51  54  69  91  79  -16  -174  -318  -401  -428  -407  -333  -198  -34  80  119  134  197  324  448  445  230  -128  -442  -588  -598  -554  -502  -439  -346  -253  -237  -346  -544  -667  -534  -178  187  406  461  424  385  368  308  125  -189  -540  -802  -940  -998  -993  -878  -647  -385  -211  -160  -195  -346  -700  -1144  -1322  -1009  -316  455  1118  1872  3083  4759  6354  7052  6231  3953  1196  -850  -1749  -1664  -973  -279  -69  -361  -858  -1272  -1479  -1480  -1314  -1053  -804  -645  -571  -548  -567  -632  -726  -797  -806  -745  -617  -468  -368  -333  -325  -308  -271  -221  -168  -108  -40  15  45  48  46  88  244  536  871  1081  1086  927  678  430  266  192  157  142  146  148  137  116  82  38  -11  -51  -53  -14  26  22  -57  -210  -380  -509  -579  -611  -611  -578  -524  -466  -401  -341  -323  -360  -402  -374  -272  -165  -106  -88  -92  -132  -243  -428  -616  -698  -607  -367  -73  176  316  286  69  -251  -544  -709  -716  -563  -262  128  517  809  963  996  895  608  173  -270  -642  -932  -1114  -1171  -1104  -924  -677  -435  -297  -367  -564  -627  -445  -74  488  1383  2794  4632  6408  7453  7117  5199  2445  73  -1220  -1499  -1256  -1071  -1207  -1417  -1388  -1192  -1054  -1024  -1046  -1083  -1126  -1167  -1184  -1119  -917  -630  -405  -323  -346  -403  -468  -540  -586  -603  -655  -741  -748  -622  -428  -253  -126  -20  130  368  638  830  892  834  669  462  328  332  424  476  409  285  201  194  246  318  375  423  473  502  431  167  -280  -725  -956  -949  -829  -712  -642  -615  -626  -705  -860  -964  -834  -508  -232  -179  -328  -547  -702  -758  -765  -755  -693  -535  -329  -214  -278  -475  -683  -810  -827  -744  -607  -478  -389  -324  -271  -235  -202  -140  -54  5  -4  -82  -171  -208  -203  -195  -183  -184  -245  -367  -500  -597  -664  -745  -853  -948  -991  -985  -941  -851  -741  -708  -749  -656  -332  149  869  1976  3406  4957  6224  6555  5568  3587  1397  -253  -1073  -1270  -1192  -1089  -1081  -1152  -1227  -1255  -1231  -1164  -1060  -951  -913  -983  -1119  -1249  -1350  -1426  -1455  -1390  -1218  -992  -778  -585  -414  -302  -263  -267  -280  -285  -259  -154  81  440  821  1104  1247  1269  1201  1101  1038  1029  1042  1084  1181  1281  1268  1067  734  437  291  269  293  323  344  313  164  -101  -369  -522  -567  -577  -588  -589  -584  -601  -655  -723  -728  -600  -375  -142  43  115  32  -121  -248  -332  -390  -446  -514  -548  -481  -305  -93  59  123  125  95  73  95  133  133  68  -58  -225  -383  -477  -471  -371  -231  -127  -84  -72  -58  -57  -107  -204  -292  -337  -359  -388  -435  -505  -614  -746  -847  -924  -1079  -1329  -1408  -1044  -453  -89  -27  -21  242  1165  2912  4989  6503  6773  5656  3499  1098  -602  -1392  -1844  -2248  -2401  -2238  -1913  -1551  -1239  -1031  -911  -846  -818  -806  -793  -778  -765  -757  -755  -762  -783  -811  -813  -753  -617  -455  -349  -309  -239  -87  81  198  322  575  937  1248  1408  1444  1431  1438  1513  1639  1752  1819  1847  1836  1789  1718  1593  1383  1119  834  537  259  64  -26  -44  -35  -33  -51  -70  -69  -87  -167  -252  -276  -238  -160  -90  -89  -176  -300  -387  -415  -421  -444  -485  -518  -534  -539  -533  -494  -407  -289  -189  -156  -188  -216  -179  -92  -15  26  49  65  77  71  30  -31  -59  7  151  233  144  -41  -188  -252  -275  -329  -430  -503  -472  -357  -233  -149  -114  -137  -263  -533  -887  -1156  -1185  -948  -560  -251  -125  138  1161  3141  5385  6957  7276  6025  3580  1130  -427  -1059  -1134  -1047  -1079  -1191  -1148  -948  -786  -735  -730  -721  -739  -864  -1117  -1337  -1353  -1203  -1025  -897  -852  -863  -850  -768  -662  -610  -620  -623  -553  -415  -247  -80  26  21  -14  51  221  428  667  965  1280  1491  1526  1384  1121  857  706  677  704  719  669  528  332  170  87  37  -44  -153  -233  -258  -248  -229  -226  -287  -466  -736  -967  -1057  -1044  -1016  -1002  -966  -842  -621  -390  -235  -162  -152  -247  -492  -816  -1074  -1205  -1224  -1137  -967  -792  -715  -769  -875  -930  -918  -877  -812  -691  -532  -419  -441  -623  -890  -1105  -1176  -1044  -672  -175  208  330  123  -462  -1292  -2009  -2369  -2427  -2336  -2139  -1824  -1458  -1182  -1084  -1075  -906  -497  -98  108  268  590  1284  2571  4190  5398  5628  4679  2832  941  -300  -892  -1174  -1351  -1454  -1441  -1277  -1054  -904  -851  -877  -969  -1079  -1170  -1201  -1140  -1013  -901  -877  -958  -1069  -1128  -1132  -1117  -1066  -935  -747  -564  -404  -282  -253  -309  -359  -334  -249  -148  -37  88  210  309  381  420  420  393  363  356  376  408  432  432  382  235  21  -143  -205  -203  -192  -189  -191  -196  -210  -233  -241  -204  -159  -203  -377  -537  -512  -360  -270  -288  -336  -346  -293  -233  -243  -318  -400  -421  -341  -188  -16  130  213  204  108  -27  -134  -183  -188  -154  -61  96  280  414  441  379  298  217  104  -5  -57  -64  -76  -123  -196  -262  -295  -290  -257  -239  -333  -616  -1013  -1319  -1417  -1363  -1226  -987  -638  -257  64  267  365  454  664  1208  2346  4132  6129  7504  7502  5991  3634  1323  -361  -1208  -1400  -1254  -878  -457  -319  -450  -549  -486  -370  -360  -482  -628  -714  -744  -747  -720  -632  -471  -251  -9  187  285  300  279  263  287  380  527  662  721  693  626  556  509  554  731  984  1207  1337  1376  1355  1272  1125  968  874  856  872  885  888  890  867  764  525  181  -128  -286  -310  -309  -351  -406  -366  -194  -2  79  57  17  2  -10  -74  -209  -377  -511  -540  -446  -304  -205  -156  -107  -36  -6  -68  -167  -214  -190  -128  -67  -33  -69  -245  -569  -914  -1116  -1101  -876  -506  -132  119  236  245  155  0  -170  -298  -312  -174  108  491  864  1055  850  119  -883  -1635  -1888  -1764  -1427  -1039  -771  -687  -747  -920  -1161  -1312  -1188  -723  71  1218  2687  4271  5672  6575  6585  5447  3433  1253  -440  -1389  -1741  -1805  -1726  -1516  -1303  -1239  -1291  -1353  -1391  -1391  -1307  -1073  -698  -353  -244  -356  -560  -804  -1019  -1109  -1034  -823  -540  -199  154  311  172  -75  -243  -303  -291  -235  -148  -38  80  164  190  205  234  273  324  387  452  540  648  661  480  196  -24  -132  -160  -145  -112  -78  -61  -38  23  87  78  -33  -218  -402  -522  -569  -568  -559  -598  -728  -910  -1044  -1066  -989  -873  -780  -737  -726  -730  -750  -773  -764  -693  -579  -463  -349  -237  -149  -96  -86  -192  -489  -879  -1113  -1054  -804  -559  -423  -363  -306  -248  -236  -311  -453  -538  -455  -240  26  326  619  800  781  566  274  69  -6  -60  -231  -556  -912  -1132  -1188  -1162  -1108  -1048  -1039  -1118  -1173  -967  -387  281  573  509  684  1662  3493  5599  7026  7033  5600  3369  1164  -373  -1006  -973  -774  -739  -809  -841  -900  -1048  -1199  -1264  -1213  -1069  -920  -855  -896  -989  -1059  -1084  -1090  -1104  -1114  -1077  -936  -668  -354  -140  -77  -90  -88  -27  92  246  389  476  493  468  432  410  412  439  477  515  559  602  586  483  362  307  305  271  164  28  -71  -106  -95  -94  -126  -151  -130  -97  -97  -128  -166  -224  -326  -439  -499  -503  -501  -523  -545  -505  -369  -201  -107  -108  -142  -158  -156  -153  -156  -158  -142  -87  -7  40  0  -115  -240  -335  -414  -474  -500  -515  -561  -649  -743  -800  -811  -798  -786  -805  -883  -1003  -1084  -1000  -673  -211  154  327  380  416  490  587  632  573  438  299  167  -6  -222  -415  -545  -624  -675  -717  -768  -836  -871  -765  -496  -150  227  578  891  1485  2733  4474  6096  6951  6498  4696  2281  229  -938  -1276  -1209  -1122  -1048  -893  -726  -648  -641  -659  -694  -756  -834  -922  -1029  -1138  -1205  -1221  -1216  -1197  -1107  -904  -701  -667  -774  -839  -779  -617  -392  -155  29  110  94  48  14  -11  -7  106  372  702  962  1094  1137  1157  1205  1287  1338  1286  1135  961  819  678  508  326  134  -65  -226  -307  -323  -308  -293  -310  -383  -491  -580  -630  -646  -597  -451  -260  -142  -140  -175  -183  -188  -242  -346  -441  -442  -340  -232  -197  -202  -184  -134  -73  -26  -17  -48  -137  -315  -528  -669  -710  -703  -689  -665  -623  -578  -555  -546  -487  -335  -169  -128  -226  -345  -402  -401  -371  -324  -255  -168  -86  -29  -17  -81  -237  -425  -551  -580  -545  -511  -571  -802  -1141  -1399  -1460  -1338  -1038  -603  -232  -92  -70  142  797  1973  3503  4983  5933  5885  4568  2283  -115  -1724  -2145  -1680  -977  -518  -504  -848  -1197  -1296  -1180  -989  -806  -668  -628  -727  -895  -981  -877  -618  -352  -196  -147  -145  -163  -189  -206  -195  -143  -55  38  107  164  272  496  847  1227  1484  1572  1571  1556  1548  1540  1523  1508  1500  1481  1412  1270  1091  936  830  759  716  686  626  506  360  264  245  256  207  30  -235  -455  -549  -548  -513  -468  -414  -361  -329  -321  -336  -396  -514  -639  -705  -714  -699  -642  -476  -178  150  366  417  340  155  -124  -422  -618  -677  -663  -643  -639  -654  -678  -692  -670  -588  -450  -300  -197  -167  -185  -195  -173  -150  -164  -198  -217  -213  -202  -211  -274  -415  -628  -859  -1020  -1073  -1060  -1050  -1093  -1180  -1242  -1222  -1144  -1046  -838  -473  -130  31  27  -15  212  1170  3006  5181  6801  7149  5955  3654  1285  -228  -708  -699  -872  -1358  -1741  -1744  -1544  -1382  -1290  -1200  -1050  -863  -730  -694  -714  -734  -728  -705  -687  -687  -681  -635  -547  -448  -355  -274  -223  -238  -346  -509  -631  -660  -606  -465  -227  45  280  466  616  730  828  923  991  1012  991  946  901  863  813  735  640  547  461  388  346  356  377  270  -70  -539  -918  -1132  -1235  -1250  -1186  -1075  -924  -712  -441  -219  -183  -313  -468  -544  -496  -352  -226  -205  -289  -417  -519  -565  -574  -571  -567  -564  -558  -550  -528  -466  -361  -268  -236  -235  -207  -169  -190  -303  -452  -539  -543  -504  -460  -436  -429  -368  -184  76  262  265  104  -102  -235  -288  -329  -386  -448  -484  -438  -268  -19  186  256  107  -356  -1065  -1599  -1530  -999  -519  -277  -37  564  1819  3637  5437  6534  6502  5340  3539  1835  625  -121  -499  -668  -832  -975  -1011  -989  -967  -944  -925  -938  -983  -1017  -1004  -961  -924  -911  -911  -912  -912  -919  -949  -1001  -1048  -1028  -859  -535  -187  62  216  317  383  429  456  468  470  457  407  288  151  172  431  754  953  1032  1053  1023  901  640  274  -50  -223  -255  -200  -81  65  171  195  142  28  -136  -338  -522  -626  -668  -701  -716  -666  -535  -375  -260  -214  -207  -212  -244  -325  -437  -531  -585  -586  -468  -179  137  219  13  -282  -498  -608  -668  -720  -761  -786  -803  -794  -688  -423  -76  165  231  218  209  183  59  -225  -602  -886  -913  -602  2  655  1077  1158  855  164  -662  -1222  -1358  -1204  -950  -739  -637  -600  -540  -406  -200  30  177  75  -362  -836  -827  -312  315  1008  1934  3088  4496  6049  7081  6799  5063  2524  106  -1515  -2044  -1668  -1101  -939  -1060  -1079  -961  -866  -842  -850  -851  -839  -828  -828  -839  -879  -982  -1137  -1272  -1310  -1205  -948  -615  -344  -206  -202  -328  -573  -894  -1210  -1418  -1441  -1234  -814  -333  13  170  245  354  497  586  567  483  434  472  540  559  518  478  482  481  393  215  0  -250  -552  -857  -1053  -1099  -1044  -923  -729  -463  -172  108  436  850  1230  1443  1524  1604  1771  2021  2267  2430  2483  2439  2301  2044  1655  1183  726  366  144  59  61  73  55  9  -39  -74  -102  -149  -236  -388  -590  -721  -683  -560  -482  -474  -503  -544  -579  -594  -554  -420  -211  -13  99  91  -19  -186  -360  -484  -530  -526  -509  -489  -467  -448  -453  -499  -570  -671  -852  -1096  -1303  -1422  -1434  -1277  -911  -314  562  1682  2943  4355  5824  6756  6420  4736  2276  -93  -1536  -1824  -1419  -887  -525  -462  -701  -1016  -1163  -1110  -966  -875  -912  -1026  -1138  -1224  -1283  -1332  -1382  -1380  -1249  -972  -547  22  613  960  789  -6  -1111  -1912  -2041  -1552  -737  49  592  889  1031  1056  927  630  272  50  148  638  1332  1846  1901  1442  635  -132  -548  -631  -578  -515  -462  -412  -374  -347  -262  -31  301  577  671  494  -13  -704  -1247  -1449  -1336  -989  -520  -110  103  127  48  -48  -127  -209  -328  -463  -537  -515  -456  -402  -319  -166  37  222  333  331  142  -271  -767  -1117  -1242  -1188  -963  -591  -227  -52  -77  -151  -161  -150  -207  -316  -381  -346  -252  -177  -149  -148  -153  -171  -217  -286  -368  -481  -638  -812  -965  -1064  -1103  -1107  -1097  -1067  -994  -845  -571  -129  423  868  898  423  -60  291  1840  4104  6128  6989  6226  4211  1948  256  -629  -841  -723  -634  -640  -638  -643  -722  -866  -1038  -1179  -1235  -1206  -1135  -1051  -943  -789  -618  -496  -455  -493  -602  -743  -845  -865  -812  -712  -583  -426  -233  -5  229  453  659  814  894  917  919  922  939  979  1042  1130  1259  1382  1346  1036  579  247  141  123  35  -134  -254  -222  -75  77  156  153  123  122  149  152  77  -75  -256  -429  -606  -778  -885  -875  -750  -579  -456  -412  -412  -420  -411  -358  -270  -190  -143  -131  -175  -303  -478  -606  -634  -572  -451  -301  -155  -64  -53  -113  -229  -343  -401  -420  -379  -217  3  147  175  146  122  111  91  59  39  40  39  0  -87  -188  -271  -322  -335  -332  -376  -535  -764  -897  -835  -667  -530  -445  -346  -239  -264  -469  -641  -423  408  1757  3350  4841  5727  5661  4667  2899  808  -794  -1443  -1331  -988  -886  -1083  -1313  -1412  -1410  -1345  -1226  -1100  -1016  -986  -1012  -1040  -1004  -935  -902  -901  -876  -766  -555  -315  -154  -107  -123  -143  -149  -177  -244  -263  -146  83  384  703  929  1021  1074  1191  1366  1516  1586  1591  1568  1541  1514  1490  1469  1444  1404  1341  1231  1025  727  442  255  134  0  -208  -456  -636  -698  -677  -614  -534  -461  -426  -445  -513  -627  -772  -915  -1018  -1079  -1094  -995  -705  -303  -14  2  -250  -628  -942  -1107  -1140  -1064  -900  -712  -575  -504  -472  -449  -417  -379  -335  -271  -193  -134  -102  -82  -60  -15  78  231  412  562  638  607  439  158  -131  -324  -379  -356  -387  -527  -710  -861  -933  -906  -799  -603  -280  76  126  -364  -1005  -1144  -663  100  945  2005  3441  5076  6308  6274  4593  1982  -373  -1673  -1753  -1169  -713  -667  -834  -1009  -1106  -1094  -995  -842  -653  -468  -344  -293  -294  -373  -563  -788  -896  -854  -770  -729  -735  -755  -745  -649  -459  -247  -102  -42  -14  26  82  138  226  405  631  754  687  506  351  295  362  563  829  1031  1113  1100  986  740  400  93  -77  -123  -97  6  220  475  582  419  57  -331  -631  -804  -860  -848  -813  -780  -758  -728  -666  -589  -546  -535  -469  -267  16  224  277  220  133  75  59  68  87  103  91  35  -39  -79  -62  -24  7  25  -6  -141  -337  -433  -256  218  782  1154  1222  1017  622  191  -105  -221  -233  -229  -253  -326  -439  -557  -646  -673  -612  -469  -306  -194  -138  -96  -99  -268  -646  -1073  -1242  -811  442  2456  4683  6254  6594  5705  4006  2183  883  214  -221  -740  -1213  -1372  -1256  -1094  -978  -887  -805  -726  -645  -577  -572  -659  -789  -899  -959  -973  -956  -920  -868  -794  -664  -444  -172  48  164  183  72  -229  -640  -930  -919  -602  -164  158  324  461  624  750  800  808  822  848  842  729  508  300  231  307  426  436  304  125  -88  -402  -757  -983  -961  -697  -334  -71  13  -21  -112  -212  -274  -276  -237  -209  -225  -268  -310  -369  -453  -543  -613  -637  -617  -585  -560  -539  -519  -493  -467  -452  -454  -463  -457  -406  -297  -164  -59  -20  -44  -95  -125  -119  -64  62  240  387  415  309  153  32  -71  -233  -489  -780  -1015  -1167  -1250  -1244  -1125  -910  -654  -435  -263  -135  -122  -225  -359  -331  199  1417  3197  5103  6376  6507  5677  4278  2592  1035  -68  -822  -1313  -1382  -1090  -802  -739  -822  -928  -1015  -1016  -874  -645  -456  -352  -293  -274  -353  -565  -794  -850  -721  -572  -515  -518  -493  -392  -251  -142  -47  115  335  503  570  576  569  563  557  559  590  670  799  993  1297  1664  1929  1988  1851  1587  1273  902  391  -175  -543  -593  -456  -309  -203  -114  -71  -129  -253  -353  -390  -387  -368  -341  -317  -314  -334  -358  -371  -371  -351  -306  -251  -211  -193  -187  -195  -246  -343  -416  -397  -325  -287  -325  -409  -442  -343  -149  23  89  58  14  16  37  44  42  70  166  303  401  392  270  98  -50  -205  -467  -826  -1136  -1302  -1349  -1348  -1336  -1305  -1213  -1041  -924  -1028  -1189  -1041  -447  514  1762  3156  4456  5389  5684  5139  3719  1697  -311  -1724  -2430  -2585  -2300  -1857  -1645  -1639  -1543  -1322  -1147  -1104  -1167  -1274  -1383  -1475  -1542  -1567  -1524  -1398  -1205  -979  -774  -640  -585  -576  -596  -659  -815  -1089  -1394  -1574  -1483  -1076  -522  -117  42  102  211  378  520  574  506  299  43  -70  63  333  544  618  605  562  505  436  361  258  71  -233  -645  -1129  -1568  -1827  -1916  -1933  -1899  -1728  -1381  -1016  -906  -1105  -1360  -1408  -1201  -882  -645  -555  -560  -634  -801  -1018  -1177  -1221  -1178  -1097  -1025  -995  -1020  -1083  -1155  -1197  -1137  -902  -533  -203  -45  -60  -177  -287  -287  -171  -23  88  153  185  169  25  -312  -740  -1040  -1113  -1031  -912  -835  -815  -824  -846  -906  -1006  -1047  -870  -442  58  415  662  1142  2168  3679  5264  6218  5882  4250  1963  -106  -1259  -1414  -1073  -731  -536  -474  -552  -706  -821  -864  -864  -824  -736  -627  -552  -527  -515  -469  -385  -289  -208  -153  -125  -113  -104  -90  -80  -61  62  395  877  1302  1527  1502  1210  744  326  162  350  835  1395  1788  1972  2056  2103  2083  1935  1641  1280  975  811  790  817  796  728  653  586  549  589  745  972  1133  1098  819  407  63  -123  -202  -215  -157  -50  52  99  80  36  -1  -38  -53  55  395  870  1199  1165  794  347  85  22  44  89  143  239  428  672  894  1099  1302  1446  1499  1491  1439  1332  1191  1051  903  735  568  401  230  99  52  74  106  106  51  -63  -199  -228  -22  321  569  827  1518  2883  4750  6475  7211  6552  4899  3131  1873  1117  487  -230  -926  -1387  -1404  -960  -426  -152  -142  -284  -514  -748  -885  -896  -818  -700  -585  -506  -476  -485  -506  -505  -466  -402  -326  -247  -153  -12  161  292  325  246  57  -172  -324  -358  -338  -312  -252  -104  116  317  427  458  454  437  431  469  552  610  573  445  254  45  -139  -324  -543  -758  -907  -956  -912  -829  -748  -679  -615  -544  -463  -388  -321  -264  -248  -316  -463  -593  -613  -568  -556  -582  -598  -587  -579  -601  -631  -603  -452  -191  80  223  118  -212  -577  -798  -872  -863  -743  -437  -24  274  319  143  -116  -307  -374  -363  -339  -345  -399  -498  -646  -817  -903  -863  -794  -814  -989  -1248  -1304  -965  -425  57  583  1466  2852  4570  6093  6660  5683  3324  581  -1536  -2600  -2615  -2055  -1668  -1752  -2006  -2100  -1981  -1736  -1482  -1338  -1381  -1622  -1951  -2197  -2295  -2288  -2199  -2000  -1675  -1284  -966  -837  -892  -1051  -1257  -1459  -1545  -1427  -1168  -911  -746  -683  -699  -730  -648  -331  170  643  955  1115  1108  879  486  124  -57  -81  -46  -21  -49  -149  -280  -359  -346  -274  -202  -173  -235  -432  -710  -906  -870  -570  -147  158  224  93  -126  -318  -411  -416  -368  -310  -320  -462  -703  -935  -1069  -1051  -877  -597  -312  -138  -150  -337  -595  -776  -812  -741  -642  -575  -546  -520  -472  -401  -302  -169  -31  57  74  40  -33  -156  -329  -507  -622  -656  -650  -643  -649  -679  -755  -871  -972  -960  -746  -390  -40  233  472  889  1815  3347  5130  6580  7105  6270  4155  1496  -710  -1749  -1648  -1026  -462  -279  -514  -871  -1068  -1105  -1092  -1067  -1004  -899  -859  -1015  -1285  -1428  -1376  -1261  -1175  -1085  -928  -723  -558  -471  -445  -452  -437  -333  -170  -61  -55  -78  -23  142  378  618  790  854  840  808  772  698  583  504  563  769  1034  1259  1380  1330  1043  573  136  -72  -44  92  181  162  107  87  84  34  -95  -262  -372  -384  -343  -311  -304  -304  -280  -213  -140  -122  -156  -185  -192  -212  -274  -353  -369  -287  -178  -102  -42  26  96  183  323  498  637  684  600  358  26  -234  -331  -304  -224  -129  -37  31  83  132  158  139  76  -4  -65  -150  -356  -625  -779  -736  -570  -398  -249  -94  8  -66  -264  -278  209  1296  2857  4613  6087  6669  6044  4470  2567  954  -11  -381  -540  -819  -1211  -1487  -1510  -1412  -1376  -1404  -1425  -1413  -1372  -1307  -1234  -1180  -1138  -1065  -929  -765  -635  -579  -592  -641  -702  -744  -733  -649  -504  -342  -220  -172  -195  -276  -385  -460  -441  -311  -124  35  138  207  269  364  519  700  854  960  1018  1025  967  821  588  282  -38  -272  -365  -363  -355  -409  -512  -537  -385  -145  10  3  -146  -360  -549  -678  -747  -762  -753  -753  -745  -649  -382  -17  244  270  84  -180  -380  -474  -502  -495  -469  -446  -447  -468  -486  -448  -308  -98  33  -53  -320  -586  -720  -723  -630  -450  -225  -43  63  135  210  287  320  203  -150  -631  -986  -1116  -1118  -1082  -1030  -988  -1019  -1140  -1164  -811  -123  526  926  1322  2200  3718  5474  6752  6832  5455  3215  1090  -316  -824  -679  -557  -802  -1104  -1199  -1154  -1080  -1011  -945  -880  -854  -931  -1125  -1345  -1436  -1300  -983  -611  -300  -115  -48  -47  -75  -124  -165  -151  -74  15  63  65  59  98  218  381  516  636  803  1003  1145  1192  1172  1122  1062  999  928  844  762  715  714  725  683  538  333  179  135  174  241  297  317  258  84  -152  -331  -392  -355  -249  -117  -25  -22  -111  -252  -369  -433  -473  -509  -529  -501  -398  -252  -135  -77  -70  -95  -121  -119  -92  -65  -53  -56  -62  -61  -40  8  70  109  116  117  147  211  258  243  193  154  133  122  97  21  -129  -372  -721  -1083  -1239  -1065  -700  -401  -315  -468  -802  -1089  -1058  -719  -345  -64  326  1174  2667  4514  5999  6474  5737  4104  2244  723  -376  -1205  -1738  -1929  -1845  -1598  -1367  -1258  -1204  -1096  -902  -681  -534  -498  -523  -575  -664  -778  -859  -859  -783  -679  -607  -586  -587  -581  -564  -562  -587  -618  -580  -373  16  457  774  910  925  908  920  977  1035  1038  986  945  969  1057  1177  1274  1254  1047  712  398  195  82  3  -64  -96  -81  -72  -149  -302  -421  -459  -482  -527  -552  -529  -499  -497  -473  -385  -280  -197  -104  -3  16  -118  -355  -567  -684  -722  -720  -709  -699  -697  -718  -779  -860  -919  -936  -917  -879  -842  -805  -749  -684  -643  -615  -560  -468  -371  -311  -303  -358  -481  -656  -835  -979  -1073  -1126  -1145  -1130  -1101  -1111  -1192  -1307  -1409  -1487  -1524  -1488  -1330  -1084  -783  -255  641  1893  3481  5102  6005  5569  3799  1303  -961  -2168  -2207  -1804  -1718  -2024  -2314  -2287  -2054  -1864  -1767  -1716  -1711  -1773  -1890  -2005  -2074  -2074  -1956  -1745  -1552  -1365  -1011  -447  119  500  714  859  978  1077  1163  1234  1273  1275  1266  1294  1402  1579  1752  1862  1916  1951  1985  2012  2022  2002  1940  1855  1775  1693  1573  1394  1183  999  897  883  880  804  679  588  557  542  473  311  76  -162  -324  -366  -276  -66  181  344  407  484  645  756  603  226  -103  -235  -233  -203  -200  -228  -264  -290  -299  -283  -223  -96  85  262  390  475  544  594  589  528  472  468  522  595  621  515  222  -164  -446  -540  -513  -448  -383  -339  -317  -314  -356  -477  -650  -810  -941  -1005  -840  -345  302  924  1608  2526  3743  5154  6301  6455  5280  3260  1163  -499  -1429  -1631  -1499  -1388  -1302  -1149  -963  -801  -668  -573  -536  -563  -640  -750  -859  -928  -945  -939  -945  -982  -1038  -1084  -1103  -1087  -1027  -920  -787  -660  -577  -547  -531  -475  -341  -98  253  630  924  1104  1188  1186  1073  840  562  351  246  217  243  321  425  496  475  347  168  26  -54  -123  -224  -352  -466  -527  -505  -389  -217  -65  16  10  -94  -291  -530  -729  -801  -732  -622  -577  -621  -710  -790  -830  -845  -863  -871  -791  -552  -220  17  51  -100  -359  -584  -661  -629  -593  -579  -536  -407  -211  -55  -22  -86  -156  -186  -186  -172  -149  -135  -175  -277  -398  -504  -583  -632  -653  -649  -630  -618  -683  -873  -1080  -1121  -906  -450  206  1097  2315  3821  5304  6212  6019  4634  2551  607  -535  -852  -790  -718  -703  -667  -613  -635  -752  -886  -986  -1063  -1126  -1155  -1133  -1051  -933  -836  -843  -965  -1045  -909  -588  -281  -151  -199  -306  -403  -527  -693  -817  -783  -546  -214  23  100  84  52  37  63  161  328  481  513  423  307  239  235  285  377  488  586  634  552  234  -280  -751  -953  -868  -645  -460  -397  -418  -451  -469  -487  -516  -544  -551  -525  -461  -373  -305  -286  -296  -318  -344  -354  -346  -336  -331  -330  -329  -327  -326  -326  -330  -339  -346  -326  -244  -108  20  86  86  51  17  2  12  46  71  58  14  -70  -229  -429  -570  -592  -539  -512  -523  -460  -305  -183  -139  -147  -224  -449  -904  -1387  -1492  -1071  -255  692  1526  2412  3727  5301  6417  6444  5249  3276  1359  162  -299  -466  -672  -932  -1117  -1173  -1142  -1039  -861  -667  -559  -569  -638  -695  -714  -712  -705  -698  -689  -674  -650  -626  -619  -624  -590  -456  -229  15  206  318  370  409  459  507  532  548  603  705  805  857  862  850  841  828  777  667  510  361  297  351  474  584  625  537  277  -69  -323  -409  -394  -350  -308  -307  -398  -571  -732  -799  -767  -680  -589  -527  -519  -557  -608  -673  -768  -818  -716  -474  -228  -90  -73  -142  -258  -368  -432  -452  -447  -413  -338  -244  -188  -215  -333  -529  -741  -846  -756  -483  -116  221  414  443  396  356  347  344  305  199  44  -104  -207  -265  -337  -502  -757  -1013  -1185  -1200  -969  -556  -273  -286  -373  -390  -404  -184  690  2246  4123  5802  6675  6295  4756  2683  760  -657  -1479  -1745  -1644  -1439  -1294  -1229  -1206  -1197  -1191  -1190  -1212  -1278  -1337  -1267  -1074  -942  -990  -1167  -1333  -1358  -1251  -1132  -1041  -921  -755  -586  -434  -294  -170  -51  61  128  136  135  180  276  394  500  570  602  622  646  659  640  595  548  512  479  425  344  238  107  -27  -112  -134  -138  -171  -245  -339  -417  -466  -516  -586  -624  -572  -469  -390  -369  -406  -483  -570  -637  -684  -729  -768  -792  -803  -802  -790  -772  -737  -671  -568  -455  -385  -380  -405  -431  -473  -552  -648  -733  -800  -837  -817  -714  -534  -336  -194  -120  -98  -103  -93  -54  -9  18  4  -47  -113  -201  -327  -467  -590  -686  -777  -887  -972  -981  -927  -857  -807  -800  -844  -919  -924  -662  40  1214  2727  4259  5477  6277  6531  5963  4508  2417  244  -1343  -2046  -2012  -1601  -1237  -1113  -1070  -930  -743  -624  -576  -496  -318  -89  122  284  376  366  202  -120  -479  -702  -728  -593  -384  -202  -97  -30  64  203  345  444  498  528  577  686  827  925  946  920  896  908  974  1100  1246  1338  1327  1221  1062  902  753  583  374  167  33  -19  -37  -48  -52  -45  -41  -62  -121  -201  -287  -373  -441  -487  -538  -599  -639  -585  -380  -112  43  55  21  1  -14  -56  -147  -253  -277  -164  7  77  -66  -361  -629  -775  -815  -755  -575  -314  -75  68  113  101  83  84  112  163  225  271  258  138  -77  -291  -423  -486  -526  -557  -585  -629  -701  -783  -841  -862  -857  -838  -829  -880  -1031  -1230  -1329  -1138  -491  572  1806  3045  4174  4968  5348  5272  4476  2913  1018  -614  -1596  -1857  -1568  -1138  -963  -999  -986  -883  -762  -629  -500  -467  -615  -895  -1155  -1282  -1261  -1131  -957  -811  -715  -649  -594  -540  -491  -454  -427  -402  -372  -334  -288  -232  -174  -139  -116  -26  174  425  665  881  1019  1001  834  638  522  499  516  528  504  424  283  129  22  -38  -103  -180  -245  -347  -602  -1011  -1405  -1639  -1722  -1672  -1373  -733  40  566  677  478  153  -122  -259  -284  -271  -277  -322  -389  -446  -481  -495  -482  -425  -315  -188  -114  -141  -261  -432  -601  -722  -777  -784  -779  -775  -730  -563  -233  166  471  627  689  698  639  488  263  55  -49  -52  -29  -77  -262  -532  -757  -868  -893  -868  -805  -727  -666  -634  -631  -672  -750  -799  -763  -662  -598  -590  -343  562  2223  4310  6179  7118  6762  5274  3200  1208  -268  -1205  -1729  -1849  -1591  -1200  -934  -828  -788  -767  -774  -846  -1024  -1265  -1424  -1419  -1320  -1176  -934  -614  -350  -234  -247  -337  -448  -497  -410  -213  -18  107  175  214  212  115  -60  -201  -221  -128  12  136  230  320  406  457  461  452  492  625  800  887  810  630  474  406  388  289  0  -404  -704  -809  -797  -750  -689  -621  -552  -465  -344  -220  -143  -130  -163  -220  -296  -401  -518  -594  -570  -459  -344  -271  -228  -216  -254  -315  -341  -265  -33  346  723  813  450  -168  -667  -882  -919  -912  -889  -790  -575  -310  -119  -76  -140  -198  -195  -166  -155  -162  -153  -75  58  118  8  -180  -315  -400  -503  -618  -660  -569  -394  -229  -124  -102  -264  -685  -1154  -1255  -839  -47  1082  2516  4002  5265  6051  6100  5350  4026  2485  988  -365  -1394  -1835  -1677  -1161  -573  -234  -340  -759  -1198  -1446  -1423  -1162  -808  -560  -516  -631  -798  -912  -909  -791  -615  -448  -302  -175  -108  -143  -278  -451  -581  -628  -586  -430  -167  108  297  396  480  627  821  962  966  834  649  516  471  472  486  523  596  673  671  532  313  132  27  -52  -125  -168  -179  -186  -211  -270  -344  -388  -368  -280  -172  -105  -96  -118  -148  -174  -195  -205  -181  -102  13  115  155  82  -123  -391  -595  -677  -652  -539  -373  -227  -161  -170  -213  -254  -260  -208  -92  73  246  363  364  220  -40  -308  -473  -515  -486  -441  -411  -398  -391  -375  -339  -296  -262  -224  -152  -72  -59  -151  -292  -378  -379  -363  -380  -414  -418  -365  -297  -274  -268  -109  391  1307  2630  4197  5593  6348  6125  4873  3012  1223  -23  -682  -989  -1194  -1354  -1399  -1309  -1141  -936  -688  -474  -413  -463  -523  -608  -730  -846  -915  -874  -683  -395  -116  42  49  -26  -116  -199  -276  -344  -378  -332  -186  28  236  384  485  581  707  849  944  938  834  691  590  560  563  566  562  545  500  425  309  130  -79  -227  -278  -275  -254  -211  -140  -63  -13  2  -17  -87  -215  -360  -459  -490  -496  -559  -720  -911  -968  -801  -515  -303  -227  -195  -114  2  93  135  141  97  -38  -255  -472  -616  -656  -557  -308  4  242  338  259  -66  -620  -1179  -1497  -1489  -1193  -732  -301  -44  34  16  -21  -45  -52  -23  69  202  251  34  -519  -1206  -1693  -1850  -1758  -1523  -1236  -995  -854  -809  -831  -869  -824  -624  -353  -155  -75  -107  -174  127  1391  3575  5839  7237  7114  5447  3076  1107  61  -291  -523  -1057  -1719  -2000  -1866  -1662  -1521  -1375  -1195  -1034  -949  -919  -860  -746  -689  -788  -959  -1068  -1078  -1000  -876  -778  -739  -727  -694  -589  -407  -224  -126  -110  -105  -47  65  180  264  333  402  449  461  459  478  537  626  711  768  798  832  908  1004  1015  857  573  311  177  153  164  143  51  -121  -333  -499  -572  -579  -569  -565  -570  -572  -546  -469  -343  -195  -49  68  141  176  185  137  -14  -246  -461  -585  -631  -632  -567  -397  -166  5  49  -17  -143  -263  -326  -336  -328  -326  -330  -333  -330  -322  -317  -321  -333  -329  -256  -92  64  67  -80  -231  -295  -300  -293  -285  -275  -269  -308  -428  -601  -754  -861  -932  -972  -970  -929  -862  -781  -699  -677  -788  -927  -757  -19  1258  2897  4525  5626  6011  5739  4731  3099  1308  -208  -1216  -1725  -1906  -1876  -1708  -1425  -1054  -752  -661  -753  -907  -1022  -1062  -1023  -892  -703  -550  -519  -648  -892  -1112  -1205  -1155  -986  -748  -509  -325  -226  -182  -131  -45  103  400  873  1364  1649  1620  1307  884  577  477  532  681  859  980  1009  968  897  820  735  625  512  437  396  346  250  79  -146  -325  -381  -323  -219  -180  -268  -392  -444  -441  -451  -478  -502  -539  -615  -709  -742  -643  -433  -194  -18  35  -11  -130  -333  -563  -706  -715  -620  -493  -404  -380  -398  -426  -444  -446  -433  -400  -334  -237  -144  -90  -79  -83  -79  -50  19  120  171  94  -88  -277  -400  -454  -487  -524  -558  -583  -614  -661  -714  -754  -774  -774  -733  -622  -434  -189  9  0  -163  -190  109  869  2211  3935  5611  6807  6898  5411  2757  44  -1802  -2494  -2279  -1689  -1212  -1001  -943  -876  -699  -452  -293  -367  -697  -1119  -1381  -1354  -1093  -766  -542  -433  -330  -192  -80  -46  -82  -170  -295  -421  -504  -530  -520  -474  -322  1  408  690  769  747  765  890  1074  1206  1249  1265  1322  1416  1485  1510  1552  1640  1613  1261  631  43  -258  -316  -313  -377  -506  -629  -711  -741  -702  -572  -359  -130  9  -4  -171  -411  -607  -709  -737  -722  -662  -532  -333  -118  57  175  252  323  385  366  193  -119  -448  -647  -670  -564  -413  -298  -249  -254  -299  -390  -523  -646  -701  -685  -609  -459  -245  -12  207  387  513  593  623  573  412  163  -100  -310  -461  -611  -820  -1032  -1088  -949  -771  -672  -606  -454  -154  166  272  104  -72  244  1443  3428  5633  7234  7389  5778  3051  403  -1287  -1784  -1391  -756  -456  -592  -860  -1011  -1058  -1109  -1208  -1313  -1368  -1367  -1326  -1257  -1139  -932  -695  -610  -790  -1113  -1300  -1170  -748  -187  311  560  516  295  37  -190  -354  -435  -445  -393  -253  -20  218  359  394  400  456  582  716  761  685  575  528  521  478  416  389  389  358  250  95  -39  -162  -362  -681  -1010  -1210  -1248  -1171  -1023  -842  -687  -601  -578  -586  -612  -658  -701  -681  -559  -385  -237  -129  -37  32  71  85  75  1  -183  -432  -622  -696  -695  -670  -633  -550  -392  -212  -115  -135  -165  -87  63  144  122  79  67  76  90  102  90  12  -164  -428  -698  -871  -922  -911  -893  -884  -880  -876  -846  -747  -620  -608  -758  -939  -942  -553  302  1550  3112  4793  6181  6749  6048  4162  1912  196  -653  -825  -734  -763  -1040  -1391  -1589  -1626  -1632  -1657  -1668  -1593  -1361  -964  -524  -220  -148  -301  -633  -1021  -1283  -1331  -1212  -1024  -840  -672  -523  -432  -410  -411  -374  -276  -146  -44  14  120  377  720  958  1013  979  952  940  886  748  584  494  500  544  578  570  487  319  102  -83  -187  -228  -241  -244  -242  -240  -271  -392  -626  -939  -1224  -1332  -1186  -880  -583  -395  -316  -286  -236  -134  5  124  125  -61  -364  -602  -681  -671  -667  -685  -700  -716  -765  -866  -961  -962  -876  -798  -762  -738  -712  -673  -598  -496  -422  -404  -393  -331  -231  -170  -193  -267  -333  -382  -441  -535  -653  -757  -822  -865  -901  -921  -929  -977  -1130  -1341  -1416  -1257  -957  -603  -216  318  1273  2774  4602  6246  7000  6261  4110  1418  -886  -2243  -2469  -1946  -1387  -1249  -1422  -1479  -1291  -1097  -1033  -1037  -1040  -1036  -1015  -937  -810  -704  -642  -590  -552  -594  -722  -803  -726  -560  -423  -349  -322  -322  -316  -277  -193  -77  32  125  234  385  558  697  766  799  859  960  1059  1112  1119  1103  1092  1112  1160  1191  1131  930  651  426  314  300  347  405  430  409  360  336  364  405  398  328  227  132  37  -63  -128  -86  99  359  568  688  758  800  819  821  789  676  499  413  509  632  615  533  554  705  878  990  1088  1283  1564  1783  1801  1564  1131]
