reading_id,reading_time,wire_id,result_classification,heart_rate,heart_rate_alert,firmware_version,device_app_version,hardware_version,waveform_samples
b726f0c0-549b-11ed-8080-808080808080,Tue Oct 25 19:32:08 UTC 2022,e100e3fd2639,NSR,65,NONE,20001.171.50,2.10.0,Charge 5,[14232  14720  15012  15022  14759  14291  13725  13155  12660  12273  11871  11252  10441  9683  9140  8752  8369  7935  7530  7209  6938  6684  6399  5966  5302  4516  3828  3356  3047  2771  2424  2031  1722  1553  1448  1326  1178  1019  865  758  729  745  752  727  636  494  380  271  64  -251  -612  -961  -1269  -1563  -1926  -2394  -2902  -3371  -3755  -4024  -4185  -4304  -4476  -4753  -5079  -5331  -5451  -5503  -5603  -5811  -6051  -6214  -6290  -6329  -6353  -6372  -6410  -6478  -6567  -6670  -6807  -6960  -7064  -7088  -7064  -7029  -6984  -6927  -6875  -6853  -6869  -6909  -6934  -6907  -6835  -6745  -6666  -6613  -6578  -6537  -6489  -6456  -6459  -6514  -6600  -6673  -6714  -6719  -6652  -6464  -6214  -6039  -6000  -6041  -6090  -6118  -6128  -6135  -6181  -6313  -6515  -6725  -6905  -7034  -7095  -7100  -7078  -7040  -6972  -6838  -6596  -6264  -5944  -5720  -5584  -5469  -5349  -5258  -5225  -5232  -5251  -5255  -5214  -5097  -4901  -4693  -4568  -4524  -4442  -4226  -3931  -3703  -3619  -3662  -3800  -3977  -4103  -4107  -3971  -3734  -3481  -3248  -3014  -2785  -2610  -2516  -2485  -2483  -2486  -2487  -2500  -2549  -2647  -2791  -2969  -3157  -3330  -3495  -3659  -3819  -3974  -4089  -4117  -4082  -4049  -4042  -4049  -4053  -4034  -3972  -3862  -3737  -3639  -3551  -3418  -3237  -3077  -2991  -2958  -2909  -2778  -2541  -2262  -2044  -1912  -1811  -1715  -1638  -1605  -1655  -1873  -2343  -3011  -3638  -3986  -4007  -3784  -3446  -3141  -2963  -2948  -3174  -3671  -4106  -3915  -2927  -1556  -313  507  908  1336  2313  3670  4619  4499  3150  1053  -869  -2011  -2348  -2162  -1843  -1598  -1443  -1420  -1511  -1600  -1633  -1596  -1484  -1333  -1214  -1154  -1112  -1017  -816  -519  -230  -53  0  -8  1  110  356  667  905  1004  983  859  654  436  265  157  111  136  220  319  378  384  378  397  422  394  289  158  64  -2  -103  -262  -449  -643  -842  -1031  -1169  -1221  -1156  -941  -636  -385  -286  -381  -678  -1069  -1354  -1440  -1383  -1245  -1047  -827  -651  -560  -532  -516  -460  -343  -199  -108  -152  -360  -646  -863  -962  -996  -1006  -1004  -1005  -1002  -936  -741  -464  -251  -206  -359  -686  -1091  -1490  -1912  -2436  -3046  -3590  -3916  -4038  -4111  -4239  -4403  -4568  -4753  -4997  -5300  -5596  -5781  -5808  -5720  -5599  -5482  -5349  -5207  -5056  -4849  -4604  -4417  -4302  -4178  -3994  -3740  -3412  -3080  -2866  -2795  -2778  -2695  -2476  -2143  -1798  -1535  -1383  -1326  -1328  -1348  -1353  -1328  -1267  -1186  -1122  -1087  -1065  -999  -794  -397  141  689  1096  1286  1312  1269  1202  1129  1073  1064  1130  1280  1453  1560  1572  1544  1571  1748  2099  2548  2945  3150  3146  2983  2676  2302  2036  1984  2128  2392  2676  2891  2992  2979  2873  2730  2620  2570  2561  2558  2553  2563  2615  2723  2865  2991  3046  3008  2900  2754  2595  2443  2330  2279  2271  2264  2241  2255  2419  2795  3260  3594  3712  3702  3684  3720  3809  3904  3965  3987  3981  3938  3854  3759  3698  3662  3593  3455  3290  3174  3134  3132  3116  3062  2981  2887  2774  2659  2592  2576  2543  2418  2217  2035  1932  1871  1788  1663  1506  1337  1171  1039  1000  1113  1437  1957  2558  3195  4020  5252  6834  8251  8877  8428  6995  4902  2730  1104  278  192  725  1517  2000  1876  1315  671  160  -224  -549  -778  -872  -878  -860  -835  -791  -734  -693  -679  -672  -625  -493  -308  -175  -201  -418  -733  -983  -1096  -1134  -1197  -1342  -1554  -1751  -1873  -1936  -1984  -2033  -2096  -2182  -2269  -2331  -2352  -2304  -2189  -2038  -1867  -1702  -1599  -1568  -1566  -1567  -1572  -1565  -1495  -1349  -1200  -1118  -1105  -1119  -1127  -1114  -1085  -1059  -1051  -1052  -1025  -942  -828  -745  -721  -725  -715  -675  -633  -610  -546  -309  120  563  821  876  840  797  774  768  783  831  908  984  1041  1078  1099  1110  1118  1130  1144  1150  1151  1166  1196  1200  1132  995  841  724  666  660  677  690  686  666  642  624  614  607  603  618  670  761  851  889  861  799  752  752  825  984  1209  1424  1510  1404  1177  969  856  823  836  878  934  988  1021  982  768  304  -263  -659  -800  -808  -787  -754  -722  -707  -704  -705  -710  -726  -744  -717  -590  -404  -284  -274  -326  -398  -456  -480  -492  -524  -572  -602  -587  -541  -515  -529  -557  -592  -679  -850  -1060  -1240  -1379  -1507  -1625  -1734  -1866  -2018  -2146  -2238  -2315  -2361  -2337  -2249  -2184  -2209  -2278  -2318  -2318  -2316  -2353  -2441  -2547  -2626  -2668  -2674  -2595  -2370  -2059  -1831  -1800  -1953  -2198  -2411  -2523  -2541  -2506  -2468  -2463  -2481  -2487  -2480  -2482  -2487  -2454  -2359  -2233  -2131  -2068  -2010  -1953  -1965  -2041  -1972  -1473  -411  1133  2882  4490  5705  6276  5920  4628  2732  694  -928  -1721  -1750  -1358  -835  -437  -320  -390  -460  -463  -434  -411  -411  -433  -480  -541  -595  -627  -650  -676  -715  -774  -860  -951  -1012  -1041  -1050  -1020  -898  -653  -372  -202  -173  -199  -219  -233  -256  -278  -256  -152  -3  101  129  140  233  457  761  1064  1347  1591  1733  1736  1618  1445  1281  1147  1029  930  866  842  817  701  445  130  -96  -172  -126  -5  140  256  305  293  246  160  11  -165  -262  -209  -51  87  150  178  208  260  367  527  677  773  809  767  602  337  85  -60  -94  -16  201  503  734  798  749  686  656  654  660  662  651  627  611  615  628  630  628  652  729  839  924  944  893  767  577  376  239  185  180  226  370  604  825  924  881  761  640  561  535  590  758  988  1151  1155  1003  790  638  590  602  621  605  520  365  183  36  -9  65  199  301  352  396  454  502  525  535  554  598  659  696  657  531  399  355  359  318  241  192  185  201  201  145  36  -76  -151  -183  -192  -197  -207  -208  -152  5  219  375  427  420  404  396  394  394  400  415  423  373  223  16  -131  -158  -97  -27  -3  -5  12  48  72  68  24  -51  -105  -79  56  364  927  1828  3089  4502  5683  6341  6354  5650  4245  2426  615  -860  -1820  -2312  -2507  -2434  -2094  -1668  -1388  -1341  -1499  -1821  -2255  -2668  -2881  -2835  -2668  -2574  -2611  -2682  -2665  -2516  -2232  -1896  -1656  -1561  -1540  -1547  -1577  -1599  -1539  -1354  -1093  -875  -776  -779  -817  -809  -665  -359  -6  238  341  378  427  515  633  771  902  992  1046  1091  1134  1180  1250  1363  1492  1577  1577  1489  1358  1242  1161  1092  1036  1013  1009  940  732  445  233  164  177  200  196  157  99  59  58  96  152  199  227  231  166  -11  -250  -425  -490  -491  -465  -387  -221  -12  135  182  176  172  182  184  153  115  124  173  186  109  -7  -67  -50  -6  53  163  310  434  508  563  628  697  756  819  913  1015  1069  1054  999  928  842  755  718  745  784  776  706  570  373  164  35  78  287  529  662  665  606  553  517  484  450  431  439  463  474  434  303  70  -200  -384  -356  -29  542  1111  1422  1378  997  441  -19  -229  -248  -207  -207  -316  -561  -908  -1245  -1447  -1467  -1348  -1178  -1066  -1106  -1332  -1649  -1874  -1889  -1709  -1458  -1280  -1220  -1220  -1209  -1153  -1067  -989  -933  -869  -761  -630  -526  -460  -402  -326  -225  -126  -39  51  116  119  68  -18  -116  -182  -211  -232  -272  -358  -517  -713  -852  -873  -795  -682  -606  -616  -716  -858  -995  -1155  -1340  -1384  -1091  -318  1104  3100  5057  6274  6464  5641  4047  2212  653  -409  -1021  -1437  -1935  -2477  -2802  -2852  -2804  -2775  -2741  -2651  -2540  -2501  -2564  -2662  -2707  -2682  -2657  -2701  -2796  -2842  -2718  -2396  -2020  -1781  -1736  -1843  -2058  -2309  -2480  -2495  -2348  -2088  -1788  -1512  -1292  -1105  -906  -702  -552  -500  -509  -502  -455  -408  -377  -300  -94  213  488  654  740  788  833  937  1141  1404  1636  1783  1847  1859  1850  1838  1829  1836  1882  1968  2046  2055  1987  1890  1808  1755  1731  1751  1881  2179  2590  2947  3122  3140  3103  3103  3201  3406  3674  3932  4133  4277  4377  4431  4451  4462  4501  4598  4718  4753  4710  4707  4762  4799  4765  4630  4417  4237  4128  3879  3210  2074  716  -336  -584  -75  646  1105  1207  1095  899  647  357  105  -64  -174  -233  -214  -94  90  253  331  328  263  146  -6  -155  -240  -241  -209  -207  -248  -286  -264  -185  -106  -63  -49  -49  -58  -107  -229  -381  -439  -330  -142  -75  -256  -606  -918  -1074  -1096  -1022  -856  -642  -483  -454  -591  -881  -1206  -1419  -1489  -1471  -1389  -1229  -1026  -867  -798  -787  -784  -764  -717  -627  -482  -266  40  397  675  799  812  798  792  784  763  741  739  767  811  842  858  908  1039  1230  1414  1556  1694  1885  2108  2283  2383  2422  2418  2409  2425  2306  1582  -97  -2220  -3757  -4366  -4510  -4597  -4649  -4532  -4152  -3538  -2887  -2421  -2170  -2013  -1869  -1770  -1794  -1958  -2214  -2554  -3013  -3523  -3934  -4176  -4304  -4413  -4556  -4742  -5017  -5461  -6027  -6494  -6621  -6309  -5699  -5010  -4253  -3204  -1632  410  2433  3760  3936  2874  953  -1116  -2710  -3556  -3828  -3945  -4216  -4755  -5404  -5817  -5854  -5605  -5152  -4639  -4277  -4122  -4042  -3912  -3707  -3420  -3028  -2598  -2269  -2090  -2012  -1979  -1981  -2062  -2225  -2374  -2409  -2312  -2147  -1989  -1845  -1661  -1395  -1094  -864  -740  -670  -610  -564  -538  -522  -501  -461  -383  -229  25  330  578  705  733  722  708  701  698  705  737  804  906  1038  1149  1154  1013  763  487  279  191  209  303  429  540  608  632  624  606  597  601  613  626  641  673  757  930  1153  1313  1330  1208  1023  876  824  851  913  976  1052  1180  1346  1491  1591  1660  1700  1716  1724  1733  1737  1733  1721  1712  1710  1708  1693  1662  1622  1578  1555  1605  1766  1988  2150  2199  2173  2115  2017  1842  1616  1444  1382  1371  1310  1138  862  575  419  474  695  957  1142  1210  1159  993  768  583  482  446  450  491  551  578  542  484  450  438  431  436  496  648  875  1083  1172  1127  1022  941  890  816  690  561  507  559  662  727  714  641  553  478  431  426  485  622  786  862  733  380  -56  -386  -554  -628  -658  -644  -592  -541  -515  -507  -508  -534  -604  -697  -751  -727  -638  -512  -368  -216  -80  4  11  -68  -219  -381  -487  -523  -515  -495  -487  -492  -497  -497  -510  -561  -625  -606  -479  -350  -311  -344  -405  -455  -479  -495  -537  -622  -733  -817  -825  -723  -511  -231  30  199  262  265  261  268  281  292  296  274  206  110  35  2  0  28  109  252  411  510  518  481  506  671  1027  1695  2834  4469  6365  8059  9049  8951  7699  5702  3615  1991  1095  824  807  700  445  239  221  313  381  325  70  -348  -770  -1074  -1290  -1515  -1748  -1897  -1921  -1884  -1842  -1792  -1704  -1593  -1495  -1401  -1263  -1092  -967  -924  -917  -843  -624  -318  -95  -59  -184  -365  -489  -505  -428  -309  -177  -4  243  526  761  909  992  1066  1169  1286  1382  1441  1458  1404  1233  965  698  486  306  158  75  64  82  73  -16  -186  -346  -415  -439  -513  -627  -684  -649  -607  -646  -759  -859  -831  -643  -453  -427  -562  -755  -883  -877  -779  -659  -559  -488  -435  -400  -389  -396  -400  -373  -287  -143  20  141  179  138  65  18  14  14  0  1  50  153  288  422  512  490  287  -38  -325  -484  -550  -579  -600  -627  -654  -668  -660  -636  -614  -615  -638  -681  -736  -789  -826  -836  -790  -659  -498  -445  -596  -881  -1136  -1273  -1311  -1308  -1300  -1302  -1303  -1277  -1180  -977  -724  -543  -484  -496  -521  -538  -547  -549  -553  -579  -665  -822  -1002  -1111  -1068  -850  -546  -312  -200  -134  -60  -1  18  12  0  -12  -39  -90  -148  -182  -172  -116  -65  -1  192  497  720  763  701  639  610  586  555  553  621  758  921  1022  964  703  343  84  19  90  194  263  281  274  266  270  287  312  330  330  313  297  339  505  775  1022  1148  1164  1155  1193  1305  1470  1643  1771  1818  1753  1542  1232  962  826  801  800  711  442  30  -343  -517  -404  10  561  958  1085  1041  937  824  810  1147  2094  3638  5410  6869  7648  7751  7340  6520  5408  4169  3028  2238  1857  1686  1529  1390  1357  1432  1566  1677  1609  1366  1196  1220  1270  1094  405  -997  -2838  -4403  -5172  -5130  -4536  -3787  -3303  -3169  -3129  -2989  -2800  -2680  -2639  -2599  -2505  -2372  -2224  -2034  -1776  -1484  -1216  -999  -827  -677  -554  -507  -565  -691  -816  -907  -966  -988  -965  -910  -854  -811  -776  -725  -642  -546  -480  -467  -484  -478  -396  -237  -74  19  33  -3  -83  -213  -374  -538  -730  -973  -1227  -1499  -1900  -2462  -3000  -3321  -3418  -3389  -3309  -3211  -3112  -3027  -2953  -2876  -2789  -2694  -2609  -2557  -2536  -2513  -2468  -2407  -2335  -2246  -2152  -2052  -1921  -1756  -1567  -1357  -1160  -1011  -894  -745  -541  -335  -179  -87  -49  -46  -53  -38  21  108  174  197  193  177  162  172  263  465  680  751  664  554  505  501  504  512  559  671  804  847  733  501  266  121  68  72  156  369  656  873  952  942  908  877  862  892  999  1156  1275  1295  1239  1142  998  779  530  357  293  271  229  165  104  70  63  49  2  -75  -150  -190  -191  -150  -64  42  120  143  127  98  70  55  56  61  46  -6  -88  -161  -205  -232  -238  -180  -23  180  329  410  516  700  882  959  943  914  897  835  675  464  330  321  357  354  300  213  112  36  39  177  454  773  964  823  215  -645  -1227  -1169  -412  983  2775  4613  6242  7364  7558  6562  4575  2187  104  -1040  -1088  -590  -234  -276  -641  -1121  -1463  -1535  -1359  -1014  -614  -287  -105  -63  -120  -233  -351  -417  -388  -252  -67  68  101  45  -58  -161  -220  -213  -129  21  218  435  621  726  750  732  707  709  789  970  1179  1278  1200  1010  808  624  479  457  625  892  1077  1103  1039  975  941  921  887  813  680  501  323  197  134  102  75  45  17  -15  -80  -207  -399  -609  -767  -846  -851  -750  -507  -201  6  29  -96  -274  -376  -352  -280  -244  -252  -279  -305  -317  -303  -253  -173  -86  -7  56  111  163  176  117  30  -18  -13  25  81  150  221  267  267  222  161  117  106  117  133  121  34  -142  -362  -544  -628  -574  -367  -88  109  144  51  -83  -178  -208  -191  -145  -95  -89  -185  -389  -638  -842  -949  -973  -963  -940  -894  -831  -787  -805  -907  -1058  -1202  -1342  -1566  -1933  -2347  -2620  -2667  -2540  -2338  -2146  -1999  -1884  -1779  -1709  -1722  -1798  -1840  -1761  -1493  -1005  -441  -72  -47  -317  -699  -983  -1106  -1144  -1147  -1121  -1095  -1115  -1185  -1271  -1342  -1397  -1457  -1535  -1582  -1453  -1057  -497  -13  181  224  673  1985  4059  6201  7474  7290  5701  3370  1268  45  -348  -385  -440  -597  -794  -948  -1014  -1021  -1012  -991  -923  -774  -605  -519  -526  -543  -522  -489  -502  -575  -661  -729  -782  -813  -797  -720  -601  -464  -295  -113  17  93  201  408  663  846  907  887  819  707  588  558  694  953  1207  1362  1415  1410  1388  1381  1419  1544  1776  2051  2232  2211  1978  1656  1426  1358  1392  1438  1408  1205  807  318  -91  -311  -364  -344  -309  -268  -233  -228  -259  -328  -426  -497  -497  -459  -432  -424  -425  -435  -479  -581  -718  -814  -828  -772  -623  -345  -15  200  202  3  -279  -475  -453  -196  169  432  455  238  -108  -429  -670  -892  -1064  -1054  -862  -637  -467  -343  -271  -255  -270  -274  -246  -198  -146  -92  -37  0  15  16  7  -20  -61  -67  -7  77  123  115  87  73  75  81  89  103  119  96  -4  -172  -363  -536  -676  -796  -880  -877  -787  -671  -580  -551  -593  -662  -699  -671  -568  -431  -341  -349  -447  -578  -678  -744  -822  -899  -903  -823  -719  -635  -582  -556  -519  -407  -221  -58  -12  -95  -215  -233  -145  -55  14  112  233  337  390  371  275  145  53  35  74  130  177  218  255  236  106  -115  -347  -549  -744  -938  -1095  -1169  -1122  -1016  -984  -957  -620  283  1798  3781  5795  7219  7603  6840  5165  3127  1397  365  -72  -274  -476  -701  -860  -893  -855  -822  -815  -816  -805  -768  -712  -666  -640  -622  -605  -587  -559  -517  -481  -481  -519  -570  -612  -640  -658  -661  -630  -551  -430  -296  -174  -77  -17  18  93  270  505  678  735  719  677  637  624  689  866  1094  1258  1325  1345  1364  1388  1404  1408  1402  1394  1392  1395  1390  1337  1149  744  199  -255  -472  -499  -461  -428  -408  -394  -394  -421  -464  -503  -528  -538  -533  -513  -487  -469  -468  -480  -490  -458  -343  -164  6  139  258  372  457  502  526  546  560  547  462  272  20  -190  -302  -344  -398  -542  -766  -997  -1179  -1289  -1336  -1337  -1262  -1064  -790  -563  -446  -427  -503  -686  -910  -1066  -1115  -1108  -1090  -1068  -1042  -1029  -1023  -981  -897  -814  -752  -693  -634  -584  -533  -479  -442  -435  -447  -455  -452  -449  -460  -505  -603  -718  -746  -606  -351  -134  -72  -193  -466  -786  -1014  -1114  -1135  -1088  -978  -876  -848  -873  -870  -730  -407  -25  217  259  182  66  -65  -185  -224  -159  -95  -158  -322  -430  -388  -260  -151  -62  78  267  408  441  390  314  256  228  226  277  411  580  671  637  539  472  465  479  530  674  865  998  1050  1070  1097  1122  1078  917  714  597  629  780  961  1083  1089  939  637  301  74  -9  10  111  265  408  501  628  939  1421  1955  2582  3521  4897  6502  7855  8427  7817  6061  3740  1594  146  -360  -42  621  1127  1245  983  463  -132  -606  -821  -760  -518  -291  -271  -463  -704  -872  -941  -894  -706  -413  -116  91  157  81  -62  -177  -226  -230  -207  -121  59  268  412  490  542  578  599  615  638  667  690  699  697  684  681  752  954  1217  1358  1278  1073  907  840  839  890  1026  1253  1521  1785  1999  2057  1881  1492  936  326  -211  -796  -1626  -2667  -3892  -5352  -6728  -7455  -7334  -6510  -5175  -3805  -3029  -2958  -3158  -3219  -3033  -2733  -2514  -2422  -2358  -2250  -2132  -2056  -2024  -2010  -1982  -1904  -1767  -1621  -1529  -1482  -1426  -1326  -1202  -1106  -1062  -1060  -1098  -1231  -1509  -1858  -2105  -2167  -2101  -1998  -1913  -1861  -1852  -1889  -1942  -1942  -1811  -1504  -1097  -759  -588  -549  -553  -541  -512  -470  -405  -325  -267  -252  -275  -311  -316  -264  -145  47  271  428  483  487  487  486  468  424  369  322  274  188  45  -115  -189  -88  170  468  682  771  763  681  532  363  243  207  272  453  690  861  917  904  865  806  708  578  459  395  396  455  570  711  821  859  784  569  293  138  191  352  445  375  195  27  -58  -42  103  380  692  905  981  977  954  939  934  943  969  1006  1036  1054  1065  1080  1100  1100  1086  1099  1137  1157  1139  1090  1047  1044  1096  1211  1363  1474  1491  1409  1257  1063  845  623  430  283  135  -92  -378  -588  -658  -642  -597  -518  -349  -22  342  319  -272  -892  -802  240  1937  3796  5424  6528  6935  6613  5593  4048  2420  1178  426  -19  -287  -456  -596  -684  -686  -639  -594  -569  -561  -562  -561  -541  -495  -441  -419  -434  -446  -442  -455  -508  -570  -600  -582  -542  -513  -509  -509  -482  -406  -289  -151  -7  123  221  301  399  508  588  647  730  841  932  957  882  678  366  44  -171  -255  -262  -244  -188  -40  215  501  703  770  725  616  478  321  170  55  -54  -281  -697  -1166  -1472  -1565  -1546  -1488  -1401  -1309  -1269  -1309  -1396  -1468  -1496  -1478  -1410  -1304  -1191  -1093  -1015  -957  -930  -936  -956  -980  -1010  -1034  -1012  -907  -739  -567  -408  -251  -104  13  96  139  139  90  -9  -132  -223  -253  -230  -161  -66  23  82  105  89  62  69  119  172  203  229  271  332  393  438  467  494  540  614  703  776  791  668  342  -100  -472  -707  -891  -1089  -1264  -1348  -1332  -1271  -1162  -951  -672  -454  -369  -382  -416  -428  -419  -411  -411  -411  -405  -387  -365  -357  -382  -443  -532  -620  -657  -596  -441  -257  -114  -40  -25  -40  -59  -69  -77  -91  -117  -170  -257  -353  -424  -450  -418  -327  -206  -109  -52  8  98  180  214  200  164  134  119  112  104  93  83  76  44  -43  -172  -291  -373  -395  -323  -155  29  115  49  -103  -233  -280  -264  -226  -188  -124  1  161  272  304  298  300  332  396  470  527  560  579  566  458  209  -137  -450  -601  -575  -445  -272  -70  129  272  323  269  106  -117  -303  -327  -37  683  1823  3257  4769  6131  7181  7709  7447  6260  4331  2192  458  -528  -777  -571  -315  -273  -407  -532  -531  -393  -195  -54  -49  -184  -391  -559  -622  -577  -454  -300  -166  -90  -141  -406  -870  -1338  -1608  -1649  -1558  -1426  -1308  -1228  -1193  -1180  -1121  -959  -732  -543  -444  -400  -371  -334  -223  28  368  641  764  763  704  650  646  720  866  1035  1149  1160  1083  973  879  822  788  756  722  679  581  391  158  -38  -177  -252  -288  -382  -560  -705  -717  -624  -558  -619  -785  -966  -1096  -1147  -1096  -928  -695  -498  -384  -340  -352  -395  -422  -389  -289  -164  -71  -33  -26  -25  -30  -73  -156  -202  -140  -18  100  211  317  409  481  518  491  383  236  131  105  135  177  210  246  302  341  307  222  180  211  251  217  77  -150  -427  -727  -996  -1155  -1175  -1097  -983  -911  -956  -1153  -1422  -1616  -1671  -1640  -1611  -1675  -1892  -2191  -2414  -2494  -2480  -2408  -2264  -2052  -1828  -1655  -1571  -1564  -1593  -1610  -1551  -1365  -1108  -914  -827  -765  -672  -618  -678  -810  -932  -1010  -1042  -1015  -922  -797  -702  -657  -640  -634  -634  -640  -642  -625  -574  -508  -464  -452  -431  -365  -262  -162  -83  -33  -21  -50  -101  -134  -127  -94  -57  -25  -5  0  2  5  3  -13  -49  -89  -119  -159  -281  -529  -822  -962  -732  7  1232  2719  4154  5379  6443  7262  7468  6723  5055  2937  1153  292  284  557  558  172  -270  -450  -404  -324  -292  -297  -315  -336  -347  -342  -315  -276  -237  -197  -145  -64  78  260  401  454  429  349  237  135  72  53  93  209  356  431  373  234  117  77  126  294  580  891  1112  1219  1256  1266  1270  1278  1294  1314  1329  1312  1234  1093  927  768  633  541  502  503  516  513  470  371  208  -5  -220  -382  -458  -466  -467  -521  -649  -852  -1091  -1296  -1417  -1454  -1449  -1444  -1443  -1403  -1285  -1120  -995  -949  -954  -976  -1006  -1038  -1061  -1071  -1064  -1031  -979  -928  -903  -932  -1008  -1087  -1136  -1157  -1152  -1103  -983  -820  -686  -624  -624  -660  -721  -806  -891  -930  -873  -713  -513  -392  -484  -863  -1391  -1771  -1815  -1545  -1133  -799  -642  -634  -781  -1138  -1625  -2020  -2193  -2152  -1897  -1450  -974  -664  -579  -663  -847  -1046  -1172  -1211  -1200  -1155  -1042  -832  -587  -428  -405  -451  -479  -444  -324  -123  122  335  448  466  437  402  382  377  378  380  386  396  405  415  451  544  671  765  798  796  788  775  745  706  677  667  655  614  538  435  312  177  58  -15  -52  -96  -151  -168  -113  -9  89  124  -20  -410  -813  -853  -367  630  2087  3808  5482  6855  7645  7499  6317  4467  2573  1197  610  543  460  152  -180  -324  -298  -236  -214  -260  -385  -541  -633  -614  -514  -364  -163  53  212  290  317  314  286  244  215  258  411  619  783  864  897  905  889  865  862  889  929  956  962  967  1006  1109  1248  1344  1352  1307  1268  1269  1341  1505  1734  1954  2106  2187  2225  2236  2208  2132  2043  1973  1888  1765  1640  1492  1217  796  377  109  6  9  69  112  68  -69  -256  -427  -527  -552  -545  -544  -558  -577  -593  -579  -488  -343  -222  -148  -101  -63  -25  4  20  30  39  43  34  25  51  156  333  514  653  756  847  954  1090  1233  1341  1391  1384  1311  1169  1005  892  840  785  662  447  166  -150  -481  -821  -1146  -1409  -1575  -1627  -1577  -1480  -1399  -1358  -1332  -1268  -1135  -975  -854  -783  -713  -605  -473  -371  -335  -354  -387  -398  -375  -329  -305  -336  -393  -426  -425  -412  -404  -403  -397  -375  -342  -320  -332  -377  -424  -430  -397  -398  -468  -555  -618  -672  -732  -772  -743  -615  -432  -290  -254  -344  -547  -784  -944  -962  -828  -579  -324  -202  -310  -670  -1189  -1667  -1920  -1867  -1537  -1094  -773  -665  -686  -741  -800  -863  -929  -959  -928  -901  -983  -1193  -1432  -1583  -1613  -1545  -1412  -1261  -1148  -1115  -1228  -1564  -2074  -2489  -2490  -1953  -982  246  1587  2951  4234  5210  5636  5419  4520  2979  1116  -581  -1753  -2252  -2136  -1722  -1468  -1602  -1937  -2176  -2231  -2163  -2042  -1923  -1834  -1759  -1672  -1565  -1426  -1255  -1079  -943  -868  -835  -810  -781  -760  -759  -770  -754  -677  -558  -461  -415  -390  -342  -244  -109  16  93  119  121  112  99  88  92  138  254  428  593  694  761  866  1017  1148  1206  1221  1260  1308  1297  1232  1176  1157  1152  1119  1005  778  472  200  57  22  6  -49  -144  -245  -312  -342  -378  -430  -463  -462  -451  -446  -446  -445  -439  -426  -402  -360  -300  -233  -164  -91  -23  27  81  171  295  397  423  348  184  -9  -139  -161  -99  -12  45  61  57  63  91  133  168  192  213  221  171  34  -146  -274  -302  -256  -188  -140  -131  -160  -224  -314  -421  -519  -562  -518  -396  -237  -98  -46  -101  -198  -258  -270  -272  -289  -339  -441  -576  -675  -677  -556  -344  -124  32  95  55  -36  -70  -10  67  101  101  101  104  84  3  -132  -263  -333  -330  -265  -161  -53  11  -43  -274  -583  -739  -591  -222  163  418  491  377  118  -193  -470  -662  -739  -711  -640  -604  -637  -713  -791  -830  -795  -698  -572  -439  -364  -404  -507  -584  -614  -614  -600  -571  -532  -489  -438  -386  -349  -316  -261  -186  -130  -105  -94  -91  -124  -201  -261  -237  -143  -54  -13  -14  -54  -141  -253  -341  -385  -400  -404  -404  -408  -435  -510  -623  -733  -806  -834  -834  -850  -944  -1096  -1046  -499  477  1669  3062  4616  6145  7425  8092  7683  6144  4022  2009  540  -243  -485  -479  -439  -412  -407  -456  -567  -684  -732  -681  -572  -453  -326  -196  -106  -79  -91  -110  -110  -86  -50  -23  -32  -90  -166  -220  -248  -262  -268  -245  -148  60  331  548  659  701  716  729  735  695  637  647  728  800  834  867  933  1016  1082  1108  1115  1151  1247  1375  1471  1497  1478  1483  1565  1694  1794  1840  1861  1863  1784  1561  1261  1039  931  845  726  612  535  487  449  415  406  484  706  1038  1350  1508  1425  1062  549  194  312  1010  1986  2684  2794  2416  1870  1471  1335  1433  1749  2218  2661  2939  3047  3039  2927  2702  2434  2258  2287  2556  2963  3238  3038  2174  959  86  4  663  1635  2380  2655  2551  2213  1806  1518  1414  1435  1555  1779  2030  2152  2084  1935  1881  1980  2111  2143  2097  2019  1850  1542  1184  922  809  796  850  1016  1335  1715  1973  2029  1945  1824  1742  1728  1771  1841  1880  1782  1473  1062  762  573  232  -459  -1339  -2016  -2295  -2274  -2115  -1932  -1799  -1741  -1720  -1665  -1519  -1321  -1162  -1073  -1027  -1066  -1343  -1960  -2762  -3442  -3885  -4242  -4768  -5611  -6575  -7249  -7485  -7476  -7417  -7329  -7170  -7008  -7032  -7362  -7931  -8553  -9082  -9470  -9698  -9721  -9442  -8800  -7967  -7287  -6915  -6669  -6304  -5802  -5267  -4721  -4178  -3767  -3581  -3556  -3581  -3606  -3629  -3638  -3567  -3352  -3044  -2784  -2642  -2570  -2496  -2404  -2323  -2244  -2106  -1884  -1642  -1478  -1412  -1394  -1379  -1357  -1315  -1175  -833  -238  626  1794  3164  4490  5594  6374  6760  6668  5927  4530  2935  1753  1180  987  911  839  749  657  604  641  795  1012  1189  1274  1283  1243  1188  1150  1151  1207  1325  1500  1710  1916  2080  2188  2279  2419  2615  2804  2956  3101  3320  3679  4066  4267  4276  4233  4155  4051  4166  4755  5523  5593  4046  435  -4547  -8864  -10484  -9122  -6160  -3228  -1268  -376  -29  297  736  1211  1642  1980  2212  2355  2433  2496  2590  2710  2785  2764  2683  2621  2642  2737  2824  2868  2922  3019  3135  3191  3012  2381  1261  -77  -1207  -1783  -1643  -811  355  1268  1660  1719  1721  1868  2277  2834  3259  3444  3511  3591  3705  3817  3912  4016  4158  4346  4598  4951  5376  5742  5905  5739  5147  4205  3215  2499  2189  2275  2719  3371  3927  4188  4210  4148  4109  4176  4395  4698  4957  5162  5378  5590  5755  5917  6132  6347  6475  6505  6472  6358  6084  5647  5205  4935  4846  4838  4893  5117  5574  6109  6466  6561  6503  6408  6326  6279  6280  6322  6331  6146  5611  4783  3924  3283  2979  3040  3434  4010  4532  4874  5056  5113  5035  4807  4513  4300  4184  4056  3869  3670  3442  3066  2453  1696  1045  660  342  -437  -2028  -4133  -6049  -7346  -8280  -9594  -11739  -14373  -16777  -18656  -20399  -22413  -24364  -25547  -25701  -24951  -23526  -21759  -19891  -17999  -16267  -14869  -13721  -12793  -12259  -12069  -11752  -10812  -9327  -7960  -7217  -7006  -6937  -6714  -6275  -5728  -5235  -4906  -4739  -4628  -4461  -4245  -4086  -3995  -3983  -4153  -4350  -4266  -3867  -3407  -3402  -4281  -5966  -8001  -9573  -9993  -9435  -8563  -7843  -7236  -6241  -4469  -2008  680  2903  4079  4044  2919  1095  -723  -1928  -2401  -2386  -2171  -1943  -1807  -1796  -1885  -2020  -2138  -2183  -2092  -1811  -1402  -994  -626  -307  -104  -50  -88  -118  -58  110  310  433  459  467  516  597  668  723  793  919  1164  1584  2073  2393  2438  2307  2134  1992  1912  1888  1885  1888  1930  2070  2338  2702  3067  3311  3395  3392  3406  3498  3640  3754  3794  3745  3601  3417  3284  3216  3159  3090  3041  3014  2946  2779  2558  2397  2346  2362  2388  2385  2312  2160  1988  1865  1796  1750  1719  1704  1700  1716  1773  1866  1946  1973  1965  1968  1987  2010  2029  2042  2044  2036  2025  2017  2018  2024  2020  1955  1795  1601  1496  1542  1725  1973  2175  2263  2224  2054  1795  1563  1446  1433  1471  1515  1524  1481  1430  1440  1543  1693  1805  1847  1853  1841  1779  1643  1493  1430  1446  1450  1399  1314  1239  1201  1183  1157  1132  1117  1107  1103  1138  1242  1391  1514  1558  1491  1292  1024  824  754  763  789  801  777  700  594  518  511  569  653  711  710  653  572  515  497  504  515  512  472  376  235  98  14  -13  2  58  136  200  228  229  214  189  147  88  32  12  35  55  15  -101  -245  -349  -387  -373  -302  -166  8  160  240  255  243  233  235  247  256  226  118  -58  -247  -393  -487  -566  -682  -865  -1101  -1311  -1393  -1312  -1125  -940  -828  -785  -807  -918  -1007  -756  41  1259  2695  4248  5709  6752  7074  6409  4726  2441  219  -1352  -2034  -2007  -1578  -985  -489  -291  -388  -678  -1055  -1388  -1592  -1672  -1639  -1474  -1189  -883  -673  -591  -583  -599  -633  -705  -806  -920  -1053  -1191  -1288  -1318  -1273  -1138  -941  -774  -702  -703  -712  -667  -545  -383  -236  -126  -52  -16  -11  -25  -49  -61  -1  181  433  618  672  632  549  443  318  166  -11  -151  -159  -40  109  223  277  212  -53  -486  -890  -1103  -1145  -1122  -1100  -1096  -1115  -1170  -1252  -1334  -1394  -1432  -1454  -1463  -1463  -1451  -1406  -1305  -1161  -1035  -974  -965  -964  -941  -908  -890  -886  -844  -719  -544  -413  -365  -371  -404  -457  -501  -488  -414  -327  -274  -267  -274  -229  -92  92  227  277  279  257  178  2  -216  -336  -269  -66  146  280  327  327  323  334  347  321  215  47  -106  -190  -207  -172  -73  92  285  436  493  460  393  323  234  115  -29  -139  -109  56  224  305  320  320  329  367  430  451  382  282  227  214  211  209  222  265  328  381  400  362  252  113  49  116  253  346  341  262  115  -133  -428  -599  -553  -369  -186  -74  -30  -26  -40  -66  -130  -313  -629  -861  -692  61  1415  3228  5221  6907  7631  7059  5432  3292  1254  -139  -712  -730  -589  -514  -565  -735  -970  -1199  -1354  -1395  -1261  -902  -434  -97  -5  -103  -299  -506  -652  -712  -706  -661  -600  -562  -614  -808  -1083  -1279  -1268  -1036  -706  -456  -356  -347  -342  -275  -111  99  260  332  360  391  433  473  511  568  677  870  1130  1401  1620  1743  1773  1760  1732  1684  1606  1515  1441  1380  1292  1165  1011  816  575  350  173  -18  -267  -513  -679  -746  -753  -758  -799  -865  -915  -931  -927  -920  -922  -944  -973  -963  -890  -792  -710  -661  -665  -722  -802  -879  -938  -970  -963  -892  -756  -610  -543  -606  -773  -963  -1099  -1143  -1099  -1000  -890  -809  -772  -770  -778  -770  -736  -686  -645  -630  -652  -733  -879  -1034  -1130  -1137  -1058  -914  -769  -687  -682  -732  -797  -842  -858  -855  -842  -818  -798  -811  -868  -947  -1015  -1054  -1068  -1065  -1048  -1012  -946  -857  -781  -741  -727  -712  -686  -672  -706  -793  -887  -922  -865  -753  -644  -556  -483  -435  -425  -464  -561  -682  -761  -724  -543  -288  -98  -66  -198  -439  -674  -807  -833  -807  -769  -737  -719  -714  -717  -731  -753  -754  -667  -459  -276  -346  -603  -592  129  1634  3643  5674  7107  7419  6489  4631  2478  698  -342  -688  -734  -854  -1034  -1108  -1089  -1067  -1053  -999  -896  -844  -902  -961  -891  -695  -460  -269  -154  -92  -54  -25  -9  -19  -58  -110  -152  -179  -183  -120  51  288  480  577  605  605  623  705  898  1190  1475  1632  1655  1631  1643  1716  1816  1886  1907  1901  1889  1884  1900  1946  2010  2058  2077  2073  2050  2003  1933  1851  1773  1728  1721  1691  1492  1020  421  3  -124  -98  -75  -116  -194  -255  -276  -273  -268  -266  -268  -272  -279  -288  -297  -313  -340  -380  -434  -490  -536  -596  -723  -927  -1130  -1217  -1145  -984  -834  -726  -640  -570  -523  -507  -506  -489  -464  -484  -567  -669  -748  -791  -810  -820  -816  -788  -732  -645  -556  -510  -509  -524  -534  -538  -539  -530  -505  -466  -428  -399  -373  -351  -359  -425  -512  -538  -490  -452  -493  -580  -655  -701  -725  -725  -684  -580  -416  -257  -196  -239  -305  -320  -272  -187  -106  -63  -72  -121  -171  -195  -201  -231  -316  -433  -520  -552  -560  -575  -594  -595  -569  -526  -483  -444  -392  -312  -205  -78  49  147  196  209  204  186  143  88  49  38  42  38  12  -35  -102  -201  -334  -470  -554  -545  -486  -474  -548  -671  -800  -907  -966  -947  -826  -644  -541  -537  -383  222  1396  3057  4933  6551  7415  7272  6107  4105  1827  56  -823  -1005  -860  -744  -838  -1005  -1057  -1007  -961  -1000  -1164  -1398  -1582  -1632  -1512  -1224  -881  -647  -571  -578  -597  -612  -629  -636  -596  -474  -301  -154  -73  -33  13  73  95  48  13  96  296  500  613  633  604  555  496  452  511  793  1298  1814  2097  2027  1613  1050  656  623  913  1323  1619  1722  1715  1669  1584  1460  1338  1266  1259  1303  1354  1324  1088  592  -22  -504  -717  -705  -574  -421  -322  -294  -309  -330  -327  -257  -97  118  302  374  308  133  -81  -263  -390  -467  -470  -400  -334  -330  -384  -473  -557  -611  -652  -690  -707  -673  -564  -405  -272  -223  -274  -394  -512  -564  -553  -523  -497  -474  -454  -468  -553  -692  -804  -841  -840  -858  -894  -891  -819  -711  -635  -610  -608  -604  -600  -605  -601  -533  -351  -102  74  67  -133  -414  -614  -658  -590  -489  -417  -394  -413  -472  -561  -652  -707  -686  -566  -404  -326  -398  -555  -683  -741  -758  -755  -730  -684  -632  -603  -608  -645  -729  -882  -1056  -1134  -1023  -746  -446  -260  -214  -274  -415  -569  -588  -376  -43  178  167  -19  -268  -481  -568  -472  -208  137  445  623  643  509  248  -42  -216  -148  201  690  1051  1112  857  391  -68  -325  -361  -272  -157  -87  -117  -268  -479  -628  -640  -523  -352  -224  -193  -276  -467  -699  -867  -884  -704  -376  0  433  1054  2023  3427  5122  6639  7395  7052  5663  3612  1532  21  -705  -824  -685  -538  -470  -522  -645  -728  -743  -722  -693  -680  -698  -727  -752  -795  -857  -892  -857  -747  -605  -491  -435  -434  -493  -619  -765  -830  -739  -514  -272  -125  -85  -101  -137  -176  -200  -182  -83  123  402  661  839  938  974  967  941  937  1017  1224  1486  1664  1708  1677  1642  1628  1636  1669  1725  1786  1813  1732  1481  1130  846  707  661  625  501  221  -142  -418  -534  -545  -526  -510  -504  -516  -564  -650  -756  -854  -909  -880  -754  -581  -457  -412  -405  -389  -360  -343  -356  -400  -462  -495  -433  -261  -45  112  158  110  -6  -177  -360  -493  -557  -576  -579  -582  -581  -541  -429  -273  -143  -76  -58  -69  -105  -170  -258  -365  -508  -674  -785  -744  -514  -194  39  98  17  -145  -341  -519  -621  -640  -627  -658  -796  -1029  -1267  -1429  -1504  -1509  -1427  -1233  -984  -803  -739  -745  -765  -785  -820  -875  -918  -922  -896  -834  -732  -632  -569  -541  -529  -514  -498  -494  -500  -506  -508  -505  -513  -574  -705  -854  -941  -949  -908  -842  -775  -734  -723  -727  -742  -775  -819  -850  -841  -780  -692  -624  -614  -683  -819  -964  -1053  -1081  -1091  -1101  -1065  -921  -682  -450  -304  -229  -169  -117  -99  -111  -116  -56  101  311  485  565  525  394  277  247  284  338  373  367  308  197  69  -15  -40  -42  -56  -79  -81  -55  -31  -29  -36  -82  -228  -362  -156  627  1901  3381  4874  6325  7615  8461  8417  7110  4720  2051  41  -798  -604  37  478  346  -239  -794  -986  -861  -623  -440  -380  -418  -502  -577  -615  -620  -614  -617  -638  -671  -698  -709  -698  -657  -593  -535  -505  -504  -523  -552  -568  -534  -423  -273  -180  -195  -259  -243  -101  75  205  295  393  539  714  839  880  873  861  860  870  882  872  823  756  727  791  942  1113  1217  1183  963  602  266  80  24  15  15  6  -60  -239  -544  -893  -1151  -1239  -1146  -879  -525  -247  -151  -213  -328  -393  -366  -280  -190  -123  -80  -60  -64  -89  -123  -154  -167  -158  -137  -127  -159  -251  -370  -458  -482  -430  -277  -20  256  385  280  46  -131  -175  -140  -95  -61  -46  -86  -211  -386  -518  -550  -482  -344  -196  -80  23  146  243  249  165  55  -50  -184  -343  -456  -452  -327  -151  -26  0  -46  -117  -165  -155  -74  52  173  253  269  184  -34  -323  -533  -604  -598  -577  -551  -513  -460  -398  -327  -224  -64  120  241  218  36  -217  -403  -454  -393  -256  -72  89  127  6  -209  -409  -510  -503  -437  -345  -233  -119  -28  22  40  46  51  38  -11  -80  -128  -144  -154  -183  -228  -267  -281  -253  -171  -59  29  84  136  195  224  196  132  84  74  82  90  95  96  87  61  22  -6  1  60  154  227  194  -23  -397  -762  -974  -1037  -1020  -952  -830  -677  -552  -487  -484  -512  -433  -50  620  1351  2144  3263  4765  6384  7657  7933  6762  4461  1950  63  -876  -1029  -827  -683  -716  -811  -875  -888  -848  -758  -639  -534  -469  -439  -423  -407  -400  -438  -541  -676  -787  -852  -874  -855  -818  -790  -752  -646  -461  -277  -172  -137  -116  -80  -22  60  149  209  228  214  175  122  74  45  68  192  436  755  1086  1365  1546  1655  1743  1821  1878  1903  1863  1717  1488  1246  1017  806  658  592  561  502  389  253  151  104  88  69  4  -160  -414  -650  -774  -799  -786  -766  -742  -717  -699  -695  -698  -700  -690  -662  -624  -596  -584  -584  -597  -630  -670  -685  -653  -590  -537  -523  -539  -558  -567  -568  -564  -554  -540  -526  -517  -512  -513  -529  -571  -630  -680  -704  -711  -721  -737  -735  -707  -691  -725  -791  -829  -790  -677  -539  -434  -393  -409  -457  -519  -590  -666  -735  -775  -772  -724  -655  -600  -565  -517  -425  -314  -241  -235  -277  -328  -369  -409  -451  -479  -486  -487  -492  -498  -500  -502  -503  -504  -504  -507  -509  -498  -466  -421  -382  -357  -345  -341  -345  -347  -334  -326  -352  -387  -404  -412  -420  -438  -494  -573  -605  -513  -280  11  243  360  350  216  24  -117  -164  -153  -130  -115  -113  -140  -210  -305  -374  -397  -391  -375  -361  -361  -381  -413  -434  -426  -390  -372  -494  -860  -1369  -1723  -1587  -732  789  2641  4423  5811  6584  6673  6104  4973  3544  2168  1029  105  -647  -1206  -1469  -1370  -1036  -726  -587  -587  -646  -714  -765  -788  -759  -654  -507  -392  -345  -337  -324  -287  -245  -220  -212  -210  -207  -211  -237  -287  -319  -292  -187  1  232  404  468  463  444  444  506  666  880  1035  1074  1026  950  896  906  1007  1194  1410  1592  1699  1723  1655  1484  1245  1040  940  923  928  897  803  682  590  522  422  243  2  -228  -398  -501  -555  -608  -707  -846  -969  -1028  -1000  -884  -724  -613  -631  -795  -1026  -1199  -1253  -1197  -1058  -889  -758  -655  -518  -363  -312  -416  -578  -717  -841  -937  -978  -984  -975  -940  -864  -771  -705  -667  -623  -566  -524  -522  -548  -563  -536  -476  -436  -473  -595  -749  -857  -878  -823  -714  -541  -322  -125  2  66  75  45  7  -15  -26  -32  -32  -28  -22  -26  -63  -155  -288  -406  -467  -465  -409  -302  -157  -26  6  -104  -299  -462  -545  -564  -513  -358  -135  63  181  217  210  207  228  266  290  276  225  144  55  -5  -27  -30  -25  -2  39  52  -15  -143  -266  -330  -344  -366  -445  -559  -643  -664  -653  -678  -794  -931  -855  -423  244  1007  1882  2984  4425  6106  7519  7961  7086  5143  2801  823  -336  -709  -638  -477  -382  -344  -314  -284  -262  -228  -172  -116  -91  -136  -255  -396  -529  -649  -739  -775  -716  -509  -191  92  235  256  208  119  23  -36  -51  -48  -47  -33  22  130  246  314  328  320  331  391  521  700  861  952  992  1049  1186  1385  1550  1626  1645  1658  1680  1684  1642  1538  1387  1240  1145  1110  1096  1067  992  864  719  608  532  434  255  -3  -272  -481  -630  -760  -891  -1005  -1074  -1096  -1087  -1056  -991  -865  -675  -483  -352  -270  -198  -150  -208  -442  -796  -1107  -1284  -1358  -1366  -1301  -1171  -1031  -943  -914  -908  -901  -898  -904  -909  -895  -862  -827  -814  -823  -833  -836  -832  -823  -805  -784  -787  -837  -928  -1025  -1087  -1091  -1059  -1037  -1036  -1041  -1049  -1070  -1107  -1130  -1067  -858  -567  -357  -334  -479  -691  -851  -919  -927  -905  -856  -790  -733  -702  -685  -663  -642  -641  -657  -660  -630  -584  -558  -567  -601  -654  -717  -775  -832  -894  -942  -941  -854  -684  -509  -414  -410  -452  -497  -542  -622  -728  -783  -705  -464  -113  230  456  528  433  153  -223  -486  -466  -142  313  639  702  553  310  61  -178  -432  -709  -979  -1169  -1239  -1201  -1078  -921  -818  -831  -946  -1049  -923  -363  658  2016  3603  5332  6916  7873  7834  6697  4675  2376  556  -377  -546  -339  -99  26  50  25  -8  -30  -57  -125  -242  -366  -441  -453  -424  -375  -345  -399  -597  -884  -1098  -1068  -711  -128  398  658  648  460  200  -23  -133  -110  6  121  153  81  -44  -156  -224  -242  -161  73  413  743  1025  1269  1417  1386  1164  867  667  622  659  694  671  570  439  343  310  342  443  582  676  630  407  99  -122  -184  -146  -106  -178  -454  -873  -1233  -1410  -1451  -1444  -1422  -1376  -1315  -1268  -1229  -1135  -957  -788  -745  -789  -808  -815  -883  -994  -1037  -942  -768  -630  -582  -611  -670  -721  -751  -766  -776  -778  -756  -689  -599  -543  -563  -653  -763  -815  -777  -710  -674  -663  -656  -657  -676  -693  -671  -607  -540  -497  -484  -514  -612  -770  -922  -1011  -1038  -1032  -1007  -963  -907  -864  -868  -912  -952  -952  -910  -864  -857  -884  -895  -879  -863  -871  -903  -936  -948  -935  -899  -840  -765  -683  -607  -546  -508  -503  -520  -522  -482  -427  -400  -419  -480  -562  -646  -726  -786  -804  -747  -595  -398  -257  -212  -224  -248  -258  -225  -124  14  117  140  91  -4  -115  -192  -172  -45  127  263  311  306  350  471  574  563  417  213  67  18  21  30  45  92  181  261  264  192  121  101  110  90  25  -45  -87  -104  -115  -143  -191  -214  -153  -41  -7  -101  -250  -414  -571  -638  -568  -367  79  916  2100  3538  5118  6423  6905  6383  5044  3253  1522  345  -165  -346  -540  -757  -866  -861  -850  -900  -986  -1074  -1162  -1244  -1277  -1201  -1002  -759  -586  -531  -579  -702  -849  -949  -959  -885  -758  -627  -535  -508  -546  -617  -668  -655  -538  -278  102  477  696  710  553  293  21  -146  -97  195  598  919  1069  1089  1049  977  889  841  923  1207  1667  2141  2428  2402  2018  1381  779  471  551  992  1598  2030  2017  1489  651  -77  -423  -457  -368  -264  -179  -115  -68  -38  -33  -42  -7  148  419  690  855  894  795  532  186  -70  -149  -80  86  296  488  621  688  705  689  646  574  479  374  272]
