reading_id,reading_time,wire_id,result_classification,heart_rate,heart_rate_alert,firmware_version,device_app_version,hardware_version,waveform_samples
69b365f0-5723-11ed-8080-808080808080,Sat Oct 29 00:48:32 UTC 2022,e100e3fd2639,NSR,53,NONE,20001.171.50,2.10.0,Charge 5,[-7341  -7872  -8282  -8458  -8409  -8312  -8314  -8347  -8131  -7440  -6482  -5779  -5555  -5597  -5568  -5224  -4518  -3579  -2654  -2013  -1536  -760  391  1368  1682  1675  1986  2763  3873  4758  4532  3151  1571  740  1036  2277  3825  4734  4419  3515  3105  3323  3739  4208  4699  5099  5338  5403  5297  5052  4751  4502  4406  4500  4725  5015  5448  6146  6910  7262  7075  6865  7248  8343  9755  10923  11528  11674  11666  11668  11609  11308  10656  9800  9077  8685  8537  8461  8375  8302  8296  8353  8409  8424  8422  8473  8623  8847  9065  9211  9272  9240  9069  8819  8657  8620  8612  8580  8483  8262  7957  7718  7645  7695  7740  7646  7333  6821  6263  5859  5680  5616  5563  5553  5621  5656  5568  5487  5570  5775  5988  6158  6270  6284  6108  5679  5124  4695  4497  4475  4582  4826  5213  5675  6050  6151  5899  5405  4893  4529  4338  4260  4224  4229  4353  4661  5052  5331  5430  5426  5372  5252  5063  4855  4687  4568  4432  4255  4167  4272  4450  4548  4578  4638  4746  4783  4601  4196  3700  3279  3061  3092  3335  3657  3881  3928  3847  3731  3657  3641  3647  3629  3564  3482  3423  3335  3086  2644  2160  1809  1629  1570  1578  1602  1595  1551  1526  1542  1514  1368  1126  876  727  704  712  667  588  529  510  509  506  497  457  292  -82  -567  -951  -1177  -1319  -1409  -1431  -1366  -1227  -1079  -950  -816  -743  -843  -1099  -1366  -1507  -1536  -1587  -1707  -1810  -1823  -1748  -1634  -1511  -1399  -1388  -1505  -1592  -1575  -1571  -1624  -1672  -1672  -1635  -1598  -1590  -1599  -1586  -1518  -1430  -1397  -1434  -1503  -1550  -1516  -1402  -1328  -1390  -1558  -1734  -1848  -1888  -1851  -1708  -1468  -1230  -1081  -1018  -1003  -1028  -1081  -1116  -1081  -985  -911  -932  -1060  -1294  -1568  -1720  -1686  -1535  -1338  -1156  -1064  -1062  -1086  -1098  -1097  -1097  -1113  -1174  -1284  -1394  -1461  -1485  -1465  -1423  -1383  -1314  -1211  -1133  -1105  -1108  -1115  -1112  -1101  -1090  -1085  -1076  -1042  -976  -902  -848  -803  -741  -692  -793  -1160  -1680  -2077  -2229  -2194  -2012  -1688  -1324  -1089  -1087  -1331  -1746  -2173  -2463  -2517  -2178  -1347  -193  1041  2238  3210  3692  3587  3025  2177  1129  15  -928  -1610  -2087  -2300  -2145  -1757  -1485  -1527  -1723  -1850  -1866  -1821  -1742  -1646  -1562  -1501  -1447  -1372  -1234  -1005  -738  -550  -505  -601  -814  -1102  -1358  -1463  -1427  -1333  -1226  -1132  -1073  -1041  -1027  -1036  -1061  -1065  -974  -768  -560  -456  -400  -307  -183  -49  79  164  194  194  191  193  200  216  240  256  233  156  48  -44  -105  -160  -212  -237  -230  -208  -185  -171  -166  -172  -220  -350  -566  -813  -1013  -1126  -1162  -1147  -1090  -1003  -940  -929  -883  -751  -661  -680  -699  -665  -635  -635  -655  -666  -613  -451  -243  -168  -367  -774  -1148  -1331  -1365  -1356  -1349  -1339  -1276  -1103  -846  -643  -607  -701  -798  -816  -749  -642  -531  -422  -331  -311  -371  -477  -605  -740  -846  -870  -725  -334  230  739  1024  1085  943  588  139  -182  -316  -381  -453  -499  -494  -479  -489  -489  -447  -426  -521  -716  -873  -872  -696  -422  -144  124  379  552  613  599  551  482  400  313  213  92  -24  -126  -233  -314  -323  -243  -89  58  115  63  -46  -131  -168  -206  -281  -372  -407  -334  -193  -30  165  355  446  388  202  -59  -318  -495  -566  -529  -334  40  475  777  850  714  409  4  -356  -547  -546  -387  -136  99  228  229  113  -85  -282  -395  -419  -404  -388  -390  -423  -491  -569  -604  -513  -246  105  354  386  217  -58  -318  -499  -632  -734  -717  -525  -282  -132  -87  -85  -65  -3  65  92  33  -118  -293  -437  -545  -598  -609  -582  -445  -204  28  187  270  296  269  148  -111  -460  -743  -843  -813  -771  -728  -604  -408  -298  -325  -338  -228  -45  154  521  1315  2546  3916  4959  5120  4084  2162  231  -919  -1205  -1094  -1012  -1008  -974  -911  -872  -859  -857  -858  -865  -878  -883  -831  -665  -406  -168  -72  -140  -285  -403  -437  -390  -312  -259  -246  -254  -259  -268  -322  -439  -527  -457  -248  -65  0  -15  -27  28  185  391  534  563  524  503  575  754  987  1198  1320  1335  1273  1183  1107  1066  1059  1070  1090  1117  1135  1133  1114  1090  1061  1010  946  944  1035  1085  961  742  597  589  670  728  683  569  453  350  245  143  85  108  234  458  659  648  430  212  126  138  174  204  228  234  168  -27  -291  -460  -442  -283  -76  102  215  277  343  431  521  588  588  469  273  123  74  66  31  -55  -207  -442  -689  -791  -702  -528  -384  -295  -234  -161  -50  67  124  95  25  -14  3  48  82  113  163  238  305  296  164  -22  -127  -116  -70  -57  -79  -107  -119  -118  -122  -138  -139  -106  -76  -98  -173  -266  -362  -453  -493  -454  -384  -328  -273  -206  -148  -122  -122  -134  -171  -261  -390  -494  -535  -534  -534  -553  -551  -425  -104  288  491  375  67  -223  -405  -496  -532  -538  -532  -507  -437  -295  -114  23  76  67  32  -17  -94  -207  -328  -402  -424  -426  -415  -376  -294  -153  54  274  418  451  397  292  156  19  -61  -58  -16  28  90  183  255  189  -54  -347  -533  -573  -503  -350  -144  55  213  355  530  724  868  943  1001  1033  937  610  92  -396  -657  -677  -554  -395  -294  -260  -220  -198  -267  -366  -409  -397  -356  -227  172  966  1986  2871  3379  3573  3670  3701  3449  2700  1539  441  -141  -209  -24  109  -61  -437  -688  -696  -560  -404  -305  -277  -292  -310  -332  -382  -446  -477  -451  -391  -380  -485  -661  -798  -828  -758  -637  -495  -309  -82  114  223  240  205  173  160  114  -19  -209  -348  -372  -298  -192  -120  -107  -132  -151  -85  128  434  681  792  825  879  971  1035  1064  1107  1160  1168  1093  938  744  571  460  365  216  42  -75  -107  -71  -12  14  -16  -86  -128  -97  -11  88  182  243  254  212  116  -67  -382  -769  -1069  -1183  -1148  -1057  -947  -797  -572  -280  -12  105  42  -127  -339  -611  -927  -1146  -1130  -844  -384  55  309  337  136  -281  -774  -1127  -1267  -1286  -1269  -1207  -1038  -732  -357  -22  206  301  249  67  -189  -421  -536  -518  -420  -318  -255  -251  -329  -499  -703  -836  -838  -716  -537  -392  -316  -259  -138  88  346  474  385  134  -159  -411  -563  -590  -498  -314  -107  28  74  86  112  112  6  -180  -296  -275  -201  -161  -159  -173  -178  -144  -56  61  153  193  192  140  14  -150  -290  -418  -587  -740  -760  -653  -561  -573  -654  -726  -759  -773  -775  -714  -538  -295  -116  -62  -101  -178  -262  -349  -445  -520  -534  -512  -503  -502  -442  -271  -58  60  57  19  4  7  13  26  45  40  -48  -230  -416  -559  -696  -813  -850  -795  -684  -556  -423  -284  -142  7  140  214  218  157  16  -167  -309  -380  -394  -304  -25  396  765  952  1008  997  842  436  -115  -535  -708  -702  -530  -153  274  466  356  145  0  -57  -55  -20  13  1  -78  -201  -335  -472  -631  -792  -782  -397  358  1325  2323  3220  3981  4501  4568  4068  3034  1674  327  -742  -1272  -1157  -804  -593  -464  -353  -339  -449  -616  -749  -821  -871  -928  -958  -910  -762  -544  -331  -199  -208  -384  -667  -929  -1088  -1129  -1049  -863  -631  -429  -285  -173  -75  -1  32  29  1  -39  -58  -12  91  195  251  259  255  275  320  351  336  277  207  173  193  274  425  600  745  866  976  1071  1170  1273  1317  1222  981  705  531  484  498  516  521  516  509  504  508  523  536  498  353  103  -181  -420  -553  -551  -433  -273  -163  -129  -136  -148  -152  -151  -147  -142  -142  -147  -148  -126  -53  89  273  430  512  533  500  388  192  -15  -117  -67  55  158  213  233  234  214  161  84  25  5  12  27  43  62  97  156  246  366  486  564  592  592  570  520  451  396  366  339  273  155  23  -64  -90  -73  -21  70  177  253  279  273  251  212  159  108  82  68  13  -103  -193  -161  -89  -120  -224  -290  -301  -300  -322  -363  -393  -366  -257  -104  13  64  61  -6  -183  -462  -707  -746  -592  -424  -351  -346  -362  -390  -443  -519  -595  -644  -652  -607  -520  -437  -413  -417  -383  -328  -303  -307  -296  -234  -145  -96  -106  -111  -78  -91  -252  -511  -713  -787  -779  -747  -701  -624  -513  -403  -339  -327  -328  -332  -386  -539  -749  -904  -956  -952  -944  -946  -934  -875  -752  -579  -432  -388  -362  -221  -13  126  142  34  -134  -261  -301  -288  -260  -226  -172  -98  -23  22  13  -60  -183  -326  -452  -525  -543  -533  -518  -507  -506  -526  -597  -718  -792  -764  -651  -351  198  942  1914  3023  3832  3960  3477  2667  1782  1061  542  -4  -727  -1405  -1696  -1615  -1453  -1368  -1353  -1349  -1234  -906  -437  -54  124  183  229  254  159  -115  -504  -858  -1086  -1160  -1091  -911  -666  -452  -383  -435  -468  -389  -197  26  166  195  162  104  39  -6  -7  56  174  300  388  423  418  393  365  346  376  500  712  951  1150  1264  1295  1286  1259  1215  1163  1130  1115  1083  996  844  669  543  501  550  697  887  975  814  394  -90  -404  -475  -364  -150  74  209  213  118  0  -61  -51  -17  -22  -116  -272  -396  -444  -445  -424  -372  -284  -185  -110  -70  -51  -7  107  262  358  344  263  186  137  91  10  -107  -201  -223  -200  -168  -171  -243  -361  -489  -617  -723  -813  -930  -1044  -1042  -847  -548  -325  -249  -259  -283  -300  -313  -321  -312  -270  -219  -253  -454  -741  -932  -928  -760  -527  -322  -203  -176  -185  -196  -250  -369  -492  -568  -594  -578  -519  -435  -392  -422  -463  -467  -458  -462  -468  -455  -402  -297  -151  -5  87  47  -174  -486  -690  -689  -551  -373  -199  -46  66  149  226  301  350  305  86  -268  -603  -815  -905  -878  -706  -399  -81  108  157  132  73  -3  -74  -113  -121  -123  -138  -163  -182  -191  -202  -232  -272  -271  -187  -82  -86  -213  -349  -417  -453  -505  -555  -574  -572  -564  -544  -523  -529  -568  -588  -499  -309  -148  -91  -96  -105  -107  -135  -222  -346  -443  -481  -481  -465  -433  -357  -213  -11  222  447  590  601  482  248  -23  -218  -336  -483  -677  -817  -840  -790  -747  -740  -730  -693  -670  -738  -892  -909  -512  272  1149  1965  2798  3623  4270  4538  4139  2993  1546  364  -347  -681  -794  -914  -1273  -1655  -1593  -1182  -867  -761  -718  -667  -642  -664  -679  -627  -526  -428  -369  -364  -397  -430  -444  -446  -446  -443  -419  -362  -288  -231  -205  -197  -188  -158  -109  -72  -66  -76  -58  33  203  393  532  597  610  609  629  673  701  680  628  610  729  975  1189  1247  1179  1100  1072  1057  1024  987  967  983  1041  1109  1098  864  420  24  -184  -324  -427  -416  -287  -95  78  159  133  38  -59  -134  -215  -312  -390  -425  -410  -322  -152  -2  -21  -182  -268  -143  79  187  127  5  -98  -172  -209  -203  -174  -139  -102  -54  9  72  86  -29  -306  -575  -588  -357  -115  12  86  171  228  195  57  -180  -471  -703  -790  -702  -438  -80  219  377  390  241  -80  -463  -713  -723  -509  -184  102  271  316  265  169  88  53  57  77  100  125  140  130  79  -3  -87  -163  -242  -314  -347  -343  -341  -351  -323  -187  59  342  556  611  478  217  -58  -260  -360  -402  -452  -532  -607  -639  -586  -409  -149  71  160  141  94  71  73  79  73  46  19  37  92  110  23  -160  -358  -518  -657  -735  -648  -350  46  336  435  435  407  341  230  114  38  17  26  39  36  0  -78  -186  -278  -308  -278  -243  -234  -231  -189  -64  154  410  604  680  614  384  19  -360  -639  -785  -843  -841  -723  -430  -65  159  169  66  -39  -131  -242  -366  -452  -477  -473  -469  -468  -450  -396  -320  -257  -227  -235  -307  -463  -651  -771  -739  -537  -260  -57  9  -19  -95  -186  -268  -357  -489  -640  -735  -735  -670  -608  -665  -922  -1138  -838  120  1411  2661  3654  4199  4205  3765  2947  1749  411  -545  -890  -792  -437  -189  -480  -1044  -1234  -1021  -799  -724  -726  -738  -743  -754  -780  -813  -830  -795  -699  -629  -668  -727  -668  -519  -407  -393  -444  -495  -520  -533  -540  -503  -376  -191  -49  4  16  39  95  183  273  328  333  296  240  195  210  334  563  794  907  877  768  655  560  474  405  380  419  572  905  1345  1681  1760  1539  1055  504  137  21  39  75  90  84  64  37  11  -19  -49  -41  1  -43  -291  -640  -791  -548  -45  398  595  548  309  -28  -307  -410  -333  -148  38  156  207  195  76  -165  -451  -648  -666  -552  -442  -415  -438  -417  -270  -22  193  260  155  -51  -261  -412  -486  -495  -466  -415  -333  -213  -91  -49  -123  -267  -404  -444  -337  -142  69  293  509  652  647  425  -16  -548  -959  -1111  -1005  -733  -399  -89  131  236  228  115  -78  -287  -429  -480  -481  -476  -480  -484  -465  -415  -353  -307  -262  -180  -77  -30  -100  -263  -424  -512  -533  -537  -554  -575  -544  -362  11  398  504  307  67  -34  -28  -7  -43  -160  -318  -439  -487  -480  -447  -383  -294  -248  -301  -391  -431  -409  -365  -330  -304  -269  -233  -221  -232  -237  -224  -212  -200  -156  -78  -43  -140  -342  -489  -441  -251  -108  -85  -80  22  212  382  469  480  422  280  96  -39  -86  -79  -47  8  74  106  76  20  -13  -22  -25  -35  -33  25  162  286  280  177  110  156  298  450  559  642  673  554  241  -153  -440  -546  -548  -523  -452  -262  70  496  795  646  148  -249  -404  -252  496  1810  3275  4514  5111  4622  3115  1259  -269  -1131  -1291  -928  -333  168  332  177  -79  -274  -391  -517  -726  -965  -1061  -943  -769  -770  -949  -1075  -981  -738  -516  -394  -354  -374  -464  -621  -787  -892  -898  -784  -564  -322  -155  -72  -31  14  90  163  197  205  206  195  179  208  345  554  715  772  762  727  664  581  505  458  451  484  536  579  601  624  680  772  892  1039  1162  1165  1025  810  605  469  419  412  376  250  25  -228  -413  -488  -487  -456  -385  -233  -35  115  182  194  181  152  111  95  119  123  118  162  208  198  142  65  -10  -79  -152  -189  -143  -28  104  195  205  166  107  5  -141  -289  -381  -393  -356  -321  -308  -312  -317  -314  -317  -336  -355  -352  -319  -298  -341  -429  -505  -554  -608  -687  -732  -690  -598  -502  -393  -270  -176  -136  -156  -263  -477  -735  -907  -916  -760  -505  -231  3  164  238  252  245  213  104  -78  -175  -40  255  536  711  771  697  458  114  -183  -393  -612  -860  -1031  -1077  -1058  -1031  -999  -919  -738  -445  -127  87  161  149  88  -23  -155  -238  -260  -307  -467  -708  -880  -829  -510  -68  239  279  100  -157  -390  -601  -814  -962  -940  -699  -331  -34  85  44  -113  -308  -511  -756  -986  -1105  -1133  -1137  -1144  -1138  -1068  -897  -677  -508  -427  -385  -321  -230  -132  -19  117  240  290  264  225  213  192  109  -36  -188  -288  -323  -324  -317  -301  -276  -254  -234  -195  -139  -94  -79  -86  -71  0  29  -159  -461  -537  -235  458  1496  2512  3101  3204  2798  1892  941  453  417  505  469  281  65  -81  -153  -138  -1  207  351  342  183  -38  -172  -141  -45  -29  -121  -231  -270  -240  -196  -159  -97  12  123  166  135  85  56  51  81  161  263  303  216  27  -158  -258  -254  -160  -9  142  257  330  364  363  339  324  387  590  876  1047  969  761  683  796  898  838  706  663  756  912  1026  1042  975  881  821  815  826  783  632  413  229  118  13  -151  -306  -308  -162  -23  27  27  25  12  -58  -218  -429  -599  -658  -615  -544  -512  -501  -460  -357  -172  101  430  735  914  902  715  459  278  236  291  375  438  459  415  287  103  -59  -155  -196  -209  -220  -240  -265  -267  -213  -96  46  173  295  433  520  482  355  224  103  -61  -285  -502  -638  -686  -682  -636  -519  -310  -54  161  287  293  155  -91  -366  -597  -708  -614  -262  222  566  582  284  -139  -453  -562  -506  -338  -125  38  109  120  129  163  202  201  127  -7  -157  -300  -427  -510  -533  -516  -476  -386  -201  41  213  226  92  -90  -214  -251  -248  -235  -190  -96  16  109  142  51  -152  -374  -570  -747  -860  -853  -725  -549  -426  -389  -400  -422  -438  -432  -378  -284  -230  -297  -464  -645  -783  -860  -876  -841  -783  -731  -682  -590  -432  -250  -125  -88  -100  -117  -140  -223  -420  -688  -883  -839  -461  148  711  1009  1006  775  472  253  148  103  95  120  148  142  110  104  148  196  187  83  -143  -436  -668  -781  -802  -733  -550  -262  92  479  748  600  7  -528  -505  166  1398  2932  4230  4875  4833  4196  3145  2041  1165  517  -26  -484  -753  -763  -567  -349  -267  -307  -386  -453  -484  -473  -440  -405  -371  -341  -307  -249  -157  -53  35  91  122  149  187  219  211  157  96  81  140  270  436  584  674  729  814  938  1042  1092  1103  1096  1061  983  875  750  614  521  556  714  904  1042  1111  1145  1199  1296  1397  1433  1350  1127  824  585  489  496  556  635  693  718  725  715  662  544  397  281  204  92  -140  -448  -668  -702  -582  -414  -300  -276  -310  -355  -387  -428  -518  -640  -732  -772  -789  -791  -719  -512  -225  -13  37  -50  -218  -425  -627  -773  -834  -828  -823  -910  -1044  -1058  -917  -757  -672  -639  -616  -611  -656  -775  -939  -1059  -1054  -911  -706  -530  -395  -272  -188  -226  -416  -661  -837  -923  -957  -959  -942  -940  -1001  -1151  -1312  -1379  -1354  -1290  -1213  -1127  -988  -771  -564  -444  -388  -361  -346  -344  -380  -479  -608  -667  -586  -404  -240  -193  -305  -566  -886  -1100  -1061  -733  -262  67  27  -419  -1056  -1511  -1556  -1203  -652  -196  -15  -100  -384  -790  -1184  -1429  -1495  -1427  -1252  -1008  -762  -573  -474  -476  -570  -711  -829  -902  -963  -1011  -991  -866  -680  -557  -616  -881  -1215  -1444  -1541  -1552  -1491  -1392  -1282  -1158  -1039  -963  -948  -977  -1030  -1110  -1206  -1277  -1280  -1201  -1078  -992  -998  -1095  -1232  -1340  -1372  -1332  -1249  -1118  -917  -719  -612  -610  -690  -779  -804  -781  -765  -755  -689  -507  -278  -179  -296  -573  -923  -1265  -1515  -1605  -1540  -1400  -1233  -957  -527  -72  304  667  1169  1929  2924  3975  4677  4550  3525  1981  440  -632  -1073  -1057  -804  -461  -208  -186  -370  -603  -738  -694  -468  -176  26  68  -12  -149  -298  -419  -477  -455  -332  -96  192  416  489  376  119  -132  -269  -320  -343  -345  -301  -180  41  328  585  746  823  851  860  877  911  946  965  968  968  972  991  1063  1247  1522  1774  1940  2073  2198  2207  1976  1549  1134  905  865  928  1016  1052  986  870  816  880  1005  1100  1135  1125  1073  960  805  674  609  598  589  553  519  548  652  756  774  757  811  936  1072  1158  1120  971  825  765  778  795  760  687  620  576  545  487  404  371  382  391  438  502  487  395  304  271  301  348  371  370  372  393  415  411  388  372  372  372  371  405  486  526  407  170  -12  -65  -38  16  82  132  102  -19  -118  -111  -65  -30  19  72  63  -28  -141  -189  -158  -108  -83  -73  -59  -41  -23  -2  20  41  60  71  73  70  68  75  99  132  157  159  137  102  64  25  -16  -33  7  93  160  136  -10  -241  -484  -676  -743  -599  -248  158  420  434  196  -206  -593  -807  -800  -577  -194  166  268  21  -416  -781  -953  -974  -849  -527  -70  374  777  1160  1383  1143  242  -1002  -1911  -2132  -1815  -1271  -761  -411  -224  -163  -179  -204  -156  -9  97  -30  -328  -427  32  1019  1980  2260  1587  100  -1578  -2519  -2346  -1506  -639  -157  -90  -147  -99  43  195  303  345  337  321  333  370  401  397  354  307  278  258  234  195  148  146  236  373  441  376  204  -29  -315  -614  -822  -822  -508  152  1037  1916  2609  3089  3400  3487  3243  2698  2057  1506  1043  575  98  -313  -621  -814  -878  -858  -831  -835  -843  -774  -565  -279  -68  19  56  90  102  70  8  -55  -107  -165  -221  -222  -161  -101  -76  -56  -24  9  41  84  128  125  21  -170  -347  -412  -317  -70  207  362  382  353  329  310  296  328  469  715  963  1108  1141  1115  1076  1043  1021  1006  1004  1025  1069  1091  1000  775  528  379  335  347  380  401  364  243  68  -96  -218  -323  -427  -506  -533  -479  -326  -135  -46  -136  -325  -467  -505  -480  -445  -426  -444  -529  -678  -823  -883  -839  -743  -663  -633  -655  -728  -824  -898  -928  -926  -914  -904  -897  -890  -887  -875  -816  -675  -465  -269  -185  -232  -366  -514  -603  -620  -614  -613  -583  -441  -138  208  353  185  -121  -300  -262  -126  8  141  251  299  299  288  277  259  228  197  176  152  97  -11  -156  -258  -239  -82  157  374  485  487  409  282  141  24  -32  -33  -33  -70  -150  -302  -551  -823  -947  -803  -434  0  386  681  831  756  446  70  -127  -103  0  85  135  162  182  200  227  278  345  414  482  540  572  555  464  310  155  65  72  202  447  718  917  1021  1040  931  632  197  -223  -545  -768  -891  -915  -871  -799  -738  -703  -701  -750  -863  -1004  -1104  -1140  -1144  -1140  -1105  -1002  -840  -681  -591  -582  -643  -814  -1121  -1452  -1605  -1493  -1234  -1021  -954  -1020  -1174  -1359  -1502  -1552  -1467  -1219  -886  -618  -482  -475  -607  -822  -987  -1036  -1005  -943  -867  -783  -743  -793  -908  -1033  -1147  -1245  -1309  -1311  -1263  -1199  -1121  -997  -789  -506  -266  -171  -181  -219  -134  318  1179  2254  3389  4452  5046  4596  2973  681  -1548  -2973  -3221  -2635  -1784  -1025  -540  -303  -132  58  196  174  -36  -337  -564  -650  -658  -646  -601  -472  -268  -59  91  172  232  334  476  613  746  875  945  936  870  718  405  -141  -817  -1301  -1330  -854  -65  656  1042  1132  1105  1083  1092  1124  1160  1175  1143  1041  901  796  784  871  1024  1225  1480  1681  1617  1254  856  747  1053  1619  2136  2402  2346  1878  1012  94  -464  -580  -425  -158  164  528  857  992  835  463  68  -191  -264  -158  78  339  494  459  217  -130  -407  -512  -450  -245  49  321  473  481  377  235  135  97  84  79  110  196  283  281  190  99  84  152  266  375  453  492  488  437  330  198  105  83  107  125  65  -129  -397  -598  -669  -650  -579  -476  -378  -323  -317  -336  -349  -308  -173  18  162  175  59  -104  -219  -253  -242  -229  -237  -277  -339  -400  -446  -461  -433  -379  -333  -322  -352  -407  -461  -501  -524  -502  -395  -205  -18  71  42  -56  -157  -228  -278  -319  -350  -400  -516  -678  -796  -797  -681  -515  -386  -329  -324  -343  -374  -418  -481  -563  -653  -743  -823  -892  -952  -1007  -1049  -1080  -1097  -1061  -909  -667  -490  -487  -579  -637  -627  -585  -549  -530  -520  -522  -556  -641  -759  -855  -895  -885  -825  -666  -363  -9  177  64  -247  -536  -674  -692  -678  -679  -688  -692  -701  -740  -794  -811  -759  -652  -514  -375  -279  -249  -282  -376  -494  -561  -519  -380  -208  -57  63  169  269  351  395  387  319  213  111  4  -140  -297  -403  -439  -451  -501  -613  -765  -896  -911  -745  -457  -153  176  568  919  1213  1610  2150  2728  3309  3785  3857  3284  2123  704  -507  -1128  -1136  -887  -718  -688  -705  -706  -687  -650  -579  -458  -319  -225  -196  -196  -232  -346  -506  -618  -639  -590  -515  -418  -268  -78  85  183  232  256  261  252  244  240  194  44  -172  -309  -252  -27  234  443  619  782  886  908  892  882  900  956  1050  1164  1259  1302  1287  1236  1187  1167  1177  1202  1223  1219  1182  1122  1063  1017  981  953  927  896  835  717  548  361  163  -36  -205  -318  -351  -304  -235  -188  -166  -179  -219  -256  -274  -274  -262  -250  -247  -252  -254  -244  -235  -250  -277  -283  -258  -228  -219  -232  -250  -268  -295  -320  -311  -250  -158  -91  -102  -211  -387  -559  -662  -663  -575  -440  -282  -128  -32  -31  -111  -221  -307  -337  -261  -27  298  530  507  198  -245  -592  -761  -847  -896  -839  -651  -465  -431  -536  -646  -677  -652  -631  -636  -622  -550  -440  -357  -355  -420  -484  -515  -536  -570  -615  -658  -685  -685  -673  -671  -675  -647  -552  -421  -339  -361  -447  -464  -325  -111  36  89  95  67  -52  -293  -572  -762  -820  -759  -589  -358  -152  0  109  128  -27  -349  -688  -891  -925  -834  -669  -491  -369  -324  -315  -288  -238  -220  -239  -207  -89  29  87  103  87  2  -186  -432  -636  -733  -731  -684  -631  -566  -479  -389  -344  -376  -457  -541  -601  -597  -441  -51  471  841  835  450  -88  -480  -618  -611  -559  -452  -250  -18  84  8  -96  -86  -10  15  -12  -36  -38  -29  -39  -100  -217  -343  -420  -426  -373  -306  -277  -297  -331  -357  -389  -421  -371  -97  491  1337  2224  2864  3131  3099  2854  2426  1865  1279  731  150  -420  -765  -893  -1026  -1226  -1386  -1316  -854  -28  867  1319  903  -156  -1040  -1269  -1026  -610  -304  -290  -346  -192  98  329  345  32  -544  -1106  -1399  -1331  -920  -341  122  337  396  432  506  613  718  799  852  877  876  866  859  849  816  758  708  707  791  984  1233  1437  1573  1679  1718  1602  1356  1137  1044  1047  1092  1151  1188  1169  1087  977  883  769  587  384  199  13  -121  -153  -139  -124  -98  -63  -43  -42  -57  -79  -100  -115  -112  -72  12  115  190  210  170  66  -104  -337  -569  -690  -634  -452  -249  -81  53  144  154  87  -17  -130  -233  -314  -368  -377  -318  -203  -63  52  87  76  76  35  -82  -203  -266  -283  -279  -260  -228  -198  -190  -191  -150  -18  193  403  543  581  434  12  -559  -978  -1084  -939  -680  -441  -298  -241  -229  -245  -292  -358  -397  -368  -278  -191  -159  -147  -91  -3  68  116  151  152  35  -274  -686  -982  -1053  -954  -779  -589  -405  -246  -143  -113  -146  -203  -243  -256  -255  -250  -240  -225  -226  -298  -482  -720  -899  -941  -812  -511  -149  87  115  -27  -232  -352  -315  -196  -101  -66  -72  -89  -99  -103  -111  -120  -111  -69  -1  61  90  51  -70  -197  -231  -185  -138  -126  -135  -143  -149  -173  -231  -345  -537  -750  -872  -881  -846  -824  -830  -836  -791  -655  -416  -127  99  207  238  237  184  35  -176  -346  -423  -450  -513  -658  -812  -845  -699  -418  -109  127  282  408  522  586  581  534  484  449  410  326  177  -4  -151  -248  -355  -521  -669  -661  -497  -325  -238  -206  -188  -219  -328  -324  71  781  1482  2098  2777  3537  4196  4419  3896  2707  1334  207  -546  -965  -1129  -1088  -863  -553  -331  -307  -468  -698  -864  -903  -836  -703  -553  -437  -395  -410  -401  -334  -263  -229  -218  -217  -240  -307  -388  -407  -320  -157  16  167  288  378  439  470  465  424  379  363  359  327  263  206  206  282  395  492  551  588  646  763  935  1120  1252  1285  1274  1293  1325  1321  1260  1142  1013  938  917  915  917  921  919  869  726  495  249  74  -6  -38  -70  -117  -183  -294  -468  -665  -802  -813  -705  -552  -404  -279  -218  -222  -247  -275  -302  -299  -249  -180  -135  -124  -126  -133  -167  -264  -416  -568  -667  -698  -676  -633  -575  -502  -440  -383  -289  -185  -148  -198  -271  -311  -319  -318  -305  -259  -174  -85  -45  -71  -131  -195  -262  -339  -412  -441  -387  -284  -232  -259  -316  -351  -332  -270  -220  -212  -257  -319  -291  -148  3  84  104  86  25  -95  -246  -355  -391  -389  -378  -362  -335  -316  -338  -410  -495  -536  -476  -260  110  516  765  720  362  -155  -585  -808  -867  -831  -736  -627  -560  -542  -520  -434  -304  -218  -220  -246  -213  -123  -31  20  35  9  -117  -400  -742  -932  -877  -687  -517  -404  -308  -224  -175  -151  -121  -76  -31  0  17  23  37  77  153  238  258  136  -125  -381  -483  -524  -671  -889  -1064  -1161  -1164  -1006  -628  -139  221  345  291  131  -85  -302  -476  -564  -548  -480  -434  -446  -503  -567  -632  -723  -827  -888  -871  -782  -660  -535  -394  -259  -200  -230  -270  -251  -186  -115  -57  -26  -24  -33  -32  -41  -90  -162  -211  -229  -258  -352  -512  -666  -742  -684  -465  -156  94  186  49  -386  -1010  -1475  -1484  -964  -57  930  1776  2477  3039  3405  3557  3415  2816  1780  637  -240  -734  -858  -655  -371  -338  -572  -822  -943  -975  -980  -965  -877  -659  -341  -54  58  -61  -341  -624  -792  -818  -698  -422  -68  222  384  455  485  474  374  154  -114  -305  -367  -335  -229  -24  235  442  550  590  597  606  648  720  795  844  859  857  848  836  830  858  955  1108  1266  1382  1432  1398  1283  1164  1154  1290  1515  1741  1880  1840  1553  1083  651  430  398  442  474  436  292  82  -92  -168  -163  -127  -122  -212  -378  -501  -489  -362  -210  -110  -71  -65  -63  -55  -34  -10  -9  -47  -107  -154  -196  -262  -341  -401  -441  -484  -526  -558  -583  -586  -505  -290  -8  196  271  272  233  124  -68  -280  -425  -479  -476  -442  -375  -269  -150  -64  -30  -28  -41  -71  -136  -228  -314  -381  -441  -499  -543  -569  -576  -547  -449  -280  -107  -32  -89  -187  -229  -210  -189  -216  -282  -336  -355  -369  -409  -467  -506  -507  -485  -463  -441  -396  -308  -196  -123  -134  -178  -176  -117  -60  -106  -302  -535  -646  -629  -583  -568  -572  -538  -430  -289  -187  -120  -29  104  251  374  407  258  -78  -490  -821  -984  -1012  -981  -919  -831  -731  -667  -676  -725  -723  -623  -460  -277  -92  69  175  227  229  115  -182  -547  -726  -655  -558  -654  -886  -1029  -977  -834  -708  -579  -434  -325  -286  -311  -385  -482  -561  -596  -580  -509  -401  -292  -197  -109  -26  25  0  -126  -321  -489  -573  -588  -572  -531  -445  -294  -117  0  24  10  55  222  447  550  407  84  -231  -411  -458  -457  -486  -575  -723  -924  -1144  -1312  -1365  -1232  -834  -234  269  482  665  1186  2029  2920  3580  3826  3618  3041  2235  1285  222  -816  -1588  -1884  -1661  -1115  -592  -340  -340  -419  -476  -506  -509  -475  -416  -358  -316  -298  -322  -405  -524  -622  -662  -637  -553  -441  -361  -363  -456  -597  -695  -642  -373  32  390  567  554  439  339  299  285  265  258  318  481  742  1025  1206  1189  957  611  322  195  239  446  759  1041  1182  1194  1147  1107  1126  1191  1266  1350  1431  1462  1415  1273  1052  804  571  369  213  124  96  100  110  101  51  -32  -111  -154  -167  -169  -177  -200  -236  -261  -254  -218  -163  -105  -66  -55  -59  -64  -51  -7  52  93  98  81  59  21  -41  -103  -153  -207  -243  -219  -158  -85  19  139  219  242  233  214  185  148  99  26  -64  -139  -181  -197  -205  -223  -254  -284  -288  -259  -223  -208  -216  -232  -243  -242  -229  -211  -198  -195  -203  -225  -264  -318  -364  -373  -326  -221  -70  84  185  196  96  -117  -393  -605  -642  -536  -421  -376  -384  -399  -380  -302  -188  -97  -60  -64  -91  -140  -207  -286  -373  -452  -502  -519  -518  -509  -493  -469  -442  -408  -354  -276  -203  -137  -44  73  174  229  245  248  252  243  206  137  24  -153  -344  -421  -334  -178  -96  -144  -241  -286  -252  -170  -96  -53  -14  24  35  13  -13  -13  12  20  -78  -353  -733  -1024  -1092  -899  -487  -21  283  330  121  -283  -715  -971  -969  -750  -451  -244  -226  -381  -607  -776  -803  -650  -339  9  217  138  -275  -860  -1292  -1324  -889  -131  594  1002  1096  996  731  334  -71  -359  -509  -575  -584  -526  -417  -328  -320  -382  -424  -362  -189  8  133  170  166  152  121  56  -22  9  379  1192  2186  2929  3229  3108  2563  1691  826  220  -179  -472  -633  -668  -646  -599  -512  -481  -718  -1170  -1414  -1229  -890  -716  -624  -338  226  980  1628  1576  563  -786  -1674  -1845  -1413  -627  116  463  382  117  -93  -194  -232  -214  -59  292  744  1107  1291  1337  1271  1046  646  209  -57  -47  211  569  843  963  979  953  956  1066  1297  1567  1776  1865  1820  1647  1412  1213  1074  975  914  853  733  572  459  423  408  356  261  134  -38  -239  -385  -420  -354  -239  -176  -234  -369  -486  -543  -555  -563  -590  -618  -607  -527  -398  -263  -132  -6  82  121  126  87  -30  -232  -470  -683  -813  -824  -731  -601  -514  -487  -490  -496  -507  -537  -595  -691  -821  -919  -923  -874  -854  -855  -783  -560  -260  -80  -129  -327  -531  -659  -690  -619  -472  -321  -233  -223  -260  -307  -354  -428  -530  -570  -473  -291  -108  6  -12  -142  -256  -275  -223  -184  -199  -232  -271  -388  -643  -958  -1162  -1130  -850  -465  -186  -95  -130  -216  -297  -303  -191  -15  116  163  163  161  173  196  215  218  196  115  -67  -307  -492  -576  -600  -598  -533  -353  -97  122  251  267  136  -91  -267  -293  -182  -17  109  155  107  -49  -263  -425  -485  -479  -454  -416  -340  -208  -59  34  39  -29  -124  -200  -245  -271  -265  -179  -23  60  -45  -267  -453  -535  -537  -519  -541  -641  -788  -892  -874  -717  -493  -305  -178  -86  -18  34  99  175  233  265  279  278  255  204  123  20  -92  -200  -283  -317  -287  -214  -129  -59  -13  16  26  -15  -135  -301  -437  -500  -513  -520  -517  -448  -356  -310  -177  179  752  1580  2601  3544  4084  3959  3224  2184  1024  -56  -760  -990  -834  -390  87  237  -10  -402  -733  -985  -1164  -1193  -1019  -740  -536  -480  -512  -557  -579  -549  -438  -256  -64  63  44  -166  -475  -699  -761  -700  -518  -175  243  538  630  590  504  423  375  364  369  375  375  364  342  313  303  380  600  894  1105  1164  1124  1059  1013  992  982  967  951  979  1126  1400  1681  1808  1730  1515  1264  1042  893  829  802  749  655  515  288  -13  -289  -460  -524  -518  -484  -453  -444  -448  -455  -459  -459  -456  -453  -468  -514  -582  -630  -620  -543  -435  -356  -322  -307  -304  -349  -481  -668  -802  -807  -686  -508  -359  -270  -226  -188  -103  41  192  285  302  264  186  77  -49  -174  -276  -336  -352  -330  -276  -206  -152  -141  -194  -321  -485  -615  -665  -621  -481  -277  -80  63  148  164  93  -50  -197  -283  -308  -292  -233  -108  57  190  249  252  224  163  56  -90  -274  -519  -777  -874  -676  -289  -22  -100  -415  -662  -684  -563  -427  -305  -184  -74  4  51  58  -13  -204  -476  -716  -845  -865  -769  -540  -255  -69  -44  -102  -140  -111  -44  10  38  46  26  -49  -181  -327  -438  -493  -498  -460  -367  -214  -52  20  -57  -236  -413  -522  -555  -533  -482  -426  -378  -342  -322  -316  -314  -313  -310  -302  -283  -261  -248  -250  -245  -196  -91  27  103  123  109  62  -34  -160  -253  -281  -254  -185  -81  28  102  128  129  129  135  135  99  -14  -190  -344  -428  -469  -500  -534  -593  -659  -605  -281  179  398  206  -155  -258  138  959  2082  3292  4063  4030  3223  1804  249  -743  -1014  -877  -596  -418  -472  -617  -729  -786  -776  -727  -688  -672  -669  -682  -722  -785  -827  -769  -555  -249  -7  81  14  -191  -459  -655  -713  -647  -480  -242  9  223  384  501  570  574  497  367  306  397  565  692  740  716  629  495  350  263  322  571  911  1158  1236  1206  1147  1095  1065  1064  1115  1271  1570  1931  2182  2181  1867  1301  657  98  -224  -149  272  726  955  939  748  425  34  -309  -523  -572  -474  -319  -231  -242  -294  -358  -467  -608  -711  -750  -777  -829  -857  -801  -666  -491  -310  -159  -69  -46  -55  -51  -1  84  142  128  57  -30  -103  -163  -230  -294  -322  -309  -272  -235  -203  -167  -134  -118  -117  -118  -118  -120  -126  -132  -135  -136  -137  -140  -140  -142  -157  -199  -286  -416  -543  -617  -641  -650  -659  -623  -468  -162  197  457  567  572  480  267  -7  -216  -287  -205  30  334  538  555  418  161  -197  -556  -769  -773  -610  -392  -240  -201  -236  -291  -325  -299  -192  -38  87  133  68  -136  -432  -681  -783  -738  -579  -348  -132  -51  -155  -349  -451  -339  -47  264  436  373  57  -387  -735  -879  -871  -765  -574  -362  -252  -341  -646  -1107  -1550  -1721  -1468  -907  -338  26  183  200  125  5  -103  -171  -198  -196  -154  -55  69  148  144  75  -41  -219  -437  -617  -682  -627  -515  -425  -391  -394  -404  -396  -361  -311  -274  -262  -266  -261  -219  -74  290  806  1166  1343  1649  2189  2825  3378  3555  3081  1981  646  -454  -1158  -1418  -1162  -675  -401  -366  -366  -329  -278  -237  -220  -218  -215  -199  -176  -158  -153  -159  -173  -181  -152  -54  92  234  339  384  341  201  -14  -202  -204  5  295  531  660  715  762  821  845  800  725  704  772  864  892  845  784  748  743  788  933  1209  1545  1793  1879  1837  1740  1637  1544  1452  1337  1161  894  585  343  220  184  182  187  200  243  316  386  427  447  461  459  387  201  -51  -265  -404  -530  -678  -792  -832  -841  -828  -760  -636  -476  -310  -184  -102  -29  50  114  83  -122  -440  -717  -864  -877  -793  -676  -567  -470  -390  -341  -315  -285  -244  -216  -226  -279  -351  -396  -382  -320  -234  -154  -108  -112  -165  -246  -341  -461  -597  -699  -734  -697  -592  -457  -357  -319  -318  -347  -423  -540  -654  -710  -692  -609  -466  -296  -176  -146  -173  -212  -244  -260  -260  -262  -287  -347  -415  -430  -364  -258  -151  -55  8  16  -38  -140  -242  -300  -317  -332  -362  -380  -358  -316  -279  -240  -194  -158  -159  -209  -299  -394  -457  -470  -438  -411  -459  -603  -740  -712  -510  -271  -95  8  48  15  -111  -309  -487  -580  -596  -571  -515  -425  -313  -199  -126  -142  -250  -398  -512  -523  -378  -75  285  548  630  514  197  -219  -550  -719  -781  -800  -784  -711  -567  -386  -234  -142  -61  69  228  347  414  470  538  603  646  664  667  653  592  445  202  -118  -464  -738  -867  -845  -713  -538  -405  -347  -356  -414  -478  -500  -375  61  786  1620  2527  3452  4152  4428  4174  3320  2023  688  -333  -974  -1291  -1342  -1239  -1036  -727  -433  -280  -239  -239  -259  -307  -374  -425  -420  -347  -241  -164  -138  -141  -147  -147  -145  -153  -183  -229  -271  -299  -326  -362  -389  -364  -236  0  267  466  568  593  564  486  343  124  -116  -265  -189  198  791  1302  1538  1524  1357  1113  867  693  677  874  1205  1494  1643  1676  1619  1449  1181  902  664  464  337  360  527  712  798  786  741  660  489  250  27  -149  -269  -282  -200  -134  -167  -293  -469  -665  -838  -940  -962  -921  -807  -614  -405  -308  -392  -590  -794  -955  -1059  -1063  -910  -581  -162  183  360  373  216  -121  -537  -852  -980  -952  -818  -641  -514  -507  -596  -688  -706  -627  -463  -260  -87  4  18  -5  -37  -75  -122  -181  -245  -302  -338  -359  -371  -379  -382  -376  -342  -265  -160  -76  -33  -13  2  17  39  71  92  75  14  -79  -177  -242  -257  -232  -184  -125  -65  -21  -5  -14  -40  -79  -118  -152  -204  -275  -345  -393  -407  -394  -380  -388  -413  -438  -453  -462  -454  -370  -155  146  409  532  460  168  -255  -598  -723  -669  -551  -463  -433  -465  -562  -695  -786  -742  -526  -224  -5  49  -24  -152  -265  -306  -253  -119  33  133  163  154  117  37  -97  -254  -374  -438  -471  -501  -527  -500  -358  -93  208  420  487  431  272  55  -134  -228  -188  -19  199  363  423  401  345  265  143  -5  -124  -186  -219  -256  -303  -348  -384  -396  -318  -28  456  891  1171  1514  2126  3030  4015  4618  4420  3275  1505  -116  -998  -1076  -603  23  472  546  206  -276  -572  -633  -591  -544  -509  -464  -391  -301  -222  -173  -157  -170  -213  -282  -341  -359  -345  -336  -346  -356  -333  -260  -133  55  260  398  441  433  410  378  330  280  259  273  299  314  326  373  510  751  1007  1167  1215  1207  1190  1181  1181  1183  1178  1159  1129  1095  1046  973  883  793  726  693  683  686  705  737  734  623  402  169  23  -26  -20  12  61  110  140  91  -120  -485  -845  -1041  -1052  -939  -784  -654  -565  -498  -439  -381  -318  -258  -218  -203  -202  -206  -217  -237  -264  -276  -217  -40  202  380  439  420  367  279  168  118  186  284  292  189  47  -22  48  235  450  619  721  780  796  697  403  -2  -312  -442  -470  -468  -430  -339  -234  -195  -236  -281  -292  -278  -230  -113  58  166  120  -12  -169  -392  -667  -856  -840  -606  -278  -37  43  5  -108  -270  -426  -491  -391  -168  36  136  155  134  65  -72  -238  -372  -460  -506  -498  -457  -432  -447  -493  -536  -556  -562  -567  -573  -581  -580  -541  -433  -276  -157  -149  -245  -367  -446  -472  -469  -439  -367  -275  -237  -317  -502  -696  -811  -822  -742  -591  -394  -192  -31  58  86  85  78  87  122  165  149  -11  -327  -679  -896  -884  -649  -293  22  211  294  325  326  279  174  34  -98  -198  -258  -286  -287  -265  -240  -233  -250  -290  -307  -227  -78  -50  -264  -581  -754  -613  -129  619  1592  2661  3498  3865  3722  3036  1927  815  44  -364  -522  -598  -785  -1056  -1211  -1196  -1093  -936  -751  -613  -550  -524  -494  -433  -298  -84  128  249  251  149  -26  -238  -432  -543  -552  -512  -442  -288  -28  271  522  654  640  540  456  412  356  252  113  -21  -99  -61  111  353  557  698  805  879  911  916  925  996  1173  1407  1586  1655  1627  1513  1322  1086  864  743  756  837  903  896  747  420  12  -314  -503  -598  -637  -647  -668  -725  -780  -750  -593  -358  -172  -163  -318  -508  -646  -714  -740  -781  -836  -868  -882  -903  -932  -960  -972  -954  -899  -809  -693  -519  -304  -169  -188  -291  -353  -326  -263  -228  -224  -230  -228  -219  -227  -312  -508  -715  -775  -684  -541  -398  -280  -206  -163  -140  -144  -183  -256  -357  -484  -611  -698  -713  -640  -478  -253  -35  99  142  128  43  -158  -427  -623  -672  -614  -521  -442  -377  -309  -248  -197  -140  -82  -46  -47  -104  -230  -417  -622  -781  -859  -841  -701  -451  -154  87  144  -62  -439  -773  -936  -961  -912  -804  -648  -493  -383  -332  -345  -399  -445  -451  -427  -407  -417  -447  -484  -520  -542  -536  -493  -421  -332  -219  -68  110  272  371  334  45  -519  -1142  -1548  -1666  -1548  -1185  -589  30  392  404  178  -137  -462  -732  -829  -644  -214  242  513  553  435  243  50  -88  -154  -167  -151  -134  -163  -278  -441  -558  -587  -561  -504  -407  -326  -420  -693  -821  -524  30  532  1021  1734  2719  3742  4362  4184  3174  1657  160  -798  -1041  -772  -300  104  232  48  -277  -549  -690  -720  -684  -607  -504  -385  -238  -76  36  75  70  48  15  -1  46  140  195  185  164  182  246  295  252  97  -126  -340  -445  -328  81  644  1068  1214  1130  890  594  380  310  367  522  715  850  890  880  874  899  951  1017  1115  1282  1495  1689  1854  1999  2055  1919  1583  1200  947  850  828  813  768  675  557  464  420  410  415  421  382  233  -25  -297  -495  -616  -702  -747  -659  -351  75  380  440  312  128  -1  -51  -60  -78  -141  -242  -323  -352  -349  -345  -354  -370  -364  -320  -269  -245  -243  -221  -146  -40  43  81  91  89  92  124  198  270  264  173  53  -68  -211  -358  -456  -487  -482  -468  -417  -266  -12  240  387  421  379  285  167  76  45  89  216  374  464  439  357  279  171  -42  -317  -509  -553  -507  -440  -377  -327  -307  -326  -363  -394  -412  -421  -422  -418  -409  -397  -396  -438  -550  -704  -825  -860  -800  -650  -443  -264  -195  -260  -418  -584  -677  -660  -536  -353  -164]
