reading_id,reading_time,wire_id,result_classification,heart_rate,heart_rate_alert,firmware_version,device_app_version,hardware_version,waveform_samples
12cd6660-5812-11ed-8080-808080808080,Sun Oct 30 05:16:56 UTC 2022,e100e3fd2639,NSR,75,NONE,20001.171.50,2.10.0,Charge 5,[-1575  -3623  -4853  -5265  -5322  -5283  -5151  -4923  -4680  -4479  -4301  -4130  -3995  -3919  -3894  -3895  -3897  -3882  -3859  -3844  -3807  -3675  -3411  -3038  -2653  -2404  -2332  -2332  -2270  -2090  -1875  -1765  -1765  -1773  -1752  -1738  -1754  -1786  -1811  -1813  -1788  -1756  -1761  -1803  -1797  -1713  -1661  -1723  -1794  -1748  -1645  -1550  -1296  -517  1045  3215  5649  8060  9881  10583  10186  8764  6392  3646  1175  -530  -1176  -1161  -1117  -1134  -1142  -1246  -1438  -1588  -1675  -1723  -1733  -1717  -1698  -1692  -1686  -1631  -1489  -1295  -1141  -1070  -1043  -1011  -955  -897  -849  -808  -790  -818  -870  -920  -957  -952  -842  -566  -176  175  428  624  785  978  1314  1700  1782  1323  578  80  74  357  632  803  939  1090  1228  1296  1244  1060  834  685  621  533  330  75  -51  64  377  742  1032  1172  1078  666  30  -534  -820  -863  -753  -522  -250  -105  -172  -343  -400  -194  241  761  1222  1524  1660  1703  1684  1502  1051  467  53  -59  34  214  394  506  543  554  584  652  750  844  894  863  735  554  414  357  354  375  425  539  740  976  1130  1099  863  534  290  208  261  410  598  739  784  719  549  331  138  0  -68  -85  -122  -179  -207  -200  -210  -300  -501  -771  -976  -958  -612  88  1062  2301  4041  6355  8856  10856  11558  10538  8145  5226  2629  889  89  -138  -243  -369  -571  -937  -1344  -1583  -1633  -1598  -1523  -1394  -1236  -1128  -1098  -1115  -1144  -1169  -1184  -1192  -1194  -1190  -1176  -1153  -1136  -1138  -1138  -1098  -1000  -847  -648  -433  -248  -132  -80  -64  -95  -192  -292  -287  -117  204  600  938  1136  1206  1133  843  353  -137  -418  -463  -375  -249  -127  -5  136  277  323  164  -213  -672  -1026  -1203  -1255  -1260  -1267  -1307  -1375  -1411  -1355  -1224  -1082  -971  -894  -825  -755  -716  -778  -976  -1209  -1303  -1230  -1103  -1004  -944  -915  -921  -983  -1089  -1184  -1235  -1257  -1248  -1150  -920  -630  -422  -347  -348  -366  -405  -486  -596  -697  -771  -826  -863  -895  -940  -994  -1010  -939  -806  -700  -680  -739  -855  -1038  -1272  -1458  -1514  -1461  -1368  -1318  -1327  -1306  -1209  -1082  -937  -752  -539  -318  -103  64  139  113  -35  -329  -679  -923  -1013  -1022  -1010  -975  -915  -865  -855  -860  -842  -810  -809  -893  -1131  -1498  -1762  -1701  -1267  -525  343  1287  2685  4891  7743  10589  12481  12502  10298  6560  2801  284  -656  -513  -214  -342  -812  -1366  -1811  -2026  -2001  -1766  -1404  -1066  -878  -875  -984  -1088  -1135  -1151  -1175  -1208  -1224  -1217  -1207  -1204  -1197  -1159  -1068  -894  -625  -314  -65  70  124  142  150  172  232  324  402  441  467  512  564  580  548  478  382  324  381  568  827  981  823  436  150  177  514  1010  1432  1607  1421  808  -28  -684  -970  -1007  -962  -922  -904  -891  -865  -826  -784  -739  -689  -648  -619  -587  -567  -606  -731  -893  -1002  -1015  -960  -871  -731  -523  -293  -111  -13  9  0  2  20  3  -116  -365  -638  -800  -860  -894  -912  -881  -771  -605  -464  -405  -398  -392  -389  -411  -452  -465  -416  -349  -359  -430  -461  -462  -539  -709  -882  -966  -939  -860  -796  -761  -724  -680  -654  -653  -634  -535  -345  -130  24  75  37  -8  1  41  65  78  81  18  -182  -488  -755  -886  -923  -948  -991  -1040  -1074  -1091  -1108  -1133  -1163  -1203  -1218  -1099  -754  -222  377  1122  2382  4442  7103  9714  11502  11841  10444  7642  4315  1365  -668  -1621  -1658  -1238  -871  -786  -888  -999  -1015  -921  -763  -609  -508  -495  -629  -930  -1236  -1281  -1052  -802  -697  -699  -724  -747  -789  -855  -891  -853  -766  -680  -603  -522  -436  -370  -344  -329  -226  27  345  565  630  616  602  618  652  677  682  679  689  726  780  822  833  811  767  730  709  663  530  275  -43  -288  -376  -366  -383  -490  -600  -582  -459  -379  -401  -458  -486  -485  -481  -499  -551  -615  -654  -647  -620  -629  -696  -761  -754  -673  -540  -391  -282  -238  -232  -234  -232  -242  -294  -410  -554  -651  -671  -651  -645  -658  -645  -591  -539  -523  -539  -565  -584  -592  -595  -603  -638  -696  -728  -696  -640  -610  -608  -614  -619  -620  -616  -605  -594  -603  -648  -717  -775  -796  -757  -639  -482  -365  -319  -304  -259  -149  8  144  210  217  203  194  203  240  295  345  369  336  202  -35  -338  -636  -839  -929  -983  -1033  -1034  -964  -861  -780  -763  -852  -928  -686  -20  972  2423  4592  7335  9958  11593  11614  9868  6878  3763  1505  336  -42  -83  -279  -793  -1317  -1607  -1702  -1693  -1637  -1551  -1446  -1364  -1339  -1364  -1406  -1407  -1333  -1224  -1133  -1042  -910  -755  -626  -537  -488  -500  -561  -614  -621  -619  -688  -837  -922  -821  -585  -303  -26  186  318  415  494  540  556  552  522  456  389  381  442  514  546  540  534  554  566  504  338  102  -147  -378  -550  -627  -619  -571  -552  -615  -737  -840  -873  -871  -901  -951  -965  -950  -935  -919  -915  -935  -965  -976  -937  -854  -778  -727  -684  -642  -609  -587  -580  -607  -674  -736  -724  -648  -587  -567  -554  -537  -525  -520  -514  -500  -469  -418  -374  -376  -421  -468  -512  -585  -689  -791  -873  -912  -894  -832  -744  -698  -759  -874  -944  -962  -956  -921  -840  -731  -652  -658  -758  -907  -1007  -963  -741  -437  -217  -133  -97  -45  -13  -36  -75  -71  -13  73  120  61  -100  -305  -493  -619  -674  -705  -769  -876  -986  -1067  -1115  -1136  -1123  -1078  -1025  -949  -787  -527  -193  363  1403  3065  5409  8221  10673  11742  10978  8714  5764  3093  1400  580  -56  -748  -1156  -1175  -1068  -1041  -1091  -1125  -1133  -1172  -1231  -1261  -1236  -1166  -1074  -986  -921  -891  -892  -900  -871  -769  -608  -432  -283  -224  -292  -410  -489  -519  -515  -471  -372  -231  -80  71  231  395  539  657  770  877  948  977  994  1026  1091  1198  1286  1238  1023  754  563  490  508  561  603  602  552  455  304  99  -119  -311  -476  -610  -666  -604  -459  -303  -189  -126  -93  -77  -96  -204  -421  -678  -881  -995  -1015  -929  -734  -467  -218  -121  -230  -444  -610  -676  -688  -694  -692  -658  -587  -508  -460  -447  -442  -427  -410  -413  -446  -492  -534  -575  -631  -705  -776  -819  -824  -798  -762  -727  -692  -652  -608  -553  -490  -436  -416  -461  -606  -813  -966  -959  -772  -509  -318  -247  -243  -279  -379  -536  -683  -765  -780  -728  -602  -441  -328  -289  -275  -229  -153  -86  -46  -1  92  223  302  244  61  -144  -293  -377  -418  -436  -451  -466  -471  -458  -432  -428  -507  -727  -1040  -1319  -1489  -1530  -1353  -804  192  1539  3138  5033  7184  9282  10855  11365  10402  8084  5172  2652  1146  535  271  -49  -584  -1202  -1568  -1609  -1524  -1410  -1257  -1094  -982  -944  -947  -930  -842  -685  -505  -358  -288  -362  -627  -992  -1251  -1265  -1049  -748  -534  -449  -409  -340  -246  -157  -86  -17  58  106  89  6  -122  -257  -339  -307  -131  137  386  542  605  610  602  608  633  648  589  407  159  -21  -85  -110  -181  -293  -383  -424  -460  -527  -591  -588  -501  -423  -508  -790  -1103  -1267  -1243  -1126  -1025  -945  -823  -671  -618  -767  -1072  -1387  -1600  -1659  -1534  -1254  -948  -754  -692  -706  -764  -866  -977  -1033  -1004  -921  -820  -695  -517  -282  -39  136  198  98  -220  -682  -1061  -1207  -1161  -1045  -947  -886  -843  -805  -772  -740  -711  -691  -674  -627  -524  -392  -289  -242  -235  -262  -338  -466  -591  -662  -671  -647  -651  -732  -838  -869  -789  -627  -429  -252  -146  -113  -120  -137  -141  -115  -66  -20  3  -21  -125  -286  -421  -454  -371  -220  -63  62  138  172  195  220  241  254  261  265  278  296  292  204  -29  -379  -702  -888  -925  -805  -498  -133  -18  -352  -958  -1497  -1811  -1856  -1499  -644  690  2372  4177  6024  8000  9931  11226  11179  9484  6586  3508  1228  144  -54  -30  -206  -561  -892  -1060  -1086  -1045  -978  -929  -928  -941  -967  -1035  -1119  -1162  -1135  -1041  -909  -760  -626  -597  -703  -849  -938  -942  -892  -828  -766  -701  -620  -511  -389  -291  -241  -227  -196  -106  17  143  273  375  406  399  450  631  893  1101  1181  1174  1145  1129  1111  1001  717  335  44  -80  -101  -77  -49  -103  -300  -585  -817  -888  -825  -733  -665  -617  -577  -544  -533  -582  -712  -882  -1006  -1036  -966  -809  -631  -514  -483  -501  -534  -576  -617  -616  -536  -403  -278  -182  -104  -34  4  -56  -273  -570  -777  -808  -730  -672  -702  -774  -819  -828  -822  -817  -815  -809  -786  -731  -652  -616  -666  -745  -765  -704  -607  -539  -519  -509  -474  -419  -395  -459  -595  -677  -627  -535  -492  -476  -442  -408  -448  -581  -726  -813  -840  -825  -761  -633  -478  -370  -352  -404  -478  -529  -546  -544  -538  -530  -517  -502  -481  -443  -386  -293  -130  68  199  211  155  102  80  80  88  104  123  135  123  76  8  -56  -103  -134  -172  -271  -464  -704  -880  -908  -803  -640  -490  -451  -676  -1185  -1644  -1703  -1403  -878  -60  1155  2915  5387  8372  11095  12589  12251  10113  6851  3539  1148  9  -247  -139  14  -60  -470  -918  -1064  -878  -558  -327  -314  -536  -899  -1229  -1397  -1396  -1253  -1016  -783  -655  -658  -747  -839  -872  -873  -883  -877  -841  -791  -730  -668  -597  -454  -205  76  288  385  359  247  184  257  393  487  539  598  673  730  748  740  730  746  806  901  1001  1071  1051  872  569  267  50  -77  -129  -119  -96  -149  -358  -686  -983  -1148  -1201  -1194  -1120  -950  -724  -544  -474  -517  -667  -874  -1043  -1113  -1083  -971  -819  -683  -581  -496  -407  -297  -180  -110  -160  -369  -658  -876  -941  -869  -690  -456  -244  -106  -49  -54  -98  -175  -265  -328  -348  -340  -321  -303  -307  -345  -404  -456  -491  -517  -547  -596  -682  -790  -868  -895  -885  -857  -824  -795  -765  -727  -690  -661  -642  -649  -681  -715  -735  -734  -716  -694  -671  -656  -654  -658  -637  -568  -465  -375  -323  -307  -341  -455  -618  -738  -768  -740  -694  -624  -491  -300  -105  51  162  229  274  322  346  312  247  189  121  -1  -170  -356  -563  -765  -872  -852  -783  -741  -730  -704  -628  -538  -509  -551  -578  -487  -289  -163  -206  -222  90  954  2592  5125  8215  10994  12403  11669  8889  5152  1816  -250  -982  -949  -731  -544  -419  -376  -405  -498  -683  -970  -1264  -1407  -1333  -1145  -998  -948  -958  -981  -991  -966  -884  -763  -644  -544  -469  -444  -487  -574  -652  -699  -717  -689  -589  -431  -232  2  266  518  698  772  758  698  644  631  649  695  758  763  677  583  577  680  832  949  991  964  873  729  557  361  142  -59  -171  -197  -244  -415  -681  -904  -999  -984  -895  -759  -611  -499  -489  -614  -808  -953  -1004  -999  -976  -933  -864  -791  -742  -716  -684  -651  -672  -792  -965  -1049  -923  -605  -256  -38  29  18  -53  -237  -558  -902  -1084  -1036  -854  -665  -505  -374  -293  -266  -267  -280  -312  -384  -522  -745  -1005  -1189  -1232  -1130  -913  -656  -466  -407  -458  -536  -558  -517  -465  -433  -421  -444  -547  -732  -919  -1008  -977  -883  -783  -682  -580  -511  -496  -509  -517  -504  -472  -435  -406  -389  -387  -405  -438  -440  -333  -99  156  296  289  205  127  98  149  305  522  676  665  472  190  -39  -176  -283  -433  -651  -889  -1049  -1100  -1089  -1065  -1052  -1085  -1168  -1217  -1106  -716  115  1533  3528  5977  8602  10756  11613  10765  8460  5412  2555  633  -278  -617  -718  -731  -848  -1145  -1446  -1577  -1517  -1339  -1135  -987  -918  -909  -936  -976  -1009  -1024  -1028  -1031  -1031  -1006  -930  -820  -744  -760  -821  -805  -659  -450  -251  -76  70  156  156  79  -29  -110  -121  -45  117  364  666  958  1174  1304  1380  1404  1297  987  588  358  421  643  822  890  914  950  977  944  833  663  424  85  -287  -550  -649  -625  -519  -380  -260  -172  -141  -267  -653  -1190  -1600  -1750  -1692  -1495  -1226  -981  -814  -713  -661  -636  -600  -525  -426  -353  -373  -532  -795  -1036  -1136  -1078  -926  -756  -606  -497  -455  -461  -438  -353  -268  -258  -330  -405  -411  -364  -322  -301  -296  -327  -435  -621  -807  -908  -904  -827  -731  -664  -631  -615  -628  -710  -884  -1070  -1135  -1075  -996  -951  -919  -880  -846  -810  -732  -613  -520  -485  -466  -411  -312  -214  -163  -143  -107  -51  5  54  84  88  69  37  0  -66  -190  -336  -432  -458  -444  -421  -419  -478  -624  -806  -919  -887  -730  -584  -602  -707  -505  398  2130  4595  7433  9988  11512  11393  9520  6555  3579  1384  96  -633  -1136  -1474  -1547  -1349  -1088  -950  -929  -949  -988  -1060  -1149  -1192  -1131  -973  -787  -640  -546  -488  -442  -398  -356  -321  -314  -380  -512  -590  -522  -370  -226  -99  18  105  145  152  143  130  131  181  306  483  667  851  1053  1250  1369  1355  1212  1016  869  810  802  805  808  805  771  642  389  94  -108  -176  -152  -77  12  78  109  111  58  -109  -392  -692  -897  -971  -954  -912  -875  -813  -702  -584  -530  -576  -705  -822  -832  -748  -644  -601  -648  -729  -776  -792  -806  -812  -747  -546  -260  -61  -94  -374  -747  -990  -1018  -914  -794  -728  -713  -691  -615  -502  -417  -385  -384  -393  -428  -511  -620  -696  -718  -709  -705  -733  -801  -888  -957  -961  -809  -419  70  290  10  -576  -1071  -1280  -1247  -1018  -616  -157  183  332  348  304  229  147  89  51  -1  -81  -169  -274  -420  -581  -681  -700  -694  -697  -699  -692  -669  -630  -600  -614  -753  -1073  -1392  -1354  -769  390  2174  4584  7358  9874  11418  11510  9963  7132  3997  1477  -81  -750  -899  -990  -1159  -1271  -1279  -1253  -1234  -1218  -1225  -1282  -1355  -1395  -1399  -1399  -1432  -1505  -1548  -1452  -1204  -963  -890  -949  -1002  -999  -967  -943  -920  -858  -728  -540  -345  -213  -179  -199  -192  -128  -46  22  94  192  311  438  584  731  826  857  863  869  877  872  850  819  780  708  569  353  96  -142  -319  -422  -462  -463  -455  -463  -501  -558  -613  -658  -688  -687  -662  -685  -840  -1104  -1333  -1363  -1147  -812  -561  -478  -514  -614  -730  -813  -845  -825  -747  -625  -510  -444  -430  -435  -404  -321  -241  -242  -358  -533  -681  -756  -725  -570  -329  -89  67  114  60  -90  -287  -425  -429  -298  -108  26  30  -107  -327  -518  -615  -642  -655  -671  -675  -626  -506  -370  -295  -303  -360  -412  -420  -382  -335  -313  -320  -329  -321  -308  -318  -348  -345  -255  -62  198  435  494  270  -151  -538  -720  -661  -395  -46  200  243  107  -120  -373  -651  -953  -1199  -1315  -1310  -1229  -1117  -1001  -923  -972  -1122  -1094  -606  366  1804  3806  6295  8861  10918  11830  11116  8817  5671  2765  841  -40  -271  -321  -496  -781  -963  -989  -978  -996  -1038  -1115  -1246  -1398  -1494  -1502  -1437  -1332  -1234  -1162  -1090  -1015  -940  -842  -706  -553  -409  -275  -178  -192  -322  -465  -522  -471  -325  -86  189  383  449  450  444  436  420  412  460  594  772  924  1024  1086  1125  1128  1075  978  879  787  702  649  643  652  608  458  224  -41  -339  -636  -832  -894  -884  -863  -832  -764  -647  -539  -515  -581  -658  -660  -565  -425  -312  -264  -284  -364  -474  -572  -649  -738  -832  -878  -844  -769  -707  -657  -582  -472  -339  -238  -265  -420  -582  -657  -624  -519  -432  -451  -605  -829  -1005  -1067  -988  -756  -447  -211  -121  -166  -344  -617  -857  -952  -924  -867  -818  -758  -689  -641  -621  -618  -646  -740  -913  -1064  -1035  -826  -605  -502  -517  -607  -752  -919  -1043  -1088  -1055  -945  -794  -686  -671  -726  -781  -788  -775  -778  -779  -756  -708  -618  -471  -279  -82  55  123  157  173  149  63  -59  -157  -202  -209  -205  -207  -237  -334  -525  -755  -919  -984  -995  -996  -1001  -1021  -1053  -1083  -1073  -982  -849  -719  -421  352  1787  3950  6759  9773  12213  13234  12291  9454  5588  2107  45  -625  -585  -513  -809  -1332  -1613  -1559  -1436  -1362  -1294  -1218  -1153  -1089  -998  -893  -838  -867  -945  -1012  -1045  -1045  -991  -838  -590  -396  -434  -663  -885  -980  -940  -816  -688  -561  -384  -165  18  111  116  81  66  140  365  697  977  1080  1019  900  836  871  962  1042  1077  1051  939  730  458  189  2  -77  -87  -69  -34  7  5  -146  -507  -953  -1254  -1305  -1154  -916  -718  -618  -585  -568  -555  -549  -545  -539  -539  -569  -648  -733  -771  -779  -787  -739  -585  -379  -232  -212  -292  -401  -518  -633  -709  -715  -658  -579  -522  -506  -517  -540  -556  -531  -423  -233  -7  197  324  295  54  -314  -619  -761  -774  -718  -637  -579  -589  -663  -725  -730  -709  -695  -672  -607  -511  -429  -400  -453  -604  -802  -947  -998  -992  -955  -868  -743  -687  -766  -861  -818  -641  -433  -270  -171  -134  -171  -306  -521  -740  -893  -967  -989  -977  -905  -743  -543  -405  -364  -376  -398  -404  -366  -264  -130  -32  2  3  -5  -30  -87  -154  -167  -80  72  202  266  287  285  232  82  -133  -308  -383  -401  -427  -477  -536  -605  -688  -771  -814  -758  -632  -663  -940  -1103  -779  89  1571  3766  6556  9618  12258  13422  12437  9602  5911  2552  436  -316  -312  -220  -287  -435  -619  -882  -1177  -1380  -1450  -1451  -1435  -1380  -1243  -1047  -876  -773  -714  -680  -666  -671  -719  -842  -1001  -1077  -955  -642  -289  -76  -80  -280  -567  -785  -793  -499  70  676  1034  1042  776  414  161  125  290  568  835  1003  1063  1062  1045  1029  1008  985  971  958  903  754  498  184  -91  -235  -241  -184  -122  -62  -40  -117  -327  -637  -949  -1133  -1089  -799  -386  -59  55  -109  -599  -1254  -1730  -1826  -1580  -1138  -664  -293  -90  -43  -123  -315  -551  -715  -745  -673  -567  -496  -501  -588  -714  -816  -864  -869  -836  -750  -632  -520  -419  -323  -259  -246  -273  -312  -318  -263  -173  -105  -103  -207  -429  -714  -955  -1084  -1118  -1107  -1075  -1025  -950  -857  -789  -773  -745  -626  -446  -321  -303  -341  -358  -318  -234  -142  -79  -56  -70  -129  -234  -350  -448  -535  -604  -633  -633  -644  -676  -710  -724  -698  -615  -496  -398  -349  -344  -362  -385  -416  -469  -504  -476  -416  -374  -384  -466  -595  -717  -806  -844  -787  -601  -351  -167  -85  -38  14  53  66  85  136  206  237  179  44  -97  -186  -245  -323  -407  -446  -435  -426  -468  -580  -727  -849  -935  -1050  -1210  -1244  -939  -327  306  751  1271  2502  4833  8025  11271  13429  13402  10893  6927  3118  561  -485  -494  -263  -302  -623  -988  -1206  -1246  -1171  -1043  -904  -788  -723  -705  -711  -734  -776  -828  -866  -879  -880  -874  -848  -786  -695  -582  -464  -392  -370  -355  -342  -338  -314  -235  -98  53  151  183  202  263  385  535  663  742  798  883  1032  1203  1309  1329  1318  1310  1285  1218  1111  982  845  709  594  515  455  360  184  -35  -205  -303  -385  -460  -495  -518  -591  -697  -756  -725  -641  -587  -602  -625  -604  -570  -592  -705  -862  -973  -1009  -1006  -1004  -1007  -994  -926  -788  -622  -495  -460  -516  -604  -673  -727  -778  -818  -841  -854  -873  -899  -895  -799  -586  -309  -67  3  -214  -658  -1105  -1400  -1517  -1442  -1171  -811  -556  -505  -609  -760  -868  -901  -874  -799  -704  -638  -632  -682  -755  -815  -832  -784  -655  -479  -338  -288  -322  -400  -475  -529  -576  -623  -655  -663  -659  -657  -660  -656  -632  -583  -522  -458  -405  -365  -300  -173  -40  -32  -207  -504  -803  -992  -1049  -1036  -1005  -957  -870  -745  -599  -423  -235  -105  -62  -70  -90  -114  -148  -182  -180  -122  -50  -10  5  30  75  117  110  4  -206  -434  -570  -597  -581  -595  -678  -804  -909  -965  -957  -825  -529  -184  26  92  218  765  2137  4501  7536  10443  12251  12272  10381  7180  3788  1158  -340  -833  -719  -424  -270  -467  -971  -1456  -1675  -1617  -1362  -1043  -823  -773  -842  -948  -1042  -1114  -1155  -1152  -1128  -1119  -1135  -1139  -1057  -834  -513  -218  -44  0  -48  -146  -230  -249  -200  -117  -43  3  43  121  295  595  931  1159  1256  1307  1355  1383  1379  1359  1343  1345  1367  1392  1415  1434  1426  1323  1032  555  77  -193  -242  -194  -138  -101  -91  -119  -199  -307  -400  -465  -516  -548  -545  -512  -467  -433  -416  -415  -447  -526  -622  -669  -647  -587  -525  -498  -520  -559  -595  -645  -707  -776  -841  -878  -902  -918  -836  -622  -394  -258  -211  -204  -209  -224  -252  -302  -382  -466  -513  -509  -474  -451  -467  -498  -513  -512  -508  -503  -475  -401  -299  -230  -234  -314  -452  -599  -697  -727  -726  -725  -725  -699  -618  -504  -423  -415  -472  -551  -608  -651  -718  -799  -827  -760  -642  -558  -535  -541  -545  -537  -511  -465  -414  -374  -303  -141  79  252  327  315  213  26  -181  -337  -416  -440  -472  -565  -694  -783  -842  -980  -1264  -1621  -1906  -2009  -1863  -1456  -930  -512  -298  -215  -22  705  2233  4409  6913  9350  11025  11208  9712  6974  3872  1390  8  -475  -561  -673  -916  -1098  -1129  -1124  -1139  -1140  -1134  -1154  -1181  -1174  -1122  -1063  -1054  -1119  -1240  -1372  -1458  -1440  -1289  -1032  -764  -601  -613  -750  -864  -848  -683  -407  -107  122  234  252  232  206  196  246  393  591  735  791  820  880  982  1100  1197  1271  1358  1449  1467  1354  1167  1023  975  998  1051  1077  945  539  -24  -456  -619  -607  -563  -554  -586  -645  -709  -750  -765  -778  -811  -845  -862  -893  -962  -1033  -1067  -1072  -1071  -1064  -1056  -1072  -1101  -1081  -996  -911  -880  -896  -926  -949  -963  -973  -971  -950  -921  -907  -910  -909  -866  -764  -645  -567  -539  -533  -524  -496  -448  -397  -359  -336  -330  -367  -476  -624  -730  -750  -702  -636  -597  -592  -596  -588  -563  -541  -524  -492  -430  -345  -293  -346  -483  -602  -649  -651  -638  -613  -558  -470  -357  -237  -149  -125  -126  -98  -57  -40  -37  -12  30  35  -59  -217  -337  -379  -384  -390  -396  -399  -413  -471  -595  -747  -857  -892  -870  -825  -833  -951  -1004  -616  504  2463  5096  7850  10045  11230  11138  9666  7169  4330  1767  -57  -1010  -1348  -1412  -1390  -1336  -1270  -1225  -1206  -1197  -1201  -1221  -1237  -1207  -1117  -1000  -910  -860  -834  -834  -869  -927  -978  -996  -959  -851  -706  -602  -570  -576  -581  -560  -505  -424  -334  -240  -139  -54  -13  3  55  194  452  818  1215  1526  1662  1552  1154  603  215  256  777  1527  2054  2010  1347  396  -322  -587  -574  -507  -472  -465  -465  -465  -465  -473  -494  -522  -539  -546  -569  -626  -685  -696  -650  -563  -448  -354  -340  -426  -578  -707  -749  -736  -724  -726  -741  -771  -812  -852  -867  -854  -835  -823  -786  -706  -665  -737  -854  -918  -919  -888  -851  -829  -826  -832  -834  -808  -740  -651  -588  -564  -557  -545  -533  -546  -611  -724  -834  -894  -886  -811  -694  -590  -530  -496  -464  -427  -393  -368  -348  -326  -310  -313  -325  -321  -290  -246  -199  -104  87  309  394  257  14  -139  -148  -94  -54  -40  -59  -134  -263  -402  -510  -584  -628  -656  -673  -658  -614  -571  -545  -527  -509  -571  -666  -430  501  2271  4819  7713  10190  11506  11212  9359  6520  3522  1116  -291  -702  -461  -93  50  -92  -494  -1030  -1453  -1612  -1538  -1322  -1046  -804  -673  -687  -829  -1026  -1162  -1136  -916  -588  -325  -230  -309  -527  -790  -974  -1037  -1020  -962  -855  -683  -473  -282  -131  -19  47  128  321  620  889  1016  983  820  604  444  394  459  631  860  1046  1138  1135  1007  689  225  -187  -394  -425  -394  -370  -374  -407  -452  -484  -481  -438  -373  -327  -346  -451  -607  -745  -827  -847  -817  -775  -744  -717  -686  -652  -596  -483  -319  -185  -202  -437  -766  -968  -982  -897  -777  -657  -575  -542  -540  -540  -518  -465  -398  -359  -403  -561  -777  -934  -988  -987  -975  -947  -871  -740  -629  -641  -758  -838  -781  -633  -518  -486  -491  -496  -501  -509  -531  -579  -660  -751  -764  -639  -469  -397  -449  -544  -615  -656  -679  -677  -626  -517  -381  -268  -202  -187  -203  -211  -193  -195  -276  -420  -522  -491  -363  -239  -164  -117  -88  -93  -166  -309  -464  -559  -579  -559  -536  -556  -672  -882  -1092  -1184  -1118  -943  -737  -496  -142  398  1329  2948  5229  7767  10070  11538  11566  9988  7225  4078  1466  -67  -693  -930  -1063  -1100  -1080  -1092  -1127  -1136  -1125  -1117  -1120  -1131  -1137  -1112  -1041  -955  -903  -876  -821  -733  -664  -654  -690  -728  -710  -588  -376  -173  -56  0  68  146  136  -40  -272  -377  -316  -157  40  242  437  601  691  701  672  656  715  893  1138  1324  1371  1278  1066  772  460  219  126  167  265  362  397  277  -36  -415  -644  -662  -616  -644  -724  -761  -729  -684  -675  -696  -712  -705  -688  -676  -666  -646  -619  -606  -619  -653  -687  -702  -668  -564  -424  -320  -285  -297  -328  -365  -392  -399  -375  -314  -239  -189  -229  -410  -643  -728  -614  -433  -301  -225  -156  -73  -15  -57  -241  -501  -699  -767  -737  -658  -574  -523  -511  -503  -460  -375  -268  -169  -104  -109  -239  -507  -813  -1020  -1079  -1004  -804  -552  -376  -342  -417  -523  -596  -617  -612  -602  -598  -603  -621  -649  -675  -684  -653  -564  -453  -416  -506  -655  -721  -625  -438  -288  -225  -221  -272  -406  -593  -726  -719  -578  -409  -340  -381  -434  -431  -372  -288  -188  -40  158  330  360  159  -254  -723  -1056  -1180  -1148  -1062  -1007  -1013  -1046  -1074  -1102  -1138  -1129  -944  -527  0  599  1424  2665  4546  7095  9804  11864  12500  11205  8215  4642  1770  172  -427  -576  -692  -958  -1239  -1358  -1371  -1384  -1401  -1406  -1378  -1284  -1118  -928  -778  -704  -714  -775  -830  -843  -820  -785  -776  -842  -976  -1070  -1043  -956  -859  -668  -323  55  290  342  293  225  187  217  333  490  604  643  638  624  610  600  619  708  885  1121  1333  1415  1288  978  609  314  156  140  260  508  811  1012  957  602  99  -288  -448  -472  -463  -451  -435  -416  -386  -340  -285  -238  -206  -186  -183  -238  -389  -579  -669  -605  -467  -321  -170  -79  -139  -318  -480  -520  -437  -296  -165  -88  -71  -84  -95  -78  -14  76  151  188  171  63  -141  -346  -420  -361  -286  -306  -427  -552  -584  -543  -504  -490  -490  -498  -522  -570  -624  -647  -624  -586  -580  -621  -683  -729  -746  -748  -753  -757  -740  -669  -539  -424  -430  -550  -670  -722  -724  -699  -650  -585  -532  -510  -511  -514  -492  -423  -328  -258  -233  -231  -235  -256  -317  -408  -456  -414  -338  -296  -278  -248  -211  -249  -432  -661  -762  -720  -630  -529  -429  -357  -324  -326  -349  -380  -417  -449  -460  -441  -405  -383  -400  -439  -459  -415  -279  -88  62  123  109  54  -16  -71  -94  -76  -7  96  177  135  -121  -558  -967  -1139  -1036  -771  -487  -273  -197  -375  -849  -1379  -1638  -1551  -1134  -248  1329  3756  6974  10405  12921  13530  12035  8959  5297  2198  364  -274  -251  -116  -158  -410  -816  -1268  -1601  -1712  -1588  -1278  -918  -668  -577  -595  -697  -880  -1084  -1216  -1238  -1175  -1061  -922  -765  -596  -424  -272  -181  -178  -254  -379  -521  -644  -654  -472  -165  114  283  346  347  346  391  495  636  807  1029  1272  1439  1483  1442  1373  1308  1254  1192  1102  993  888  782  678  582  476  337  160  -13  -124  -155  -144  -135  -158  -247  -417  -622  -766  -778  -690  -644  -740  -902  -1003  -1024  -1017  -1016  -1021  -1013  -974  -901  -811  -724  -643  -566  -496  -446  -427  -432  -449  -471  -500  -536  -593  -695  -830  -940  -993  -1001  -963  -856  -690  -528  -430  -417  -453  -498  -535  -563  -592  -627  -628  -574  -512  -492  -506  -524  -533  -534  -529  -514  -491  -481  -497  -514  -487  -400  -316  -324  -420  -517  -575  -632  -708  -776  -803  -747  -574  -336  -169  -167  -330  -566  -750  -829  -817  -732  -621  -537  -469  -407  -381  -403  -436  -423  -344  -238  -155  -105  -96  -196  -481  -873  -1182  -1323  -1332  -1179  -794  -277  119  249  111  -262  -734  -1067  -1138  -991  -737  -468  -231  -70  -45  -118  -165  -134  -79  -41  -7  30  46  -1  -121  -270  -384  -432  -431  -397  -311  -188  -151  -326  -675  -983  -1083  -1014  -900  -800  -710  -571  -407  -371  -391  -131  733  2571  5521  8971  11858  13228  12463  9721  6018  2524  90  -928  -892  -510  -259  -320  -657  -1034  -1246  -1271  -1211  -1173  -1179  -1190  -1175  -1152  -1171  -1266  -1404  -1489  -1428  -1220  -949  -716  -586  -566  -617  -693  -756  -783  -765  -695  -572  -408  -251  -161  -130  -76  63  248  385  455  510  576  635  692  825  1095  1436  1696  1784  1652  1271  770  415  357  546  826  1042  1121  1035  748  320  -60  -269  -337  -342  -325  -304  -300  -349  -470  -621  -731  -778  -778  -726  -638  -585  -627  -734  -831  -880  -891  -884  -856  -791  -672  -528  -423  -403  -459  -554  -645  -703  -723  -713  -669  -595  -520  -496  -543  -606  -641  -654  -653  -637  -616  -576  -510  -458  -447  -466  -487  -482  -441  -364  -239  -83  45  92  -8  -313  -727  -1027  -1089  -948  -717  -525  -455  -504  -620  -736  -794  -746  -571  -330  -157  -138  -265  -457  -612  -667  -594  -386  -115  87  153  71  -154  -445  -660  -743  -745  -726  -705  -685  -673  -658  -601  -476  -321  -210  -171  -200  -291  -429  -573  -686  -742  -719  -607  -443  -291  -185  -153  -198  -259  -278  -248  -181  -101  -28  49  137  210  270  350  441  461  340  126  -66  -189  -267  -321  -348  -371  -442  -588  -754  -862  -874  -795  -649  -485  -365  -336  -367  -353  -201  250  1312  3224  5892  8788  11112  12086  11219  8603  5123  2008  54  -659  -554  -179  53  -103  -627  -1165  -1402  -1336  -1157  -1030  -994  -1002  -1007  -992  -950  -899  -870  -862  -829  -729  -588  -484  -450  -457  -468  -465  -444  -408  -358  -283  -194  -130  -115  -148  -206  -241  -153  133  528  817  886  787  633  534  584  817  1140  1374  1435  1369  1251  1136  1067  1074  1146  1227  1246  1116  797  400  116  0  -43  -90  -136  -151  -137  -140  -207  -349  -537  -715  -823  -855  -851  -842  -823  -778  -717  -672  -658  -665  -673  -665  -617  -524  -415  -331  -302  -372  -585  -881  -1089  -1072  -812  -444  -168  -69  -99  -202  -332  -438  -493  -514  -529  -534  -523  -508  -501  -499  -495  -491  -501  -546  -613  -667  -702  -748  -820  -894  -931  -888  -733  -515  -342  -278  -325  -471  -663  -800  -817  -718  -554  -404  -335  -404  -641  -966  -1202  -1232  -1059  -776  -526  -397  -370  -390  -436  -515  -608  -674  -701  -721  -752  -760  -710  -619  -523  -442  -384  -359  -370  -412  -466  -504  -514  -504  -494  -516  -597  -718  -809  -782  -578  -241  85  302  419  468  422  235  -50  -238  -198  -36  75  77  7  -68  -153  -303  -517  -708  -805  -823  -812  -800  -791  -783  -797  -863  -959  -955  -690  -43  1049  2576  4571  7011  9465  11231  11709  10524  7782  4348  1404  -362  -966  -859  -623  -597  -748  -917  -1014  -1041  -1049  -1092  -1181  -1255  -1242  -1142  -1011  -921  -918  -969  -989  -955  -910  -892  -894  -892  -871  -831  -798  -773  -672  -401  -27  247  322  256  150  84  109  243  435  599  711  813  921  1018  1115  1223  1320  1364  1309  1125  868  687  694  899  1193  1404  1428  1269  995  687  396  159  3  -89  -148  -176  -196  -267  -433  -657  -846  -945  -971  -964  -936  -880  -806  -753  -736  -742  -753  -755  -726  -649  -552  -485  -486  -551  -645  -711  -710  -637  -530  -454  -476  -628  -857  -1050  -1131  -1087  -922  -665  -412  -267  -252  -324  -419  -485  -510  -514  -513  -513  -523  -553  -599  -635  -626  -537  -377  -211  -93  -34  -54  -199  -451  -696  -833  -861  -830  -779  -740  -748  -776  -733  -591  -445  -376  -361  -361  -398  -531  -763  -999  -1124  -1059  -781  -404  -129  -63  -175  -390  -621  -785  -823  -713  -500  -280  -119  -9  91  164  153  72  27  102  287  501  671  759  706  429  -47  -515  -773  -821  -782  -744  -729  -745  -803  -901  -1016  -1114  -1142  -1018  -678  -254  -5  62  219  838  2378  5009  8214  10990  12349  11711  9219  5803  2629  419  -724  -1061  -951  -776  -770  -913  -1111  -1290  -1393  -1418  -1389  -1320  -1226  -1153  -1139  -1177  -1235  -1286  -1324  -1333  -1270  -1123  -989  -930  -838  -646  -466  -391  -388  -401  -415  -442  -490  -527  -471  -238  151  573  886  985  853  621  489  555  755  963  1116  1212  1262  1259  1196  1100  1029  1003  1000  983  927  813  637  414  190  33  -19  8  57  92  114  105  -25  -347  -754  -1047  -1185  -1274  -1334  -1281  -1123  -984  -944  -980  -1027  -1044  -1026  -988  -943  -893  -829  -755  -700  -684  -705  -756  -814  -840  -812  -748  -690  -664  -666  -682  -690  -649  -520  -336  -197  -186  -332  -594  -853  -1005  -1024  -919  -699  -416  -180  -85  -165  -399  -712  -987  -1135  -1144  -1065  -963  -895  -877  -884  -892  -885  -855  -812  -777  -762  -762  -767  -772  -772  -751  -697  -624  -568  -547  -549  -551  -513  -389  -183  52  244  312  234  94  43  164  395  598  674  537  121  -448  -888  -1056  -1034  -965  -946  -990  -1057  -1110  -1142  -1165  -1176  -1125  -937  -616  -302  -99  68  331  909  2223  4535  7560  10503  12302  12060  9635  5958  2495  263  -647  -766  -664  -626  -726  -926  -1132  -1264  -1308  -1313  -1341  -1411  -1483  -1483  -1372  -1201  -1064  -1004  -990  -981  -976  -991  -1020  -1022  -954  -809  -629  -459  -313  -183  -71  -2  0  -59  -122  -86  42  150  227  327  424  505  635  875  1175  1406  1511  1563  1657  1803  1931  1998  2026  2036  2000  1853  1569  1207  891  733  718  716  560  146  -401  -800  -932  -912  -869  -843  -831  -829  -836  -846  -851  -846  -829  -807  -792  -795  -813  -827  -813  -774  -739  -707  -658  -604  -576  -582  -613  -653  -681  -690  -690  -688  -684  -672  -649  -610  -564  -554  -633  -776  -893  -942  -953  -950  -905  -782  -611  -478  -432  -481  -621  -805  -938  -980  -951  -880  -797  -737  -714  -721  -747  -793  -848  -886  -897  -887  -864  -835  -810  -802  -817  -840  -832  -742  -547  -315  -157  -102  -98  -100  -98  -93  -79  -47  5  78  156  226  267  220  -17  -457  -914  -1187  -1267  -1281  -1300  -1319  -1325  -1332  -1345  -1335  -1246  -1073  -954  -982  -962  -583  336  1914  4178  6865  9437  11288  11856  10753  8168  4964  2117  203  -682  -849  -764  -715  -781  -956  -1161  -1317  -1426  -1515  -1573  -1575  -1519  -1427  -1330  -1232  -1118  -993  -897  -860  -870  -894  -900  -876  -823  -763  -723  -710  -712  -718  -711  -647  -482  -260  -99  -56  -93  -135  -67  226  718  1203  1519  1650  1607  1382  1086  937  1048  1308  1521  1601  1560  1412  1188  963  806  729  710  721  741  698  508  212  -39  -190  -357  -676  -1090  -1387  -1444  -1311  -1119  -992  -975  -1023  -1057  -1023  -925  -813  -729  -659  -591  -601  -768  -1006  -1139  -1088  -915  -743  -653  -647  -686  -730  -756  -774  -810  -858  -850  -752  -619  -524  -524  -643  -802  -899  -921  -917  -917  -907  -860  -782  -723  -706  -707  -694  -644  -569  -503  -477  -511  -618  -766  -888  -932  -867  -677  -429  -255  -249  -407  -648  -881  -1080  -1216  -1219  -1107  -997  -951  -910  -786  -562  -321  -138  -15  56  82  81  53  4  -30  -50  -97  -201  -353  -510  -632  -705  -748  -782  -807  -820  -823  -820  -820  -845  -916  -1016  -1105  -1162  -1162  -1029  -711  -241  313  1009  2145  4033  6615  9375  11524  12285  11263  8653  5238  2126  90  -800  -868  -602  -475  -590  -758  -902  -1081  -1293  -1429  -1406  -1309  -1300  -1410  -1528  -1568  -1548  -1525  -1518  -1499  -1435  -1328  -1209  -1101  -1005  -900  -750  -573  -442  -394  -398  -421  -445  -465  -472  -438  -318  -96  187  454  659  818  956  1054  1085  1058  1026  1057  1151  1239  1274  1251  1173  1060  958  906  906  912  858  677  349  -28  -288  -369  -355  -343  -375  -442  -516  -586  -634  -652  -655  -669  -693  -695  -663  -626  -608  -600  -583  -569  -599  -688  -789  -854  -874  -836  -731  -591  -486  -451  -474  -537  -608  -626  -540  -376  -218  -144  -196  -390  -651  -844  -909  -870  -762  -632  -579  -689  -945  -1202  -1309  -1250  -1111  -952  -760  -498  -207  4  68  -56  -418  -944  -1403  -1625  -1610  -1407  -1085  -778  -593  -529  -547  -627  -724  -782  -784  -758  -738  -737  -747  -759  -768  -757  -691  -541  -349  -215  -212  -333  -504  -630  -673  -653  -585  -480  -363  -253  -161  -89  -21  59  138  187  184  123  39  -17  -58  -145  -316  -535  -737  -874  -944  -982  -1008  -1011  -990  -975  -990  -1025  -1000  -866  -758  -729  -461  387  1907  4066  6682  9339  11508  12560  11867  9366  5870  2584  427  -433  -544  -582  -811  -1027  -1048  -1050  -1207  -1440  -1659  -1851  -1970  -1931  -1692  -1336  -1044  -920  -917  -953  -987  -1014  -1032  -1019  -918  -694  -422  -218  -113  -79  -128  -295  -530  -695  -701  -557  -273  110  450  625  656  635  611  591  580  626  787  1042  1282  1420  1438  1348  1190  1019  886  820  809  814  801  751  639  438  178  -46  -176  -249  -340  -455  -539  -563  -555  -562  -596  -618  -579  -488  -405  -362  -342  -341  -413  -624  -916  -1137  -1200  -1118  -933  -714  -532  -409  -338  -291  -240  -196  -190  -228  -286  -354  -446  -554  -640  -684  -700  -701  -671  -588  -474  -380  -331  -324  -351  -393  -441  -507  -581  -622  -578  -403  -140  85  189  183  107  -9  -154  -326  -517  -687  -785  -790  -721  -624  -542  -491  -473  -516  -644  -814  -931  -939  -838  -670  -486  -332  -226  -165  -130  -120  -177  -349  -594  -800  -907  -947  -973  -1005  -1020  -967  -816  -620  -461  -357  -281  -245  -277  -359  -407  -348  -217  -98  -32  10  67  123  141  145  183  239  244  171  57  -66  -204  -352  -489  -591  -640  -648  -634  -613  -609  -673  -847  -1081  -1248  -1236  -1004  -605  -147  375  1186  2572  4681  7391  10157  12188  12766  11417  8362  4764  1934  422  23  129  -6  -659  -1356  -1638  -1593  -1468  -1317  -1106  -902  -832  -925  -1064  -1129  -1136  -1164  -1208  -1219  -1193  -1150  -1079  -953  -792  -663  -604  -591  -588  -558  -474  -337  -184  -72  -26  -24  -36  -49  -54  -28  54  184  325  471  644  850  1047  1183  1249  1275  1288  1300  1321  1354  1382  1361  1219  938  636  444  347  233  85  -26  -99  -234  -475  -732  -883  -901  -836  -749  -686  -659  -659  -702  -813  -947  -994  -886  -696  -574  -590  -684  -765  -800  -801  -766  -679  -555  -438  -357  -325  -371  -513  -688  -782  -751  -639  -514  -442  -461  -550  -683  -828  -924  -923  -824  -681  -568  -533  -602  -789  -1020  -1136  -1040  -781  -475  -212  -38  21  -76  -372  -772  -1062  -1104  -914  -613  -365  -273  -326  -457  -596  -696  -751  -779  -789  -777  -747  -723  -727  -768  -832  -896  -933  -892  -684  -306  88  314  286  35  -305  -563  -676  -700  -694  -684  -675  -673  -690  -745  -827  -901  -933  -923  -892  -868  -859  -860  -861  -850  -819  -772  -713  -628  -516  -415  -372  -388  -438  -516  -647  -818  -941  -915  -684  -317  11  192  256  256  217  177  163  146  69  -81  -266  -447  -614  -729  -739  -663  -578  -532  -520  -525  -542  -562  -556  -471  -311  -205  -244  -286  -70  636  2046  4244  7011  9791  11834  12474  11406  8863  5653  2705  479  -868  -1326  -1273  -1152  -1094  -1131  -1267  -1395  -1427  -1382  -1325  -1279  -1211  -1094  -937  -761  -602  -508  -497  -545  -610  -655  -671  -676  -702  -775  -880  -953  -909  -706  -423  -218  -182  -288  -453  -579  -580  -381  13  442  706  753  660  524  440  527  857  1316  1645  1681  1455  1130  889  801  836  955  1097  1154  1030  739  418  215  160  174  156  53  -96  -220  -311  -428  -581  -705  -725  -639  -568  -626  -786  -935  -1007  -1008  -940  -762  -473  -182  -3  47  -14  -194  -444  -641  -704  -653  -578  -552  -566  -578  -581  -583  -590  -602  -615  -629  -640  -646  -653  -669  -677  -625  -467  -251  -89  -28  -45  -126  -272  -453  -626  -773  -885  -923  -857  -709  -557  -470  -469  -546  -686  -850  -968  -964  -837  -668  -553  -550  -627  -702  -734  -735  -734  -745  -762  -777  -789  -789  -755  -662  -540  -448  -401  -365  -335  -339  -384  -454  -574  -795  -1074  -1266  -1273  -1101  -858  -680  -625  -669  -780  -907  -965  -908  -770  -621  -492  -385  -315  -291  -298  -313  -297  -204  -36  146  251  208  60  -72  -132  -151  -165  -169  -147  -92  -30  -41  -213  -510  -781  -900  -855  -723  -586  -489  -460  -528  -692  -896  -1078  -1217  -1266  -1129  -707  56  1142  2589  4600  7224  9996  12114  12752  11409  8427  4932  2067  410  -113  -107  -278  -792  -1268  -1423  -1323  -1132  -949  -839  -814  -838  -857  -813  -661  -444  -290  -308  -515  -805  -1011  -1055  -979  -869  -793  -768  -770  -789  -837  -896  -869  -675  -387  -168  -86  -74  -32  60  154  244  372  540  710  871  1040  1188  1258  1273  1298  1318  1298  1246  1185  1149  1147  1139  1056  864  627  469  421  395  301  149  19  -44  -80  -129  -197  -261  -296  -297  -285  -306  -405  -580  -780  -934  -962  -834  -630  -488  -461  -495  -528  -560  -644  -817  -1029  -1161  -1139  -986  -767  -559  -439  -415  -428  -411  -332  -228  -166  -182  -271  -405  -544  -662  -743  -774  -753  -700  -627  -540  -462  -414  -400  -417  -471  -543  -581  -547  -452  -341  -255  -226  -281  -412  -567  -679  -722  -706  -640  -511  -324  -136  -31  -43  -147  -297  -458  -607  -711  -739  -670  -498  -285  -141  -128  -221  -351  -442  -472  -462  -436  -404  -384  -412  -516  -666  -786  -830  -806  -738  -657  -597  -574  -576  -586  -585  -548  -459  -344  -257  -222  -236  -304  -435  -598  -715  -716  -625  -541  -526  -552  -548  -476  -379  -319  -303  -299  -272  -201  -92  18  91  135  182  223  204  89  -82  -216  -283  -345  -456  -606  -748  -837  -858  -825  -748  -635  -532  -503  -561  -681  -810  -887  -918  -892  -625  96  1387  3378  6090  9117  11739  13208  12901  10715  7363  3987  1470  71  -475  -627  -718  -829  -923  -988  -1028  -1042  -1048  -1082  -1152  -1204  -1191  -1142  -1122  -1160  -1232  -1286  -1287  -1235  -1140  -1029  -950  -920  -919  -934  -965  -989  -939  -743  -421  -112  60  103  91  77  83  116  178  263  356  435  483  507  525  547  602  734  926  1085  1143  1092  973  859  805  801  801  777  708  573  400  268  211  195  159  16  -268  -594  -807  -871  -853  -820  -798  -790  -788  -770  -727  -681  -669  -691  -722  -751  -768  -767  -748  -701  -605  -479  -389  -406  -573  -844  -1080  -1156  -1065  -905  -783  -710  -640  -573  -548  -564  -592  -626  -668  -711  -743  -761  -757  -723  -661  -596  -554  -540  -535  -497  -395  -253  -138  -77  -61  -122  -302  -540  -691  -685  -589  -501  -451  -432  -472  -610  -806  -943  -935  -773  -546  -382  -333  -362  -419  -484  -538  -558  -535  -489  -453  -440  -444  -454  -466  -477  -489  -521  -581  -653  -712  -752  -780  -790  -736  -576  -353  -193  -184  -318  -508  -648  -706  -707  -647  -491  -280  -146  -196  -384  -563  -628  -562  -384  -166  -7  45  0  -127  -297  -422  -431  -298  -51  235  507  737  875  837  562  110  -326  -611  -751  -802  -806  -799  -795  -792  -776  -722  -611  -466  -376  -475  -842  -1308  -1476  -1012  167  1945  4098  6438  8842  11104  12741  13056  11595  8597  4994  1846  -244  -1179  -1251  -977  -732  -622  -652  -796  -996  -1159  -1236  -1242  -1212  -1166  -1090  -974  -860  -781  -732  -712  -712  -709  -713  -713  -681  -628  -589  -586  -617  -625  -554  -436  -308  -163  -15  81  118  145  232  398  591  752  859  909  895  815  699  609  620  793  1114  1445  1638  1669  1589  1457  1338  1282  1294  1320  1258  1010  620  278  114  95  127  159  168  114  -41  -250  -404  -458  -458  -449  -429  -381  -310  -258  -278  -376  -488  -552  -562  -538  -498  -445  -372  -291  -234  -210  -193  -153  -97  -57  -43  -22  32  91  76  -37  -175  -268  -330  -370  -377  -360  -338  -305  -257  -209  -174  -141  -101  -77  -80  -71  -49  -57  -102  -160  -223  -278  -297  -264  -195  -152  -172  -200  -186  -148  -127  -131  -138  -128  -114  -116  -129  -127  -112  -99  -98  -108  -143  -225  -327  -366  -319  -251  -217  -218  -250  -314  -394  -451  -473  -474  -471  -458  -422  -351  -257  -166  -98  -46  -2  22  8  -45  -104  -125  -106  -69  -24  15  41  52  59  79  140  260  421  562  629  566  322  -53  -408  -664  -863  -1047  -1185  -1253  -1258  -1232  -1222  -1251  -1289  -1277  -1168  -964  -719  -459  -54  882  2687  5142  7563  9361  10287  10250  9066  6704  3773  1278  -196  -796  -1021  -1232  -1505  -1786  -2043  -2244  -2359  -2409  -2436  -2446  -2429  -2407  -2430  -2518  -2617  -2669  -2667  -2638  -2613  -2617  -2642  -2652  -2622  -2566  -2493  -2358  -2111  -1775]
