reading_id,reading_time,wire_id,result_classification,heart_rate,heart_rate_alert,firmware_version,device_app_version,hardware_version,waveform_samples
2e455360-5a67-11ed-8080-808080808080,Wed Nov 02 04:31:12 UTC 2022,e100e3fd2639,NSR,57,NONE,20001.171.50,2.10.0,Charge 5,[0  541  1442  2722  4218  5836  7501  9093  10582  12083  13654  15261  16857  18261  19246  19897  20520  21321  22346  23497  24508  25148  25475  25728  26060  26420  26633  26582  26287  25829  25349  25016  24884  24857  24834  24775  24697  24622  24492  24128  23408  22469  21607  21021  20653  20278  19803  19365  19043  18730  18390  18161  18113  18115  17924  17338  16431  15566  15020  14757  14608  14438  14160  13805  13508  13325  13169  12919  12553  12195  11982  11863  11581  10861  9717  8548  7781  7484  7421  7369  7283  7219  7201  7196  7162  7086  6954  6714  6330  5889  5516  5222  4925  4605  4286  3945  3560  3175  2864  2665  2560  2534  2606  2809  3134  3466  3650  3656  3526  3271  2956  2715  2596  2514  2355  2076  1652  1046  376  -103  -322  -443  -609  -820  -1004  -1114  -1184  -1266  -1337  -1348  -1312  -1279  -1276  -1305  -1376  -1513  -1732  -1996  -2226  -2350  -2350  -2277  -2197  -2150  -2135  -2130  -2133  -2173  -2299  -2542  -2845  -3080  -3169  -3140  -3060  -2967  -2863  -2754  -2668  -2639  -2712  -2929  -3299  -3727  -3981  -3853  -3357  -2681  -2017  -1428  -787  64  1065  1937  2364  2106  1189  20  -920  -1487  -1842  -2169  -2499  -2752  -2854  -2812  -2707  -2615  -2571  -2590  -2659  -2733  -2765  -2757  -2737  -2715  -2688  -2650  -2592  -2524  -2479  -2468  -2459  -2417  -2337  -2251  -2186  -2147  -2125  -2121  -2145  -2215  -2345  -2521  -2685  -2771  -2748  -2619  -2407  -2154  -1917  -1758  -1710  -1756  -1832  -1870  -1842  -1780  -1733  -1722  -1728  -1713  -1654  -1568  -1493  -1440  -1392  -1360  -1394  -1527  -1713  -1870  -1958  -1981  -1935  -1836  -1739  -1691  -1694  -1728  -1815  -2028  -2399  -2835  -3170  -3331  -3365  -3357  -3352  -3363  -3372  -3341  -3229  -3059  -2920  -2869  -2892  -2954  -3021  -3076  -3118  -3143  -3146  -3132  -3113  -3101  -3103  -3108  -3095  -3035  -2931  -2808  -2675  -2541  -2435  -2395  -2446  -2581  -2749  -2877  -2932  -2937  -2919  -2882  -2828  -2776  -2742  -2712  -2655  -2576  -2515  -2490  -2488  -2492  -2506  -2541  -2587  -2605  -2555  -2434  -2316  -2300  -2390  -2493  -2543  -2543  -2510  -2439  -2328  -2199  -2087  -2011  -1962  -1922  -1901  -1936  -2036  -2142  -2185  -2172  -2156  -2153  -2130  -2046  -1899  -1748  -1661  -1660  -1727  -1819  -1884  -1900  -1895  -1909  -1962  -2004  -1950  -1790  -1614  -1515  -1499  -1519  -1543  -1559  -1550  -1513  -1419  -1228  -985  -817  -845  -1115  -1539  -1903  -2045  -1942  -1662  -1322  -1032  -841  -748  -717  -698  -662  -606  -555  -568  -622  -621  -559  -507  -489  -489  -485  -455  -393  -322  -273  -255  -258  -286  -352  -441  -510  -483  -281  88  455  614  508  244  -26  -211  -291  -301  -311  -372  -474  -557  -580  -528  -398  -230  -106  -79  -149  -310  -578  -878  -944  -626  -142  287  683  1148  1869  2969  4154  4918  5026  4470  3384  2127  1105  514  261  157  161  268  377  396  319  204  117  75  59  57  73  101  125  139  154  189  214  156  4  -127  -141  -50  80  188  231  194  100  -16  -122  -188  -209  -189  -110  44  238  409  555  693  788  813  785  733  685  662  676  731  821  919  999  1042  1049  1043  1056  1112  1227  1377  1503  1577  1602  1559  1448  1332  1262  1237  1223  1180  1077  927  779  659  564  490  433  393  378  409  491  565  545  400  176  -13  -78  -39  20  47  34  20  35  66  79  71  67  80  96  106  107  106  112  132  156  171  174  190  244  321  373  352  250  114  23  15  65  131  181  202  181  89  -72  -233  -305  -261  -136  29  235  471  653  653  397  -9  -342  -485  -487  -436  -384  -351  -331  -322  -335  -401  -548  -733  -871  -926  -908  -802  -585  -303  -72  11  -91  -350  -644  -837  -882  -792  -579  -271  74  347  337  -111  -837  -1439  -1690  -1639  -1409  -1108  -818  -531  -244  -44  13  -24  -89  -123  -110  -92  -102  -119  -113  -106  -163  -283  -353  -277  -113  26  111  182  272  349  361  309  232  145  55  -4  8  114  270  395  444  425  347  210  18  -190  -341  -400  -400  -384  -375  -380  -406  -452  -512  -586  -658  -689  -619  -356  182  931  1670  2200  2470  2534  2474  2402  2394  2331  1971  1247  440  -21  101  686  1305  1531  1176  330  -612  -1154  -1136  -771  -358  -90  59  237  462  605  532  193  -276  -619  -690  -520  -217  93  336  492  548  493  349  177  48  17  99  278  510  731  881  956  992  1005  992  979  1004  1066  1147  1269  1455  1641  1733  1735  1719  1687  1599  1448  1270  1127  1059  1053  1076  1106  1132  1149  1151  1128  1071  995  931  874  784  602  282  -142  -546  -813  -940  -1017  -1108  -1154  -1068  -877  -688  -576  -542  -542  -539  -535  -557  -628  -731  -819  -862  -869  -859  -835  -774  -653  -485  -328  -228  -193  -236  -391  -631  -844  -928  -854  -657  -429  -261  -191  -228  -373  -580  -764  -872  -893  -787  -502  -116  167  217  42  -265  -569  -763  -826  -802  -745  -667  -548  -404  -289  -249  -301  -432  -585  -686  -709  -674  -606  -529  -468  -441  -470  -573  -724  -849  -900  -889  -842  -751  -580  -334  -93  50  74  5  -129  -299  -449  -538  -571  -577  -576  -574  -570  -553  -517  -473  -443  -439  -442  -406  -287  -113  34  88  -5  -288  -666  -945  -1026  -939  -750  -545  -403  -336  -317  -346  -422  -496  -481  -322  -74  150  314  444  544  592  557  422  231  74  24  67  99  26  -137  -285  -345  -348  -348  -350  -333  -303  -293  -336  -434  -559  -672  -744  -766  -742  -667  -558  -451  -365  -314  -315  -279  -36  547  1545  2823  4004  4630  4318  3094  1529  281  -245  -67  393  661  482  -25  -462  -616  -588  -517  -462  -443  -456  -488  -516  -530  -536  -544  -548  -545  -544  -549  -530  -409  -141  185  400  393  172  -138  -355  -377  -222  4  182  263  273  242  187  125  96  149  288  450  570  634  667  684  695  719  780  881  972  992  983  1031  1135  1232  1284  1300  1300  1278  1207  1068  889  727  624  565  515  475  456  435  354  199  52  -8  -12  -14  -17  -17  -30  -76  -153  -257  -416  -624  -771  -725  -458  -69  270  427  326  -55  -579  -988  -1159  -1154  -1061  -900  -668  -404  -190  -83  -72  -111  -157  -187  -197  -196  -190  -179  -151  -104  -76  -125  -248  -365  -398  -334  -233  -165  -155  -189  -250  -323  -400  -489  -583  -624  -536  -329  -104  25  22  -84  -250  -417  -486  -363  -47  318  539  480  126  -354  -699  -802  -756  -664  -551  -411  -299  -318  -472  -642  -727  -738  -721  -677  -555  -330  -23  334  685  900  812  322  -421  -1042  -1273  -1136  -807  -489  -304  -233  -179  -83  47  176  258  247  96  -176  -455  -620  -656  -617  -531  -402  -262  -181  -196  -279  -361  -394  -379  -343  -312  -300  -286  -247  -199  -188  -240  -333  -417  -455  -440  -377  -270  -144  -45  -4  -28  -123  -276  -426  -487  -415  -244  -72  23  43  32  21  12  7  21  98  283  574  879  1058  998  676  238  -82  -203  -210  -193  -182  -186  -223  -299  -396  -469  -483  -431  -330  -198  -71  14  13  -53  45  523  1303  2268  3404  4534  5309  5380  4451  2648  765  -436  -847  -768  -537  -373  -362  -443  -474  -407  -301  -210  -153  -124  -98  -57  5  74  103  69  -3  -68  -101  -105  -66  38  189  304  306  180  -14  -182  -269  -292  -276  -214  -88  61  162  192  192  218  301  432  593  772  941  1042  1004  803  526  322  266  334  479  662  881  1167  1480  1681  1636  1315  870  535  401  385  407  454  516  547  523  482  452  397  254  2  -294  -518  -617  -635  -634  -629  -607  -565  -520  -483  -434  -353  -288  -343  -552  -802  -944  -950  -892  -808  -680  -537  -451  -449  -493  -519  -489  -434  -403  -416  -460  -507  -542  -579  -613  -629  -632  -630  -623  -607  -578  -531  -454  -366  -325  -358  -423  -468  -493  -518  -534  -520  -465  -375  -290  -271  -332  -404  -416  -379  -337  -314  -309  -315  -329  -345  -369  -426  -528  -641  -713  -739  -742  -734  -699  -605  -423  -164  85  221  185  -22  -304  -514  -586  -532  -372  -152  41  133  76  -128  -385  -564  -623  -589  -471  -286  -114  -44  -96  -210  -304  -339  -315  -236  -129  -43  -2  0  -43  -144  -281  -382  -410  -399  -403  -440  -483  -505  -503  -481  -444  -395  -333  -260  -173  -45  150  377  543  586  466  160  -222  -494  -574  -515  -379  -215  -71  24  52  20  -14  -13  7  18  15  10  40  130  259  364  409  408  387  366  373  439  558  643  587  388  152  -47  -205  -323  -388  -405  -398  -383  -362  -337  -324  -331  -326  -295  -349  -528  -596  -301  392  1375  2432  3342  3980  4273  4148  3547  2565  1509  694  226  -40  -318  -638  -864  -925  -874  -795  -716  -643  -630  -653  -532  -231  43  157  166  145  86  -53  -247  -393  -431  -399  -366  -357  -348  -305  -201  -21  198  356  371  217  -64  -347  -521  -581  -570  -461  -205  119  349  415  379  322  286  286  329  412  530  711  997  1338  1588  1636  1434  1005  520  204  135  268  527  797  942  909  748  554  381  209  11  -176  -288  -295  -201  -41  120  198  65  -366  -960  -1394  -1490  -1302  -987  -716  -579  -552  -564  -579  -586  -580  -545  -482  -420  -374  -332  -296  -275  -258  -228  -184  -140  -117  -120  -134  -139  -129  -121  -170  -319  -515  -627  -586  -456  -355  -332  -351  -367  -375  -392  -434  -475  -446  -338  -238  -199  -199  -221  -247  -229  -136  -30  -58  -295  -610  -772  -694  -498  -357  -313  -304  -281  -245  -216  -200  -190  -187  -222  -324  -464  -570  -612  -611  -577  -501  -402  -334  -317  -318  -304  -279  -290  -371  -487  -557  -555  -520  -495  -496  -528  -598  -709  -833  -913  -917  -856  -755  -650  -566  -481  -371  -258  -185  -161  -155  -138  -106  -58  24  155  296  378  380  326  232  80  -130  -344  -496  -598  -705  -821  -878  -832  -724  -634  -598  -593  -577  -534  -495  -555  -736  -817  -542  40  718  1366  1981  2607  3192  3537  3389  2628  1427  213  -594  -840  -676  -412  -342  -526  -721  -714  -574  -462  -417  -409  -412  -416  -405  -368  -315  -279  -274  -288  -297  -296  -283  -266  -253  -249  -255  -268  -278  -282  -285  -268  -206  -120  -63  -50  -57  -46  13  133  299  464  574  628  663  692  721  773  855  964  1117  1334  1575  1739  1739  1562  1285  1049  944  950  1024  1146  1285  1388  1401  1283  1027  697  414  258  196  145  68  -10  -71  -122  -159  -163  -157  -203  -347  -546  -696  -751  -739  -682  -577  -432  -314  -316  -435  -531  -493  -363  -238  -162  -131  -132  -175  -275  -400  -491  -522  -502  -442  -370  -327  -335  -377  -432  -495  -554  -575  -504  -284  66  410  591  508  142  -355  -720  -824  -706  -449  -167  24  98  100  66  5  -71  -139  -189  -215  -186  -84  42  98  13  -171  -331  -400  -399  -359  -286  -198  -128  -80  -29  37  90  92  31  -57  -141  -232  -350  -462  -526  -545  -551  -546  -485  -329  -122  36  84  0  -219  -481  -626  -596  -486  -376  -268  -181  -148  -157  -157  -90  67  266  424  499  504  450  332  193  106  88  89  71  43  2  -92  -261  -453  -589  -644  -631  -519  -275  31  252  278  43  -431  -954  -1285  -1356  -1234  -983  -639  -245  167  589  992  1386  1902  2596  3224  3413  2975  2092  1248  886  1029  1159  641  -588  -1920  -2693  -2692  -2113  -1378  -874  -691  -696  -743  -732  -638  -496  -350  -230  -160  -134  -136  -166  -240  -341  -416  -439  -416  -364  -312  -281  -271  -278  -285  -257  -173  -37  122  264  357  401  418  439  475  499  494  486  528  646  827  1017  1145  1183  1167  1151  1172  1224  1290  1363  1431  1461  1428  1342  1221  1087  967  879  817  762  674  500  259  54  -49  -73  -71  -66  -61  -66  -95  -147  -216  -295  -353  -373  -375  -386  -411  -435  -446  -443  -388  -230  4  207  303  286  154  -84  -372  -620  -760  -765  -644  -460  -298  -182  -89  -16  32  67  103  130  81  -109  -393  -618  -705  -687  -619  -525  -432  -387  -404  -453  -491  -506  -513  -519  -503  -430  -316  -238  -258  -363  -479  -533  -516  -462  -381  -252  -68  115  230  252  183  20  -194  -373  -461  -480  -477  -465  -408  -266  -60  132  238  225  108  -51  -199  -287  -294  -258  -230  -223  -222  -222  -232  -256  -270  -246  -202  -166  -136  -102  -78  -96  -174  -285  -378  -436  -464  -432  -306  -138  -31  -24  -78  -159  -268  -390  -474  -470  -366  -206  -56  46  114  166  201  236  278  284  237  154  62  30  87  177  255  306  303  205  8  -199  -289  -212  -48  84  131  87  -41  -207  -329  -377  -390  -431  -544  -710  -859  -951  -999  -1037  -1066  -1027  -817  -325  508  1581  2621  3465  4038  4092  3491  2452  1301  376  -77  -114  17  68  -63  -270  -412  -466  -469  -436  -370  -287  -222  -198  -233  -335  -471  -564  -554  -431  -259  -136  -115  -177  -274  -357  -404  -411  -371  -262  -91  68  143  141  121  123  147  174  191  214  264  362  498  627  714  758  777  786  792  804  836  896  988  1071  1090  1099  1198  1364  1513  1617  1675  1673  1581  1376  1104  854  677  558  473  411  373  342  263  90  -142  -329  -408  -378  -260  -107  0  25  -17  -98  -197  -316  -460  -606  -715  -754  -726  -656  -567  -459  -345  -250  -189  -155  -130  -110  -112  -149  -205  -240  -241  -227  -206  -169  -125  -116  -181  -313  -441  -487  -435  -335  -259  -232  -242  -277  -329  -379  -401  -379  -310  -212  -122  -68  -50  -54  -64  -76  -105  -167  -240  -274  -267  -251  -236  -219  -203  -189  -188  -215  -273  -344  -392  -389  -322  -212  -114  -64  -53  -59  -79  -123  -182  -221  -230  -273  -415  -606  -734  -756  -714  -661  -623  -598  -582  -569  -526  -404  -195  28  171  201  116  -89  -368  -599  -683  -632  -519  -401  -315  -271  -262  -289  -368  -476  -533  -453  -230  49  265  360  348  258  118  -34  -178  -300  -372  -389  -381  -388  -429  -488  -521  -492  -399  -255  -87  65  185  271  315  301  223  113  37  55  187  377  520  549  445  231  1  -126  -122  -50  20  51  5  -158  -420  -677  -842  -901  -891  -863  -847  -834  -763  -555  -219  38  36  -75  6  451  1346  2614  3902  4803  4964  4099  2388  556  -703  -1201  -1190  -1083  -1141  -1299  -1285  -950  -425  33  253  165  -220  -734  -1098  -1181  -1059  -876  -735  -668  -655  -674  -697  -699  -657  -558  -377  -84  259  510  573  433  124  -232  -475  -526  -375  -53  306  512  495  351  211  147  169  271  453  673  848  920  909  875  871  915  983  1040  1095  1203  1395  1609  1704  1584  1299  1005  814  718  665  639  645  677  700  652  464  156  -141  -315  -377  -396  -400  -375  -325  -272  -241  -249  -308  -435  -620  -797  -905  -935  -883  -741  -552  -416  -393  -470  -597  -721  -821  -883  -835  -595  -206  154  357  377  220  -73  -378  -563  -615  -595  -541  -454  -343  -243  -190  -186  -205  -222  -228  -228  -222  -209  -192  -180  -178  -183  -191  -192  -187  -183  -208  -283  -385  -459  -486  -484  -458  -403  -335  -302  -331  -395  -444  -461  -458  -451  -444  -434  -405  -335  -234  -150  -112  -110  -132  -160  -183  -210  -268  -372  -462  -451  -373  -336  -356  -368  -326  -242  -181  -189  -261  -377  -506  -600  -633  -601  -497  -332  -167  -62  -26  -34  -70  -119  -157  -159  -90  72  285  442  461  318  48  -239  -432  -503  -499  -459  -391  -304  -230  -185  -162  -165  -239  -426  -656  -738  -542  -165  161  305  299  221  128  59  29  30  66  153  267  336  319  251  198  189  215  251  267  200  -4  -290  -508  -586  -554  -452  -308  -163  -78  -119  -293  -504  -630  -618  -507  -412  -407  -414  -337  -158  203  862  1801  2915  3962  4538  4407  3651  2492  1311  471  10  -226  -363  -447  -465  -430  -377  -321  -275  -255  -269  -337  -459  -589  -662  -632  -484  -277  -132  -144  -324  -582  -775  -821  -712  -481  -207  17  164  248  266  189  34  -100  -153  -147  -127  -124  -161  -237  -276  -178  42  270  436  567  702  848  965  1007  984  952  938  935  945  1007  1163  1393  1599  1701  1691  1596  1428  1219  1034  894  741  524  282  118  100  187  281  333  341  286  135  -67  -216  -255  -208  -126  -77  -161  -455  -864  -1158  -1186  -971  -666  -449  -386  -432  -523  -610  -654  -638  -562  -431  -272  -156  -145  -246  -397  -507  -542  -539  -530  -494  -401  -271  -168  -132  -152  -203  -254  -274  -250  -203  -161  -122  -79  -61  -97  -162  -220  -261  -284  -291  -288  -277  -254  -208  -153  -113  -101  -102  -97  -80  -48  -7  28  43  27  -14  -63  -114  -176  -225  -218  -139  -36  11  -36  -156  -289  -375  -398  -376  -327  -257  -174  -103  -56  -37  -36  -34  -38  -72  -132  -156  -81  65  174  159  20  -166  -300  -348  -341  -297  -208  -81  48  140  171  169  142  41  -127  -271  -337  -355  -355  -350  -351  -373  -415  -442  -431  -400  -344  -212  21  317  596  772  780  587  225  -189  -491  -567  -454  -299  -226  -249  -308  -352  -378  -396  -394  -335  -188  25  227  338  326  202  21  -136  -224  -234  -186  -143  -189  -348  -549  -691  -736  -716  -663  -571  -454  -365  -359  -435  -537  -619  -617  -427  -50  449  1110  1934  2807  3611  4196  4331  3866  2897  1732  722  56  -298  -469  -512  -416  -259  -199  -250  -309  -335  -340  -324  -270  -191  -131  -108  -109  -115  -118  -115  -112  -125  -163  -211  -248  -292  -384  -512  -609  -624  -549  -404  -215  -13  157  264  310  328  328  289  201  109  77  118  192  251  282  291  283  290  397  684  1075  1373  1492  1499  1479  1458  1426  1375  1292  1156  993  878  837  828  804  719  531  258  9  -120  -144  -125  -102  -89  -110  -199  -350  -493  -567  -577  -565  -550  -522  -473  -428  -429  -498  -612  -709  -747  -742  -724  -704  -653  -535  -371  -246  -230  -333  -477  -551  -536  -487  -423  -359  -310  -267  -229  -200  -154  -58  68  150  119  -18  -202  -368  -480  -543  -599  -688  -800  -875  -879  -841  -796  -743  -629  -401  -112  92  140  73  -38  -144  -224  -273  -291  -285  -276  -290  -352  -454  -551  -606  -615  -571  -454  -273  -107  -76  -239  -505  -712  -784  -729  -568  -361  -218  -205  -313  -468  -575  -573  -461  -304  -188  -147  -163  -208  -265  -313  -341  -354  -354  -343  -325  -309  -296  -288  -287  -302  -325  -337  -316  -255  -179  -131  -153  -261  -414  -533  -572  -525  -392  -211  -63  -2  -20  -75  -134  -174  -191  -196  -206  -225  -237  -236  -247  -281  -307  -288  -195  -22  208  447  624  702  693  595  397  155  -12  -49  14  111  179  170  59  -132  -349  -541  -658  -643  -519  -390  -321  -293  -285  -312  -428  -633  -797  -733  -373  207  932  1749  2564  3260  3728  3894  3715  3162  2291  1281  338  -365  -744  -814  -652  -396  -198  -128  -187  -359  -576  -731  -790  -796  -787  -753  -651  -479  -308  -217  -198  -170  -73  57  113  26  -144  -255  -218  -84  27  66  65  63  77  112  155  186  197  206  238  287  324  335  336  356  416  512  602  652  661  649  631  619  650  762  937  1093  1168  1154  1059  913  785  733  761  828  893  930  891  700  340  -63  -344  -452  -451  -422  -399  -384  -375  -382  -422  -494  -571  -620  -634  -616  -565  -504  -483  -525  -579  -584  -556  -552  -583  -612  -613  -605  -587  -546  -495  -437  -343  -224  -134  -110  -134  -173  -206  -224  -228  -222  -212  -207  -236  -325  -442  -499  -445  -322  -211  -151  -131  -133  -142  -143  -124  -90  -56  -27  -15  -62  -215  -438  -619  -701  -699  -625  -507  -410  -364  -338  -289  -220  -164  -126  -86  -38  -7  -37  -158  -343  -517  -628  -657  -607  -529  -462  -403  -356  -330  -321  -329  -336  -317  -265  -197  -160  -215  -358  -512  -615  -657  -621  -468  -213  33  167  157  22  -184  -380  -523  -606  -612  -517  -325  -132  -85  -198  -320  -324  -193  -8  117  157  178  245  343  389  338  235  153  93  -2  -140  -268  -342  -317  -165  55  218  221  30  -282  -563  -706  -723  -685  -640  -590  -517  -405  -277  -198  -267  -541  -880  -968  -681  -211  254  664  1060  1641  2510  3391  3891  3778  3025  1903  879  271  7  -200  -427  -525  -444  -279  -139  -82  -91  -154  -297  -488  -624  -618  -464  -243  -88  -77  -198  -371  -497  -533  -487  -366  -160  125  413  592  597  438  190  -22  -122  -124  -79  -29  3  13  13  35  126  295  475  598  669  720  760  792  835  932  1133  1423  1687  1792  1701  1488  1277  1149  1093  1061  1030  1009  1007  1009  958  795  530  267  105  56  66  78  64  9  -81  -201  -335  -456  -535  -573  -577  -557  -533  -530  -567  -637  -708  -748  -756  -750  -742  -731  -714  -706  -715  -733  -743  -727  -669  -572  -462  -362  -285  -230  -191  -164  -144  -135  -161  -244  -365  -493  -633  -781  -871  -850  -756  -690  -677  -624  -496  -378  -333  -340  -350  -335  -296  -258  -242  -250  -268  -289  -316  -342  -357  -370  -386  -398  -395  -377  -358  -348  -345  -341  -335  -341  -383  -452  -487  -419  -244  -43  82  95  28  -66  -141  -181  -184  -158  -139  -171  -271  -411  -534  -600  -603  -540  -416  -260  -131  -61  0  125  301  435  483  485  476  446  372  270  185  131  102  139  288  488  575  422  46  -410  -766  -897  -806  -617  -470  -399  -365  -355  -377  -413  -424  -377  -312  -355  -495  -461  5  902  2051  3162  3892  4055  3635  2739  1661  736  183  60  173  185  -87  -503  -793  -885  -861  -776  -683  -631  -617  -597  -532  -413  -270  -152  -112  -170  -279  -368  -407  -404  -350  -232  -105  -66  -129  -204  -218  -161  -74  -6  25  32  10  -57  -145  -191  -156  -55  83  245  399  497  545  599  700  824  919  979  1038  1110  1194  1290  1389  1441  1380  1229  1090  1015  966  891  799  732  702  686  660  608  499  276  -68  -419  -636  -695  -668  -604  -517  -433  -389  -424  -558  -741  -881  -941  -947  -923  -870  -789  -715  -725  -838  -952  -958  -831  -625  -443  -376  -399  -431  -441  -448  -479  -524  -520  -443  -378  -428  -589  -740  -767  -671  -544  -446  -381  -343  -334  -353  -385  -403  -397  -378  -360  -346  -335  -338  -375  -445  -523  -559  -494  -313  -66  157  274  199  -105  -523  -830  -903  -771  -512  -214  43  162  36  -285  -588  -725  -715  -635  -515  -360  -215  -158  -219  -336  -401  -347  -182  32  222  330  330  214  12  -187  -305  -333  -302  -225  -121  -31  9  -12  -81  -165  -228  -235  -152  33  268  445  507  486  439  385  291  113  -107  -262  -309  -303  -312  -374  -492  -627  -719  -734  -676  -582  -527  -550  -600  -593  -500  -356  -217  -84  96  401  802  1139  1463  2028  2790  3384  3491  2941  1784  445  -561  -1050  -1089  -847  -577  -445  -429  -448  -466  -483  -502  -519  -529  -522  -482  -414  -350  -312  -293  -304  -385  -538  -671  -659  -482  -242  -40  90  145  121  26  -99  -190  -219  -206  -164  -96  -17  44  86  128  181  247  317  395  501  619  690  693  674  695  781  896  981  1025  1064  1122  1192  1252  1289  1304  1307  1284  1209  1080  920  742  553  375  230  104  -14  -92  -103  -58  5  53  71  71  61  44  24  9  1  -3  -27  -116  -292  -495  -628  -648  -575  -455  -340  -269  -238  -216  -182  -148  -146  -199  -283  -356  -398  -415  -411  -385  -340  -288  -246  -219  -209  -209  -202  -172  -121  -81  -77  -118  -208  -323  -413  -439  -383  -234  -46  90  127  65  -79  -247  -355  -377  -352  -329  -351  -445  -591  -722  -788  -786  -727  -620  -491  -376  -318  -335  -404  -473  -497  -477  -448  -432  -429  -443  -481  -535  -578  -594  -578  -533  -476  -431  -405  -391  -386  -385  -378  -356  -328  -308  -301  -298  -295  -298  -323  -364  -401  -444  -529  -644  -731  -770  -788  -785  -696  -468  -200  -55  -26  20  117  199  222  174  73  -50  -158  -199  -125  62  281  411  340  28  -399  -724  -868  -897  -840  -685  -506  -450  -546  -658  -652  -509  -275  -9  215  309  219  57  100  644  1766  3150  4243  4576  3944  2561  1043  8  -286  8  478  657  334  -192  -471  -479  -458  -487  -518  -534  -559  -610  -657  -648  -551  -385  -210  -85  -27  -25  -55  -88  -105  -100  -95  -133  -246  -392  -493  -519  -471  -341  -156  -1  68  65  24  -24  -56  -54  -10  67  170  296  424  511  553  606  714  890  1116  1324  1431  1383  1175  896  696  639  677  740  778  749  625  441  285  211  215  260  306  322  273  125  -115  -390  -625  -779  -849  -822  -690  -518  -444  -544  -744  -906  -965  -927  -805  -638  -503  -451  -462  -495  -520  -534  -545  -555  -551  -515  -441  -354  -295  -285  -320  -379  -435  -469  -465  -401  -265  -88  79  207  270  225  36  -244  -486  -612  -649  -622  -527  -403  -314  -266  -219  -153  -97  -72  -75  -90  -96  -59  52  212  339  363  239  -60  -442  -722  -824  -821  -792  -770  -755  -741  -707  -615  -444  -220  -2  147  220  254  280  293  278  231  153  46  -90  -261  -450  -604  -662  -610  -494  -365  -229  -93  -5  16  13  23  48  86  122  134  103  33  -35  -62  -35  30  92  111  88  46  15  0  -19  -34  -13  54  135  193  217  217  184  99  -9  -77  -72  -29  -1  -5  -16  -20  -37  -54  4  172  358  445  411  319  247  234  279  373  491  570  535  357  112  -66  -114  -67  10  58  -4  -231  -549  -784  -826  -679  -415  -133  83  164  59  -122  -101  339  1178  2203  3153  3795  4003  3789  3206  2326  1373  624  164  -76  -149  -156  -264  -448  -554  -583  -607  -631  -647  -656  -638  -575  -484  -404  -354  -322  -285  -240  -207  -199  -201  -195  -167  -127  -97  -84  -80  -86  -118  -187  -280  -365  -424  -444  -392  -236  -26  126  176  161  132  116  148  260  430  590  691  728  711  654  577  513  491  518  581  646  682  696  699  691  664  612  549  502  477  438  339  198  75  -40  -219  -456  -649  -743  -762  -750  -730  -716  -730  -789  -882  -974  -1034  -1052  -1031  -988  -945  -915  -906  -914  -916  -868  -740  -562  -413  -342  -348  -430  -574  -725  -817  -823  -754  -647  -554  -493  -458  -443  -442  -430  -380  -293  -210  -166  -160  -167  -161  -131  -88  -57  -51  -65  -107  -197  -319  -419  -462  -436  -328  -146  54  172  87  -233  -618  -801  -673  -381  -146  -51  -49  -93  -179  -285  -364  -396  -394  -357  -276  -190  -169  -221  -284  -310  -308  -321  -377  -454  -517  -544  -514  -390  -175  41  169  219  256  303  325  278  164  30  -68  -112  -117  -113  -113  -112  -89  -31  45  103  123  116  100  88  86  106  162  257  354  401  365  238  50  -125  -225  -240  -205  -159  -128  -118  -130  -164  -210  -243  -233  -172  -83  -14  14  22  29  31  17  0  3  32  64  85  101  118  136  147  137  105  76  65  66  65  56  46  40  6  -121  -370  -649  -831  -881  -850  -778  -725  -778  -907  -949  -828  -581  -201  389  1310  2552  3721  4282  4081  3261  2085  998  348  98  25  -72  -301  -598  -794  -804  -652  -428  -242  -150  -137  -188  -322  -521  -703  -802  -818  -777  -692  -568  -416  -288  -237  -256  -301  -348  -379  -385  -372  -343  -297  -236  -168  -108  -67  -43  -29  -22  -27  -51  -91  -114  -81  19  173  334  439  481  519  599  700  771  790  783  786  827  916  1037  1150  1201  1160  1056  943  864  839  839  786  610  358  156  61  39  39  27  -23  -111  -209  -299  -368  -403  -396  -357  -318  -314  -347  -379  -373  -319  -244  -191  -172  -171  -175  -181  -193  -219  -262  -317  -373  -412  -424  -394  -310  -197  -115  -88  -94  -109  -122  -127  -121  -107  -100  -119  -161  -194  -195  -158  -100  -48  -13  10  28  39  33  -7  -87  -192  -290  -340  -324  -269  -232  -241  -275  -301  -311  -314  -321  -340  -372  -397  -394  -371  -340  -300  -252  -203  -150  -96  -67  -88  -154  -230  -283  -310  -335  -383  -432  -431  -366  -275  -196  -141  -110  -98  -97  -99  -102  -109  -120  -132  -139  -137  -132  -122  -109  -100  -115  -190  -331  -458  -463  -356  -254  -239  -303  -405  -498  -559  -587  -599  -603  -579  -491  -331  -147  -49  -126  -322  -506  -596  -555  -418  -289  -236  -254  -306  -340  -314  -238  -176  -154  -108  -12  58  48  -9  -58  -77  -66  -20  57  138  193  219  222  191  113  12  -70  -120  -151  -172  -190  -216  -264  -335  -401  -428  -415  -393  -391  -419  -503  -690  -978  -1203  -1101  -554  349  1465  2609  3551  4090  4108  3638  2828  1942  1306  1011  836  590  228  -256  -693  -841  -755  -662  -641  -656  -663  -636  -581  -519  -467  -433  -401  -338  -236  -106  60  245  373  349  112  -285  -658  -850  -856  -741  -570  -412  -321  -302  -310  -280  -164  28  219  329  350  325  291  272  288  340  418  493  534  539  527  511  501  532  647  833  1011  1119  1160  1151  1082  937  750  596  517  481  434  363  295  234  157  61  -24  -69  -68  -31  22  57  18  -125  -325  -470  -503  -452  -374  -322  -334  -418  -538  -628  -641  -560  -390  -172  26  131  79  -151  -466  -701  -779  -728  -586  -392  -208  -86  -43  -59  -83  -84  -67  -62  -108  -192  -243  -221  -183  -184  -203  -200  -181  -192  -271  -375  -393  -247  9  233  338  350  324  273  166  -18  -199  -245  -182  -159  -219  -299  -340  -319  -253  -157  -51  24  54  57  51  33  -6  -45  -28  73  179  143  -66  -307  -394  -269  -39  141  221  233  172  -1  -259  -494  -630  -654  -565  -382  -186  -68  -52  -102  -169  -217  -239  -247  -251  -258  -279  -315  -350  -365  -348  -296  -223  -162  -130  -119  -120  -152  -233  -329  -347  -242  -100  -69  -185  -353  -475  -528  -526  -469  -348  -193  -80  -58  -118  -224  -326  -375  -322  -133  125  311  329  187  -23  -188  -250  -213  -94  59  175  218  188  80  -90  -253  -329  -314  -271  -246  -241  -250  -269  -290  -321  -379  -437  -449  -410  -362  -333  -270  -49  410  1086  1914  2822  3677  4233  4181  3423  2278  1220  516  189  65  -88  -267  -318  -279  -278  -347  -441  -504  -510  -487  -468  -444  -388  -326  -300  -312  -331  -335  -327  -322  -321  -317  -318  -354  -441  -523  -507  -386  -258  -186  -152  -136  -136  -140  -135  -122  -113  -123  -166  -253  -345  -360  -235  -7  220  385  485  540  562  548  497  434  397  402  446  532  642  723  728  636  467  303  235  291  418  537  607  639  634  534  280  -67  -352  -496  -538  -534  -492  -401  -283  -190  -144  -130  -128  -139  -168  -189  -163  -97  -32  -31  -131  -295  -442  -520  -514  -449  -371  -311  -276  -255  -241  -236  -243  -265  -300  -339  -387  -447  -481  -433  -320  -226  -215  -273  -344  -377  -373  -361  -353  -342  -329  -341  -409  -511  -562  -487  -293  -74  63  71  -66  -326  -604  -766  -728  -486  -150  88  110  -80  -383  -642  -763  -732  -550  -259  22  195  239  154  -62  -344  -559  -646  -644  -598  -514  -387  -246  -139  -94  -93  -100  -85  -27  70  182  252  208  -12  -360  -663  -782  -721  -578  -441  -323  -203  -102  -65  -100  -165  -199  -169  -95  -21  28  59  68  26  -89  -246  -372  -429  -441  -425  -364  -239  -86  36  107  140  144  96  -41  -264  -490  -621  -620  -506  -342  -194  -94  -63  -98  -142  -149  -127  -95  -66  -30  36  126  194  217  203  169  132  109  98  88  83  90  115  154  201  252  302  345  363  315  165  -42  -192  -200  -69  124  257  232  23  -276  -504  -558  -411  -101  179  218  99  124  405  853  1472  2325  3285  4073  4443  4229  3446  2379  1360  546  -33  -400  -596  -647  -583  -441  -274  -143  -89  -121  -196  -247  -241  -214  -199  -194  -193  -222  -307  -424  -510  -531  -497  -429  -349  -277  -241  -245  -246  -190  -53  125  266  329  341  336  307  232  127  54  77  218  416  561  602  556  457  340  253  237  309  464  667  853  967  1006  1004  981  948  947  1008  1112  1194  1153  956  689  452  287  168  69  9  -1  5  -3  -35  -78  -110  -124  -139  -179  -240  -297  -320  -296  -255  -230  -223  -224  -242  -296  -379  -455  -493  -472  -396  -305  -259  -282  -360  -488  -631  -674  -526  -256  -31  59  49  -13  -116  -244  -354  -418  -435  -414  -350  -246  -125  -34  -22  -112  -267  -397  -425  -336  -195  -88  -44  -37  -57  -114  -189  -236  -226  -165  -83  -7  49  76  31  -119  -332  -501  -568  -542  -448  -326  -225  -160  -106  -52  -5  2  -75  -220  -345  -412  -463  -515  -534  -484  -384  -284  -207  -147  -118  -123  -125  -126  -160  -209  -240  -269  -319  -359  -340  -273  -181  -67  27  24  -109  -313  -461  -483  -404  -264  -105  8  28  -58  -239  -440  -559  -522  -313  -25  182  218  99  -90  -250  -311  -283  -214  -146  -100  -81  -109  -207  -354  -485  -554  -557  -527  -486  -417  -320  -240  -203  -185  -130  2  177  301  295  133  -125  -352  -440  -365  -177  28  166  216  207  161  88  11  -38  -46  -23  9  35  42  26  -28  -128  -245  -324  -343  -323  -290  -258  -227  -206  -225  -324  -492  -597  -495  -186  223  626  992  1414  2048  2933  3863  4456  4386  3591  2314  1029  170  -221  -426  -650  -839  -896  -858  -804  -749  -679  -614  -631  -759  -909  -979  -937  -809  -672  -611  -634  -680  -698  -696  -709  -746  -781  -773  -704  -593  -449  -267  -88  25  68  79  80  53  -25  -141  -241  -284  -272  -218  -128  -27  36  57  93  201  358  482  540  562  580  606  631  639  640  663  708  748  766  769  754  711  644  580  534  486  394  252  103  -36  -181  -315  -378  -353  -295  -268  -275  -284  -303  -373  -479  -551  -525  -394  -211  -61  2  -28  -141  -287  -391  -424  -414  -395  -379  -367  -342  -288  -227  -190  -175  -157  -142  -173  -268  -380  -447  -454  -405  -308  -194  -116  -86  -74  -57  -36  -8  23  45  26  -52  -168  -261  -299  -298  -283  -265  -237  -184  -110  -50  -54  -152  -300  -411  -445  -424  -383  -340  -297  -240  -156  -67  -19  -17  -29  -32  -30  -37  -71  -129  -194  -249  -287  -297  -234  -52  200  378  349  86  -284  -554  -616  -504  -303  -118  -22  -19  -72  -138  -183  -200  -206  -208  -188  -132  -70  -56  -85  -118  -146  -179  -220  -271  -306  -282  -189  -65  33  95  136  136  61  -76  -210  -280  -277  -245  -225  -206  -173  -138  -100  -35  51  122  146  123  65  0  -57  -100  -105  -61  -13  2  -12  -38  -62  -87  -110  -95  -10  111  197  209  161  89  28  2  38  173  386  584  679  615  377  50  -200  -297  -262  -132  21  85  -3  -196  -386  -512  -567  -546  -439  -264  -84  0  -91  -283  -316  27  748  1696  2733  3735  4440  4602  4146  3112  1777  601  -125  -357  -223  13  141  81  -156  -457  -657  -715  -701  -669  -610  -492  -339  -222  -182  -212  -302  -417  -497  -500  -429  -329  -259  -253  -303  -375  -426  -443  -432  -399  -340  -262  -179  -112  -73  -46  3  80  154  199  212  211  226  252  263  254  264  347  527  743  877  885  822  773  787  887  1073  1293  1434  1372  1062  637  329  231  260  315  341  292  130  -91  -260  -320  -288  -181  -38  63  71  -14  -139  -226  -241  -218  -196  -185  -186  -207  -261  -342  -427  -500  -554  -588  -605  -606  -599  -580  -503  -393  -386  -518  -652  -667  -573  -467  -401  -319  -197  -114  -114  -148  -169  -171  -167  -171  -186  -206  -210  -187  -154  -148  -201  -315  -453  -550  -579  -546  -449  -291  -117  -3  16  -42  -144  -256  -347  -394  -388  -353  -327  -322  -311  -282  -237  -164  -73  1  39  50  52  55  40  -16  -114  -227  -325  -377  -357  -253  -109  -13  -2  -31  -40  -29  -34  -68  -101  -101  -74  -51  -58  -91  -108  -80  -32  -14  -44  -97  -135  -145  -141  -137  -136  -136  -135  -112  -24  152  368  533  599  565  440  260  94  -24  -105  -151  -181  -224  -285  -330  -323  -253  -146  -53  1  31  56  89  132  171  200  224  248  267  281  278  232  110  -96  -317  -424  -352  -174  -15  69  103  121  133  129  95  49  34  83  188  299  364  358  270  102  -111  -315  -445  -487  -474  -446  -416  -394  -388  -410  -462  -530  -587  -601  -528  -385  -316  -396  -461  -330  0  531  1317  2307  3332  4160  4507  4211  3380  2284  1205  379  -127  -437  -654  -759  -695  -495  -296  -201  -191  -207  -228  -274  -360  -441  -452  -397  -329  -293  -320  -379  -383  -313  -235  -197  -191  -191  -180  -163  -151  -145  -148  -158  -155  -97  41  205  289  239  108  -16  -96  -126  -81  74  304  498  587  601  582  533  455  416  512  714  885  953  959  955  960  964  930  827  686  584  547  527  460  323  137  -33  -131  -153  -136  -108  -87  -111  -242  -469  -667  -704  -599  -472  -388  -339  -316  -338  -417  -526  -613  -654  -663  -657  -641  -600  -536  -479  -444  -415  -375  -327  -296  -313  -393  -507  -591  -610  -574  -515  -489  -523  -575  -586  -547  -493  -459  -431  -375  -289  -197  -133  -145  -261  -431  -556  -597  -574  -487  -303  -45  179  281  235  40  -284  -639  -887  -990  -985  -898  -749  -568  -392  -272  -238  -253  -250  -181  -17  248  543  718  600  108  -568  -1071  -1241  -1167  -939  -615  -295  -106  -104  -217  -296  -252  -110  63  253  448  566  470  82  -452  -841  -952  -872  -729  -589  -468  -363  -287  -256  -233  -162  -59  11  31  28  39  72  91  59  2  -17  -2  3  -25  -71  -103  -109  -101  -88  -79  -89  -125  -177  -219  -242  -246  -207  -99  50  158  173  102  -6  -93  -129  -130  -123  -117  -94  -36  41  93  97  75  52  38  31  48  123  269  435  541  564  536  466  307  48  -197  -284  -215  -109  -45  -26  -41  -93  -186  -288  -338  -318  -255  -161  -5  290  749  1253  1725  2190  2671  3218  3783  4054  3786  3078  2139  1145  357  -110  -421  -645  -651  -442  -194  -35  15  -28  -157  -323  -440  -461  -398  -293  -188  -109  -83  -112  -161  -191  -189  -167  -140  -119  -102  -93  -109  -162  -239  -301  -323  -292  -191  -31  126  217  233  210  177  149  125  103  101  174  361  613  801  864  854  839  848  880  914  939  961  989  1000  936  765  541  366  284  278  316  354  343  274  192  147  139  127  58  -110  -353  -573  -682  -664  -546  -389  -272  -223  -225  -272  -372  -499  -589  -614  -593  -555  -529  -554  -671  -864  -1040  -1111  -1060  -931  -790  -681  -611  -575  -568  -592  -666  -796  -931  -995  -940  -774  -556  -378  -318  -385  -503  -559  -490  -338  -199  -136  -159  -252  -373  -459  -482  -461  -416  -353  -267  -170  -123  -183  -336  -511  -633  -656  -590  -474  -346  -246  -200  -205  -242  -290  -328  -337  -303  -219  -115  -44  -19  -21  -36  -67  -111  -147  -158  -136  -81  -11  40  48  0  -103  -224  -311  -329  -244  -39  216  387  388  231  14  -141  -194  -190  -175  -168  -167  -168  -171  -175  -184  -196  -205  -206  -190  -136  -21  129  249  287  206  -13  -300  -508  -564  -487  -322  -134  10  94  131  126  71  -17  -83  -84  -13  139  367  587  707  693  562  379  238  190  223  306  398  456  469  456  436  418  409  413  412  338  130  -149  -340  -369  -305  -246  -226  -231  -238  -231  -198  -149  -103  -68  -54  -105  -276  -525  -708  -680  -374  193  948  1835  2834  3847  4562  4607  3899  2682  1364  367  -64  -31  90  29  -155  -332  -494  -653  -757  -763  -676  -547  -423  -336  -295  -288  -298  -315  -325  -288  -168  0  122  145  87  -3  -88  -175  -293  -424  -513  -544  -558  -595  -639  -645  -592  -490  -356  -188  23  240  390  444  427  354  240  141  117  160  210  244  291  377  463  495  476  453  445  452  482  549  638  706  721  662  498  228  -69  -290  -389  -401  -385  -379  -388  -402  -410  -411  -421  -446  -477  -524  -623  -764  -874  -902  -851  -740  -593  -449  -359  -335  -345  -354  -355  -363  -396  -451  -502  -533  -544  -546  -544  -540  -528  -514  -520  -555  -596  -604  -550  -430  -279  -156  -95  -87  -108  -145  -183  -205  -206  -199  -194  -189  -181  -178  -200  -247  -277  -253  -189  -115  -56  -24  -19  -30  -50  -65  -78  -103  -143  -163  -132  -62  17  75  69  -37  -226  -387  -389  -247  -104  -41  -29  -24  -16  -19  -43  -67  -59  -2  83  153  187  189  146  39  -99  -201  -234  -229  -221  -217  -199  -145  -68  -11  5  3  12  44  72  58  0  -58  -87  -91  -89  -96  -117  -144  -161  -165  -170  -197  -249  -315  -373  -395  -369  -309  -245  -191  -145  -107  -66  -5  61  103  117  123  124  108  61  0  -54  -106  -170  -199  -122  67  293  457  518  502  446  349  208  52  -88  -203  -278  -303  -279  -210  -119  -52  -30  -43  -79  -125  -158  -156  -112  -48  -5  16  78  246  595  1199  2055  3013  3839  4317  4316  3791  2815  1667  695  65  -206  -129  171  423  388  45  -390  -677  -737  -620  -402  -180  -49  -42  -139  -293  -433  -488  -392  -116  241  485  470  193  -195  -478  -545  -424  -190  63  242  298  247  143  49  -6  -28  -29  -16  15  60  97  117  122  124  135  168  246  380  545  693  821  953  1077  1158  1180  1141  1042  904  773  691  674  714  754  734  650  547  444  351  284  243  195  111  0  -117  -218  -288  -347  -429  -518  -571  -590  -609  -622  -590  -509  -431  -409  -449  -519  -605  -683  -679  -563  -402  -276  -207  -180  -171  -184  -249  -386  -550  -664  -700  -686  -641  -558  -433  -305  -255  -325  -461  -562  -587  -562  -529  -510  -504  -493  -474  -460  -459  -466  -469  -459  -437  -404  -362  -324  -307  -310  -319  -327  -333  -337  -333  -305  -242  -148  -51  -3  -41  -152  -256  -273  -204  -110  -18  66  110  62  -101  -350  -593  -728  -720  -601  -435  -271  -120  7  68  1  -226  -577  -922  -1127  -1147  -1012  -783  -540  -354  -245  -203  -230  -337  -485  -591  -621  -600  -526  -364  -131  52  56  -146  -456  -722  -848  -809  -625  -385  -210  -147  -161  -216  -296  -373  -421  -430  -395  -282  -79  144  281  274  139  -49  -196  -256  -226  -89  148  393  531  532  454  352  219  35  -154  -265  -273  -225  -165  -98  -25  22  9  -75  -194  -281  -307  -287  -237  -162  -58  101  273  321  289  502  1194  2276  3473  4395  4625  4044  2916  1593  400  -371  -612  -411  65  588  822  560  -30  -593  -897  -915  -744  -521  -372  -338  -377  -434  -470  -469  -428  -361  -295  -248  -226  -225  -227  -215  -178  -126  -79  -46  -27  -17  -1  31  97  198  295  351  360  339  306  289  303  335  369  407  471  575  683  743  761  758  747  766  834  919  985  1020  1031  1030  1007  946  864  805  788  797  805  783  695  515  279  79  -37  -84  -89  -84  -122  -240  -387  -438  -329  -157  -83  -154  -263  -288  -239  -209  -234  -279  -308  -315  -311  -311  -321  -338  -338  -302  -235  -166  -122  -111  -129  -175  -234  -275  -279  -252  -213  -185  -176  -176  -180  -182  -176  -159  -132  -114  -125  -176  -249  -300  -305  -271  -221  -173  -125  -75  -47  -63  -121  -190  -234  -246  -244  -249  -265  -280  -281  -256  -185  -68  45  104  105  73  13  -85  -206  -299  -345  -360  -348  -311  -255  -176  -64  56  138  172  184  175  106  -26  -145  -176  -137  -92  -72  -69  -66  -54  -28  2  23  17  -16  -63  -101  -145  -213  -283  -311  -302  -280  -237  -159  -73  -28  -45  -98  -139  -146  -122  -66  24  123  191  207  154  20  -167  -344  -446  -435  -334  -214  -126  -80  -59  -38  -14  0]
