reading_id,reading_time,wire_id,result_classification,heart_rate,heart_rate_alert,firmware_version,device_app_version,hardware_version,waveform_samples
21cf26d0-6a2d-11ed-8080-808080808080,Tue Nov 22 06:15:59 UTC 2022,e100e3fd2639,NSR,93,NONE,20001.171.50,2.10.0,Charge 5,[0  -103  -207  -277  -319  -403  -541  -550  -194  517  1441  2741  4788  7539  10333  12197  12263  10343  7258  4263  2076  703  -57  -455  -743  -901  -878  -929  -1213  -1552  -1746  -1764  -1696  -1631  -1577  -1520  -1498  -1540  -1605  -1616  -1531  -1369  -1180  -997  -804  -611  -484  -451  -470  -502  -576  -749  -990  -1193  -1301  -1312  -1238  -1109  -948  -748  -532  -354  -250  -237  -279  -265  -158  -39  24  33  -7  -103  -219  -291  -278  -182  -25  150  282  338  337  318  290  213  22  -249  -476  -611  -701  -778  -826  -795  -620  -299  34  235  283  245  167  68  -35  -115  -137  -91  -24  -20  -136  -347  -513  -467  -213  78  284  395  450  482  499  504  485  393  173  -116  -329  -403  -396  -383  -401  -443  -474  -476  -460  -448  -451  -461  -449  -361  -157  106  283  304  246  204  211  254  302  333  367  412  408  242  -144  -627  -977  -1091  -1039  -933  -843  -793  -769  -759  -771  -836  -967  -1006  -732  -104  981  2745  5138  7846  10334  11822  11649  9679  6593  3610  1590  639  363  225  -148  -724  -1203  -1423  -1463  -1424  -1346  -1270  -1230  -1206  -1157  -1049  -854  -612  -414  -304  -279  -321  -408  -505  -579  -622  -649  -659  -655  -658  -673  -672  -621  -533  -474  -425  -214  246  766  1085  1150  1060  897  722  602  557  552  565  624  758  922  1007  947  773  587  491  497  525  504  442  383  326  238  134  79  113  211  272  186  -71  -414  -710  -889  -961  -951  -881  -763  -597  -411  -270  -205  -200  -250  -382  -597  -817  -948  -953  -828  -602  -358  -172  -52  12  -19  -201  -468  -670  -740  -732  -706  -677  -651  -635  -635  -638  -622  -566  -485  -422  -405  -425  -459  -489  -507  -511  -498  -462  -398  -327  -278  -261  -261  -264  -278  -314  -361  -393  -409  -431  -483  -553  -600  -607  -661  -868  -1181  -1419  -1434  -1200  -841  -523  -249  73  290  48  -579  -893  -221  1643  4432  7390  9564  10289  9406  7287  4638  2136  256  -857  -1410  -1596  -1514  -1382  -1371  -1438  -1490  -1513  -1524  -1529  -1526  -1500  -1391  -1138  -809  -577  -529  -604  -704  -810  -962  -1128  -1232  -1265  -1272  -1272  -1215  -1009  -630  -191  125  228  184  80  -42  -101  -38  97  259  422  548  618  650  683  753  855  950  1011  1038  1042  1031  996  917  778  602  429  254  75  -68  -176  -293  -430  -559  -649  -693  -697  -664  -627  -624  -660  -720  -771  -793  -797  -806  -820  -830  -828  -825  -845  -909  -995  -1041  -1001  -881  -714  -530  -360  -233  -162  -112  -40  22  -27  -237  -505  -691  -760  -765  -754  -734  -693  -643  -617  -636  -679  -698  -653  -504  -252  16  170  97  -237  -697  -1039  -1141  -1040  -785  -432  -95  104  158  146  130  118  84  10  -94  -200  -278  -329  -376  -436  -524  -646  -784  -899  -966  -982  -927  -779  -578  -334  90  973  2660  5162  7838  9810  10468  9547  7316  4646  2370  722  -410  -1068  -1321  -1422  -1503  -1477  -1354  -1239  -1140  -1035  -939  -872  -849  -899  -1050  -1269  -1460  -1546  -1530  -1459  -1359  -1236  -1114  -1015  -891  -690  -463  -309  -246  -223  -219  -227  -202  -131  -69  -83  -185  -323  -420  -434  -310  -2  385  642  705  666  603  546  505  485  480  487  506  517  464  292  39  -180  -300  -332  -329  -346  -416  -519  -594  -616  -605  -593  -616  -695  -807  -887  -893  -827  -731  -665  -665  -732  -830  -907  -942  -940  -898  -807  -672  -518  -382  -297  -291  -382  -569  -788  -946  -1005  -995  -955  -896  -811  -717  -653  -642  -673  -718  -753  -769  -764  -718  -611  -469  -346  -253  -174  -123  -130  -200  -297  -368  -393  -390  -375  -347  -312  -264  -155  48  250  285  151  4  -59  -70  -84  -122  -166  -197  -210  -220  -259  -357  -511  -664  -763  -817  -873  -955  -1000  -839  -395  242  1135  2601  4803  7455  9922  11456  11543  10185  7857  5277  2947  978  -464  -1144  -1199  -1014  -831  -713  -688  -827  -1151  -1474  -1559  -1392  -1169  -1025  -931  -812  -671  -551  -480  -487  -604  -792  -966  -1077  -1131  -1145  -1095  -935  -685  -445  -296  -257  -297  -344  -360  -368  -349  -222  40  358  626  808  914  952  921  828  673  463  264  158  160  208  240  233  181  99  19  -42  -85  -119  -163  -252  -410  -586  -704  -759  -764  -719  -661  -638  -651  -687  -730  -763  -780  -780  -748  -664  -538  -419  -351  -344  -381  -449  -555  -684  -787  -848  -887  -912  -912  -871  -806  -780  -804  -778  -631  -418  -229  -118  -98  -199  -461  -811  -1082  -1196  -1201  -1156  -1080  -980  -864  -754  -684  -688  -779  -932  -1088  -1198  -1238  -1185  -1021  -773  -521  -334  -210  -120  -67  -66  -109  -165  -199  -202  -205  -259  -404  -651  -958  -1237  -1396  -1377  -1192  -916  -618  -340  -118  -13  -167  -629  -1079  -1028  -195  1522  4091  7120  9882  11662  11982  10685  8149  5237  2799  1246  457  42  -220  -371  -517  -783  -1120  -1372  -1470  -1473  -1467  -1485  -1501  -1481  -1414  -1332  -1296  -1309  -1267  -1109  -891  -703  -586  -531  -497  -452  -420  -450  -545  -646  -700  -693  -623  -476  -275  -96  1  13  -39  -101  -109  -41  78  212  318  372  378  371  386  412  412  357  250  117  -10  -118  -207  -262  -246  -157  -87  -167  -390  -600  -702  -727  -723  -698  -636  -534  -422  -331  -280  -290  -398  -612  -851  -1001  -1007  -885  -688  -493  -370  -397  -621  -944  -1184  -1261  -1223  -1105  -928  -776  -762  -896  -1086  -1246  -1324  -1267  -1048  -753  -538  -466  -484  -536  -605  -689  -793  -908  -1005  -1051  -1033  -969  -859  -675  -396  -105  30  -74  -314  -509  -583  -578  -550  -514  -469  -416  -354  -269  -172  -98  -65  -56  -56  -73  -132  -232  -350  -456  -539  -611  -685  -778  -911  -1051  -1082  -918  -680  -630  -778  -827  -640  -253  646  2561  5436  8580  11081  12093  11276  9097  6464  4116  2358  1118  190  -524  -1058  -1413  -1540  -1515  -1497  -1515  -1526  -1500  -1421  -1310  -1217  -1166  -1138  -1104  -1065  -1030  -982  -883  -751  -655  -627  -632  -623  -578  -511  -459  -439  -439  -441  -440  -439  -436  -410  -338  -240  -169  -150  -160  -161  -119  -17  134  303  448  541  584  594  588  573  555  544  546  550  523  427  268  73  -142  -344  -463  -489  -482  -508  -598  -757  -1001  -1327  -1631  -1762  -1657  -1383  -1069  -813  -655  -593  -591  -610  -630  -623  -533  -307  -1  224  229  -44  -520  -977  -1228  -1260  -1150  -967  -780  -644  -570  -547  -558  -581  -585  -568  -579  -643  -701  -681  -602  -529  -500  -508  -516  -502  -478  -468  -486  -528  -590  -664  -736  -785  -790  -725  -569  -360  -167  -31  45  77  82  63  24  -31  -93  -148  -201  -269  -354  -436  -494  -521  -521  -510  -513  -558  -641  -696  -696  -697  -713  -728  -744  -671  -349  459  2163  4922  8215  11080  12590  12208  10097  7089  4187  2024  709  58  -111  -14  -7  -302  -747  -1114  -1327  -1412  -1419  -1388  -1329  -1252  -1171  -1085  -992  -916  -867  -827  -789  -756  -731  -713  -707  -699  -645  -530  -406  -310  -221  -165  -179  -214  -208  -169  -139  -124  -102  -47  21  55  44  20  39  161  390  655  879  1032  1104  1093  1019  928  870  855  846  792  640  379  69  -189  -344  -417  -469  -555  -682  -798  -829  -738  -575  -451  -437  -522  -639  -723  -759  -774  -792  -807  -788  -704  -560  -436  -434  -541  -652  -734  -839  -975  -1076  -1088  -994  -785  -502  -268  -188  -252  -397  -595  -804  -949  -998  -983  -948  -906  -851  -793  -749  -719  -687  -654  -622  -586  -554  -540  -535  -523  -506  -525  -637  -837  -1022  -1095  -1044  -871  -543  -133  164  237  124  -84  -280  -387  -408  -394  -381  -389  -430  -505  -613  -758  -907  -1002  -1026  -1010  -998  -1028  -1136  -1292  -1327  -1069  -521  339  1765  4022  7025  10116  12235  12476  10638  7380  3877  1187  -257  -693  -636  -492  -437  -549  -825  -1108  -1245  -1256  -1229  -1208  -1197  -1179  -1139  -1098  -1090  -1110  -1079  -927  -697  -513  -444  -465  -522  -594  -671  -731  -745  -684  -528  -317  -133  -22  16  2  -33  -41  66  357  738  1007  1063  954  787  640  536  490  525  622  726  823  941  1088  1220  1266  1120  687  82  -403  -629  -686  -706  -744  -792  -826  -832  -826  -830  -839  -818  -746  -653  -595  -594  -629  -680  -756  -854  -938  -981  -989  -965  -902  -808  -721  -671  -660  -665  -674  -706  -761  -805  -821  -828  -848  -886  -930  -973  -992  -923  -707  -404  -187  -178  -371  -646  -843  -885  -792  -626  -470  -397  -442  -616  -887  -1151  -1260  -1143  -883  -631  -453  -302  -151  -36  43  136  244  327  356  283  39  -351  -745  -1022  -1165  -1218  -1224  -1209  -1188  -1174  -1179  -1200  -1178  -1025  -774  -520  -225  309  1427  3436  6159  8834  10508  10468  8671  5790  2746  323  -1024  -1348  -1040  -488  -25  42  -305  -727  -953  -1021  -1068  -1146  -1227  -1293  -1351  -1359  -1238  -991  -759  -690  -779  -908  -999  -1049  -1054  -955  -694  -337  -53  68  81  71  68  62  40  30  81  205  363  491  559  590  612  633  675  793  1008  1241  1383  1405  1342  1228  1068  862  653  517  455  401  313  187  3  -232  -444  -557  -573  -556  -568  -642  -752  -844  -893  -913  -935  -979  -1034  -1065  -1075  -1083  -1077  -1013  -853  -639  -475  -422  -477  -621  -790  -880  -862  -811  -785  -749  -674  -605  -599  -668  -778  -887  -982  -1069  -1124  -1117  -1036  -910  -779  -677  -656  -752  -902  -1001  -985  -852  -670  -542  -506  -528  -563  -593  -611  -620  -616  -597  -565  -535  -518  -515  -516  -518  -524  -534  -544  -567  -656  -854  -1101  -1279  -1337  -1289  -1145  -965  -865  -878  -923  -853  -404  750  2806  5574  8427  10479  10950  9630  7089  4333  2179  862  158  -350  -912  -1314  -1338  -1216  -1197  -1255  -1321  -1382  -1439  -1489  -1497  -1407  -1222  -1005  -807  -656  -555  -498  -488  -548  -705  -918  -1078  -1091  -942  -699  -483  -365  -323  -305  -285  -254  -212  -183  -151  -45  151  361  524  645  759  842  813  662  499  412  397  431  507  603  677  711  727  741  721  603  362  72  -157  -286  -354  -400  -415  -387  -356  -368  -417  -460  -471  -466  -487  -544  -611  -662  -689  -696  -695  -698  -716  -738  -726  -673  -619  -585  -526  -394  -221  -115  -153  -307  -453  -470  -366  -260  -246  -342  -500  -639  -719  -752  -759  -745  -706  -634  -509  -302  -12  284  468  461  251  -87  -398  -565  -594  -516  -336  -112  43  75  15  -72  -115  -78  -2  58  90  96  55  -54  -210  -372  -570  -844  -1194  -1572  -1864  -1915  -1535  -565  947  2785  4772  6840  8894  10547  11153  10307  8177  5393  2764  876  -215  -776  -1040  -1169  -1257  -1308  -1337  -1383  -1436  -1459  -1422  -1307  -1151  -1035  -993  -998  -1033  -1098  -1155  -1134  -1011  -846  -726  -683  -694  -723  -733  -703  -636  -539  -412  -284  -207  -193  -211  -216  -161  -13  200  394  499  511  476  434  409  398  380  349  338  366  389  359  295  253  247  240  179  38  -158  -347  -460  -474  -438  -414  -433  -487  -548  -595  -638  -698  -773  -818  -791  -721  -662  -636  -646  -684  -736  -782  -808  -821  -839  -863  -855  -789  -674  -535  -407  -329  -300  -287  -282  -310  -386  -484  -565  -609  -626  -617  -565  -451  -310  -210  -180  -194  -216  -228  -232  -248  -325  -514  -771  -974  -1058  -1027  -864  -566  -236  -17  54  45  25  17  20  18  -17  -129  -329  -578  -827  -1047  -1187  -1205  -1114  -969  -827  -734  -719  -797  -913  -841  -291  908  2846  5507  8531  11148  12533  12217  10252  7255  4190  1856  531  -28  -267  -456  -655  -831  -932  -973  -1017  -1081  -1134  -1158  -1172  -1198  -1232  -1252  -1256  -1277  -1351  -1468  -1548  -1478  -1196  -805  -522  -461  -572  -738  -854  -871  -788  -630  -458  -334  -271  -248  -242  -236  -216  -185  -157  -129  -51  126  361  538  597  555  434  286  185  160  172  162  89  -40  -175  -275  -340  -379  -397  -389  -345  -264  -175  -120  -143  -277  -487  -680  -790  -825  -805  -736  -646  -587  -583  -623  -680  -742  -802  -854  -873  -840  -786  -747  -720  -701  -705  -750  -816  -858  -857  -835  -812  -795  -806  -870  -960  -1004  -954  -834  -713  -635  -598  -584  -583  -590  -599  -598  -599  -643  -744  -872  -981  -1046  -1076  -1080  -1027  -866  -616  -368  -188  -90  -63  -83  -126  -193  -298  -424  -531  -604  -659  -705  -750  -808  -900  -1017  -1121  -1182  -1198  -1179  -1136  -1059  -1003  -1128  -1399  -1472  -1031  42  1809  4287  7261  10171  12229  12670  11197  8285  4894  1992  203  -486  -558  -467  -524  -870  -1338  -1658  -1750  -1697  -1610  -1554  -1536  -1528  -1509  -1463  -1372  -1254  -1165  -1130  -1129  -1144  -1188  -1264  -1321  -1289  -1136  -886  -637  -490  -457  -472  -477  -450  -398  -332  -246  -138  -31  58  129  187  262  412  662  948  1166  1257  1180  915  555  277  159  143  148  142  140  172  252  343  375  265  -33  -442  -787  -957  -979  -912  -784  -635  -532  -501  -508  -519  -522  -520  -518  -524  -542  -568  -593  -613  -625  -620  -591  -556  -546  -558  -545  -501  -475  -485  -515  -548  -581  -623  -669  -697  -700  -689  -670  -635  -586  -532  -477  -430  -405  -406  -420  -427  -432  -464  -535  -616  -662  -656  -635  -629  -628  -638  -684  -744  -778  -762  -688  -562  -418  -298  -225  -190  -161  -124  -94  -78  -75  -92  -142  -214  -276  -304  -289  -234  -165  -135  -193  -356  -586  -802  -936  -991  -1031  -1116  -1223  -1241  -1048  -493  603  2291  4501  7109  9756  11787  12495  11514  9130  6132  3361  1332  119  -486  -780  -956  -1055  -1094  -1105  -1096  -1055  -970  -861  -785  -788  -875  -1000  -1086  -1080  -978  -840  -744  -706  -672  -603  -520  -465  -449  -451  -457  -466  -486  -500  -444  -252  38  287  407  436  441  441  428  414  446  578  793  993  1087  1073  1023  1000  1016  1052  1064  1039  1013  999  913  668  323  49  -68  -79  -70  -108  -230  -409  -544  -548  -466  -425  -461  -523  -543  -464  -323  -239  -253  -315  -371  -387  -381  -425  -562  -761  -937  -1008  -933  -713  -430  -220  -149  -196  -337  -524  -673  -732  -715  -645  -529  -407  -353  -416  -556  -674  -702  -662  -610  -568  -531  -493  -468  -469  -492  -514  -523  -520  -511  -504  -522  -570  -585  -512  -412  -369  -378  -402  -422  -414  -319  -81  240  490  582  506  259  -86  -380  -539  -594  -600  -594  -628  -742  -904  -1034  -1096  -1115  -1110  -1078  -1022  -968  -944  -963  -990  -918  -596  148  1558  3811  6603  9112  10483  10159  8144  5164  2277  247  -759  -1010  -893  -757  -764  -864  -977  -1073  -1156  -1252  -1348  -1396  -1391  -1369  -1351  -1351  -1390  -1495  -1641  -1749  -1759  -1670  -1491  -1261  -1072  -988  -1003  -1042  -1010  -882  -705  -537  -417  -345  -296  -231  -117  21  117  159  217  345  503  609  641  642  654  686  730  784  829  827  740  594  495  481  444  294  71  -129  -256  -326  -389  -464  -558  -682  -811  -889  -907  -903  -905  -920  -948  -995  -1061  -1104  -1074  -973  -857  -788  -778  -785  -785  -792  -798  -743  -568  -319  -141  -154  -372  -681  -899  -926  -793  -606  -475  -420  -370  -262  -125  -75  -225  -560  -921  -1126  -1093  -837  -487  -227  -152  -257  -504  -794  -986  -1031  -973  -880  -805  -756  -676  -495  -232  5  145  203  229  236  174  -8  -261  -453  -519  -486  -394  -294  -269  -378  -574  -749  -833  -820  -712  -523  -319  -194  -245  -554  -1062  -1496  -1531  -980  148  1744  3736  6032  8342  10162  10856  9929  7517  4512  1993  540  110  218  179  -285  -802  -1024  -1025  -980  -927  -828  -676  -528  -456  -546  -837  -1197  -1376  -1254  -968  -744  -663  -666  -684  -701  -721  -737  -736  -718  -655  -505  -285  -71  74  133  141  175  259  358  482  674  901  1069  1144  1165  1168  1142  1064  953  874  858  874  857  744  535  315  154  43  -45  -113  -163  -202  -230  -259  -324  -431  -539  -602  -616  -607  -600  -614  -650  -682  -680  -662  -670  -706  -727  -714  -694  -710  -764  -814  -838  -844  -843  -824  -770  -691  -610  -533  -456  -397  -384  -429  -514  -604  -672  -694  -645  -530  -401  -318  -290  -290  -317  -402  -566  -747  -835  -805  -743  -714  -720  -751  -811  -881  -910  -853  -718  -571  -458  -361  -260  -178  -139  -126  -110  -79  -53  -58  -85  -76  -14  55  100  124  119  38  -170  -477  -777  -998  -1136  -1203  -1217  -1165  -995  -656  -268  -145  -385  -633  -411  648  2712  5566  8585  10924  11865  11114  8911  5986  3239  1249  68  -517  -745  -844  -955  -1063  -1130  -1158  -1152  -1135  -1131  -1115  -1046  -913  -743  -598  -544  -588  -683  -765  -804  -813  -812  -805  -792  -774  -753  -724  -661  -542  -380  -226  -124  -73  -52  -52  -60  -55  -31  18  104  226  368  501  605  675  714  734  751  769  760  676  475  174  -124  -302  -338  -292  -231  -191  -189  -224  -294  -387  -475  -524  -526  -515  -551  -681  -868  -1004  -1012  -887  -694  -538  -478  -501  -569  -653  -728  -770  -778  -784  -819  -878  -922  -922  -884  -813  -707  -577  -462  -414  -450  -530  -596  -625  -621  -575  -473  -349  -275  -285  -359  -470  -616  -763  -837  -804  -656  -360  19  286  255  -120  -672  -1105  -1271  -1244  -1138  -978  -732  -425  -165  -36  -9  -11  -10  -2  46  182  383  530  476  138  -381  -819  -1009  -1007  -942  -870  -779  -680  -622  -622  -656  -706  -799  -971  -1127  -992  -309  909  2436  4164  6214  8534  10635  11805  11443  9445  6402  3289  965  -250  -582  -445  -286  -438  -833  -1161  -1282  -1246  -1133  -1004  -872  -734  -614  -553  -586  -715  -879  -996  -1036  -1030  -1021  -1013  -987  -947  -902  -850  -797  -758  -732  -704  -660  -589  -494  -380  -250  -127  -40  11  64  136  207  251  264  257  240  231  272  404  592  730  724  549  270  8  -176  -296  -367  -394  -396  -394  -402  -424  -440  -431  -424  -462  -542  -604  -590  -515  -447  -419  -412  -400  -390  -419  -521  -663  -773  -832  -876  -925  -984  -1051  -1064  -947  -725  -532  -482  -590  -805  -1045  -1193  -1138  -842  -429  -136  -112  -334  -648  -875  -949  -907  -793  -666  -614  -690  -848  -987  -1043  -1028  -981  -919  -847  -811  -849  -924  -980  -1009  -1014  -994  -923  -770  -574  -434  -389  -393  -386  -336  -241  -122  -21  5  -74  -252  -456  -597  -643  -637  -628  -656  -744  -897  -1079  -1226  -1292  -1281  -1205  -1078  -947  -849  -781  -666  -210  975  3091  5990  9007  11222  12006  11134  8828  5869  3204  1317  164  -408  -554  -535  -571  -711  -901  -1083  -1236  -1336  -1379  -1385  -1367  -1327  -1253  -1140  -1024  -949  -914  -899  -892  -872  -820  -739  -662  -616  -601  -597  -592  -576  -520  -411  -287  -197  -151  -121  -82  -12  134  402  727  948  958  768  495  307  310  501  770  965  1025  982  873  714  531  355  212  126  90  47  -59  -210  -325  -369  -371  -370  -376  -383  -385  -399  -458  -578  -724  -821  -832  -772  -670  -565  -497  -479  -490  -508  -526  -543  -542  -485  -353  -228  -235  -373  -509  -562  -556  -538  -529  -524  -514  -493  -466  -442  -424  -409  -399  -395  -401  -422  -460  -506  -549  -577  -597  -618  -627  -623  -631  -663  -690  -685  -653  -632  -651  -696  -709  -599  -360  -117  40  132  175  167  123  63  -25  -156  -290  -377  -414  -422  -422  -433  -480  -573  -702  -837  -933  -976  -996  -1014  -1016  -985  -962  -1041  -1155  -1018  -435  593  2088  4108  6542  9001  10832  11299  9926  6947  3465  752  -645  -945  -725  -636  -916  -1255  -1386  -1375  -1376  -1455  -1579  -1682  -1719  -1643  -1419  -1117  -893  -816  -842  -911  -990  -1046  -1035  -912  -683  -440  -296  -286  -385  -546  -713  -822  -824  -710  -514  -296  -111  13  78  96  93  117  213  368  519  632  716  773  788  772  761  771  795  803  757  618  373  91  -121  -245  -343  -446  -521  -559  -594  -646  -700  -737  -756  -762  -768  -790  -842  -930  -1038  -1131  -1182  -1190  -1159  -1066  -899  -702  -558  -504  -505  -517  -527  -551  -610  -691  -755  -777  -755  -691  -607  -548  -540  -572  -614  -634  -618  -575  -525  -495  -505  -545  -596  -636  -661  -681  -707  -728  -732  -722  -714  -704  -669  -585  -462  -347  -258  -159  -36  71  117  100  58  32  26  24  25  33  37  24  -10  -54  -98  -147  -208  -273  -336  -422  -570  -760  -908  -965  -961  -929  -861  -763  -581  -105  794  2093  3858  6085  8386  10115  10619  9458  6820  3632  975  -566  -1015  -752  -220  210  293  23  -393  -744  -920  -935  -885  -816  -728  -658  -636  -642  -642  -624  -594  -567  -539  -474  -340  -154  -16  -24  -148  -261  -295  -271  -215  -119  16  167  317  447  537  601  680  805  978  1145  1246  1283  1304  1318  1301  1255  1217  1209  1214  1191  1096  906  674  496  408  377  382  417  450  412  228  -100  -444  -647  -681  -630  -578  -558  -597  -714  -875  -1009  -1092  -1144  -1172  -1143  -1012  -831  -710  -668  -652  -627  -582  -527  -476  -424  -374  -332  -305  -323  -423  -574  -691  -730  -720  -705  -715  -768  -850  -929  -988  -1026  -1034  -1004  -945  -879  -821  -783  -771  -789  -840  -925  -1025  -1100  -1107  -1037  -916  -788  -688  -616  -550  -483  -413  -337  -244  -140  -53  -2  -2  -100  -357  -783  -1250  -1554  -1582  -1354  -990  -677  -558  -668  -950  -1270  -1505  -1613  -1561  -1292  -805  -115  888  2427  4615  7193  9452  10521  9880  7679  4709  2042  412  -203  -300  -344  -547  -835  -1025  -1081  -1076  -1051  -999  -900  -771  -683  -728  -968  -1333  -1641  -1762  -1696  -1496  -1230  -981  -811  -726  -687  -673  -686  -699  -639  -467  -278  -213  -262  -324  -353  -324  -229  -112  5  177  455  771  980  1013  917  781  685  660  695  778  882  957  919  681  258  -165  -402  -415  -277  -91  29  0  -199  -472  -669  -729  -705  -662  -635  -656  -755  -917  -1072  -1161  -1166  -1095  -974  -851  -768  -735  -737  -763  -827  -954  -1114  -1227  -1251  -1201  -1119  -1035  -968  -958  -1021  -1103  -1159  -1206  -1261  -1310  -1321  -1263  -1131  -946  -765  -667  -678  -759  -851  -919  -970  -1024  -1085  -1147  -1201  -1225  -1209  -1172  -1130  -1082  -1033  -1000  -991  -1002  -1004  -949  -811  -634  -504  -453  -445  -448  -472  -557  -705  -858  -962  -1021  -1064  -1096  -1110  -1101  -1070  -1049  -1136  -1426  -1866  -2264  -2416  -2118  -1269  -3  1528  3343  5426  7541  9290  10235  10002  8442  5903  3218  1105  -302  -1174  -1656  -1897  -1956  -1752  -1335  -981  -882  -1022  -1285  -1533  -1677  -1717  -1662  -1505  -1288  -1102  -992  -934  -891  -840  -788  -756  -747  -750  -758  -772  -779  -741  -617  -430  -252  -126  -43  0  13  35  130  350  634  841  908  880  811  738  694  691  714  735  752  779  784  708  568  443  383  381  398  382  295  134  -60  -236  -348  -367  -261  -23  249  382  301  104  -50  -103  -86  -37  19  61  83  85  56  -18  -117  -172  -120  42  222  313  305  248  174  109  59  4  -51  -78  -60  9  125  262  381  449  465  457  448  453  478  516  541  523  447  341  263  234  229  237  279  382  548  755  952  1090  1171  1226  1265  1283  1283  1259  1196  1096  985  912  915  1002  1137  1226  1127  754  235  -153  -273  -166  90  392  592  584  421  317  465  1008  2173  4170  6911  9878  12231  13060  11885  9119  5853  3171  1576  868  511  115  -353  -665  -690  -581  -538  -603  -715  -811  -868  -908  -955  -997  -1019  -1029  -1034  -1013  -934  -801  -672  -595  -571  -581  -627  -715  -828  -904  -863  -687  -431  -171  20  116  143  105  -37  -255  -419  -424  -286  -130  -72  -75  -38  36  94  137  189  239  250  186  30  -199  -438  -616  -709  -742  -763  -799  -848  -914  -1004  -1098  -1162  -1187  -1185  -1175  -1182  -1232  -1336  -1479  -1611  -1675  -1662  -1619  -1571  -1494  -1380  -1273  -1213  -1204  -1223  -1252  -1279  -1293  -1296  -1296  -1300  -1311  -1326  -1335  -1336  -1330  -1311  -1271  -1219  -1175  -1143  -1111  -1055  -952  -821  -728  -714  -768  -846  -907  -940  -952  -942  -918  -900  -911  -947  -986  -1000  -976  -906  -781  -633  -523  -459  -395  -316  -257  -230  -185  -71  72  119  -19  -288  -548  -726  -833  -911  -986  -1057  -1109  -1149  -1223  -1386  -1622  -1828  -1903  -1785  -1326  -339  1219  3317  5863  8450  10391  11079  10228  8037  5282  2926  1407  538  -44  -600  -1185  -1631  -1790  -1743  -1630  -1482  -1326  -1249  -1305  -1437  -1541  -1578  -1582  -1561  -1483  -1339  -1168  -1024  -948  -934  -947  -955  -954  -949  -934  -888  -802  -698  -610  -580  -615  -634  -559  -392  -145  156  419  540  527  466  409  361  326  310  314  342  400  473  516  477  335  151  23  -14  -5  2  -9  -42  -100  -206  -382  -617  -836  -966  -1002  -992  -974  -960  -940  -904  -852  -797  -757  -729  -704  -686  -686  -708  -745  -780  -796  -777  -709  -606  -513  -464  -469  -523  -602  -666  -673  -603  -471  -326  -230  -204  -239  -316  -413  -496  -542  -540  -496  -432  -371  -336  -333  -354  -387  -408  -401  -359  -280  -182  -104  -71  -70  -82  -95  -107  -108  -54  108  356  580  681  623  447  251  98  -29  -186  -390  -602  -759  -842  -877  -888  -872  -814  -727  -656  -650  -722  -836  -943  -1002  -939  -523  612  2704  5589  8625  10948  11800  10767  8091  4768  1989  389  -115  13  186  -8  -501  -951  -1185  -1261  -1277  -1285  -1295  -1293  -1294  -1323  -1372  -1420  -1467  -1485  -1388  -1112  -746  -474  -378  -412  -539  -726  -879  -903  -815  -707  -617  -527  -434  -344  -215  8  281  475  537  528  535  597  691  763  791  793  778  743  683  609  541  500  488  491  491  465  406  331  267  204  119  -3  -169  -346  -466  -506  -501  -501  -527  -568  -598  -608  -614  -633  -661  -673  -642  -571  -490  -431  -404  -400  -419  -474  -556  -628  -660  -632  -537  -408  -317  -318  -411  -543  -641  -679  -679  -661  -621  -560  -505  -472  -453  -423  -376  -355  -407  -515  -616  -661  -657  -641  -636  -639  -644  -648  -644  -622  -578  -525  -482  -453  -439  -433  -417  -364  -266  -139  5  146  245  281  244  116  -90  -308  -475  -574  -636  -699  -771  -824  -843  -841  -835  -825  -793  -729  -682  -711  -768  -679  -244  629  2016  4090  6755  9332  10934  10927  9165  6177  3006  594  -667  -931  -609  -75  331  274  -290  -1012  -1513  -1705  -1714  -1651  -1540  -1390  -1229  -1084  -984  -951  -943  -879  -748  -630  -570  -534  -494  -462  -453  -465  -487  -506  -499  -441  -327  -188  -36  144  309  399  440  467  472  475  488  491  490  521  626  802  1002  1170  1267  1266  1148  908  589  294  122  76  70  33  -36  -106  -154  -175  -172  -142  -90  -58  -142  -426  -830  -1148  -1261  -1179  -948  -664  -462  -396  -416  -459  -497  -518  -507  -455  -385  -344  -350  -378  -406  -444  -497  -549  -578  -562  -503  -456  -532  -757  -980  -1020  -843  -583  -420  -402  -445  -489  -545  -625  -705  -755  -774  -778  -771  -736  -655  -539  -421  -333  -281  -251  -227  -202  -177  -156  -138  -107  -56  6  62  78  31  -78  -230  -408  -592  -754  -859  -898  -897  -896  -916  -952  -976  -979  -971  -976  -989  -877  -366  803  2718  5189  7653  9321  9566  8218  5705  2999  1048  101  -265  -550  -904  -1216  -1351  -1306  -1207  -1154  -1153  -1170  -1181  -1177  -1156  -1111  -1053  -1013  -1003  -1007  -999  -964  -907  -831  -719  -573  -439  -353  -328  -359  -415  -448  -437  -399  -327  -150  194  615  909  972  864  707  602  598  684  811  927  1017  1083  1130  1167  1186  1193  1205  1190  1106  950  750  543  355  206  109  41  -58  -211  -374  -478  -501  -482  -478  -533  -657  -796  -898  -968  -996  -952  -888  -869  -886  -908  -917  -898  -843  -765  -694  -638  -596  -607  -744  -1002  -1231  -1255  -1024  -669  -396  -290  -313  -448  -690  -960  -1126  -1108  -911  -639  -440  -382  -449  -620  -875  -1135  -1289  -1276  -1128  -937  -788  -690  -610  -533  -446  -345  -263  -219  -208  -238  -303  -362  -386  -389  -400  -444  -536  -666  -791  -871  -907  -922  -948  -1004  -1085  -1187  -1325  -1465  -1481  -1234  -666  210  1354  2801  4712  7032  9157  10191  9564  7406  4486  1843  231  -333  -391  -448  -707  -1067  -1291  -1300  -1172  -972  -765  -642  -673  -868  -1138  -1328  -1349  -1219  -1034  -905  -880  -938  -1029  -1088  -1043  -851  -569  -303  -84  101  215  199  70  -49  -14  157  312  384  421  471  530  562  567  590  667  809  975  1033  910  731  634  613  625  671  783  944  1054  980  654  204  -121  -204  -115  22  119  129  33  -168  -425  -641  -744  -740  -692  -652  -631  -617  -606  -600  -595  -588  -572  -552  -544  -536  -482  -366  -262  -276  -400  -521  -580  -612  -647  -672  -657  -597  -541  -573  -723  -903  -969  -846  -593  -358  -247  -290  -477  -727  -903  -927  -812  -625  -444  -318  -256  -243  -252  -262  -253  -209  -138  -66  8  102  172  89  -203  -565  -791  -816  -713  -566  -425  -330  -298  -344  -495  -736  -987  -1170  -1230  -1143  -916  -479  340  1707  3692  6136  8610  10550  11335  10510  8164  5037  2198  448  -115  10  137  -202  -901  -1454  -1579  -1387  -1114  -930  -873  -894  -953  -1038  -1123  -1182  -1210  -1213  -1181  -1098  -989  -909  -868  -832  -788  -752  -725  -685  -632  -583  -544  -502  -459  -423  -394  -347  -249  -92  97  277  401  456  470  486  544  640  712  731  714  683  655  636  614  588  570  570  580  556  390  -18  -566  -985  -1151  -1155  -1112  -1051  -950  -802  -646  -545  -515  -520  -534  -561  -607  -649  -664  -668  -679  -698  -727  -768  -827  -898  -933  -900  -848  -832  -842  -844  -820  -774  -712  -630  -543  -484  -467  -477  -500  -526  -550  -567  -596  -667  -774  -869  -921  -918  -825  -605  -319  -117  -88  -201  -361  -472  -503  -489  -474  -492  -568  -678  -757  -733  -575  -346  -163  -82  -75  -125  -262  -494  -743  -911  -984  -1013  -1018  -971  -846  -688  -622  -699  -743  -421  589  2465  5102  8003  10362  11463  11013  9162  6499  3872  1870  591  -126  -464  -552  -567  -691  -902  -1078  -1162  -1138  -1044  -960  -943  -992  -1080  -1204  -1370  -1510  -1499  -1335  -1154  -1049  -1013  -1024  -1081  -1162  -1216  -1184  -1029  -749  -422  -160  -12  35  8  -62  -124  -124  -62  16  86  155  237  329  407  458  507  601  751  911  1016  1023  917  712  473  246  21  -201  -364  -441  -481  -556  -707  -916  -1120  -1244  -1228  -1034  -692  -339  -110  -47  -135  -358  -657  -916  -1043  -1043  -995  -973  -983  -979  -949  -915  -873  -817  -736  -577  -316  -76  -43  -223  -462  -682  -873  -993  -1004  -921  -805  -721  -691  -692  -695  -683  -646  -585  -519  -471  -447  -439  -425  -391  -362  -357  -334  -276  -220  -196  -203  -229  -251  -249  -208  -124  -15  87  151  174  172  141  48  -131  -375  -606  -743  -776  -755  -729  -737  -829  -1008  -1187  -1303  -1349  -1208  -691  354  2100  4629  7676  10515  12216  12142  10308  7439  4565  2373  987  201  -323  -783  -1106  -1262  -1359  -1431  -1457  -1449  -1438  -1440  -1438  -1406  -1347  -1282  -1226  -1199  -1201  -1214  -1223  -1215  -1195  -1181  -1173  -1132  -1021  -867  -739  -659  -605  -569  -557  -572  -608  -633  -598  -481  -296  -81  134  348  545  690  767  797  801  781  721  626  528  453  404  379  352  279  125  -106  -348  -515  -591  -615  -621  -622  -610  -582  -570  -589  -609  -617  -644  -713  -803  -866  -877  -837  -750  -635  -532  -470  -436  -400  -367  -364  -433  -602  -825  -990  -1046  -1023  -954  -865  -788  -750  -759  -791  -798  -752  -672  -603  -554  -510  -479  -471  -486  -522  -574  -628  -672  -699  -709  -708  -706  -716  -750  -799  -837  -836  -781  -680  -570  -484  -417  -330  -204  -63  46  93  77  11  -88  -194  -291  -382  -473  -565  -655  -740  -836  -945  -1035  -1080  -1056  -927  -733  -686  -907  -1112  -883  -106  1212  3187  5770  8520  10745  11682  10774  8150  4767  1808  -44  -711  -576  -232  -25  -65  -395  -861  -1219  -1365  -1354  -1296  -1248  -1181  -1057  -886  -733  -684  -743  -798  -768  -712  -713  -763  -796  -777  -730  -688  -644  -553  -399  -215  -45  78  137  155  196  313  504  725  915  1029  1075  1095  1121  1153  1178  1180  1153  1115  1101  1125  1155  1152  1087  938  724  502  293  88  -88  -194  -221  -232  -324  -499  -652  -717  -726  -718  -674  -557  -395  -270  -240  -319  -487  -672  -787  -810  -773  -722  -681  -657  -647  -654  -693  -776  -883  -963  -989  -959  -884  -772  -616  -428  -294  -271  -310  -356  -409  -471  -550  -676  -859  -1047  -1150  -1127  -1011  -867  -743  -672  -651  -652  -656  -659  -665  -674  -673  -634  -535  -391  -252  -158  -102  -46  15  28  -37  -141  -255  -379  -494  -570  -613  -660  -745  -856  -946  -994  -1014  -1016  -1007  -987  -939  -863  -795  -714  -468  217  1647  3845  6371  8615  10034  10150  8785  6373  3769  1685  359  -343  -732  -1096  -1470  -1640  -1477  -1144  -877  -768  -824  -1036  -1318  -1524  -1562  -1430  -1181  -920  -742  -663  -659  -707  -775  -829  -854  -861  -856  -818  -740  -654  -581  -516  -477  -473  -465  -407  -263  -47  186  398  572  701  780  813  817  810  803  798  795  794  797  805  809  784  698  543  331  99  -88  -192  -245  -302  -378  -455  -514  -553  -575  -593  -625  -665  -698  -740  -827  -945  -1032  -1064  -1072  -1083  -1081  -1003  -800  -538  -349  -303  -389  -565  -753  -870  -902  -889  -874  -871  -878  -876  -826  -693  -514  -371  -286  -230  -203  -215  -276  -405  -572  -727  -856  -954  -990  -953  -882  -826  -797  -776  -757  -745  -736  -722  -681  -605  -526  -459  -388  -319  -269  -229  -189  -159  -156  -193  -266  -358  -431  -450  -442  -458  -503  -562  -644  -760  -888  -963  -931  -793  -684  -769  -954  -941  -590  112  1255  3005  5436  8267  10751  11940  11206  8720  5484  2724  1097  481  364  243  -109  -522  -738  -787  -830  -908  -987  -1038  -1065  -1083  -1090  -1063  -1000  -931  -883  -840  -762  -641  -530  -507  -573  -628  -589  -474  -366  -310  -296  -297  -287  -246  -181  -118  -67  0  115  266  385  423  399  366  351  348  344  344  378  469  592  682  693  629  523  406  270  112  -33  -149  -248  -326  -354  -329  -304  -323  -369  -395  -386  -368  -374  -421  -492  -539  -536  -506  -485  -491  -520  -542  -531  -493  -449  -428  -432  -435  -416  -396  -399  -428  -490  -575  -613  -555  -460  -404  -392  -396  -397  -398  -417  -465  -529  -571  -545  -426  -260  -140  -126  -209  -335  -442  -504  -547  -608  -680  -717  -704  -700  -766  -855  -857  -760  -655  -605  -593  -591  -587  -584  -587  -583  -549  -479  -400  -338  -311  -331  -402  -499  -570  -594  -582  -562  -569  -657  -850  -1078  -1226  -1262  -1259  -1302  -1405  -1502  -1521  -1320  -686  407  1892  3865  6357  9050  11322  12398  11701  9274  5887  2696  553  -439  -687  -661  -710  -924  -1161  -1298  -1349  -1365  -1364  -1335  -1273  -1192  -1133  -1120  -1162  -1253  -1348  -1390  -1378  -1354  -1345  -1347  -1330  -1245  -1080  -894  -776  -754  -785  -819  -822  -789  -719  -612  -474  -331  -192  -32  140  261  300  302  311  336  358  366  364  359  359  378  432  494  472  290  14  -200  -290  -321  -373  -456  -526  -564  -577  -578  -566  -539  -494  -441  -395  -366  -360  -405  -527  -691  -811  -850  -845  -836  -836  -845  -857  -857  -822  -740  -624  -502  -389  -311  -315  -439  -653  -874  -1031  -1077  -997  -824  -642  -529  -488  -489  -524  -613  -740  -836  -830  -716  -560  -448  -413  -448  -545  -667  -754  -775  -751  -715  -681  -647  -623  -655  -757  -861  -898  -847  -736  -613  -498  -363  -201  -57  35  86  122  154  166  135  53  -46  -117  -140  -131  -116  -124  -193  -336  -528  -742  -940  -1066  -1099  -1065  -1000  -958  -992  -1067  -1046  -738  26  1284  2973  5093  7601  10092  11841  12188  10938  8490  5597  2972  1042  -104  -634  -788  -739  -634  -595  -626  -671  -729  -833  -966  -1072  -1123  -1137  -1146  -1166  -1184  -1154  -1037  -871  -749  -711  -723  -746  -755  -727  -642  -526  -441  -411  -417  -436  -446  -389  -211  47  263  363  364  309  259  276  391  580  760  854  841  743  614  521  486  490  525  594  659  640  490  251  26  -97  -97  0  139  231  170  -91  -456  -738  -861  -868  -809  -709  -595  -502  -450  -426  -412  -408  -436  -515  -618  -698  -738  -740  -674  -516  -327  -238  -313  -479  -610  -666  -686  -696  -693  -685  -687  -695  -676  -590  -434  -271  -177  -206  -392  -695  -970  -1092  -1055  -936  -803  -686  -604  -572  -590  -644  -726  -835  -946  -1015  -1016  -966  -909  -847  -747  -622  -518  -453  -424  -419  -424  -425  -420  -404  -374  -329  -262  -161  -50  -2  -65  -199  -314  -362  -363  -371  -434  -560  -714  -845  -919  -943  -942  -936  -921  -887  -879  -1020  -1302  -1400  -1009  -139  1164  2920  5082  7547  9976  11649  11779  10042  6927  3563  1055  -127  -330  -302  -534  -986  -1326  -1388  -1342  -1360  -1416  -1454  -1472  -1456  -1351  -1130  -863  -666  -602  -663  -804  -959  -1061  -1090  -1076  -1052  -1033  -1020  -983  -895  -771  -661  -587  -531  -470  -381  -242  -61  133  319  467  543  585  647  718  774  828  897  955  936  835  734  686  675  669  633  530  350  142  -21  -133  -223  -289  -313  -325  -381  -481  -575  -636  -685  -738  -789  -816  -800  -737  -667  -645  -677  -719  -737  -726  -693  -644  -596  -572  -580  -596  -604  -612  -628  -647  -662  -683  -726  -779  -768  -628  -406  -229  -163  -201  -323  -487  -617  -657  -630  -591  -568  -563  -589  -668  -783  -875  -898  -852  -785  -746  -742  -733  -676  -558  -422  -327  -294  -292  -263  -160  14  206  344  403  393  322  194  25  -156  -309  -399  -433  -441  -448  -462  -481  -499  -523  -565  -630  -692  -711  -693  -670  -650  -640  -638  -597  -382  294  1727  3936  6588  9010  10403  10309  8721  6038  3142  956  -211  -624  -680  -690  -807  -969  -1055  -1077  -1093  -1106  -1108  -1101  -1089  -1065  -1014  -936  -856  -805  -791  -794  -800  -830  -896  -953  -936  -829  -657  -481  -370  -341  -348  -329  -247  -128  -25  58  184  397  645  813  848  802  772  822  939  1061  1129  1127  1088  1052  1018  960  874  777  661  535  433  365  308  220  44  -212  -456  -610  -684  -720  -753  -792  -803  -721  -530  -359  -386  -612  -849  -964  -977  -962  -953  -941  -902  -828  -737  -658  -608  -574  -539  -498  -451  -396  -349  -331  -335  -337  -335  -340  -357  -390  -444  -526  -636  -749  -816  -826  -829  -863  -922  -970  -980  -948  -878  -765  -633  -538  -493  -467  -442  -432  -454  -492  -521  -534  -531  -513  -480  -442  -417  -416  -439  -474  -498  -493  -447  -372  -296  -241  -225  -273  -426  -688  -968  -1131  -1125  -1013  -933  -974  -1041  -974  -722  -219  708  2209  4319  6827  9196  10737  10792  9076  6128  3095  918  -172  -460  -380  -389  -725  -1183  -1452  -1503  -1467  -1399  -1309  -1225  -1197  -1250  -1338  -1387  -1369  -1284  -1147  -967  -749  -536  -401  -364  -406  -513  -646  -737  -763  -756  -748  -728  -637  -416  -121  101  182  178  181  234  314  368  399  482  688  976  1219  1333  1339  1303  1252  1144  929  663  450  306  174  39  -64  -122  -158  -191  -240  -339  -497  -666  -777  -807  -785  -762  -759  -766  -774  -784  -799  -810  -799  -746  -656  -556  -468  -414  -411  -456  -523  -566  -570  -569  -602  -662  -708  -724  -744  -808  -888  -919  -883  -814  -748  -719  -755  -852  -967  -1029  -1000  -927  -853  -765  -651  -558  -558  -657  -785  -880  -924  -919  -877  -814  -746  -672  -604  -552  -488  -380  -242  -132  -95  -123  -169  -219  -296  -403  -496  -551  -581  -615  -671  -749  -824  -863  -864  -862  -915  -1043  -1188  -1265  -1204  -891  -173  1083  2987  5535  8370  10746  11846  11180  8914  5875  3070  1121  149  -138  -308  -671  -1061  -1258  -1233  -1080  -936  -873  -898  -1026  -1247  -1468  -1565  -1485  -1263  -1001  -797  -703  -724  -838  -987  -1098  -1141  -1135  -1086  -964  -750  -501  -356  -370  -423  -407  -332  -235  -138  -42  97  328  595  783  867  923  1015  1108  1113  997  809  617  465  359  281  223  190  182  186  194  199  181  99  -81  -332  -565  -699  -731  -707  -653  -582  -511  -459  -439  -458  -512  -589  -668  -724  -742  -706  -603  -461  -353  -319  -367  -500  -693  -877  -983  -1006  -971  -898  -819  -781  -808  -869  -923  -954  -975  -982  -955  -883  -771  -636  -511  -437  -439  -510  -607  -674  -692  -684  -678  -703  -776  -876  -961  -999  -960  -798  -524  -256  -100  -55  -67  -108  -174  -259  -340  -388  -399  -412  -460  -534  -596  -628  -647  -668  -679  -674  -677  -704  -759  -863  -1030  -1238  -1392  -1264  -600  647  2416  4739  7422  9899  11660  12276  11342  8980  5973  3250  1359  267  -338  -692  -924  -1060  -1096  -1070  -1003  -898  -806  -797  -867  -955  -1027  -1088  -1139  -1177  -1174  -1077  -905  -786  -816  -954  -1093  -1155  -1111  -967  -761  -561  -439  -411  -432  -452  -452  -426  -361  -226  -13  207  343  377  377  405  476  591  755  936  1063  1083  971  728  413  129  -52  -128  -147  -182  -285  -436  -565  -644  -691  -718  -729  -748  -804  -882  -942  -969  -980  -986  -992  -1004  -1020  -1019  -981  -923  -928  -1055  -1244  -1367  -1362  -1243  -1067  -899  -781  -711  -669  -667  -758  -934  -1067  -1055  -929  -806  -776  -852  -998  -1154  -1256  -1243  -1075  -766  -387  -71  0  -283  -798  -1259  -1494  -1529  -1391  -1065  -651  -360  -274  -293  -292  -212  -84  18  58  33  -57  -201  -347  -449  -506  -533  -545  -562  -608  -679  -745  -773  -710  -511  -228  -25  -54  -366  -835  -1211  -1348  -1250  -956  -552  -120  500  1665  3586  6152  8928  11177  12120  11387  9212  6296  3533  1564  467  -66  -392  -709  -996  -1158  -1210  -1225  -1229  -1227  -1225  -1220  -1216  -1223  -1269  -1380  -1493  -1468  -1289  -1098  -989  -941  -923  -916  -903  -877  -834  -770  -692  -617  -555  -486  -374  -238  -140  -80  7  159  341  499  589  612  593  549  497  459  448  467  520  603  676  671  552  345  128  -19  -81  -90  -65  -44  -90  -222  -401  -563  -653  -673  -655  -617  -572  -535  -524  -554  -653  -832  -1037  -1171  -1164  -1022  -821  -660  -562  -502  -486  -540  -643  -721  -716  -631  -525  -483  -543  -647  -728  -775  -797  -805  -818  -841  -840  -766  -634  -521  -486  -486  -431  -333  -310  -399  -515  -579  -584  -566  -565  -606  -692  -796  -880  -922  -888  -746  -505  -221  30  204  314  388  395  287  80  -124  -243  -294  -355  -471  -621  -757  -881  -1034  -1204  -1317  -1310  -1169  -944  -747  -708  -881  -1142  -1168  -579  841  3051  5798  8586  10640  11279  10271  7853  4792  2162  647  163  150  61  -319  -846  -1235  -1374  -1370  -1342  -1317  -1290  -1283  -1320  -1376  -1376  -1249  -999  -722  -507  -383  -345  -382  -463  -549  -617  -651  -640  -573  -469  -359  -257  -170  -113  -56  52  197  308  367  435  554  705  843  944  1004  1035  1064  1120  1197  1258  1288  1291  1244  1105  884  662  507  413  333  250  169  51  -139  -357  -504  -549  -539  -517  -498  -488  -501  -534  -562  -571  -580  -636  -779  -958  -1034  -928  -720  -564  -523  -551  -594  -634  -663  -665  -645  -628  -620  -592  -502  -358  -221  -163  -211  -322  -438  -550  -653  -717  -741  -747  -758  -782  -803  -786  -706  -579  -464  -401  -373  -333  -260  -175  -126  -155  -274  -436  -552  -591  -587  -575  -559  -524  -474  -444  -466  -531  -619  -725  -849  -980  -1087  -1150  -1176  -1183  -1183  -1188  -1199  -1189  -1128  -1084  -1146  -1156  -726  483  2588  5334  7995  9686  9898  8550  5964  3025  718  -590  -1093  -1127  -1051  -1139  -1369  -1522  -1526  -1485  -1478  -1507  -1547  -1578  -1602  -1632  -1660  -1646  -1555  -1396  -1220  -1073  -964  -899  -868  -832  -743  -619  -525  -490  -491  -493  -485  -478  -492  -528  -534  -426  -176  121  328  399  394  388  423  492  561  613  658  709  755  748  617  359  83  -88  -137  -116  -93  -139  -320  -621  -951  -1209  -1328  -1294  -1154  -983  -836  -731  -682  -730  -924  -1232  -1544  -1769  -1863  -1818  -1667  -1479  -1315  -1206  -1153  -1140  -1148  -1164  -1175  -1142  -1024  -838  -675  -637  -747  -876  -888  -813  -772  -807  -882  -949  -994  -1026  -1045  -1047  -1040  -1034  -1033  -1035  -1034  -1023  -993  -927  -807  -640  -479  -388  -387  -458  -553  -624  -654  -649  -596  -482  -366  -356  -481  -662  -811  -887  -905  -899  -892  -888  -901  -953  -1050  -1156  -1228  -1254  -1221  -1079  -862  -801  -1039  -1219  -772  468  2310  4519  6788  8753  10100  10398  9196  6641  3618  1147  -186  -457  -247  -145  -365  -757  -1081  -1242  -1294  -1305  -1305  -1302  -1292  -1277  -1262  -1238  -1168  -1016  -788  -556  -395  -310  -218  -48  105  61  -179  -417  -523  -531  -493  -380  -123  242  558  709  705  603  464  372  435  732  1188  1579  1755  1727  1566  1359  1204  1155  1242  1491  1845  2149  2280  2212  1962  1563  1091  631  203]
