reading_id,reading_time,wire_id,result_classification,heart_rate,heart_rate_alert,firmware_version,device_app_version,hardware_version,waveform_samples
8d986de0-7766-11ed-8080-808080808080,Fri Dec 09 02:09:46 UTC 2022,e100e3fd2639,NSR,95,NONE,20001.171.50,2.10.0,Charge 5,[7023  8751  9882  10306  10413  10685  11275  11950  12444  12774  13156  13710  14289  14650  14738  14649  14456  14232  14079  14054  14137  14268  14384  14433  14328  13974  13445  12993  12778  12747  12806  12913  13043  13157  13238  13285  13270  13125  12813  12409  12041  11784  11636  11577  11595  11689  11852  12046  12216  12306  12298  12217  12064  11787  11355  10869  10536  10470  10564  10561  10319  9926  9557  9370  9381  9523  9811  10226  10631  10837  10608  9758  8455  7297  6836  7205  8277  9799  11326  12404  12894  12948  12696  12068  10942  9387  7732  6325  5261  4470  3891  3408  2870  2262  1686  1238  927  692  489  270  -32  -409  -737  -924  -1033  -1246  -1684  -2220  -2607  -2775  -2848  -2947  -3101  -3283  -3451  -3594  -3714  -3793  -3810  -3772  -3697  -3613  -3554  -3538  -3570  -3665  -3833  -4045  -4291  -4631  -5077  -5501  -5781  -5954  -6181  -6574  -7058  -7446  -7635  -7673  -7678  -7734  -7872  -8056  -8224  -8375  -8596  -8947  -9348  -9645  -9770  -9783  -9759  -9717  -9627  -9441  -9143  -8821  -8625  -8623  -8740  -8827  -8800  -8698  -8557  -8356  -8107  -7881  -7732  -7674  -7705  -7786  -7848  -7838  -7750  -7629  -7529  -7442  -7334  -7242  -7228  -7288  -7385  -7496  -7598  -7675  -7728  -7745  -7678  -7496  -7253  -7016  -6769  -6498  -6318  -6430  -6952  -7710  -8310  -8558  -8573  -8529  -8487  -8430  -8322  -8135  -7842  -7482  -7174  -6996  -6912  -6865  -6836  -6805  -6713  -6485  -6078  -5568  -5133  -4882  -4775  -4768  -4908  -5179  -5298  -4962  -4216  -3342  -2568  -1796  -647  1140  3467  5804  7322  7342  5834  3486  1171  -543  -1458  -1725  -1687  -1577  -1531  -1616  -1751  -1820  -1773  -1607  -1386  -1211  -1105  -1011  -895  -770  -672  -606  -550  -468  -324  -92  198  469  662  770  821  859  924  998  1017  969  913  902  955  1066  1207  1332  1397  1416  1464  1616  1843  2044  2167  2244  2309  2343  2299  2140  1872  1568  1322  1196  1174  1201  1234  1231  1122  872  573  373  312  322  340  353  375  411  449  474  483  477  470  506  627  793  900  910  868  830  796  735  650  584  582  666  830  1021  1169  1232  1188  1026  805  628  543  515  494  437  321  177  76  66  160  335  536  716  853  936  978  1013  1075  1187  1335  1462  1539  1578  1567  1473  1305  1110  934  811  731  665  613  577  552  537  521  454  323  189  109  75  71  125  304  637  1021  1428  2197  3711  5907  8271  9979  10231  8840  6365  3669  1484  174  -387  -601  -757  -918  -1017  -1025  -994  -945  -850  -722  -613  -549  -535  -590  -710  -834  -885  -842  -769  -720  -689  -656  -614  -560  -496  -423  -339  -269  -236  -229  -226  -213  -186  -131  -14  166  356  514  635  717  766  789  773  708  616  525  447  385  348  331  304  217  67  -89  -198  -259  -316  -439  -664  -946  -1202  -1402  -1547  -1631  -1689  -1823  -2090  -2406  -2622  -2693  -2684  -2664  -2649  -2631  -2621  -2648  -2686  -2646  -2495  -2304  -2152  -2071  -2050  -2061  -2087  -2117  -2135  -2117  -2047  -1950  -1879  -1864  -1901  -1963  -2021  -2056  -2056  -2009  -1906  -1783  -1695  -1651  -1619  -1572  -1493  -1355  -1175  -1016  -903  -813  -753  -757  -844  -978  -1105  -1216  -1328  -1436  -1528  -1616  -1700  -1757  -1779  -1781  -1774  -1745  -1677  -1593  -1540  -1520  -1468  -1329  -1164  -1121  -1325  -1749  -2016  -1609  -404  1383  3517  5696  7503  8559  8577  7384  5236  2866  889  -440  -1050  -1180  -1287  -1525  -1672  -1596  -1429  -1310  -1244  -1191  -1133  -1073  -1021  -990  -1005  -1070  -1139  -1148  -1092  -1008  -891  -705  -485  -323  -246  -209  -176  -150  -137  -139  -157  -189  -230  -254  -185  60  446  795  980  1023  1005  982  975  968  939  886  826  780  763  789  877  1011  1124  1115  874  385  -150  -483  -567  -523  -459  -429  -485  -666  -915  -1097  -1129  -1025  -843  -640  -430  -213  -26  65  0  -258  -610  -871  -936  -817  -570  -270  -6  177  315  452  589  683  698  647  569  481  395  332  299  295  354  515  735  902  966  970  959  941  907  860  828  837  898  1026  1214  1398  1504  1498  1367  1137  898  737  644  571  498  422  342  267  215  194  191  174  131  78  26  -26  -55  -32  -4  -51  -97  62  556  1500  3040  5067  7132  8728  9500  9220  7903  5953  3974  2341  1075  154  -436  -862  -1168  -1204  -996  -737  -542  -445  -480  -666  -949  -1195  -1295  -1212  -956  -610  -323  -188  -169  -172  -136  -60  30  133  276  471  643  689  620  541  515  524  543  591  717  939  1224  1498  1681  1750  1754  1754  1782  1833  1879  1917  1971  2038  2062  1969  1721  1374  1030  751  556  450  429  477  550  587  549  448  328  200  25  -211  -465  -687  -858  -967  -1010  -1021  -1041  -1080  -1125  -1163  -1197  -1228  -1254  -1277  -1298  -1314  -1325  -1360  -1458  -1610  -1747  -1817  -1830  -1819  -1803  -1790  -1780  -1769  -1755  -1739  -1715  -1681  -1645  -1628  -1645  -1683  -1718  -1736  -1721  -1640  -1463  -1215  -978  -822  -796  -905  -1070  -1157  -1100  -960  -841  -792  -820  -940  -1154  -1423  -1703  -1945  -2092  -2130  -2073  -1927  -1729  -1557  -1465  -1479  -1609  -1814  -1972  -1976  -1766  -1204  -83  1651  3762  5777  7259  7915  7562  6244  4279  2166  473  -478  -791  -797  -818  -950  -1047  -1004  -901  -841  -832  -833  -788  -643  -423  -275  -417  -986  -1786  -2358  -2399  -1941  -1289  -816  -651  -663  -708  -734  -714  -612  -413  -164  47  163  208  259  377  559  748  887  959  1012  1111  1244  1341  1375  1377  1373  1364  1354  1352  1353  1345  1321  1287  1262  1240  1154  946  667  446  334  265  181  92  35  15  15  12  0  -19  -19  26  95  121  90  27  -50  -120  -156  -167  -159  -123  -51  35  92  69  -53  -227  -356  -383  -306  -160  -12  70  72  15  -60  -122  -167  -210  -246  -241  -143  63  309  483  536  481  347  192  89  55  54  62  95  177  288  379  433  444  356  104  -243  -510  -605  -549  -376  -150  23  65  -74  -420  -873  -1255  -1467  -1544  -1572  -1593  -1536  -1292  -861  -312  381  1388  2888  4904  7179  9089  9791  8762  6249  3096  273  -1478  -1962  -1594  -1007  -618  -529  -656  -870  -1098  -1319  -1504  -1601  -1562  -1368  -1086  -862  -779  -809  -877  -931  -949  -908  -790  -636  -528  -504  -517  -493  -377  -192  -22  79  119  118  73  -23  -145  -233  -254  -212  -131  -10  191  460  694  819  860  876  899  915  877  742  533  346  258  261  284  215  -38  -428  -765  -923  -930  -852  -722  -568  -418  -306  -297  -499  -980  -1593  -2034  -2122  -1869  -1403  -948  -693  -642  -672  -668  -587  -470  -391  -364  -342  -298  -252  -235  -265  -348  -487  -672  -854  -967  -999  -991  -980  -979  -983  -976  -917  -761  -527  -307  -193  -202  -307  -447  -550  -585  -549  -445  -299  -167  -103  -148  -275  -378  -383  -312  -232  -201  -225  -264  -301  -346  -414  -514  -643  -793  -952  -1082  -1145  -1147  -1125  -1095  -1053  -977  -825  -571  -245  106  552  1344  2769  4852  7123  8787  9142  7881  5381  2641  590  -431  -641  -639  -887  -1216  -1261  -1087  -970  -978  -1014  -1025  -1051  -1122  -1185  -1181  -1098  -969  -843  -767  -770  -836  -919  -987  -1029  -1023  -915  -679  -399  -203  -129  -116  -116  -123  -142  -167  -144  30  417  899  1264  1400  1298  969  534  216  147  324  671  1028  1244  1293  1237  1122  958  754  545  378  266  203  208  298  459  647  774  709  333  -317  -1033  -1587  -1862  -1871  -1702  -1459  -1229  -1041  -889  -775  -702  -664  -646  -639  -645  -667  -700  -734  -765  -783  -766  -693  -559  -402  -294  -266  -304  -387  -487  -576  -637  -671  -686  -695  -710  -736  -773  -809  -831  -840  -837  -808  -733  -603  -450  -339  -294  -287  -282  -260  -235  -260  -343  -433  -492  -521  -530  -527  -552  -679  -929  -1210  -1413  -1523  -1581  -1597  -1559  -1480  -1395  -1334  -1313  -1344  -1430  -1560  -1720  -1800  -1528  -705  612  2276  4119  5956  7629  8838  9045  7894  5594  2812  333  -1205  -1620  -1309  -868  -637  -684  -920  -1158  -1269  -1279  -1250  -1190  -1082  -954  -865  -833  -823  -798  -762  -747  -775  -821  -823  -729  -560  -399  -294  -215  -131  -51  27  119  216  289  337  365  367  364  443  681  1011  1259  1353  1353  1326  1290  1235  1165  1112  1088  1070  1025  892  620  273  16  -61  -20  38  75  94  101  66  -54  -242  -409  -489  -491  -461  -443  -503  -691  -952  -1150  -1218  -1180  -1050  -820  -541  -320  -215  -186  -190  -227  -316  -442  -557  -617  -604  -501  -315  -118  -11  -86  -388  -801  -1097  -1146  -986  -745  -548  -444  -410  -410  -425  -446  -458  -417  -274  -46  195  392  485  396  138  -135  -292  -320  -264  -152  -20  72  95  48  -51  -164  -235  -247  -225  -209  -264  -440  -683  -866  -928  -896  -799  -652  -498  -398  -411  -589  -886  -1048  -768  33  1268  2887  4780  6625  8068  8836  8577  7121  4900  2680  1012  39  -418  -656  -887  -1134  -1288  -1314  -1278  -1222  -1138  -1035  -936  -848  -774  -721  -699  -728  -822  -955  -1057  -1065  -950  -737  -526  -437  -502  -641  -754  -803  -795  -709  -519  -253  14  221  328  338  287  241  334  723  1374  1998  2313  2197  1669  970  473  331  415  554  658  710  718  667  523  278  -5  -241  -393  -472  -477  -381  -188  25  141  25  -394  -963  -1376  -1513  -1490  -1438  -1393  -1340  -1240  -1054  -799  -570  -457  -478  -608  -779  -897  -909  -827  -708  -614  -569  -558  -563  -567  -563  -551  -538  -532  -534  -546  -574  -636  -731  -841  -934  -938  -801  -607  -508  -572  -736  -886  -971  -994  -929  -759  -552  -403  -323  -258  -163  -17  202  454  616  554  212  -282  -669  -822  -821  -779  -742  -734  -807  -1012  -1289  -1487  -1512  -1375  -1154  -944  -807  -737  -735  -892  -1202  -1287  -736  483  2256  4513  6919  8808  9617  9053  7082  4216  1461  -378  -1140  -1123  -781  -493  -402  -477  -675  -948  -1213  -1393  -1437  -1343  -1190  -1102  -1141  -1264  -1396  -1493  -1534  -1478  -1277  -946  -612  -413  -374  -443  -565  -686  -753  -752  -691  -561  -338  -22  361  752  1044  1143  1028  763  483  324  351  551  823  1022  1093  1088  1071  1068  1086  1124  1178  1243  1304  1313  1171  794  263  -242  -647  -955  -1140  -1195  -1181  -1141  -1075  -969  -844  -738  -656  -577  -524  -553  -661  -778  -856  -899  -918  -913  -881  -819  -729  -623  -527  -451  -379  -296  -226  -200  -230  -316  -423  -496  -520  -517  -510  -509  -510  -504  -486  -460  -449  -467  -498  -514  -494  -427  -338  -271  -247  -258  -298  -353  -389  -340  -158  107  329  431  430  385  337  290  226  128  -3  -148  -279  -383  -470  -553  -627  -672  -686  -679  -657  -626  -599  -604  -680  -841  -1019  -1064  -823  -226  693  1866  3257  4836  6493  7941  8688  8254  6571  4169  1862  235  -558  -746  -736  -770  -796  -744  -667  -629  -658  -758  -896  -1011  -1077  -1095  -1067  -1006  -943  -925  -948  -917  -765  -553  -393  -328  -317  -300  -250  -193  -173  -180  -178  -150  -71  85  277  412  461  470  500  587  714  826  890  912  918  937  982  1031  1045  1010  933  820  647  412  180  25  -45  -81  -131  -203  -278  -347  -408  -450  -460  -445  -428  -433  -485  -590  -737  -863  -873  -760  -641  -600  -630  -686  -734  -758  -762  -755  -750  -753  -759  -759  -755  -751  -751  -753  -749  -732  -710  -716  -765  -827  -862  -848  -797  -747  -725  -723  -726  -723  -715  -710  -726  -776  -844  -895  -910  -907  -901  -879  -797  -628  -406  -204  -67  6  29  -9  -125  -280  -392  -422  -389  -334  -293  -316  -451  -680  -903  -1029  -1065  -1066  -1052  -1019  -974  -872  -567  34  758  1182  957  204  -353  117  1866  4432  6971  8606  8763  7428  5136  2656  623  -655  -1224  -1326  -1212  -1067  -981  -923  -801  -600  -401  -277  -250  -357  -666  -1153  -1629  -1901  -1930  -1798  -1595  -1384  -1182  -1008  -892  -823  -761  -692  -640  -622  -621  -619  -623  -652  -700  -726  -667  -475  -183  108  313  437  553  723  910  1023  1050  1046  1038  1026  1003  942  825  691  599  568  574  597  624  615  489  197  -171  -462  -624  -705  -742  -751  -748  -750  -756  -750  -700  -592  -467  -390  -396  -456  -500  -479  -411  -329  -251  -195  -173  -192  -272  -413  -574  -683  -684  -578  -417  -260  -138  -60  -54  -180  -460  -819  -1120  -1272  -1250  -1054  -725  -386  -153  -54  -41  -53  -65  -73  -76  -53  13  108  177  182  121  24  -74  -171  -273  -357  -397  -392  -363  -333  -321  -349  -437  -557  -648  -684  -685  -662  -607  -536  -532  -726  -1135  -1514  -1526  -1046  -159  993  2359  4037  6014  7901  9094  9071  7669  5309  2858  1035  36  -313  -373  -497  -766  -989  -1033  -990  -979  -999  -1003  -988  -989  -1017  -1035  -1005  -971  -1058  -1349  -1722  -1891  -1675  -1193  -746  -513  -462  -495  -565  -653  -713  -690  -588  -463  -320  -117  112  268  305  256  179  128  158  307  550  826  1098  1336  1475  1422  1092  536  4  -285  -349  -329  -312  -304  -286  -274  -298  -360  -438  -513  -590  -687  -788  -846  -842  -797  -741  -698  -675  -662  -660  -686  -763  -869  -946  -954  -897  -815  -756  -750  -802  -888  -946  -924  -821  -655  -442  -224  -62  5  -57  -278  -565  -735  -700  -546  -426  -412  -471  -549  -622  -670  -677  -641  -556  -418  -248  -107  -58  -102  -171  -182  -106  24  155  241  287  309  291  223  134  34  -110  -322  -561  -747  -844  -889  -926  -952  -924  -820  -685  -589  -560  -590  -690  -839  -880  -613  -7  869  2085  3717  5627  7541  9033  9468  8454  6304  3805  1685  315  -380  -747  -1042  -1259  -1310  -1241  -1165  -1094  -988  -861  -773  -744  -736  -717  -696  -707  -753  -802  -831  -839  -831  -804  -746  -658  -553  -449  -353  -272  -213  -168  -123  -69  -3  78  182  304  423  518  578  615  682  827  1015  1147  1162  1072  936  822  761  749  766  794  817  822  778  641  397  101  -149  -287  -319  -281  -202  -105  -12  50  -3  -305  -861  -1438  -1772  -1779  -1519  -1131  -796  -602  -498  -406  -315  -260  -257  -296  -349  -386  -396  -390  -381  -375  -372  -372  -381  -402  -424  -429  -428  -478  -632  -847  -1004  -1036  -968  -863  -761  -657  -547  -478  -485  -531  -557  -539  -490  -425  -334  -224  -139  -99  -86  -80  -80  -78  -54  5  61  23  -145  -379  -592  -773  -927  -1023  -1050  -1042  -1024  -1009  -1019  -1082  -1182  -1258  -1282  -1247  -1114  -817  -275  576  1713  3116  4776  6535  8053  8854  8443  6708  4188  1764  50  -873  -1274  -1453  -1519  -1480  -1392  -1321  -1283  -1269  -1272  -1297  -1350  -1409  -1413  -1304  -1092  -855  -672  -589  -635  -819  -1069  -1259  -1311  -1219  -1004  -755  -589  -541  -558  -592  -619  -603  -475  -203  148  445  596  623  603  605  676  832  1023  1167  1214  1161  1031  880  738  584  420  304  265  272  291  308  298  217  40  -198  -424  -593  -703  -759  -779  -791  -809  -832  -855  -866  -843  -745  -568  -375  -261  -274  -401  -572  -693  -731  -724  -711  -710  -723  -743  -759  -766  -757  -720  -645  -555  -489  -461  -455  -452  -444  -424  -416  -485  -687  -943  -1047  -877  -549  -287  -185  -217  -374  -648  -942  -1125  -1119  -898  -518  -152  48  68  -20  -143  -244  -297  -301  -241  -92  104  252  250  33  -371  -790  -1042  -1107  -1059  -940  -771  -612  -551  -625  -772  -858  -797  -662  -505  -161  519  1586  3158  5269  7535  9238  9696  8556  6094  3270  1129  114  -63  -79  -359  -773  -1074  -1265  -1388  -1424  -1387  -1319  -1250  -1191  -1132  -1052  -927  -744  -547  -423  -445  -634  -909  -1127  -1211  -1193  -1122  -1008  -842  -644  -480  -396  -335  -230  -102  11  102  173  271  495  873  1274  1521  1531  1305  913  530  311  263  309  398  490  527  478  383  308  279  277  282  296  344  448  557  506  159  -391  -878  -1140  -1211  -1182  -1118  -1046  -985  -947  -923  -893  -854  -826  -821  -832  -847  -854  -839  -794  -732  -679  -638  -592  -534  -460  -365  -267  -196  -159  -150  -195  -350  -631  -944  -1146  -1177  -1059  -858  -670  -566  -538  -550  -590  -655  -686  -607  -438  -291  -224  -213  -213  -198  -152  -66  52  168  248  286  302  318  337  322  207  -41  -359  -616  -739  -757  -734  -702  -660  -612  -571  -553  -552  -516  -369  -162  -132  -394  -713  -715  -105  1267  3344  5851  8295  9929  10050  8517  5883  3080  953  -147  -445  -454  -582  -866  -1065  -1055  -929  -777  -631  -523  -475  -500  -638  -898  -1174  -1294  -1190  -971  -798  -721  -697  -698  -712  -698  -628  -520  -413  -327  -264  -222  -185  -120  -15  126  293  447  558  629  676  719  780  862  951  1041  1126  1177  1159  1063  933  834  776  725  658  557  381  134  -89  -213  -246  -239  -230  -261  -370  -546  -717  -824  -865  -871  -874  -880  -889  -894  -891  -885  -890  -905  -911  -888  -816  -703  -600  -550  -553  -579  -595  -589  -573  -563  -564  -576  -595  -617  -647  -682  -720  -754  -767  -746  -714  -705  -732  -781  -819  -833  -833  -832  -830  -831  -846  -878  -900  -876  -805  -715  -599  -431  -222  -20  113  124  -2  -219  -450  -625  -736  -826  -915  -985  -1032  -1081  -1138  -1187  -1204  -1182  -1096  -914  -673  -490  -451  -585  -881  -1265  -1588  -1667  -1405  -887  -195  703  1877  3458  5448  7401  8614  8531  6976  4400  1779  -7  -707  -659  -407  -395  -784  -1328  -1646  -1668  -1568  -1457  -1365  -1340  -1415  -1553  -1674  -1720  -1665  -1508  -1309  -1167  -1127  -1150  -1180  -1181  -1130  -1029  -919  -848  -823  -825  -838  -846  -818  -715  -527  -309  -154  -95  -98  -121  -145  -141  -49  168  459  717  899  1044  1171  1255  1285  1290  1292  1273  1189  1006  734  428  174  47  63  195  376  521  571  479  193  -232  -614  -798  -737  -456  -82  178  207  29  -225  -414  -483  -481  -452  -365  -138  243  653  910  900  577  14  -535  -848  -927  -907  -864  -787  -666  -536  -440  -380  -325  -253  -170  -90  -5  90  175  192  77  -180  -479  -679  -730  -673  -545  -362  -145  57  193  252  253  211  138  39  -74  -173  -243  -315  -401  -476  -515  -529  -534  -542  -552  -561  -567  -571  -571  -568  -564  -566  -598  -690  -811  -789  -419  357  1467  2838  4446  6223  7961  9264  9580  8582  6536  4033  1641  -112  -995  -1217  -1079  -774  -472  -308  -334  -530  -791  -982  -1050  -1033  -957  -829  -690  -600  -571  -576  -593  -622  -666  -715  -736  -682  -533  -346  -216  -174  -193  -250  -324  -371  -317  -114  174  401  494  499  477  459  468  529  660  847  1051  1225  1347  1418  1448  1416  1265  962  545  117  -208  -388  -460  -489  -509  -528  -533  -513  -476  -433  -383  -318  -251  -214  -244  -364  -530  -649  -669  -605  -507  -436  -435  -524  -698  -904  -1059  -1098  -1035  -949  -908  -920  -955  -988  -1014  -1028  -1015  -966  -898  -836  -782  -729  -693  -691  -710  -718  -696  -662  -644  -645  -657  -670  -671  -655  -635  -631  -657  -712  -784  -861  -927  -957  -910  -751  -509  -285  -162  -135  -145  -149  -151  -180  -264  -416  -627  -833  -959  -997  -990  -956  -886  -798  -744  -753  -800  -846  -862  -826  -725  -603  -552  -595  -578  -215  802  2604  4954  7317  9012  9438  8441  6413  4045  2008  668  -62  -554  -1000  -1286  -1317  -1181  -1007  -869  -803  -846  -1006  -1208  -1356  -1416  -1394  -1271  -1031  -749  -564  -563  -733  -978  -1152  -1149  -939  -598  -279  -51  143  330  402  259  -39  -319  -462  -461  -342  -128  129  375  577  732  863  984  1074  1119  1132  1134  1138  1139  1112  1032  923  823  702  495  238  49  -50  -133  -219  -271  -309  -408  -574  -736  -838  -886  -898  -880  -836  -769  -694  -643  -631  -648  -673  -688  -690  -684  -679  -677  -677  -683  -713  -769  -818  -813  -729  -590  -462  -393  -379  -404  -461  -532  -581  -596  -588  -575  -562  -550  -546  -557  -579  -597  -591  -544  -457  -358  -293  -298  -372  -477  -563  -614  -635  -600  -463  -224  25  188  273  348  436  493  435  187  -196  -530  -686  -691  -625  -549  -499  -503  -580  -719  -872  -974  -994  -937  -790  -472  77  670  943  824  684  1089  2449  4688  7175  8995  9405  8234  5965  3405  1282  -15  -526  -566  -484  -471  -521  -566  -590  -610  -628  -644  -706  -880  -1139  -1359  -1454  -1419  -1278  -1085  -925  -840  -829  -881  -968  -1042  -1047  -941  -723  -442  -183  -23  28  28  18  -3  -49  -88  -65  28  153  267  369  499  689  904  1058  1115  1110  1099  1109  1127  1132  1101  1016  871  674  463  293  189  135  112  110  122  152  201  227  112  -244  -735  -1099  -1221  -1180  -1072  -960  -904  -925  -992  -1037  -992  -819  -549  -294  -148  -115  -166  -283  -426  -528  -560  -550  -527  -513  -537  -622  -736  -802  -780  -709  -650  -628  -628  -628  -596  -512  -403  -319  -281  -280  -338  -486  -681  -823  -864  -832  -764  -667  -539  -409  -311  -239  -160  -57  44  124  180  200  147  -9  -238  -464  -638  -764  -880  -1031  -1244  -1490  -1690  -1778  -1721  -1510  -1222  -996  -900  -913  -972  -986  -833  -382  473  1802  3550  5470  7208  8403  8688  7875  6163  4040  2095  773  -3  -612  -1133  -1429  -1443  -1234  -968  -808  -773  -804  -863  -929  -982  -1002  -950  -778  -500  -226  -79  -131  -385  -726  -969  -1035  -986  -905  -830  -745  -629  -501  -397  -301  -160  56  332  597  766  829  869  966  1111  1232  1299  1341  1379  1398  1350  1199  994  835  757  709  651  578  494  392  273  172  119  120  141  111  -27  -233  -392  -448  -422  -346  -252  -190  -204  -303  -440  -542  -585  -595  -594  -578  -543  -509  -501  -503  -489  -467  -459  -460  -441  -387  -319  -264  -217  -159  -86  -26  -12  -43  -117  -248  -391  -465  -454  -406  -370  -377  -441  -572  -737  -854  -852  -718  -512  -338  -256  -241  -247  -251  -249  -241  -220  -187  -163  -167  -184  -187  -182  -207  -313  -513  -752  -956  -1097  -1190  -1241  -1222  -1132  -1026  -952  -901  -836  -753  -699  -697  -669  -486  -65  672  1870  3585  5606  7492  8769  8994  7901  5716  3154  1000  -336  -932  -1091  -1118  -1185  -1279  -1341  -1381  -1416  -1442  -1459  -1458  -1424  -1367  -1310  -1267  -1242  -1238  -1244  -1222  -1127  -960  -783  -645  -553  -508  -522  -598  -708  -788  -775  -636  -407  -198  -89  -58  -46  -32  -10  83  333  677  928  959  796  560  389  342  406  559  772  985  1118  1089  815  322  -176  -465  -531  -497  -444  -382  -308  -253  -233  -217  -215  -361  -788  -1379  -1811  -1915  -1771  -1546  -1366  -1262  -1203  -1168  -1141  -1075  -925  -700  -476  -348  -372  -548  -798  -1006  -1127  -1183  -1176  -1095  -952  -794  -684  -634  -602  -569  -562  -613  -707  -790  -827  -820  -779  -704  -604  -506  -430  -381  -350  -321  -274  -188  -78  11  60  81  100  139  194  225  189  72  -89  -222  -288  -331  -409  -518  -605  -649  -669  -691  -731  -776  -787  -759  -742  -767  -781  -644  -262  201  514  845  1666  3242  5476  7878  9574  9768  8293  5665  2805  636  -460  -755  -683  -549  -538  -652  -783  -899  -1027  -1148  -1201  -1141  -981  -791  -643  -571  -573  -649  -793  -950  -1042  -1030  -923  -744  -546  -403  -341  -328  -334  -347  -332  -264  -154  -32  81  184  273  334  370  404  464  587  789  1041  1295  1514  1676  1752  1689  1438  1051  673  409  263  171  91  32  9  11  22  33  43  53  48  -3  -127  -314  -523  -704  -807  -828  -798  -750  -707  -671  -621  -533  -431  -366  -351  -369  -405  -442  -471  -502  -538  -565  -582  -607  -648  -692  -709  -684  -636  -585  -537  -499  -475  -467  -477  -503  -515  -445  -241  43  241  179  -200  -731  -1115  -1207  -1071  -839  -616  -440  -295  -190  -142  -118  -73  -19  14  32  48  51  -20  -214  -482  -703  -823  -894  -973  -1051  -1111  -1171  -1236  -1272  -1231  -1087  -857  -599  -375  -153  222  894  1996  3696  5905  8086  9548  9730  8400  5928  3216  1116  -47  -484  -577  -622  -741  -880  -947  -950  -943  -943  -953  -969  -982  -984  -975  -964  -964  -980  -1015  -1068  -1132  -1188  -1223  -1236  -1233  -1221  -1184  -1088  -937  -785  -675  -608  -545  -434  -255  -55  81  129  149  214  347  537  755  948  1057  1075  1032  950  866  829  874  993  1134  1243  1272  1127  712  97  -454  -726  -730  -598  -449  -356  -333  -355  -411  -506  -637  -763  -845  -871  -838  -717  -494  -241  -79  -93  -299  -624  -903  -1008  -947  -817  -716  -675  -670  -684  -719  -762  -782  -749  -663  -551  -436  -302  -110  112  259  218  -37  -389  -643  -728  -721  -696  -657  -576  -461  -365  -310  -254  -146  7  156  263  339  421  549  739  871  708  145  -641  -1328  -1695  -1752  -1628  -1432  -1246  -1120  -1035  -943  -845  -771  -731  -706  -667  -611  -607  -759  -990  -990  -456  732  2547  4818  7104  8748  9278  8517  6514  3823  1360  -297  -1169  -1541  -1663  -1679  -1666  -1689  -1774  -1876  -1919  -1885  -1859  -1908  -1977  -1960  -1845  -1706  -1596  -1513  -1446  -1376  -1294  -1215  -1161  -1121  -1063  -978  -894  -839  -817  -811  -804  -793  -779  -741  -620  -380  -90  133  253  326  409  513  633  764  905  1053  1195  1300  1323  1230  1022  738  466  299  251  256  251  217  155  48  -111  -284  -392  -369  -204  30  203  228  91  -160  -409  -550  -567  -513  -440  -388  -369  -373  -384  -395  -402  -404  -403  -401  -399  -398  -393  -386  -382  -389  -391  -352  -253  -135  -55  -12  19  42  45  24  -19  -90  -186  -298  -419  -529  -587  -556  -447  -309  -199  -130  -57  82  273  431  517  561  586  580  497  278  -59  -383  -584  -686  -753  -801  -851  -947  -1087  -1205  -1262  -1276  -1277  -1258  -1198  -1101  -1012  -974  -1012  -1105  -1095  -766  -33  1066  2555  4425  6357  7876  8573  8072  6324  3877  1551  -51  -796  -931  -821  -738  -795  -950  -1097  -1171  -1161  -1087  -997  -939  -926  -932  -923  -883  -825  -780  -761  -754  -753  -770  -825  -909  -973  -940  -740  -404  -86  81  92  4  -121  -231  -276  -183  100  483  761  840  784  692  619  585  621  783  1068  1365  1561  1643  1622  1443  1069  629  334  243  266  312  334  284  112  -144  -373  -507  -569  -592  -591  -588  -628  -736  -845  -841  -717  -589  -529  -518  -518  -515  -518  -541  -585  -628  -644  -619  -565  -534  -573  -660  -729  -748  -734  -700  -631  -528  -425  -349  -297  -256  -230  -248  -344  -507  -666  -756  -777  -769  -758  -753  -758  -779  -814  -851  -855  -766  -533  -188  134  310  297  135  -77  -229  -281  -274  -258  -253  -266  -292  -330  -383  -457  -535  -579  -585  -583  -610  -685  -795  -894  -947  -926  -852  -822  -864  -845  -570  96  1236  2903  4989  7137  8829  9541  8941  7093  4492  1905  18  -932  -1160  -1040  -892  -894  -1032  -1177  -1253  -1293  -1341  -1390  -1423  -1448  -1474  -1481  -1422  -1253  -1010  -786  -642  -572  -554  -587  -676  -808  -939  -1011  -981  -840  -646  -496  -424  -396  -362  -290  -188  -57  153  466  811  1088  1230  1215  1068  868  730  735  889  1115  1289  1318  1145  770  313  -38  -190  -157  17  270  494  585  414  -117  -835  -1356  -1488  -1334  -1086  -889  -796  -778  -783  -772  -721  -620  -503  -426  -395  -364  -303  -268  -346  -515  -656  -701  -684  -658  -640  -588  -447  -244  -76  -11  -67  -246  -493  -692  -763  -721  -631  -554  -519  -523  -562  -633  -718  -791  -827  -800  -681  -471  -256  -164  -237  -375  -440  -403  -319  -209  -56  128  296  396  396  309  178  19  -181  -402  -592  -740  -843  -871  -829  -790  -809  -874  -950  -1027  -1087  -1097  -1034  -916  -767  -605  -475  -373  -120  539  1769  3620  5917  8128  9573  9645  7996  5011  1841  -394  -1298  -1158  -601  -252  -395  -841  -1207  -1329  -1298  -1219  -1112  -969  -825  -738  -725  -769  -848  -946  -1037  -1072  -1003  -833  -641  -522  -499  -538  -601  -666  -708  -679  -526  -276  -46  79  126  175  274  397  478  498  502  526  568  614  663  725  804  860  861  825  776  708  626  553  465  318  136  0  -56  -65  -56  -56  -109  -255  -454  -620  -740  -858  -969  -1037  -1054  -1034  -982  -909  -839  -776  -719  -678  -660  -657  -660  -674  -713  -767  -773  -681  -548  -481  -528  -642  -722  -727  -699  -680  -662  -636  -603  -576  -583  -628  -663  -642  -550  -409  -273  -184  -160  -242  -470  -774  -988  -993  -785  -474  -228  -128  -125  -147  -160  -159  -146  -125  -113  -147  -258  -409  -518  -552  -541  -531  -556  -634  -750  -852  -899  -875  -777  -639  -518  -442  -454  -673  -1171  -1719  -1872  -1419  -495  671  1881  3105  4578  6384  8089  9034  8768  7231  4924  2698  1057  -51  -825  -1346  -1590  -1519  -1267  -1062  -980  -982  -1063  -1225  -1412  -1531  -1515  -1345  -1082  -852  -740  -736  -806  -923  -1047  -1129  -1155  -1124  -1026  -872  -708  -586  -527  -495  -416  -256  -44  170  330  392  406  448  513  564  622  744  937  1130  1248  1278  1234  1112  947  817  764  746  683  519  289  100  14  6  16  1  -56  -157  -282  -387  -451  -481  -493  -498  -500  -498  -490  -470  -441  -412  -394  -389  -392  -405  -432  -463  -463  -408  -329  -306  -393  -558  -708  -781  -774  -683  -519  -344  -238  -219  -258  -321  -381  -415  -408  -370  -346  -383  -491  -628  -731  -774  -753  -647  -453  -246  -147  -203  -345  -457  -484  -443  -347  -200  -50  41  59  28  -20  -47  -25  21  64  99  132  165  176  95  -160  -580  -1008  -1276  -1361  -1356  -1335  -1316  -1293  -1268  -1263  -1273  -1192  -872  -259  610  1752  3243  5136  7275  9095  9819  8938  6617  3733  1337  -1  -397  -383  -437  -673  -908  -1012  -1058  -1129  -1204  -1243  -1250  -1249  -1240  -1196  -1104  -988  -884  -799  -708  -611  -538  -507  -512  -541  -579  -607  -617  -614  -602  -575  -518  -411  -253  -79  56  149  252  415  624  828  994  1123  1227  1297  1315  1277  1197  1100  1015  959  912  827  702  580  491  421  327  194  51  -63  -130  -160  -190  -254  -361  -476  -547  -568  -579  -616  -661  -664  -614  -555  -517  -498  -485  -492  -568  -742  -955  -1094  -1073  -885  -628  -444  -395  -437  -502  -542  -537  -487  -417  -365  -358  -404  -490  -580  -634  -643  -615  -554  -462  -343  -244  -281  -538  -905  -1135  -1099  -888  -660  -500  -430  -461  -595  -781  -915  -900  -702  -390  -120  8  26  4  -32  -92  -168  -235  -294  -377  -505  -674  -839  -943  -970  -960  -952  -967  -1005  -1050  -1078  -1077  -1047  -996  -943  -915  -885  -724  -275  543  1802  3575  5709  7727  9054  9191  7919  5599  3036  1004  -122  -490  -586  -814  -1161  -1343  -1267  -1110  -1026  -1012  -1022  -1043  -1094  -1179  -1252  -1247  -1170  -1099  -1090  -1126  -1139  -1081  -987  -908  -836  -756  -680  -628  -602  -598  -605  -610  -597  -550  -467  -348  -172  69  326  521  661  814  998  1163  1261  1298  1313  1325  1311  1232  1086  921  796  736  708  647  514  334  161  5  -146  -273  -349  -387  -413  -430  -435  -440  -459  -489  -515  -522  -492  -416  -321  -256  -230  -221  -209  -199  -190  -174  -151  -132  -137  -183  -269  -357  -409  -417  -395  -361  -350  -390  -464  -529  -558  -553  -531  -486  -385  -226  -71  -7  -114  -419  -807  -1085  -1141  -961  -592  -187  67  106  -36  -290  -559  -757  -844  -773  -486  -37  372  575  540  307  -24  -303  -446  -477  -440  -344  -180  17  148  65  -356  -1030  -1637  -1930  -1900  -1654  -1347  -1137  -1071  -1085  -1119  -1155  -1156  -1021  -624  55  988  2224  3813  5645  7461  8837  9166  7984  5533  2697  347  -1053  -1497  -1340  -1069  -1045  -1272  -1503  -1599  -1605  -1581  -1526  -1419  -1281  -1180  -1168  -1245  -1375  -1491  -1537  -1486  -1344  -1168  -1030  -967  -974  -1026  -1082  -1110  -1094  -1023  -893  -724  -584  -525  -528  -509  -386  -144  151  410  588  716  885  1161  1486  1703  1712  1527  1257  1032  912  909  1017  1156  1206  1109  900  670  496  395  335  287  257  248  235  185  90  -30  -163  -291  -379  -407  -382  -330  -284  -264  -261  -255  -233  -197  -172  -184  -234  -290  -324  -354  -419  -532  -630  -609  -459  -294  -200  -174  -189  -231  -285  -327  -334  -287  -181  -50  28  -45  -329  -725  -1009  -1036  -832  -540  -332  -266  -284  -316  -326  -302  -244  -176  -130  -139  -230  -393  -556  -624  -530  -274  34  260  360  342  166  -193  -617  -905  -997  -974  -901  -789  -669  -620  -693  -852  -1005  -1091  -1092  -988  -763  -456  -120  273  824  1712  3156  5161  7341  9046  9615  8674  6417  3600  1104  -511  -1167  -1193  -1046  -991  -1051  -1137  -1175  -1148  -1076  -1017  -1018  -1064  -1110  -1133  -1124  -1078  -989  -881  -808  -785  -767  -707  -615  -540  -504  -491  -485  -484  -493  -516  -550  -577  -550  -419  -181  110  415  720  975  1118  1140  1088  1016  953  909  895  914  939  942  919  847  682  410  118  -73  -132  -113  -73  -24  31  51  -63  -361  -731  -985  -1035  -919  -717  -529  -429  -430  -507  -620  -728  -797  -797  -698  -516  -327  -203  -166  -206  -295  -388  -455  -502  -545  -586  -621  -637  -625  -596  -568  -540  -512  -488  -476  -478  -487  -491  -495  -511  -543  -581  -617  -656  -695  -724  -742  -756  -768  -772  -755  -700  -612  -503  -373  -242  -157  -132  -142  -162  -181  -186  -170  -130  -50  97  280  365  190  -276  -831  -1188  -1217  -980  -651  -425  -404  -564  -799  -984  -1055  -988  -752  -393  -45  235  530  1016  1931  3427  5426  7532  9030  9226  7907  5488  2791  600  -701  -1167  -1096  -820  -554  -433  -550  -907  -1405  -1874  -2139  -2127  -1872  -1505  -1203  -1051  -1016  -1037  -1080  -1119  -1135  -1121  -1058  -882  -565  -209  20  34  -177  -552  -925  -1139  -1136  -916  -536  -138  144  292  359  398  442  494  568  722  1000  1323  1536  1548  1352  1023  721  579  598  688  769  808  781  634  329  -93  -505  -766  -852  -849  -831  -805  -761  -720  -712  -722  -724  -721  -720  -714  -700  -674  -636  -588  -531  -480  -469  -530  -647  -749  -773  -728  -677  -654  -654  -659  -659  -654  -642  -622  -589  -533  -467  -419  -400  -403  -430  -490  -560  -593  -564  -498  -435  -397  -396  -449  -536  -589  -549  -406  -193  17  139  123  -26  -232  -378  -396  -302  -165  -65  -55  -153  -336  -519  -615  -609  -554  -507  -490  -515  -589  -689  -767  -808  -819  -778  -646  -488  -482  -658  -808  -666  11  1353  3273  5569  7840  9404  9706  8652  6482  3779  1376  -105  -556  -283  248  539  218  -561  -1235  -1488  -1429  -1254  -1083  -984  -962  -982  -1011  -1027  -992  -874  -707  -572  -514  -506  -513  -529  -561  -601  -614  -564  -454  -337  -262  -229  -202  -153  -76  22  152  339  569  767  883  928  928  902  877  883  905  891  800  650  519  465  466  482  502  504  459  336  99  -223  -536  -764  -887  -923  -915  -900  -895  -896  -884  -836  -762  -693  -651  -627  -605  -583  -575  -594  -633  -665  -678  -675  -657  -632  -634  -704  -832  -960  -1049  -1098  -1111  -1064  -922  -714  -539  -459  -461  -511  -574  -618  -630  -621  -611  -612  -624  -645  -672  -698  -719  -724  -680  -550  -349  -161  -45  2  20  39  70  91  69  -19  -167  -318  -408  -427  -411  -387  -377  -427  -577  -781  -930  -975  -953  -916  -887  -875  -891  -964  -1090  -1152  -961  -394  530  1715  3154  4908  6778  8304  9065  8741  7264  5059  2813  1000  -188  -729  -868  -940  -1021  -1135  -1392  -1680  -1781  -1671  -1481  -1342  -1294  -1298  -1314  -1331  -1339  -1303  -1174  -961  -758  -650  -648  -714  -802  -868  -887  -840  -716  -551  -413  -333  -292  -253  -190  -98  11  129  243  328  379  424  512  677  902  1099  1198  1204  1164  1118  1064  957  765  540  380  301  236  126  -36  -222  -404  -566  -667  -651  -539  -435  -426  -525  -679  -803  -853  -842  -796  -736  -674  -603  -527  -493  -544  -644  -701  -661  -569  -489  -430  -381  -361  -390  -438  -476  -516  -564  -601  -618  -618  -606  -574  -531  -523  -576  -648  -682  -656  -579  -488  -433  -424  -434  -446  -458  -472  -484  -484  -456  -390  -309  -241  -183  -123  -63  -14  21  54  65  -26  -299  -675  -949  -1001  -875  -689  -560  -550  -650  -804  -936  -1008  -1042  -1073  -1094  -1028  -805  -454  -64  359  966  2005  3692  5938  8156  9540  9502  7902  5261  2600  698  -325  -729  -857  -971  -1094  -1133  -1077  -986  -921  -900  -910  -947  -1030  -1163  -1305  -1398  -1432  -1436  -1433  -1431  -1398  -1283  -1089  -874  -661  -443  -253  -141  -112  -154  -263  -407  -510  -506  -381  -180  24  221  428  612  733  816  887  947  1024  1176  1370  1465  1353  1082  802  632  585  603  618  563  400  178  2  -66  -51  -6  11  -87  -373  -763  -1049  -1126  -1044  -890  -724  -582  -488  -459  -497  -576  -648  -664  -606  -514  -449  -432  -440  -454  -488  -569  -683  -775  -823  -846  -853  -819  -716  -564  -426  -345  -327  -370  -463  -569  -635  -637  -584  -507  -454  -466  -558  -691  -783  -760  -601  -374  -198  -120  -91  -54  0  43  63  79  108  142  162  158  126  57  -63  -248  -501  -766  -941  -993  -972  -938  -924  -939  -968  -997  -1025  -1043  -1022  -896  -556  106  1160  2670  4634  6834  8714  9494  8741  6738  4230  2025  598  -101  -460  -793  -1101  -1254  -1239  -1142  -1034  -963  -956  -1001  -1062  -1109  -1136  -1143  -1118  -1044  -911  -757  -639  -587  -605  -669  -721  -708  -642  -562  -490  -419  -327  -221  -129  -66  -25  21  113  264  437  588  711  830  948  1040  1115  1196  1281  1349  1388  1403  1387  1296  1072  739  433  262  210  204  203  199  154  0  -252  -468  -531  -469  -379  -320  -332  -441  -637  -869  -1056  -1138  -1119  -1033  -916  -807  -733  -698  -689  -692  -698  -703  -694  -658  -596  -516  -427  -344  -295  -313  -432  -651  -919  -1153  -1274  -1271  -1212  -1164  -1125  -1051  -928  -784  -651  -547  -487  -469  -461  -446  -451  -482  -496  -447  -328  -183  -63  18  41  -25  -163  -302  -390  -424  -428  -423  -413  -393  -365  -350  -366  -411  -482  -604  -802  -1030  -1177  -1167  -1005  -776  -602  -546  -578  -553  -253  408  1387  2744  4584  6714  8578  9483  8898  6826  3990  1463  -26  -470  -355  -267  -528  -976  -1254  -1278  -1196  -1110  -1041  -1003  -995  -989  -956  -896  -837  -802  -792  -802  -823  -836  -820  -774  -722  -680  -645  -619  -586  -505  -374  -225  -84  24  84  139  250  397  501  533  534  537  549  575  615  665  724  794  867  920  926  872  757  601  461  384  364  362  354  322  242  90  -135  -378  -554  -631  -659  -696  -767  -850  -893  -879  -864  -867  -840  -762  -675  -620  -597  -590  -581  -566  -546  -520  -499  -493  -500  -508  -506  -509  -538  -588  -647  -704  -739  -750  -758  -788  -833  -871  -892  -903  -905  -882  -832  -774  -713  -633  -556  -510  -474  -406  -286  -142  -37  4  14  21  23  7  -30  -89  -162  -235  -283  -301  -296  -272  -242  -259  -386  -608  -820  -952  -1010  -1028  -1029  -1024  -1016  -1005  -1010  -1065  -1164  -1169  -895  -268  735  2223  4255  6574  8596  9693  9486  8004  5706  3330  1518  472  -11  -281  -588  -957  -1235  -1311  -1256  -1188  -1143  -1109  -1076  -1059  -1073  -1095  -1093  -1048  -964  -859  -750  -649  -572  -531  -523  -532  -539  -540  -541  -543  -535  -497  -406  -241  -26  164  284  358  425  490  538  559  565  581  637  751  896  1011  1061  1069  1072  1081  1081  1056  1005  921  778  587  398  230  54  -168  -421  -635  -766  -821  -830  -820  -807  -787  -750  -703  -669  -653  -646  -646  -679  -769  -884  -933  -873  -765  -710  -717  -721  -692  -654  -631  -620  -620  -638  -674  -698  -682  -666  -698  -756  -785  -758  -676  -572  -491  -444  -417  -404  -397  -386  -365  -346  -365  -462  -654  -889  -1051  -1038  -816  -461  -140  34  79  65  41  23  14  18  37  57  21  -150  -457  -758  -888  -815  -651  -526  -482  -481  -492  -531  -641  -842  -1091  -1329  -1511  -1513  -1150  -343  871  2347  3810  5122  6429  7706  8511  8396  7208  5168  2893  1065  -68  -687  -998  -1106  -1119  -1100  -1013  -815  -520  -214  -15  -31  -340  -902  -1455  -1697  -1572  -1290  -1060  -923  -844  -805  -789  -768  -723  -658  -577  -455  -282  -113  -15  4  -10  -13  21  96  202  339  503  668  799  891  959  1016  1082  1160  1197  1139  1006  862  739  643  574  526  492  471  444  359  184  -40  -246  -395  -486  -528  -540  -549  -575  -615  -642  -642  -633  -641  -658  -667  -682  -729  -804  -865  -887  -882  -873  -865  -863  -874  -893  -894  -840  -714  -563  -463  -459  -549  -690  -813  -859  -791  -599  -357  -188  -155  -242  -394  -541  -634  -674  -687  -685  -672  -652  -637  -644  -666  -674  -646  -577  -486  -397  -315  -230  -146  -82  -34  4  27  32  28  25  20  -2  -67  -186  -348  -509  -627  -688  -711  -720  -730  -733  -720  -705  -716  -768  -826  -860  -918  -1021  -996  -595  282  1607  3309  5224  7065  8507  9141  8552  6731  4234  1842  127  -737  -908  -716  -513  -460  -535  -684  -842  -939  -957  -934  -916  -962  -1114  -1327  -1495  -1557  -1507  -1336  -1069  -800  -619  -564  -615  -709  -788  -827  -812  -695  -451  -169  14  47  -29  -145  -217  -133  169  586  907  1070  1138  1101  945  779  706  712  733  715  634  521  439  412  415  420  420  405  343  197  -28  -278  -482  -598  -631  -618  -603  -631  -725  -852  -944  -974  -971  -963  -956  -941  -910  -873  -851  -854  -865  -835  -718  -528  -351  -292  -406  -623  -797  -865  -871  -869  -876  -878  -831  -684  -461  -276  -216  -290  -449  -584  -613  -577  -549  -543  -544  -543  -548  -565  -584  -585  -550  -480  -394  -318  -264  -232  -216  -188  -112  38  233  367  328  80  -264  -516  -584  -508  -367  -233  -180  -273  -524  -834  -1041  -1065  -930  -716  -511  -380  -373  -519  -766  -996  -1096  -965  -542  109  929  2002  3366  4970  6740  8257  8749  7773  5642  3161  1135  -34  -464  -575  -777  -1096  -1219  -1056  -844  -750  -766  -856  -992  -1125  -1202  -1201  -1134  -1034  -940  -878  -852  -843  -824  -786  -745  -720  -704  -661  -566  -442  -340  -275  -215  -140  -43  83  216  308  359  409  492  599  706  804  910  1031  1152  1268  1370  1433  1420  1309  1135  968  840  718  575  414  241  73  -52  -115  -152  -249  -472  -763  -974  -1040  -999  -901  -791  -712  -680  -677  -684  -688  -676  -641  -598  -582  -601  -616  -579  -519  -511  -572  -657  -738  -816  -880  -913  -910  -876  -829  -789  -771  -770  -758  -706  -617  -529  -480  -487  -551  -659  -777  -852  -854  -786  -687  -612  -583  -588  -601  -609  -606  -590  -561  -514  -454  -383  -294  -193  -109  -59  -43  -67  -143  -263  -385  -462  -487  -490  -491  -495  -493  -486  -476  -469  -479  -513  -568  -640  -738  -864  -995  -1114  -1213  -1234  -1036  -515  281  1247  2426  4020  6056  8132  9571  9703  8176  5399  2489  473  -349  -332  -113  -232  -758  -1236  -1280  -1039  -846  -798  -855  -996  -1176  -1308  -1330  -1231  -1037  -825  -679  -624  -626  -644  -653  -634  -572  -488  -425  -402  -406  -428  -463  -486  -441  -256  84  464  718  797  764  676  570  500  523  671  912  1161  1342  1400  1310  1105  875  706  629  615  623  642  676  728  787  806  700  389  -147  -760  -1188  -1327  -1273  -1136  -981  -855  -781  -743  -703  -621  -496  -373  -316  -344  -423  -504  -549  -550  -531  -519  -516  -518  -518  -502  -458  -402  -372  -378  -390  -391  -402  -438  -481  -516  -544  -561  -578  -615  -672  -721  -742  -742  -736  -727  -714  -696  -684  -682  -687  -691  -675  -622  -545  -474  -411  -337  -250  -159  -56  45  77  -4  -150  -258  -287  -265  -233  -219  -267  -411  -607  -750  -793  -776  -756  -781  -880  -1027  -1141  -1140  -970  -653  -313  -75  38  128  468  1421  3171  5531  7933  9588  9809  8456  6069  3516  1563  527  127  -139  -452  -715  -848  -848  -786  -750  -755  -764  -758  -737  -716  -709  -698  -670  -642  -648  -682  -707  -694  -642  -560  -453  -343  -271  -252  -266  -286  -299  -298  -282  -251  -193  -89  36  128  197  301  446  579  684  779  880  999  1116  1184  1171  1088  975  876  797  722  654  580  450  233  -5  -160  -208  -210  -213  -223  -240  -266  -294  -313  -317  -306  -284  -272  -322  -478  -696  -855  -885  -801  -664  -537  -471  -483  -541  -576  -533  -418  -293  -221  -208  -217  -212  -176  -121  -74  -44  -38  -101  -278  -518  -702  -772  -762  -722  -675  -627  -578  -524  -452  -352  -254  -199  -211  -287  -390  -465  -496  -502  -495  -442  -314  -145  -17  43  77  120  173  211  195  93  -84  -266  -400  -499  -606  -730  -844  -935  -998  -1005  -936  -821  -730  -697  -707  -722  -734  -769  -831  -790  -363  648  2138  3817  5429  6712  7424  7424  6566  4847  2741  985  -34  -502  -816  -1144  -1398  -1528  -1607  -1696  -1771  -1791  -1787  -1814  -1855  -1861  -1822  -1777  -1774  -1815  -1867  -1902  -1917  -1909  -1866  -1776  -1636  -1454  -1262  -1111  -1012]
