reading_id,reading_time,wire_id,result_classification,heart_rate,heart_rate_alert,firmware_version,device_app_version,hardware_version,waveform_samples
0a5ccdc0-7524-11ed-8080-808080808080,Tue Dec 06 05:08:37 UTC 2022,e100e3fd2639,NSR,96,NONE,20001.171.50,2.10.0,Charge 5,[-393  -490  -590  -641  -605  -526  -444  -330  -158  1  21  -148  -451  -771  -974  -989  -850  -663  -537  -499  -503  -510  -513  -521  -535  -557  -596  -666  -755  -774  -573  -107  450  939  1535  2612  4297  6289  8004  8784  8152  6242  3831  1688  210  -426  -374  -113  34  57  2  -112  -271  -438  -547  -545  -427  -249  -101  -22  6  -5  -66  -148  -206  -225  -221  -208  -193  -172  -156  -152  -155  -150  -118  -53  26  100  167  229  268  276  264  252  277  372  529  681  759  751  708  692  748  898  1093  1226  1243  1178  1098  1063  1085  1116  1112  1077  1044  1023  968  814  578  355  202  94  -13  -122  -197  -230  -241  -230  -181  -89  26  134  188  109  -163  -544  -822  -848  -620  -256  52  193  193  126  50  2  -12  -12  -7  -1  3  -9  -62  -164  -284  -340  -286  -186  -120  -99  -86  -62  -44  -69  -158  -274  -365  -419  -446  -443  -399  -321  -236  -174  -147  -137  -121  -101  -128  -271  -491  -642  -641  -552  -476  -446  -433  -403  -348  -277  -225  -208  -195  -142  -48  33  72  104  161  198  150  53  3  28  82  129  166  214  277  327  350  364  379  353  204  -85  -406  -606  -655  -631  -603  -569  -490  -348  -203  -164  -297  -550  -769  -807  -572  -33  778  1847  3223  4880  6520  7660  7828  6811  4937  2941  1383  385  -151  -389  -493  -532  -536  -564  -622  -655  -647  -625  -611  -612  -621  -618  -569  -464  -335  -229  -154  -99  -83  -141  -274  -435  -549  -563  -502  -431  -378  -319  -227  -97  45  161  234  282  337  418  519  585  566  504  505  635  867  1093  1230  1278  1272  1259  1271  1306  1340  1363  1374  1348  1213  932  603  386  329  346  304  123  -141  -352  -455  -495  -512  -518  -517  -502  -469  -455  -535  -712  -870  -906  -827  -701  -600  -557  -554  -560  -560  -559  -577  -630  -699  -762  -837  -930  -1006  -1035  -1036  -1035  -1031  -1002  -942  -887  -860  -834  -806  -790  -761  -710  -654  -604  -568  -534  -501  -520  -596  -659  -677  -673  -667  -666  -672  -685  -686  -646  -568  -499  -470  -466  -471  -489  -535  -604  -674  -731  -751  -726  -691  -679  -685  -694  -700  -698  -673  -614  -522  -422  -350  -309  -279  -243  -203  -186  -223  -316  -422  -491  -507  -489  -469  -463  -488  -554  -649  -733  -776  -783  -787  -825  -904  -960  -923  -774  -472  47  835  2007  3691  5722  7500  8280  7640  5729  3274  1219  108  -152  -36  -11  -219  -496  -672  -726  -708  -661  -615  -598  -647  -750  -837  -860  -831  -787  -752  -707  -620  -502  -403  -350  -329  -321  -321  -327  -330  -320  -284  -230  -174  -103  7  139  235  272  273  264  259  266  289  318  351  418  560  767  965  1082  1110  1078  1009  930  878  856  822  724  559  400  305  256  200  110  -21  -191  -358  -463  -490  -482  -496  -563  -664  -749  -796  -810  -790  -743  -691  -649  -625  -620  -644  -712  -805  -872  -873  -806  -700  -595  -503  -421  -370  -376  -443  -539  -602  -615  -624  -660  -709  -757  -803  -832  -820  -755  -662  -595  -604  -705  -855  -975  -1019  -1003  -964  -923  -880  -837  -806  -783  -747  -692  -648  -650  -722  -834  -907  -897  -847  -802  -754  -695  -626  -537  -432  -349  -316  -316  -308  -282  -250  -226  -224  -220  -185  -147  -158  -230  -346  -471  -573  -627  -639  -634  -628  -623  -619  -622  -640  -683  -715  -604  -240  308  901  1557  2381  3406  4610  5801  6506  6272  5057  3231  1447  311  -127  -286  -467  -656  -748  -728  -644  -530  -428  -392  -430  -487  -494  -444  -382  -343  -331  -364  -463  -607  -728  -772  -683  -420  -70  181  261  247  231  248  291  333  358  361  344  310  299  362  483  578  607  622  680  775  855  932  1065  1244  1381  1429  1403  1331  1245  1190  1183  1193  1162  1046  866  694  564  457  370  323  317  311  251  111  -74  -232  -312  -326  -316  -306  -304  -307  -317  -332  -349  -360  -346  -284  -178  -72  -10  -10  -67  -164  -265  -337  -365  -341  -266  -131  76  301  407  302  30  -282  -532  -685  -755  -760  -700  -594  -491  -432  -408  -382  -347  -328  -342  -369  -389  -416  -477  -570  -674  -770  -844  -877  -875  -863  -859  -856  -832  -763  -649  -524  -435  -369  -287  -204  -168  -187  -224  -234  -220  -218  -249  -314  -418  -557  -703  -793  -793  -769  -793  -839  -840  -805  -806  -861  -908  -901  -864  -844  -774  -476  83  778  1616  2739  4151  5593  6595  6673  5613  3693  1596  -47  -950  -1136  -905  -653  -586  -679  -834  -971  -1038  -1034  -982  -910  -833  -744  -651  -612  -673  -811  -966  -1087  -1141  -1095  -944  -741  -570  -471  -426  -395  -347  -286  -243  -237  -253  -267  -273  -275  -277  -271  -244  -187  -105  -19  64  160  262  338  387  446  519  583  646  740  849  874  701  351  -4  -185  -160  -31  102  229  351  411  335  104  -229  -549  -733  -740  -606  -424  -306  -322  -455  -597  -628  -575  -570  -642  -688  -657  -607  -608  -676  -757  -763  -641  -406  -130  95  228  262  158  -136  -536  -843  -973  -975  -899  -766  -587  -382  -201  -95  -64  -71  -106  -181  -277  -343  -352  -327  -309  -312  -316  -303  -283  -267  -249  -216  -165  -117  -97  -117  -172  -236  -280  -296  -301  -309  -321  -317  -252  -93  115  281  360  397  457  539  569  472  259  0  -232  -389  -465  -488  -486  -480  -474  -473  -482  -505  -543  -599  -631  -465  34  668  1106  1478  2321  3861  5683  7090  7475  6512  4468  2215  504  -470  -800  -739  -637  -615  -586  -526  -472  -445  -456  -504  -566  -617  -639  -636  -618  -600  -590  -572  -511  -399  -278  -201  -180  -213  -299  -412  -493  -513  -485  -427  -339  -223  -128  -105  -115  -82  10  130  264  393  479  514  537  589  681  801  928  1025  1062  1034  963  881  818  796  819  866  907  924  900  822  720  653  618  520  257  -134  -502  -727  -788  -713  -556  -379  -239  -199  -301  -505  -679  -712  -625  -511  -419  -323  -194  -89  -122  -317  -553  -707  -751  -688  -490  -193  70  173  57  -255  -629  -886  -973  -961  -904  -810  -707  -655  -682  -736  -748  -710  -661  -613  -546  -488  -513  -645  -813  -935  -993  -1014  -1011  -976  -889  -743  -578  -464  -425  -425  -423  -400  -368  -350  -346  -335  -305  -252  -195  -155  -137  -127  -110  -90  -72  -72  -111  -211  -375  -552  -670  -709  -710  -709  -712  -720  -739  -775  -840  -903  -891  -812  -695  -402  206  1104  2310  3857  5495  6794  7344  6767  5069  2894  1030  -135  -660  -794  -741  -633  -580  -621  -697  -739  -738  -717  -694  -684  -712  -800  -926  -1015  -991  -834  -614  -452  -396  -415  -471  -531  -558  -522  -431  -315  -191  -66  46  103  69  -6  -36  3  86  181  261  320  382  472  570  633  651  665  713  787  847  868  853  808  748  697  665  657  710  866  1086  1237  1198  941  571  229  -57  -313  -498  -574  -568  -531  -502  -476  -446  -432  -465  -543  -622  -667  -678  -677  -680  -680  -651  -577  -481  -413  -379  -349  -309  -277  -262  -261  -276  -314  -363  -400  -415  -419  -413  -382  -324  -263  -197  -116  -98  -237  -470  -619  -593  -465  -354  -310  -326  -401  -528  -657  -735  -742  -687  -589  -480  -403  -375  -376  -348  -242  -87  25  7  -162  -405  -576  -565  -369  -96  102  175  184  181  171  137  72  -15  -110  -203  -293  -381  -459  -514  -542  -565  -614  -686  -739  -730  -645  -517  -395  -294  -230  -237  -249  -60  551  1748  3521  5531  7192  7992  7586  5882  3403  1134  -320  -976  -1038  -805  -630  -628  -697  -768  -827  -861  -868  -836  -749  -629  -530  -480  -471  -481  -471  -434  -400  -385  -373  -352  -342  -369  -420  -459  -455  -409  -354  -302  -229  -135  -63  -37  -39  -30  26  145  285  384  445  541  713  907  1032  1074  1068  1018  901  745  626  580  583  597  606  598  564  503  428  346  266  208  179  165  143  92  -7  -163  -347  -486  -516  -426  -288  -193  -167  -180  -203  -224  -238  -238  -219  -181  -138  -107  -103  -143  -232  -336  -403  -423  -423  -426  -433  -426  -394  -347  -311  -298  -300  -303  -299  -289  -281  -283  -289  -284  -272  -272  -311  -388  -462  -517  -570  -602  -598  -580  -568  -562  -562  -565  -569  -567  -576  -610  -649  -667  -669  -669  -668  -633  -528  -377  -230  -94  51  178  244  258  253  236  173  25  -207  -462  -642  -707  -696  -663  -641  -641  -653  -665  -674  -683  -707  -760  -819  -827  -776  -649  -313  368  1451  2964  4804  6561  7642  7596  6353  4275  2102  538  -250  -527  -607  -739  -945  -1016  -879  -695  -594  -563  -558  -566  -600  -658  -692  -667  -622  -605  -614  -624  -619  -585  -516  -433  -365  -317  -277  -250  -241  -239  -196  -71  99  220  249  221  189  179  216  313  433  490  440  329  238  207  274  485  801  1077  1212  1205  1081  865  651  548  584  690  786  849  865  751  417  -46  -404  -538  -526  -470  -402  -314  -221  -164  -161  -206  -312  -476  -642  -752  -793  -791  -776  -762  -754  -756  -766  -782  -793  -784  -745  -682  -607  -520  -448  -447  -519  -620  -729  -860  -992  -1062  -1039  -965  -889  -824  -777  -766  -792  -820  -824  -812  -805  -808  -810  -792  -740  -678  -657  -697  -762  -805  -808  -789  -770  -772  -791  -791  -760  -723  -704  -677  -573  -350  -47  222  363  370  308  247  224  234  233  147  -59  -324  -530  -619  -620  -584  -554  -575  -676  -830  -959  -989  -900  -734  -603  -606  -622  -348  460  1893  3830  5806  7222  7733  7197  5634  3474  1428  42  -537  -543  -364  -266  -333  -551  -821  -994  -990  -865  -744  -703  -727  -757  -750  -692  -609  -548  -525  -519  -494  -427  -343  -314  -387  -488  -482  -339  -159  -34  10  -9  -60  -87  -53  36  155  285  398  465  491  506  540  591  646  701  755  798  833  867  876  835  772  733  726  736  746  751  749  717  614  432  215  31  -68  -87  -70  -56  -79  -159  -270  -350  -375  -368  -359  -366  -398  -443  -478  -489  -478  -448  -417  -427  -508  -622  -677  -623  -497  -387  -343  -379  -495  -646  -754  -786  -773  -747  -715  -671  -631  -619  -621  -609  -585  -572  -574  -581  -586  -589  -592  -592  -582  -560  -537  -516  -492  -469  -459  -458  -455  -447  -438  -428  -402  -356  -302  -249  -195  -137  -77  -14  41  66  48  6  -26  -36  -51  -131  -307  -540  -749  -880  -929  -910  -837  -738  -652  -611  -641  -737  -803  -729  -455  28  603  1169  1936  3155  4777  6470  7654  7654  6205  3818  1480  -29  -537  -407  -141  -7  -23  -128  -268  -402  -500  -545  -548  -539  -547  -576  -591  -556  -486  -439  -456  -497  -484  -392  -269  -171  -122  -122  -156  -202  -238  -255  -249  -202  -103  31  173  321  477  601  659  672  687  727  790  856  900  905  874  826  793  789  798  801  799  798  802  814  832  840  793  657  474  341  273  180  -17  -275  -462  -516  -481  -422  -378  -381  -469  -648  -846  -959  -950  -855  -726  -614  -572  -631  -757  -873  -934  -948  -934  -890  -811  -731  -691  -685  -639  -488  -271  -112  -97  -222  -413  -566  -637  -643  -591  -469  -317  -228  -251  -337  -407  -431  -427  -416  -409  -417  -453  -508  -549  -565  -582  -618  -646  -618  -529  -426  -342  -280  -221  -130  4  142  211  194  152  121  38  -173  -474  -737  -885  -929  -907  -862  -825  -808  -800  -796  -820  -917  -1059  -1093  -921  -607  -252  91  524  1388  2957  5004  6890  7912  7510  5703  3281  1202  -26  -435  -407  -400  -602  -873  -1054  -1145  -1154  -1058  -921  -857  -911  -1003  -1033  -1012  -1015  -1042  -1015  -885  -708  -589  -554  -554  -561  -572  -566  -527  -469  -431  -426  -430  -415  -385  -342  -258  -132  -1  124  249  346  390  396  385  363  331  299  282  291  339  429  545  650  691  657  599  575  583  579  511  351  136  -49  -155  -212  -282  -366  -422  -455  -529  -668  -820  -913  -936  -912  -851  -760  -660  -572  -514  -506  -552  -626  -701  -749  -751  -687  -552  -382  -251  -205  -243  -322  -391  -425  -430  -416  -388  -356  -341  -356  -386  -405  -400  -378  -344  -292  -228  -194  -236  -358  -479  -493  -403  -304  -258  -255  -269  -280  -278  -261  -235  -196  -102  67  253  353  325  214  102  45  32  5  -73  -181  -272  -347  -455  -601  -731  -796  -784  -726  -674  -655  -658  -679  -745  -847  -843  -527  119  924  1867  3151  4839  6620  7920  8082  6775  4451  2050  337  -457  -619  -560  -520  -570  -645  -676  -677  -666  -664  -697  -744  -771  -777  -780  -786  -787  -751  -652  -517  -413  -375  -382  -401  -403  -377  -336  -301  -267  -205  -116  -14  99  217  302  335  341  385  511  683  811  863  871  869  867  863  857  857  894  998  1139  1246  1282  1260  1189  1050  838  608  440  354  317  295  272  252  235  212  164  75  -41  -163  -291  -424  -536  -618  -684  -726  -739  -741  -747  -751  -718  -626  -519  -473  -491  -542  -616  -688  -721  -723  -716  -710  -712  -729  -764  -809  -841  -843  -834  -842  -869  -889  -878  -834  -786  -760  -755  -750  -734  -716  -708  -704  -702  -707  -716  -713  -694  -656  -572  -410  -205  -51  11  14  -8  -68  -191  -360  -512  -624  -732  -849  -942  -978  -925  -752  -508  -338  -384  -694  -1134  -1465  -1545  -1364  -1005  -645  -349  19  509  1222  2507  4411  6405  7814  8045  6820  4564  2201  448  -499  -771  -665  -577  -718  -956  -1090  -1119  -1116  -1089  -1034  -968  -915  -880  -852  -820  -778  -718  -647  -587  -548  -516  -479  -441  -431  -453  -459  -417  -351  -286  -222  -157  -80  27  159  274  337  357  369  410  497  610  710  767  797  837  903  977  1003  956  915  965  1052  1065  965  811  702  669  669  639  540  375  173  -36  -204  -290  -304  -284  -256  -252  -333  -547  -825  -1015  -1009  -806  -520  -310  -255  -341  -520  -705  -783  -711  -554  -422  -364  -360  -396  -477  -584  -670  -719  -753  -785  -815  -832  -836  -836  -838  -843  -838  -796  -698  -570  -477  -447  -468  -524  -583  -596  -552  -498  -467  -444  -418  -407  -419  -444  -455  -410  -277  -98  33  80  83  77  49  -32  -173  -356  -566  -784  -971  -1078  -1059  -933  -800  -760  -878  -1120  -1309  -1313  -1171  -854  -242  661  1850  3442  5321  6999  7955  7786  6338  4069  1892  431  -300  -574  -715  -951  -1189  -1209  -1000  -727  -554  -546  -677  -859  -985  -1002  -931  -825  -737  -688  -679  -704  -731  -725  -675  -580  -437  -269  -127  -51  -32  -35  -45  -78  -144  -212  -228  -174  -59  121  357  585  751  857  931  985  1033  1084  1121  1134  1132  1128  1123  1113  1083  1011  878  723  632  616  606  552  442  310  208  140  59  -72  -245  -414  -533  -602  -645  -676  -694  -701  -707  -715  -713  -674  -573  -416  -257  -167  -198  -356  -571  -726  -781  -776  -742  -681  -610  -563  -550  -531  -467  -366  -273  -221  -222  -299  -464  -667  -811  -866  -886  -914  -937  -904  -754  -496  -229  -52  13  14  -2  -10  1  41  99  155  202  233  225  136  -73  -352  -572  -668  -691  -710  -747  -789  -833  -882  -939  -1005  -1063  -1108  -1162  -1164  -951  -478  140  889  1954  3512  5486  7436  8624  8378  6662  4211  2017  664  87  -185  -570  -1048  -1296  -1228  -1054  -912  -797  -695  -639  -646  -669  -660  -628  -602  -599  -607  -604  -586  -572  -575  -590  -586  -531  -444  -375  -341  -307  -251  -169  -75  5  45  50  56  97  177  281  403  545  691  797  847  863  866  863  851  832  827  850  893  926  933  918  885  818  710  591  485  370  204  -4  -183  -277  -312  -361  -469  -609  -734  -812  -790  -674  -562  -520  -529  -548  -564  -585  -613  -627  -610  -570  -536  -550  -643  -793  -929  -988  -973  -930  -862  -727  -540  -390  -365  -500  -730  -914  -973  -936  -851  -759  -700  -687  -696  -694  -664  -626  -610  -605  -577  -520  -443  -357  -300  -299  -318  -345  -413  -525  -643  -741  -811  -839  -829  -813  -809  -800  -740  -598  -415  -312  -429  -752  -1033  -1103  -1052  -939  -647  24  1205  2840  4723  6375  7164  6766  5276  3107  968  -456  -958  -837  -523  -320  -359  -552  -733  -844  -914  -958  -979  -974  -932  -842  -716  -590  -510  -483  -484  -490  -506  -541  -568  -513  -364  -221  -173  -226  -315  -331  -231  -104  -42  -30  -7  68  198  357  511  627  660  565  408  366  485  629  696  712  736  797  873  937  978  993  986  983  989  973  870  636  335  60  -172  -362  -474  -506  -500  -490  -492  -513  -552  -584  -585  -573  -570  -563  -551  -561  -588  -606  -614  -617  -610  -569  -473  -326  -176  -94  -110  -203  -321  -402  -428  -422  -411  -404  -400  -400  -403  -414  -431  -450  -466  -468  -431  -331  -194  -84  -15  53  132  169  114  -13  -141  -209  -226  -239  -278  -320  -332  -340  -398  -503  -604  -675  -720  -699  -523  -200  41  -22  -186  0  685  1804  3155  4192  4381  3719  2618  1501  628  94  -217  -503  -728  -743  -620  -538  -538  -563  -583  -583  -530  -390  -199  -51  -1  -52  -196  -384  -516  -521  -389  -171  46  202  285  308  287  225  136  47  -26  -75  -76  -2  141  302  427  518  592  649  688  714  755  843  963  1068  1131  1150  1145  1167  1215  1224  1161  1076  1041  1052  1016  856  601  351  194  124  64  -38  -173  -293  -364  -387  -393  -407  -428  -425  -375  -300  -239  -202  -195  -275  -505  -820  -1052  -1115  -1048  -921  -776  -635  -518  -439  -372  -280  -172  -89  -53  -60  -115  -232  -379  -496  -559  -580  -559  -499  -434  -406  -429  -473  -488  -425  -258  -27  147  177  97  12  -34  -88  -201  -361  -505  -589  -623  -628  -590  -494  -380  -303  -275  -274  -301  -385  -489  -443  -135  240  408  448  650  1178  2129  3415  4557  4999  4508  3191  1474  -19  -913  -1210  -1087  -796  -510  -281  -162  -186  -339  -581  -816  -951  -986  -974  -941  -880  -805  -754  -743  -754  -763  -758  -722  -636  -504  -378  -309  -321  -405  -519  -602  -616  -561  -458  -355  -290  -256  -207  -114  -4  73  104  110  106  82  26  -49  -100  -79  31  187  312  373  384  366  351  385  487  624  715  653  362  -83  -461  -632  -647  -617  -605  -616  -637  -655  -668  -670  -651  -592  -476  -330  -234  -287  -531  -871  -1114  -1151  -1019  -832  -701  -656  -652  -652  -646  -616  -534  -420  -339  -344  -443  -583  -682  -693  -624  -526  -458  -446  -481  -533  -567  -547  -458  -336  -247  -225  -248  -283  -308  -315  -304  -278  -256  -283  -397  -556  -668  -695  -687  -723  -845  -999  -1083  -1051  -923  -750  -570  -369  -173  -48  128  681  1744  3062  4250  5009  5154  4679  3737  2452  981  -251  -872  -953  -744  -467  -367  -506  -702  -811  -839  -825  -801  -795  -820  -856  -870  -847  -805  -763  -713  -646  -604  -584  -491  -305  -141  -71  -57  -51  -45  -50  -60  -59  -30  31  140  311  503  627  655  636  615  604  595  578  544  500  459  409  345  321  386  504  601  650  667  671  650  583  482  387  310  207  43  -149  -310  -410  -437  -389  -321  -287  -286  -291  -288  -275  -246  -195  -137  -109  -143  -237  -354  -453  -504  -486  -385  -242  -134  -91  -87  -91  -103  -135  -190  -244  -249  -191  -120  -96  -130  -212  -329  -443  -524  -570  -586  -566  -501  -388  -257  -138  3  236  526  715  621  172  -447  -900  -1034  -941  -756  -575  -455  -406  -414  -466  -541  -594  -552  -359  -30  279  384  450  956  2128  3737  5293  6233  6133  4961  3150  1342  0  -681  -721  -410  -178  -238  -486  -769  -1013  -1158  -1164  -1049  -882  -747  -690  -691  -726  -784  -845  -882  -882  -843  -781  -720  -685  -687  -708  -713  -695  -673  -647  -584  -459  -294  -132  13  126  171  161  142  129  129  153  182  181  143  105  115  181  299  489  725  887  853  592  227  -34  -79  51  244  374  363  209  -10  -200  -340  -451  -522  -540  -536  -543  -578  -626  -665  -683  -670  -632  -595  -572  -560  -554  -555  -564  -581  -596  -602  -598  -589  -584  -584  -587  -598  -622  -650  -659  -635  -583  -528  -510  -549  -610  -646  -638  -598  -554  -510  -453  -406  -377  -346  -319  -300  -274  -235  -194  -180  -200  -246  -356  -584  -873  -1074  -1087  -915  -652  -438  -375  -502  -768  -997  -1012  -762  -266  449  1414  2697  4221  5680  6638  6685  5691  3993  2139  549  -489  -882  -843  -648  -471  -449  -600  -773  -855  -850  -778  -634  -456  -334  -334  -453  -619  -737  -765  -730  -672  -607  -524  -433  -376  -359  -325  -221  -71  47  92  73  7  -90  -182  -219  -139  84  370  574  646  658  692  776  883  967  1004  1006  1001  1003  1016  1024  986  857  666  503  441  483  591  708  765  692  437  5  -463  -757  -813  -749  -675  -620  -602  -643  -716  -756  -727  -650  -572  -521  -502  -493  -446  -322  -178  -96  -73  -76  -109  -173  -260  -361  -454  -523  -564  -573  -541  -461  -366  -305  -283  -278  -279  -275  -239  -153  -39  58  127  170  161  63  -111  -297  -425  -468  -448  -417  -402  -405  -407  -398  -389  -405  -472  -591  -687  -679  -682  -865  -1061  -910  -226  979  2644  4547  6141  6848  6504  5305  3660  2182  1295  797  218  -472  -980  -1162  -1031  -694  -357  -157  -95  -139  -271  -441  -567  -595  -511  -332  -128  17  79  76  11  -134  -343  -516  -556  -453  -268  -77  57  117  128  125  114  67  -14  -64  -7  158  379  534  528  437  407  452  501  512  493  497  579  728  860  914  903  874  824  726  592  464  339  201  69  -44  -168  -306  -417  -468  -468  -453  -460  -497  -531  -518  -451  -353  -254  -203  -307  -650  -1125  -1481  -1577  -1441  -1150  -794  -480  -274  -202  -315  -662  -1130  -1465  -1505  -1290  -982  -767  -719  -793  -909  -985  -935  -702  -354  -59  81  87  -20  -255  -566  -808  -866  -781  -683  -639  -631  -629  -641  -686  -742  -758  -729  -699  -680  -619  -462  -343  -561  -1071  -1349  -974  138  1901  3974  5785  6847  6882  5815  3881  1666  -106  -994  -1073  -737  -343  -102  -162  -522  -925  -1112  -1070  -938  -836  -795  -788  -791  -809  -848  -898  -931  -928  -885  -826  -782  -768  -779  -804  -816  -747  -536  -244  -31  11  -78  -208  -300  -333  -327  -288  -208  -72  118  327  493  578  586  557  529  523  554  632  757  907  1039  1090  994  749  456  244  142  101  83  63  16  -58  -148  -256  -394  -553  -675  -678  -560  -411  -315  -295  -321  -351  -371  -394  -424  -446  -453  -446  -432  -414  -399  -394  -395  -387  -349  -286  -245  -257  -294  -334  -386  -454  -513  -541  -542  -513  -429  -277  -95  57  154  187  157  85  6  -47  -77  -113  -183  -303  -460  -599  -674  -687  -678  -678  -680  -681  -717  -764  -716  -586  -528  -579  -538  2  1348  3358  5565  7340  7945  7024  5009  2728  889  -109  -344  -269  -271  -393  -521  -627  -751  -898  -993  -948  -793  -657  -609  -621  -642  -647  -625  -578  -518  -476  -463  -465  -472  -478  -482  -471  -431  -368  -312  -285  -285  -298  -308  -301  -256  -161  -23  128  260  353  378  336  317  408  602  796  878  830  737  687  702  738  747  715  667  631  604  553  438  233  -30  -262  -392  -429  -421  -408  -403  -412  -439  -475  -526  -604  -695  -752  -761  -744  -730  -726  -727  -728  -722  -705  -682  -666  -658  -641  -570  -401  -173  -4  3  -171  -466  -731  -846  -800  -659  -497  -359  -273  -263  -329  -418  -479  -501  -489  -455  -412  -361  -305  -274  -310  -427  -550  -595  -593  -630  -696  -731  -725  -700  -656  -622  -692  -880  -1018  -888  -347  653  2084  3788  5414  6577  6979  6374  4850  2942  1219  20  -534  -613  -544  -453  -313  -223  -268  -411  -608  -793  -914  -999  -1064  -1083  -1034  -905  -725  -566  -483  -475  -507  -523  -480  -382  -262  -154  -92  -102  -182  -296  -388  -425  -382  -225  19  247  391  461  466  408  334  287  264  255  275  339  439  545  644  734  807  848  864  865  836  751  618  460  283  106  -24  -104  -173  -254  -352  -447  -508  -528  -525  -517  -512  -517  -540  -581  -631  -678  -711  -734  -751  -765  -770  -744  -681  -599  -522  -478  -492  -579  -716  -835  -881  -853  -795  -750  -735  -734  -706  -593  -381  -148  -7  -7  -123  -282  -391  -415  -375  -315  -270  -261  -304  -417  -605  -815  -960  -1013  -1017  -1007  -980  -906  -751  -546  -386  -361  -538  -902  -1228  -1215  -756  53  1025  1972  2917  4067  5406  6490  6739  5836  4007  1924  224  -780  -1069  -899  -660  -543  -519  -565  -671  -767  -791  -748  -670  -593  -537  -518  -567  -692  -848  -948  -926  -769  -553  -392  -325  -297  -254  -202  -153  -96  -34  18  48  39  17  25  70  134  207  280  332  354  373  438  570  722  826  851  807  718  626  572  558  564  577  591  607  618  601  519  359  160  -14  -127  -199  -276  -355  -406  -423  -418  -404  -401  -422  -483  -602  -752  -857  -871  -814  -749  -736  -777  -822  -828  -790  -729  -674  -635  -609  -597  -594  -585  -541  -449  -331  -235  -196  -243  -424  -743  -1070  -1189  -1003  -648  -356  -221  -189  -212  -295  -442  -590  -645  -594  -509  -437  -386  -357  -327  -243  -92  69  167  162  49  -136  -314  -409  -406  -355  -351  -463  -676  -904  -1075  -1171  -1195  -1107  -846  -473  -186  -130  -220  -205  45  466  1039  1921  3340  5241  7061  8063  7765  6187  3995  2046  749  118  -80  -204  -320  -414  -664  -1031  -1263  -1293  -1217  -1092  -909  -678  -467  -351  -353  -441  -560  -652  -712  -763  -815  -845  -803  -672  -510  -385  -314  -285  -282  -282  -267  -245  -248  -270  -238  -102  94  265  363  392  379  358  358  381  407  439  513  640  769  827  790  700  603  519  453  416  402  387  354  286  158  -31  -223  -340  -366  -345  -320  -315  -323  -304  -237  -158  -110  -101  -115  -143  -189  -251  -306  -344  -361  -346  -288  -216  -170  -159  -169  -184  -199  -212  -222  -223  -218  -221  -255  -339  -479  -638  -753  -794  -757  -640  -476  -321  -186  -71  -9  -15  -70  -156  -247  -316  -349  -343  -307  -272  -260  -263  -264  -244  -207  -200  -279  -411  -481  -421  -285  -174  -127  -120  -156  -268  -452  -632  -727  -720  -622  -444  -226  -61  -37  -146  -318  -514  -703  -840  -907  -932  -961  -1026  -1114  -1173  -1126  -945  -722  -568  -494  -476  -504  -543  -559  -540  -479  -373  -260  -205  -240  -322  -385  -419  -473  -556  -609  -578  -468  -337  -239  -190  -174  -175  -197  -248  -313  -339  -297  -215  -142  -98  -72  -52  -24  30  102  160  195  222  251  264  237  163  47  -81  -178  -233  -263  -279  -299  -347  -399  -384  -292  -216  -267  -390  -348  -64  291  750  1624  3128  5197  7396  8954  9189  7982  5779  3356  1482  490  222  257  163  -170  -509  -661  -658  -597  -516  -427  -353  -312  -299  -301  -294  -246  -129  34  169  218  181  80  -36  -110  -103  -11  127  248  311  318  303  290  274  243  199  174  196  269  385  516  618  679  715  720  679  615  566  549  550  555  564  581  594  587  561  534  515  486  425  341  266  222  218  245  252  185  61  -47  -99  -119  -142  -162  -165  -161  -192  -286  -413  -501  -525  -511  -487  -458  -430  -411  -416  -463  -568  -706  -813  -856  -850  -808  -736  -649  -576  -535  -517  -508  -503  -502  -503  -503  -504  -506  -505  -496  -487  -497  -500  -465  -434  -470  -558  -629  -654  -651  -647  -659  -681  -693  -680  -659  -653  -670  -700  -726  -736  -715  -652  -563  -483  -422  -366  -322  -321  -374  -450  -515  -540  -526  -531  -568  -578  -554  -527  -494  -466  -473  -512  -538  -502  -404  -296  -259  -319  -415  -488  -536  -558  -525  -412  -256  -138  -96  -121  -199  -314  -458  -624  -752  -777  -738  -712  -705  -659  -519  -303  -109  -14  -16  -80  -166  -237  -268  -261  -237  -227  -257  -336  -453  -569  -647  -677  -631  -453  -156  131  287  312  276  235  209  197  190  184  178  175  175  163  109  -4  -144  -244  -271  -248  -233  -280  -378  -472  -542  -614  -675  -645  -443  -14  730  1889  3398  5036  6529  7460  7438  6423  4682  2717  1141  250  -74  -75  -28  -131  -324  -478  -588  -695  -800  -874  -885  -822  -710  -594  -501  -440  -409  -400  -395  -353  -222  -34  59  -44  -269  -452  -524  -520  -462  -342  -192  -85  -58  -85  -106  -39  175  474  692  738  649  515  417  401  488  673  896  1068  1145  1137  1054  903  727  593  553  595  631  584  474  382  347  366  426  491  492  368  152  -44  -153  -190  -195  -200  -229  -258  -247  -208  -182  -176  -171  -132  -42  66  138  125  5  -164  -285  -325  -320  -301  -286  -280  -271  -238  -170  -86  -27  -20  -67  -120  -122  -72  -25  -17  -33  -44  -39  -26  -26  -65  -174  -347  -496  -517  -424  -327  -293  -302  -298  -248  -182  -155  -172  -200  -216  -206  -171  -141  -166  -292  -491  -668  -756  -780  -791  -800  -785  -728  -627  -522  -456  -422  -412  -442  -510  -603  -702  -777  -814  -820  -778  -670  -531  -440  -427  -454  -491  -537  -595  -657  -705  -732  -739  -740  -742  -739  -714  -653  -553  -442  -371  -373  -451  -561  -638  -630  -531  -390  -277  -216  -195  -227  -349  -529  -664  -711  -735  -810  -930  -1031  -1081  -1073  -987  -821  -575  -236  197  785  1628  2718  3978  5153  5753  5376  3948  1861  -38  -1001  -975  -442  59  119  -318  -840  -1082  -1068  -960  -844  -749  -694  -682  -696  -712  -697  -612  -488  -461  -585  -693  -637  -467  -329  -316  -402  -465  -428  -316  -196  -98  -10  71  139  186  219  240  257  294  387  551  736  860  899  895  893  902  915  938  988  1055  1092  1074  1039  1020  985  875  685  514  447  448  449  419  341  221  103  21  -17  -32  -48  -77  -106  -123  -130  -144  -183  -240  -288  -307  -283  -204  -83  32  90  49  -99  -281  -382  -363  -279  -208  -176  -174  -214  -314  -443  -514  -482  -387  -304  -266  -263  -284  -348  -464  -580  -610  -521  -365  -237  -184  -181  -190  -197  -201  -201  -191  -156  -92  -30  -30  -130  -312  -501  -621  -659  -653  -624  -564  -485  -432  -429  -445  -447  -433  -418  -412  -412  -419  -434  -447  -459  -487  -522  -515  -444  -338  -223  -101  4  54  28  -41  -101  -125  -131  -175  -313  -511  -669  -733  -735  -706  -648  -569  -494  -445  -444  -540  -750  -945  -919  -538  207  1231  2466  3857  5154  6003  6142  5388  3861  2082  601  -268  -533  -513  -506  -524  -543  -614  -730  -854  -967  -1036  -1034  -959  -838  -709  -599  -526  -496  -495  -485  -435  -330  -202  -110  -79  -87  -112  -142  -170  -187  -190  -186  -183  -190  -219  -261  -297  -303  -256  -139  56  310  556  722  797  826  843  852  854  863  885  922  981  1057  1120  1154  1162  1142  1062  870  570  250  12  -101  -128  -119  -100  -78  -59  -64  -126  -264  -448  -622  -741  -793  -794  -767  -727  -690  -660  -626  -582  -531  -470  -405  -336  -262  -195  -155  -147  -167  -213  -292  -399  -513  -593  -610  -577  -541  -523  -504  -468  -423  -376  -316  -265  -281  -399  -559  -647  -636  -581  -534  -534  -581  -645  -670  -593  -430  -294  -275  -369  -508  -616  -668  -670  -580  -348  -34  188  180  -92  -517  -876  -1016  -925  -661  -325  -36  145  246  320  376  397  369  285  161  25  -103  -200  -250  -264  -275  -327  -456  -650  -839  -946  -912  -689  -315  -25  -84  -375  -384  257  1549  3317  5194  6530  6908  6399  5118  3252  1342  -10  -571  -525  -253  -172  -455  -825  -969  -895  -724  -546  -439  -450  -576  -753  -879  -878  -738  -515  -305  -180  -145  -152  -192  -327  -546  -720  -753  -661  -526  -419  -343  -264  -173  -80  18  109  168  203  241  286  319  336  367  453  612  812  978  1054  1047  982  863  695  533  447  446  483  524  562  569  509  385  258  181  140  96  34  -35  -102  -166  -233  -311  -400  -475  -514  -541  -581  -614  -626  -646  -712  -819  -910  -929  -868  -766  -665  -570  -466  -366  -296  -296  -393  -564  -738  -852  -879  -827  -742  -677  -637  -604  -596  -652  -766  -845  -791  -620  -453  -366  -350  -378  -440  -528  -604  -627  -600  -566  -550  -549  -549  -545  -548  -584  -673  -791  -879  -895  -834  -735  -704  -803  -934  -945  -788  -535  -298  -138  -58  -58  -169  -405  -686  -875  -888  -721  -438  -180  -76  -147  -309  -460  -567  -649  -725  -818  -930  -1004  -957  -646  104  1253  2559  3859  5145  6343  7107  7028  5981  4189  2140  454  -515  -905  -945  -743  -477  -320  -286  -331  -431  -549  -632  -650  -597  -479  -338  -233  -196  -234  -341  -481  -589  -622  -582  -478  -317  -149  -43  -12  -19  -33  -24  50  212  403  527  536  451  329  247  255  357  503  614  654  648  632  637  668  727  826  966  1110  1206  1235  1201  1099  945  802  739  752  751  600  232  -217  -519  -596  -540  -460  -411  -404  -422  -447  -469  -476  -453  -384  -295  -253  -315  -460  -611  -703  -727  -698  -618  -503  -402  -352  -352  -380  -415  -439  -445  -441  -432  -428  -453  -524  -624  -704  -740  -747  -741  -721  -692  -674  -674  -686  -708  -734  -736  -660  -480  -256  -106  -105  -255  -481  -670  -763  -780  -734  -590  -347  -97  43  26  -129  -341  -498  -559  -562  -544  -506  -449  -412  -420  -422  -376  -306  -262  -265  -317  -461  -747  -1097  -1290  -1166  -790  -445  -395  -567  -591  -176  766  2243  4117  5918  7058  7215  6341  4658  2783  1352  446  -240  -797  -1096  -1133  -985  -718  -468  -344  -346  -457  -647  -822  -902  -914  -912  -891  -825  -722  -607  -496  -406  -361  -385  -488  -635  -757  -809  -743  -505  -131  211  384  374  214  -38  -286  -450  -521  -518  -449  -315  -145  10  105  135  158  258  471  719  894  956  912  782  624  514  480  494  520  532  493  362  143  -86  -246  -306  -293  -254  -222  -206  -215  -276  -407  -590  -759  -831  -771  -615  -433  -278  -187  -187  -302  -519  -751  -893  -893  -757  -542  -351  -260  -267  -320  -363  -372  -366  -363  -373  -425  -511  -593  -645  -641  -579  -484  -377  -281  -250  -326  -489  -654  -753  -785  -779  -742  -677  -597  -538  -523  -508  -433  -324  -245  -199  -143  -64  12  73  112  110  42  -96  -276  -440  -548  -602  -626  -640  -643  -625  -583  -540  -522  -536  -542  -487  -390  -304  -174  102  605  1502  2988  4930  6765  7851  7736  6283  3958  1674  83  -725  -974  -938  -835  -785  -789  -798  -782  -750  -725  -719  -724  -721  -688  -615  -528  -483  -505  -553  -593  -635  -686  -727  -740  -718  -659  -568  -463  -351  -226  -102  -17  16  14  6  36  129  251  325  326  316  360  473  624  766  864  905  898  853  787  718  657  607  581  597  655  700  673  561  394  208  51  -31  -39  -11  -10  -115  -361  -657  -860  -927  -910  -852  -754  -628  -518  -467  -492  -591  -754  -922  -996  -928  -780  -661  -616  -621  -637  -636  -603  -549  -508  -483  -448  -399  -375  -416  -505  -591  -633  -630  -619  -629  -647  -637  -575  -483  -401  -347  -331  -381  -531  -735  -885  -917  -845  -717  -574  -433  -287  -113  83  245  330  335  265  130  -57  -269  -453  -563  -618  -671  -738  -784  -787  -779  -794  -815  -812  -797  -790  -709  -429  -13  319  584  1143  2322  4110  6125  7673  8060  6988  4750  2145  83  -926  -1007  -664  -369  -364  -575  -756  -805  -786  -757  -738  -735  -757  -807  -856  -848  -768  -656  -578  -556  -557  -544  -520  -514  -538  -547  -504  -417  -313  -222  -168  -141  -98  -13  88  166  221  288  374  443  474  480  494  556  701  919  1131  1265  1323  1317  1237  1097  944  832  785  783  776  714  586  421  260  138  62  19  -8  -46  -117  -205  -268  -286  -272  -246  -236  -290  -450  -665  -826  -875  -834  -737  -622  -531  -487  -497  -562  -652  -695  -636  -487  -323  -225  -239  -383  -614  -829  -948  -979  -967  -956  -970  -1005  -1044  -1069  -1062  -991  -830  -630  -502  -498  -566  -634  -668  -642  -518  -299  -73  68  125  130  86  -11  -131  -218  -261  -293  -333  -378  -440  -546  -699  -845  -931  -944  -899  -811  -710  -638  -614  -658  -803  -1017  -1075  -679  183  1262  2458  3897  5565  7128  8106  7997  6471  3860  1158  -707  -1388  -1104  -501  -204  -333  -609  -787  -835  -822  -802  -790  -784  -790  -804  -816  -807  -770  -717  -675  -653  -647  -649  -649  -628  -555  -425  -289  -210  -185  -167  -117  -24  93  200  265  296  315  336  365  395  414  413  394  408  516  676  775  771  726  741  842  966  1068  1144  1199  1231  1201  1024  676  292  50  -12  16  60  85  38  -147  -461  -769  -942  -970  -911  -814  -720  -666  -655  -662  -659  -635  -597  -564  -546  -549  -579  -631  -680  -698  -694  -721  -804  -892  -913  -849  -756  -704  -700  -712  -726  -747  -777  -797  -789  -745  -684  -636  -611  -599  -596  -610  -638  -657  -648  -615  -555  -441  -251  -30  130  180  108  -80  -319  -488  -543  -530  -507  -506  -550  -651  -787  -906  -953  -913  -828  -774  -814  -945  -1073  -1138  -1131  -896  -183  1099  2920  5128  7161  8251  8054  6689  4521  2226  500  -439  -776  -757  -643  -638  -729  -798  -814  -806  -800  -823  -902  -1018  -1117  -1168  -1176  -1151  -1079  -929  -730  -574  -511  -514  -532  -546  -567  -601  -599  -507  -363  -260  -233  -232  -178  -24  196  393  506  541  541  553  612  703  764  783  826  899  923  882  840  850  899  912  849  761  697  648  601  542  447  331  226  108  -75  -297  -460  -523  -522  -476  -382  -265  -180  -150  -157  -188  -250  -355  -497  -619  -681  -686  -639  -561  -502  -479  -476  -465  -414  -336  -309  -403  -585  -771  -909  -985  -1011  -1001  -930  -758  -530  -358  -300  -355  -510  -705  -832  -847  -804  -763  -725  -646  -506  -347  -236  -201  -200  -180  -149  -150  -226  -374  -543  -671  -739  -772  -796  -813  -820  -818  -815  -815  -818  -820  -808  -790  -835  -970  -1089  -1075  -837  -182  1071  2871  4925  6792  7980  8106  7037  4998  2597  589  -551  -902  -862  -782  -813  -855  -758  -586  -491  -534  -699  -909  -1060  -1107  -1071  -973  -854  -774  -753  -760  -751  -701  -625  -559  -521  -504  -499  -490  -456  -367  -214  -56  34  50  37  50  123  238  348  427  478  517  561  611  651  678  712  757  792  804  798  794  799  792  752  697  664  628  510  275  14  -148  -185  -158  -138  -182  -327  -528  -671  -684  -573  -411  -294  -279  -373  -543  -710  -806  -832  -829  -821  -819  -827  -834  -808  -719  -589  -478  -406  -359  -328  -350  -481  -687  -849  -908  -908  -898  -876  -814  -714  -623  -586  -606  -652  -686  -699  -711  -717  -671  -533  -344  -210  -175  -195  -214  -207  -171  -119  -80  -95  -209  -442  -745  -1018  -1182  -1231  -1204  -1121  -972  -752  -505  -327  -312  -547  -1057  -1660  -1976  -1726  -918  291  1809  3640  5666  7455  8421  8127  6580  4367  2343  998  223  -325  -822  -1208  -1345  -1223  -1019  -901  -895  -961  -1061  -1157  -1225  -1253  -1222  -1121  -991  -896  -858  -847  -820  -752  -659  -585  -554  -555  -574  -591  -571  -490  -368  -260  -193  -140  -66  38  180  367  559  692  748  740  689  641  635  683  770  858  913  928  903  843  774  728  725  764  830  874  803  541  160  -144  -276  -308  -345  -422  -516  -591  -645  -692  -718  -695  -618  -540  -541  -625  -725  -787  -800  -762  -678  -586  -554  -614  -722  -806  -841  -853  -852  -800  -668  -507  -410  -396  -416  -427  -421  -413  -425  -484  -604  -743  -834  -861  -851  -831  -813  -802  -798  -780  -697  -488  -200  25  118  125  111  100  81  36  -42  -131  -192  -221  -251  -315  -452  -700  -993  -1170  -1161  -1052  -964  -925  -874  -741  -555  -460  -512  -497  -66  1047  2949  5392  7685  9007  8830  7153  4543  1920  86  -724  -843  -763  -801  -1000  -1207  -1298  -1281  -1196  -1058  -897  -769  -701  -671  -633  -575  -552  -613  -719  -802  -841  -868  -915  -962  -941  -822  -659  -535  -476  -426  -325  -177  -37  55  92  100  140  258  431  587  694  765  803  780  679  529  413  409  571  885  1234  1480  1565  1479  1209  807  437  237  196  213  216  176  78  -85  -284  -445  -526  -542  -532  -504  -453  -400  -384  -414  -481  -586  -706  -783  -778  -695  -580  -499  -484  -518  -564  -595  -615  -646  -678  -646  -520  -370  -285  -266  -270  -272  -283  -334  -425  -509  -543  -522  -465  -398  -346  -326  -347  -389  -436  -497  -572  -648  -702  -705  -656  -581  -473  -309  -96  100  219  267  290  308  292  197  8  -248  -517  -719  -813  -841  -856  -870  -872  -875  -909  -961  -916  -697  -509  -568  -706  -583  124  1745  4293  7206  9460  10009  8565  5834  2898  684  -405  -646  -558  -488  -570  -778  -986  -1086  -1042  -892  -737  -652  -637  -662  -714  -774  -817  -830  -827  -822  -820  -824  -837  -847  -814  -695  -500  -299  -153  -81  -72  -85  -52  78  276  449  545  576  573  554  532  520  527  542  562  612  721  894  1103  1254  1229  1032  783  569  419  347  339  361  374  335  211  42  -80  -126  -141  -166  -192  -219  -312  -515  -755  -919  -966  -921  -816  -703  -646  -665  -711  -734  -727  -716  -711  -711  -714  -723  -736  -753  -774  -796  -812  -807  -772  -735  -748  -813  -894  -952  -949  -883  -813  -785  -785  -765  -697  -602  -534  -515  -527  -538  -525  -483  -429  -391  -371  -353  -332  -318  -314  -299  -254  -187  -131  -109  -133  -211  -322  -425  -516  -632  -799  -992  -1142  -1214  -1219  -1167  -1031  -794  -584  -630  -901  -1065  -894  -354  593  2064  4124  6499  8532  9473  8776  6525  3669  1363  114  -217  -101  -125  -492  -888  -1067  -1087  -1053  -1010  -972  -948  -952  -974  -991  -989  -963  -909  -824  -730  -668  -652  -662  -664  -619  -521  -404  -300  -210  -136  -95  -88  -96  -92  -54  12  87  162  249  345  445  543  605  627  656  727  831  935  1014  1060  1075  1039  932  788  684  654  671  687  651  527  355  220  147  87  0  -100  -179  -227  -274  -343  -435  -535  -622  -694  -753  -790  -818  -866  -931  -967  -930  -822  -694  -604  -571  -571  -578  -579  -576  -581  -614  -689  -783  -851  -876  -873  -851  -800  -719  -653  -658  -728  -790  -792  -750  -723  -743  -776  -782  -766  -744  -693  -571  -402  -257  -140  -14  106  153  96  -19  -125  -200  -260  -323  -403  -497  -582  -633  -664  -703  -735  -725  -692  -693  -757  -857  -937  -985  -1028  -1036  -922  -627  -90  842  2402  4623  7059  8973  9667  8655  6108  3061  686  -488  -655  -423  -342  -513  -710  -772  -744  -729  -802  -1004  -1276  -1469  -1479  -1313  -1077  -895  -801  -757  -737  -734  -731  -702  -635  -541  -459  -436  -482  -544  -560  -492  -328  -121  30  95  130  193  285  376  463  559  646  718  797  869  913  958  1034  1130  1191  1176  1097  970  816  675  579  534  527  542  557  523  382  132  -158  -426  -640  -765  -802  -796  -792  -813  -858  -906  -948  -983  -994  -974  -948  -936  -936  -937  -933  -914  -867  -787  -697  -624  -585  -570  -563  -564  -604  -708  -851  -969  -1030  -1049  -1058  -1079  -1077  -1007  -893  -792  -745  -743  -722  -663  -637  -693  -784  -833  -813  -743  -638  -484  -284  -89  40  92  88  52  5  -44  -126  -280  -489  -678  -795  -843  -849  -839  -819  -789  -753  -727  -745  -864  -1119  -1454  -1659  -1524  -1113  -665  -236  393  1564  3457  5832  8055  9359  9181  7469  4802  2131  230  -667  -853  -788  -737  -736  -725  -693  -704  -788  -901  -996  -1075  -1132  -1149  -1116  -1045  -985  -954  -904  -804  -687  -598  -550  -517  -458  -370  -296  -249  -202  -150  -111  -78  -22  72  178  246  262  257  283  388  576  788  948  1039  1085  1105  1109  1111  1119  1126  1122  1099  1052  987  936  914  904  868  782  638  436  178  -84  -272  -351  -335  -278  -245  -263  -309  -346  -361  -369  -372  -355  -324  -288  -237  -164  -90  -46  -31  -31  -39  -73  -140  -216  -264  -273  -256  -231  -215  -212  -212  -200  -169  -128  -98  -86  -88  -103  -128  -141  -113  -54  -4  14  13  7  3  0]
