reading_id,reading_time,wire_id,result_classification,heart_rate,heart_rate_alert,firmware_version,device_app_version,hardware_version,waveform_samples
da73e080-6e11-11ed-8080-808080808080,Sun Nov 27 05:10:47 UTC 2022,e100e3fd2639,NSR,72,NONE,20001.171.50,2.10.0,Charge 5,[-3786  -3986  -4145  -4227  -4222  -4149  -4040  -3923  -3787  -3583  -3277  -2924  -2646  -2490  -2403  -2346  -2307  -2266  -2191  -2090  -2022  -2014  -2025  -1998  -1875  -1601  -1189  -714  -287  -29  -1  -119  -181  -64  135  266  318  379  497  654  797  877  894  882  876  902  956  995  978  917  863  857  863  825  801  874  987  1020  940  814  720  664  592  529  588  730  822  1053  1740  2909  4481  6332  8110  9344  9482  8116  5691  3289  1726  1295  1732  2345  2567  2289  1833  1575  1542  1560  1547  1529  1533  1552  1587  1685  1879  2065  2072  1905  1726  1591  1419  1201  1035  993  1063  1221  1466  1786  2101  2314  2408  2454  2525  2626  2702  2720  2696  2677  2741  2953  3257  3495  3585  3576  3541  3523  3520  3513  3498  3492  3496  3486  3445  3369  3263  3119  2925  2709  2529  2419  2370  2332  2250  2127  2024  1981  1989  2005  1953  1762  1464  1177  958  799  704  674  688  744  848  963  995  851  513  159  78  308  592  739  763  766  831  942  942  716  355  32  -150  -187  -191  -278  -405  -423  -229  185  740  1273  1568  1381  604  -448  -1214  -1477  -1452  -1346  -1170  -889  -571  -332  -203  -126  -64  -66  -186  -370  -518  -596  -626  -637  -648  -662  -666  -637  -595  -618  -734  -882  -997  -1049  -1028  -939  -782  -576  -389  -283  -264  -310  -362  -374  -417  -551  -691  -756  -779  -802  -819  -800  -703  -513  -297  -150  -75  -9  54  63  14  -25  3  98  213  268  187  -40  -341  -595  -714  -719  -690  -675  -671  -669  -662  -649  -627  -599  -586  -607  -664  -747  -858  -1019  -1173  -1205  -1082  -713  123  1426  2977  4538  5723  6094  5438  3906  2074  615  -254  -669  -695  -500  -475  -744  -1074  -1260  -1270  -1166  -1035  -910  -791  -698  -657  -694  -842  -1068  -1265  -1370  -1414  -1418  -1295  -946  -463  -110  -50  -253  -585  -908  -1150  -1288  -1303  -1174  -866  -368  197  609  755  646  313  -118  -430  -491  -317  10  382  744  1114  1459  1685  1760  1726  1619  1486  1384  1329  1306  1300  1300  1308  1329  1363  1379  1301  1054  680  318  70  -42  -38  54  202  359  476  524  512  493  536  721  1056  1417  1644  1628  1287  657  16  -304  -216  105  449  710  862  907  887  878  930  1056  1265  1518  1727  1853  1909  1904  1858  1814  1802  1824  1876  1993  2222  2522  2767  2884  2881  2785  2647  2538  2494  2498  2518  2538  2559  2624  2787  3041  3289  3407  3374  3294  3244  3195  3083  2916  2785  2787  2973  3291  3577  3684  3619  3498  3425  3416  3429  3438  3462  3454  3222  2666  2003  1542  1357  1315  1299  1259  1155  931  551  99  -244  -409  -472  -499  -489  -455  -434  -447  -531  -769  -1242  -1883  -2464  -2794  -2870  -2801  -2692  -2599  -2550  -2561  -2668  -2866  -3020  -2929  -2561  -2133  -1893  -1769  -1254  100  2077  3982  5153  5150  3922  1983  121  -1159  -1840  -2190  -2475  -2822  -3178  -3369  -3358  -3290  -3257  -3257  -3265  -3269  -3276  -3303  -3348  -3414  -3514  -3633  -3727  -3779  -3796  -3778  -3739  -3712  -3714  -3728  -3753  -3838  -4022  -4221  -4309  -4290  -4258  -4255  -4263  -4242  -4164  -4041  -3903  -3745  -3548  -3321  -3100  -2913  -2743  -2553  -2351  -2185  -2072  -1946  -1704  -1338  -980  -759  -674  -653  -637  -612  -624  -733  -935  -1148  -1293  -1354  -1353  -1286  -1116  -812  -439  -150  -37  -45  -48  69  348  706  977  1046  943  801  732  757  828  885  898  863  797  757  781  838  883  910  932  940  894  756  564  419  381  443  578  739  873  961  1022  1094  1225  1416  1605  1711  1699  1644  1673  1799  1896  1831  1545  1064  547  199  31  -138  -441  -818  -1102  -1201  -1163  -1088  -1041  -1038  -1074  -1180  -1402  -1704  -1969  -2129  -2199  -2163  -1976  -1682  -1399  -1211  -1124  -1081  -1006  -897  -812  -785  -794  -805  -787  -725  -645  -613  -666  -765  -817  -758  -605  -442  -336  -283  -271  -359  -619  -957  -1119  -964  -630  -362  -257  -252  -287  -374  -530  -704  -818  -858  -880  -932  -1014  -1113  -1238  -1405  -1645  -2008  -2448  -2775  -2773  -2287  -1348  -219  838  1700  2356  3013  3915  4887  5408  5078  3922  2403  1043  159  -157  -89  108  334  473  369  66  -260  -504  -650  -698  -610  -343  63  458  693  757  729  681  629  563  484  443  497  662  894  1123  1301  1406  1422  1323  1128  925  795  759  799  891  1008  1130  1236  1264  1093  653  96  -310  -468  -463  -352  -114  241  634  973  1212  1386  1546  1689  1800  1880  1930  1915  1794  1579  1340  1150  1047  1025  1048  1096  1168  1249  1313  1342  1312  1174  901  557  270  103  3  -102  -206  -273  -302  -311  -313  -312  -294  -250  -203  -202  -275  -394  -490  -498  -427  -313  -161  3  136  252  394  546  668  761  830  826  696  470  264  178  222  330  437  517  558  565  556  546  539  541  550  566  581  582  549  462  317  162  86  150  327  518  634  648  557  321  -90  -597  -1025  -1267  -1355  -1373  -1367  -1357  -1354  -1370  -1405  -1456  -1557  -1807  -2252  -2749  -3078  -3178  -3130  -3001  -2835  -2676  -2556  -2485  -2430  -2325  -2159  -1974  -1797  -1636  -1508  -1414  -1334  -1254  -1166  -1053  -900  -747  -678  -735  -877  -1031  -1165  -1273  -1348  -1360  -1266  -1049  -789  -626  -675  -962  -1363  -1665  -1764  -1675  -1429  -1132  -973  -1029  -1204  -1291  -933  220  2211  4641  6705  7517  6709  4694  2321  400  -533  -440  130  557  616  269  -409  -1042  -1299  -1230  -1030  -832  -697  -635  -619  -622  -656  -752  -906  -1064  -1176  -1249  -1307  -1348  -1326  -1161  -812  -381  -57  83  112  107  93  76  68  81  115  193  348  534  652  672  664  749  1011  1370  1632  1712  1680  1627  1590  1564  1545  1568  1708  1995  2329  2533  2507  2275  1945  1666  1532  1515  1517  1469  1366  1244  1110  936  749  612  519  440  403  441  540  640  668  606  456  139  -390  -962  -1327  -1433  -1402  -1321  -1199  -1045  -901  -792  -681  -530  -338  -127  89  288  443  548  604  622  627  612  496  202  -184  -468  -567  -555  -517  -493  -509  -585  -668  -635  -460  -258  -133  -87  -77  -82  -104  -150  -200  -224  -223  -203  -163  -139  -256  -640  -1202  -1641  -1764  -1629  -1385  -1150  -1004  -957  -957  -953  -932  -905  -890  -883  -859  -790  -679  -578  -553  -629  -763  -840  -792  -695  -637  -610  -567  -447  -199  102  273  232  85  -26  -60  -50  -37  -48  -92  -146  -160  -101  -2  73  106  119  122  89  -2  -131  -251  -354  -483  -642  -766  -818  -811  -770  -688  -483  -75  425  790  950  1061  1373  2058  3121  4385  5472  5948  5612  4565  3130  1743  765  298  201  188  -36  -486  -837  -842  -564  -244  -85  -89  -148  -231  -358  -528  -711  -862  -929  -885  -756  -580  -387  -199  -54  -5  -81  -235  -373  -440  -455  -451  -426  -346  -200  -33  85  138  179  257  383  511  585  600  603  637  685  669  562  468  491  614  758  866  921  915  841  714  590  518  492  482  478  484  485  485  526  647  794  815  575  56  -558  -971  -1022  -771  -412  -160  -129  -310  -610  -880  -988  -885  -597  -241  30  145  131  14  -213  -519  -792  -920  -904  -857  -866  -934  -1022  -1089  -1113  -1084  -989  -845  -700  -585  -495  -414  -353  -344  -414  -554  -716  -827  -852  -796  -673  -503  -326  -213  -247  -494  -914  -1339  -1615  -1719  -1697  -1567  -1335  -1042  -766  -558  -389  -224  -86  10  77  82  -39  -295  -604  -846  -938  -887  -770  -652  -557  -499  -478  -475  -482  -523  -629  -758  -798  -672  -436  -195  34  296  594  890  1123  1246  1277  1239  1124  949  784  691  692  769  872  953  955  819  591  388  256  172  130  130  128  52  -134  -367  -518  -489  -268  26  175  28  -343  -632  -415  552  2153  3967  5404  6013  5750  4832  3541  2271  1324  661  175  -142  -394  -646  -790  -721  -441  -71  188  203  -26  -375  -657  -776  -780  -752  -737  -751  -799  -856  -874  -828  -756  -698  -653  -592  -509  -440  -428  -459  -489  -510  -524  -539  -562  -579  -522  -294  95  474  679  715  681  637  581  503  421  368  366  405  452  480  466  359  111  -198  -395  -424  -371  -333  -411  -677  -1056  -1368  -1516  -1571  -1645  -1758  -1835  -1803  -1676  -1574  -1593  -1675  -1700  -1625  -1462  -1230  -952  -689  -552  -707  -1265  -2036  -2616  -2791  -2600  -2146  -1618  -1257  -1145  -1216  -1399  -1621  -1778  -1769  -1527  -1089  -615  -279  -175  -292  -515  -702  -765  -705  -596  -501  -433  -416  -476  -576  -625  -577  -469  -360  -258  -162  -125  -218  -450  -720  -893  -895  -722  -438  -168  5  95  129  82  -63  -238  -343  -345  -280  -168  4  189  263  175  -42  -333  -601  -730  -705  -616  -534  -449  -337  -225  -180  -239  -343  -408  -384  -233  25  296  492  603  655  664  627  544  442  355  280  173  14  -147  -242  -264  -242  -176  -14  291  669  957  1058  940  577  79  -307  -448  -408  -300  -164  37  294  477  567  746  1240  2196  3522  4947  6237  7061  7092  6334  5048  3559  2223  1298  774  510  513  860  1380  1753  1834  1597  1053  423  80  175  491  734  855  1030  1385  1806  2072  2099  1959  1739  1519  1427  1640  2226  2976  3535  3732  3565  3048  2322  1705  1417  1416  1558  1754  1954  2115  2220  2274  2289  2283  2289  2361  2542  2806  3093  3377  3635  3808  3825  3599  3075  2368  1753  1429  1358  1386  1446  1564  1735  1880  1962  2012  2048  2039  1935  1698  1411  1221  1148  1067  882  635  442  335  240  102  -45  -141  -209  -380  -719  -1126  -1488  -1791  -2042  -2228  -2351  -2465  -2647  -2913  -3176  -3367  -3510  -3662  -3830  -3958  -4011  -4033  -4038  -4011  -3978  -3952  -3889  -3767  -3586  -3309  -2857  -2201  -1481  -944  -709  -694  -759  -805  -736  -470  -56  314  516  577  571  543  542  646  909  1303  1773  2334  2975  3536  3803  3573  2741  1606  798  707  1254  2044  2614  2743  2461  1903  1320  958  851  874  936  1031  1177  1373  1575  1679  1631  1497  1329  1083  723  336  73  -11  23  122  254  375  438  409  265  41  -156  -252  -251  -193  -116  -51  -25  -88  -316  -716  -1107  -1286  -1285  -1172  -932  -687  -327  557  1890  3224  4326  4913  4672  3694  2343  997  -33  -652  -948  -1090  -1255  -1497  -1758  -1995  -2192  -2339  -2437  -2480  -2464  -2427  -2439  -2526  -2629  -2674  -2637  -2530  -2412  -2356  -2386  -2482  -2599  -2681  -2710  -2711  -2695  -2651  -2575  -2497  -2463  -2511  -2645  -2812  -2938  -2990  -2987  -2960  -2925  -2886  -2848  -2819  -2766  -2646  -2483  -2365  -2330  -2339  -2315  -2196  -1999  -1840  -1872  -2177  -2639  -3012  -3171  -3178  -3109  -2986  -2856  -2848  -3057  -3402  -3679  -3768  -3685  -3478  -3215  -2994  -2887  -2912  -3082  -3370  -3656  -3780  -3633  -3214  -2666  -2199  -1955  -1968  -2154  -2375  -2565  -2719  -2815  -2849  -2848  -2836  -2829  -2835  -2842  -2811  -2704  -2538  -2382  -2293  -2302  -2427  -2622  -2786  -2860  -2887  -2937  -2976  -2935  -2853  -2808  -2805  -2796  -2742  -2636  -2507  -2390  -2309  -2254  -2204  -2116  -1911  -1570  -1220  -1011  -947  -937  -892  -755  -535  -322  -201  -173  -198  -253  -322  -367  -327  -162  78  281  371  336  211  100  107  255  528  872  1158  1299  1336  1366  1449  1556  1577  1461  1314  1237  1217  1213  1208  1197  1184  1179  1179  1172  1151  1140  1184  1282  1354  1333  1245  1163  1125  1125  1138  1178  1287  1458  1559  1399  1037  873  1271  2320  3857  5554  7051  7982  7983  6986  5390  3770  2588  2000  1839  1906  1974  1765  1320  953  827  888  1063  1320  1602  1773  1641  1093  327  -218  -247  214  864  1324  1450  1364  1227  1141  1169  1341  1604  1780  1607  926  -29  -763  -1054  -1037  -783  -189  728  1659  2257  2447  2324  1972  1532  1206  1070  1054  1081  1121  1205  1365  1576  1771  1914  2004  2049  2030  1926  1782  1683  1654  1666  1691  1709  1663  1427  917  282  -224  -530  -671  -614  -392  -161  -22  37  56  40  -8  -70  -115  -149  -196  -254  -292  -301  -305  -324  -366  -417  -443  -390  -229  -5  172  235  190  85  -17  -72  -80  -64  -45  -33  -27  -25  -33  -66  -141  -250  -336  -326  -235  -175  -226  -361  -495  -568  -583  -578  -574  -553  -477  -342  -181  -45  30  46  40  47  76  83  0  -135  -192  -159  -115  -64  26  155  276  297  192  45  -62  -121  -144  -145  -128  -89  -45  -28  -33  4  173  471  767  953  1043  1104  1169  1224  1220  1088  821  598  661  976  1260  1338  1244  1064  854  657  523  472  475  495  510  523  576  710  883  965  880  708  628  742  967  1164  1383  1934  3053  4472  5594  6120  6097  5482  4205  2633  1447  951  878  833  660  435  253  47  -394  -1184  -2036  -2404  -2059  -1302  -665  -549  -913  -1241  -1058  -426  149  0  -1254  -3189  -4929  -5836  -5635  -4613  -3588  -3095  -2968  -2810  -2476  -2073  -1751  -1587  -1552  -1573  -1587  -1534  -1364  -1106  -831  -558  -311  -163  -138  -167  -137  46  364  669  828  849  816  792  785  771  718  621  506  414  365  353  373  425  501  579  614  502  149  -355  -757  -908  -886  -842  -849  -867  -804  -609  -354  -189  -182  -267  -355  -411  -434  -442  -454  -464  -443  -379  -309  -300  -415  -667  -950  -1105  -1061  -884  -700  -583  -500  -378  -193  14  181  287  351  395  429  440  366  154  -124  -311  -316  -179  2  148  255  348  401  341  133  -133  -314  -376  -388  -386  -387  -460  -672  -960  -1172  -1251  -1270  -1312  -1446  -1737  -2117  -2387  -2403  -2177  -1853  -1602  -1475  -1403  -1333  -1286  -1300  -1366  -1447  -1538  -1630  -1639  -1435  -996  -516  -245  -243  -371  -459  -459  -449  -478  -535  -629  -807  -1105  -1461  -1716  -1790  -1728  -1598  -1446  -1296  -1127  -911  -689  -548  -507  -517  -532  -540  -547  -562  -588  -616  -643  -674  -698  -697  -676  -689  -830  -1099  -1290  -1198  -797  -63  1014  2242  3363  4351  5335  6156  6363  5770  4557  3030  1653  865  644  662  697  652  537  475  484  493  504  513  449  273  23  -192  -266  -193  -91  -48  -57  -82  -101  -104  -107  -151  -254  -350  -362  -304  -249  -230  -253  -371  -657  -1041  -1318  -1332  -1087  -715  -356  -37  244  420  465  452  465  523  605  698  800  882  921  920  895  865  855  913  1078  1318  1534  1623  1462  947  229  -346  -603  -586  -356  27  466  841  1042  978  629  138  -242  -403  -415  -340  -128  267  743  1082  1165  1029  769  489  291  205  180  169  159  151  145  139  133  149  217  338  478  592  651  651  600  507  374  193  -22  -226  -376  -451  -469  -473  -489  -491  -414  -257  -100  -8  41  115  209  163  -153  -583  -774  -548  -86  293  450  464  424  314  102  -138  -247  -126  155  428  574  596  525  374  181  39  26  128  219  194  81  -33  -104  -134  -147  -151  -149  -151  -158  -157  -144  -121  -89  -56  -26  12  59  87  79  59  61  87  111  110  91  68  29  -25  -68  -71  -37  -9  -105  -444  -973  -1457  -1743  -1887  -2027  -2212  -2377  -2458  -2475  -2487  -2500  -2478  -2410  -2290  -2122  -1957  -1866  -1866  -1884  -1752  -1348  -789  -334  -102  48  541  1757  3540  5213  6084  5791  4441  2648  1181  368  25  -136  -263  -386  -469  -487  -505  -613  -839  -1110  -1300  -1345  -1256  -1056  -813  -637  -584  -634  -750  -883  -971  -1001  -1012  -1043  -1069  -1010  -847  -681  -592  -560  -552  -571  -633  -725  -811  -862  -868  -825  -727  -579  -437  -367  -366  -373  -324  -175  54  258  341  330  348  432  475  415  385  489  565  405  76  -182  -260  -222  -142  -38  51  28  -187  -563  -944  -1166  -1155  -932  -607  -346  -238  -250  -313  -379  -412  -407  -374  -332  -301  -288  -282  -281  -294  -325  -360  -382  -392  -405  -420  -405  -325  -190  -51  48  100  101  -10  -310  -716  -1012  -1086  -996  -851  -734  -661  -594  -520  -463  -433  -405  -348  -240  -82  78  160  114  -29  -200  -334  -389  -335  -185  -24  75  132  172  193  198  202  226  263  272  233  146  5  -163  -280  -283  -158  47  258  418  488  405  121  -266  -549  -609  -477  -248  3  260  527  748  832  737  511  273  140  191  457  850  1170  1290  1226  1059  873  732  675  749  996  1336  1576  1561  1275  868  566  479  590  852  1174  1432  1579  1647  1659  1556  1263  856  528  365  304  283  291  311  311  278  233  227  290  339  264  108  -4  -2  89  137  132  239  462  795  1510  2786  4421  5977  6861  6667  5562  4027  2515  1351  603  157  -132  -477  -977  -1430  -1639  -1639  -1514  -1289  -1009  -756  -592  -552  -631  -739  -754  -635  -445  -250  -87  17  48  15  -40  -82  -97  -95  -77  -31  42  124  186  227  261  295  349  472  715  1045  1337  1518  1637  1739  1781  1730  1659  1657  1730  1838  1971  2147  2377  2649  2910  3041  2914  2576  2235  2036  1996  2068  2157  2170  2086  1955  1842  1759  1692  1656  1671  1725  1759  1703  1543  1342  1194  1140  1152  1170  1130  991  796  645  580  556  522  474  443  426  368  222  42  -63  -64  -19  3  -47  -154  -250  -333  -471  -665  -829  -912  -927  -907  -876  -850  -835  -825  -805  -772  -758  -817  -958  -1100  -1161  -1131  -1062  -1009  -981  -955  -931  -978  -1189  -1556  -1911  -2107  -2161  -2171  -2212  -2271  -2285  -2274  -2312  -2390  -2459  -2506  -2532  -2539  -2515  -2439  -2301  -2163  -2157  -2372  -2702  -2935  -2978  -2913  -2846  -2809  -2790  -2785  -2787  -2760  -2681  -2560  -2420  -2307  -2288  -2420  -2688  -2972  -3138  -3140  -3002  -2799  -2633  -2562  -2574  -2628  -2674  -2661  -2576  -2460  -2350  -2245  -2143  -2072  -2047  -2046  -2027  -1946  -1760  -1468  -1174  -1014  -1009  -1067  -1110  -1137  -1165  -1183  -1169  -1135  -1119  -1136  -1168  -1198  -1210  -1186  -1119  -1031  -963  -929  -913  -899  -875  -815  -732  -714  -900  -1344  -1849  -2025  -1642  -761  416  1511  2237  2845  3697  4636  5185  5007  3965  2245  495  -699  -1293  -1508  -1533  -1498  -1425  -1263  -1061  -940  -948  -1066  -1223  -1335  -1373  -1366  -1327  -1230  -1059  -860  -693  -552  -399  -253  -156  -113  -102  -113  -148  -199  -257  -339  -473  -628  -701  -616  -394  -134  82  241  372  506  607  600  499  413  407  440  462  479  532  638  753  812  803  766  740  753  808  878  953  1029  1088  1109  1058  906  698  526  425  379  384  420  413  244  -132  -501  -523  -199  148  324  360  344  343  401  520  662  797  922  1012  1022  935  773  589  452  400  451  620  888  1183  1423  1555  1613  1685  1810  1951  2056  2081  2007  1865  1726  1667  1731  1910  2139  2333  2447  2490  2490  2476  2477  2509  2565  2581  2508  2411  2422  2563  2702  2742  2729  2758  2840  2917  2950  2953  2951  2937  2863  2694  2485  2331  2263  2258  2323  2477  2676  2849  3000  3159  3277  3301  3232  3036  2730  2464  2339  2313  2337  2428  2613  2835  2981  3011  3003  3089  3352  3705  3934  3908  3647  3214  2687  2199  1855  1635  1459  1291  1142  957  636  188  -270  -728  -1267  -1874  -2507  -3347  -4591  -5971  -6969  -7447  -7629  -7706  -7753  -7791  -7773  -7564  -7021  -6126  -5109  -4327  -3897  -3672  -3529  -3420  -3271  -3011  -2656  -2309  -2055  -1871  -1674  -1423  -1093  -740  -471  -142  465  1349  2539  3953  5042  5244  4527  3233  1782  629  54  -116  -235  -407  -522  -505  -429  -402  -461  -589  -752  -892  -953  -941  -909  -893  -898  -915  -934  -943  -907  -797  -640  -517  -486  -571  -763  -985  -1131  -1168  -1144  -1111  -1102  -1133  -1207  -1277  -1264  -1139  -926  -654  -372  -153  -28  26  34  11  23  135  308  434  474  495  589  798  1060  1240  1254  1112  903  725  599  469  288  69  -117  -210  -227  -219  -194  -135  -64  -51  -136  -272  -371  -405  -407  -402  -370  -286  -166  -72  -41  -81  -179  -292  -380  -400  -298  -121  -15  -31  -100  -135  -112  -76  -81  -147  -319  -663  -1100  -1418  -1522  -1494  -1415  -1290  -1097  -860  -623  -383  -134  82  238  342  362  252  52  -149  -282  -310  -277  -250  -234  -211  -179  -135  -83  -5  115  222  236  188  157  153  110  -25  -225  -417  -579  -731  -870  -940  -865  -638  -366  -156  -13  73  77  -16  -159  -247  -226  -164  -162  -261  -409  -520  -566  -584  -597  -595  -579  -564  -563  -581  -616  -632  -511  -148  356  760  979  1109  1222  1311  1356  1365  1358  1346  1330  1322  1353  1454  1596  1709  1759  1760  1737  1724  1782  1968  2231  2441  2526  2517  2478  2459  2476  2535  2643  2765  2931  3221  3542  3860  4420  5339  6446  7511  8153  7942  6914  5512  4072  2836  2027  1486  895  391  272  401  450  365  250  131  -29  -245  -474  -650  -753  -828  -928  -1078  -1246  -1324  -1226  -1009  -802  -688  -677  -770  -1039  -1543  -2148  -2642  -3001  -3276  -3379  -3226  -2911  -2615  -2410  -2296  -2276  -2326  -2378  -2372  -2295  -2190  -2116  -2087  -2081  -2084  -2101  -2143  -2197  -2214  -2163  -2083  -2012  -1953  -1920  -1924  -1964  -2071  -2284  -2549  -2759  -2876  -2972  -3126  -3316  -3468  -3540  -3529  -3469  -3417  -3402  -3400  -3369  -3292  -3228  -3263  -3377  -3456  -3421  -3289  -3134  -3035  -2984  -2906  -2781  -2629  -2460  -2306  -2196  -2144  -2154  -2217  -2299  -2356  -2367  -2347  -2319  -2277  -2201  -2096  -1967  -1830  -1747  -1752  -1786  -1760  -1629  -1446  -1310  -1241  -1168  -1041  -901  -845  -901  -956  -859  -578  -226  54  205  238  137  -132  -482  -727  -783  -703  -539  -307  -60  142  310  459  556  585  582  577  578  587  606  641  696  733  687  539  353  212  147  131  128  140  214  382  597  776  875  930  996  1043  973  799  611  504  604  899  1184  1318  1290  1138  923  721  593  557  606  736  900  1014  1045  1035  1043  1105  1203  1271  1235  1066  838  675  608  546  414  264  208  224  206  145  104  105  133  166  184  171  121  79  101  156  148  4  -285  -645  -966  -1126  -908  -121  1129  2462  3629  4696  5701  6433  6539  5742  4149  2284  751  -95  -300  -216  -201  -291  -292  -141  23  88  27  -149  -377  -556  -630  -624  -609  -662  -789  -893  -856  -694  -537  -463  -450  -453  -457  -466  -474  -447  -328  -104  145  356  592  962  1411  1713  1651  1170  491  7  -32  352  928  1383  1563  1500  1270  970  716  564  541  662  851  982  999  927  821  708  603  558  649  903  1228  1426  1258  594  -321  -997  -1193  -1015  -645  -265  -37  -32  -237  -581  -927  -1142  -1148  -914  -480  0  303  256  -205  -925  -1559  -1858  -1765  -1304  -637  -78  167  114  -140  -457  -674  -734  -703  -670  -715  -898  -1176  -1420  -1538  -1483  -1191  -685  -178  106  124  -34  -246  -418  -538  -621  -655  -641  -621  -620  -607  -518  -330  -109  47  98  48  -92  -287  -469  -589  -643  -651  -628  -579  -526  -515  -570  -646  -673  -643  -578  -436  -167  160  405  524  572  591  560  433  204  -75  -327  -473  -474  -338  -130  43  123  160  249  435  693  949  1117  1167  1142  1108  1136  1271  1467  1615  1668  1662  1642  1632  1653  1721  1814  1887  1917  1924  1935  1974  2064  2210  2371  2495  2549  2536  2489  2445  2419  2414  2426  2439  2411  2289  2073  1830  1636  1542  1578  1751  1950  1987  1875  1818  1905  2185  2895  4216  5906  7515  8710  9144  8513  7017  5358  4075  3315  3064  3076  2915  2375  1686  1206  1012  949  887  770  576  294  -47  -348  -519  -582  -606  -622  -634  -649  -681  -736  -833  -1001  -1210  -1368  -1435  -1433  -1347  -1126  -809  -522  -324  -193  -120  -110  -143  -188  -216  -222  -220  -230  -261  -286  -266  -192  -117  -95  -130  -202  -308  -427  -522  -596  -704  -863  -991  -992  -918  -898  -948  -1006  -1028  -1015  -994  -988  -990  -987  -996  -1085  -1306  -1594  -1802  -1870  -1853  -1823  -1804  -1763  -1648  -1474  -1336  -1296  -1316  -1316  -1256  -1171  -1124  -1122  -1135  -1159  -1233  -1390  -1580  -1711  -1754  -1749  -1734  -1706  -1643  -1555  -1487  -1470  -1470  -1396  -1194  -941  -783  -786  -932  -1143  -1320  -1417  -1451  -1450  -1420  -1375  -1332  -1280  -1212  -1174  -1208  -1285  -1351  -1364  -1313  -1243  -1202  -1185  -1180  -1178  -1176  -1169  -1164  -1178  -1210  -1240  -1258  -1267  -1265  -1241  -1195  -1150  -1114  -1066  -1009  -972  -992  -1112  -1333  -1554  -1643  -1563  -1404  -1269  -1142  -958  -768  -690  -798  -1062  -1284  -1294  -1150  -977  -822  -695  -599  -528  -490  -517  -617  -736  -798  -778  -708  -641  -616  -680  -871  -1131  -1323  -1388  -1364  -1283  -1142  -966  -841  -847  -990  -1192  -1356  -1431  -1352  -1006  -422  102  285  182  192  824  2195  3817  5062  5513  5003  3786  2428  1313  455  -256  -786  -1111  -1348  -1506  -1499  -1379  -1238  -1089  -968  -940  -986  -1030  -1008  -888  -675  -406  -146  11  -10  -235  -598  -967  -1237  -1373  -1405  -1393  -1365  -1304  -1187  -1041  -925  -861  -825  -798  -780  -765  -751  -750  -779  -831  -872  -865  -765  -537  -225  61  248  327  338  335  351  386  421  429  371  182  -172  -639  -1088  -1391  -1528  -1594  -1687  -1816  -1928  -1992  -2018  -2022  -2001  -1933  -1797  -1602  -1373  -1133  -921  -794  -753  -750  -750  -752  -754  -745  -710  -639  -538  -431  -361  -333  -294  -196  -51  67  92  17  -121  -267  -360  -365  -285  -146  10  141  213  230  229  234  239  241  251  287  349  413  461  492  506  501  474  434  397  377  401  506  685  848  906  868  816  804  827  847  831  777  703  637  598  594  632  719  829  910  946  970  992  997  978  960  971  1012  1041  986  790  467  110  -165  -237  -37  317  618  776  796  732  680  690  757  863  979  1070  1115  1124  1130  1158  1206  1255  1296  1308  1223  976  642  400  332  384  474  559  638  701  730  729  716  694  657  602  534  472  451  510  742  1320  2398  3985  5850  7546  8561  8469  7209  5280  3439  2227  1707  1505  1234  878  599  394  221  124  109  134  169  220  308  415  487  501  481  463  500  659  944  1238  1420  1495  1538  1585  1623  1639  1640  1623  1581  1533  1541  1660  1859  2034  2116  2122  2104  2101  2137  2228  2364  2498  2588  2654  2747  2879  3028  3186  3366  3559  3725  3826  3853  3807  3694  3544  3402  3290  3217  3188  3207  3230  3094  2587  1672  582  -404  -1192  -1900  -2710  -3661  -4639  -5495  -6110  -6450  -6572  -6583  -6564  -6556  -6567  -6597  -6611  -6509  -6203  -5759  -5346  -5010  -4641  -4135  -3546  -3073  -2845  -2794  -2783  -2753  -2720  -2684  -2616  -2501  -2376  -2297  -2271  -2265  -2257  -2248  -2248  -2258  -2265  -2234  -2133  -1986  -1868  -1819  -1818  -1834  -1852  -1853  -1800  -1662  -1468  -1289  -1159  -1076  -1030  -1020  -1031  -1032  -1012  -1026  -1142  -1343  -1513  -1558  -1497  -1396  -1272  -1128  -1004  -930  -882  -841  -817  -803  -764  -691  -610  -535  -466  -427  -452  -545  -646  -689  -677  -658  -650  -640  -608  -560  -529  -527  -523  -489  -421  -324  -225  -179  -198  -209  -131  17  138  184  186  200  268  384  499  577  638  702  726  600  255  -189  -500  -578  -501  -384  -297  -259  -269  -332  -436  -555  -657  -717  -715  -638  -515  -436  -401  -262  113  838  2022  3555  5085  6226  6713  6451  5575  4372  3064  1811  866  354  96  -48  -32  60  56  -28  -96  -137  -174  -181  -137  -85  -86  -134  -166  -146  -116  -131  -193  -274  -315  -282  -216  -158  -93  -11  67  122  149  147  106  39  11  75  201  334  464  585  694  791  866  921  968  984  937  847  774  746  760  802  859  919  986  1053  1083  1056  1001  957  933  899  810  636  389  118  -116  -270  -349  -389  -411  -423  -434  -457  -500  -568  -641  -675  -649  -592  -540  -519  -527  -515  -465  -414  -390  -388  -384  -361  -308  -244  -218  -256  -312  -300  -165  53  231  249  83  -157  -321  -368  -363  -339  -262  -109  82  249  365  442  491  519  541  556  557  544  541  584  668  743  778  782  752  627  339  -42  -337  -453  -427  -293  -72  153  287  317  295  259  209  135  52  -1  -17  -15  -11  -12  -6  20  69  119  160  196  239  280  307  332  398  531  689  790  816  805  769  686  568  455  363  287  236  213  204  198  214  302  503  788  1052  1207  1261  1257  1193  1057  884  728  601  499  424  351  226  25  -197  -347  -376  -276  -53  239  526  709  695  484  206  -4  -205  -550  -913  -878  -215  972  2467  4001  5229  5854  5701  4825  3614  2506  1703  1245  988  664  235  -17  84  315  319  -34  -596  -1089  -1356  -1410  -1327  -1175  -1007  -861  -771  -745  -733  -658  -515  -373  -285  -251  -251  -276  -333  -436  -586  -779  -1003  -1246  -1508  -1768  -1955  -2019  -1929  -1625  -1133  -627  -247  9  184  306  436  605  811  1065  1340  1530  1550  1396  1138  902  776  744  753  807  936  1110  1243  1295  1265  1079  636  51  -413  -705  -988  -1352  -1724  -2036  -2346  -2746  -3166  -3387  -3287  -2980  -2678  -2479  -2351  -2255  -2204  -2205  -2236  -2260  -2259  -2239  -2181  -2049  -1858  -1674  -1522  -1390  -1284  -1217  -1157  -1049  -900  -770  -707  -734  -856  -1023  -1151  -1198  -1174  -1061  -851  -613  -458  -418  -451  -511  -568  -607  -628  -644  -655  -624  -507  -306  -98  27  63  59  44  4  -57  -77  -17  25  -66  -276  -478  -587  -611  -597  -575  -534  -447  -334  -255  -239  -268  -310  -349  -375  -346  -210  17  239  346  309  167  -24  -202  -321  -367  -313  -106  246  626  897  1010  976  832  647  479  344  243  189  178  192  215  223  156  -46  -352  -632  -792  -838  -817  -764  -703  -653  -581  -434  -184  201  804  1727  3033  4577  5963  6796  6723  5527  3531  1446  -169  -1023  -1051  -563  -91  82  27  -121  -282  -410  -501  -550  -551  -498  -417  -379  -432  -512  -511  -386  -201  -63  -12  -3  9  28  43  58  79  96  107  110  105  84  31  -29  4  233  580  832  887  822  747  695  650  611  592  597  622  660  704  744  773  767  682  484  231  40  -40  -45  -18  8  17  5  -20  -56  -102  -170  -255  -332  -392  -447  -529  -670  -846  -974  -1019  -1016  -1004  -994  -980  -962  -936  -886  -783  -610  -385  -162  24  171  257  236  60  -251  -598  -870  -1024  -1086  -1089  -1019  -872  -708  -612  -598  -598  -554  -467  -361  -256  -165  -93  -39  0  26  19  -51  -190  -343  -443  -478  -484  -479  -443  -350  -225  -137  -126  -187  -278  -341  -329  -228  -75  50  119  162  208  250  276  286  282  267  248  225  169  38  -149  -331  -471  -546  -524  -371  -79  260  485  516  396  224  104  92  187  354  542  705  785  672  283  -254  -661  -803  -762  -638  -475  -287  -108  8  42  6  -73  -143  -168  -165  -139  -67  60  202  257  149  33  382  1535  3301  5154  6493  6870  6320  5237  3975  2759  1677  770  119  -248  -339  -227  -109  -113  -231  -420  -611  -730  -762  -730  -644  -518  -391  -310  -305  -384  -535  -711  -812  -780  -686  -625  -597  -554  -483  -416  -376  -355  -345  -346  -364  -375  -315  -121  160  391  483  437  269  41  -119  -66  274  793  1230  1425  1418  1306  1161  1042  996  1050  1212  1437  1647  1791  1871  1893  1818  1549  1036  440  33  -80  -2  152  294  352  307  204  97  -7  -117  -218  -299  -368  -416  -423  -415  -433  -470  -499  -516  -524  -516  -483  -430  -372  -329  -310  -314  -324  -325  -312  -279  -229  -180  -149  -124  -65  47  162  183  99  -24  -139  -230  -276  -269  -228  -173  -109  -46  -4  -1  -70  -243  -493  -722  -858  -896  -843  -693  -493  -348  -333  -459  -669  -862  -937  -838  -569  -243  -5  94  50  -229  -816  -1521  -2009  -2145  -2002  -1673  -1271  -938  -743  -670  -663  -675  -683  -677  -651  -621  -645  -762  -927  -1059  -1126  -1148  -1152  -1155  -1161  -1169  -1161  -1090  -917  -699  -550  -510  -522  -521  -497  -501  -603  -822  -1077  -1253  -1317  -1304  -1213  -1024  -780  -579  -485  -521  -685  -915  -1114  -1242  -1302  -1171  -609  373  1340  1939  2266  2533  2956  3685  4417  4627  4133  3129  1925  861  245  91  89  -45  -330  -609  -762  -774  -680  -525  -374  -296  -341  -529  -788  -990  -1083  -1095  -1068  -1038  -1034  -1044  -1022  -906  -686  -429  -219  -82  13  106  209  304  350  312  194  14  -226  -515  -793  -963  -939  -672  -215  237  515  624  688  793  926  1032  1089  1123  1160  1179  1137  1031  893  709  423  76  -175  -235  -130  74  315  504  495  194  -270  -633  -760  -718  -627  -560  -554  -621  -735  -849  -945  -1033  -1086  -1009  -684  -105  490  747  493  -100  -681  -1019  -1116  -1072  -942  -749  -542  -380  -281  -233  -212  -180  -108  -11  62  87  72  7  -128  -298  -415  -418  -306  -139  -3  56  61  42  8  -31  -46  5  137  305  407  302  -96  -655  -1053  -1056  -670  -127  259  366  291  155  18  -95  -163  -161  -94  -6  65  119  170  203  180  74  -110  -310  -422  -386  -218  5  199  325  391  394  259  -85  -525  -784  -722  -460  -160  163  548  913  1108  1023  651  197  -8  174  622  1089  1289  1155  969  940  954  796  252  -868  -2332  -3426  -3690  -3254  -2462  -1719  -1338  -1241  -1154  -1003  -881  -815  -716  -451  92  944  2033  3151  4003  4426  4458  4144  3446  2426  1368  577  118  -134  -278  -339  -341  -327  -344  -420  -536  -641  -718  -792  -853  -863  -835  -823  -831  -831  -821  -811  -771  -655  -477  -330  -289  -341  -441  -586  -758  -880  -860  -664  -377  -148  -15  88  190  262  285  255  168  49  -57  -126  -137  -36  209  538  812  951  995  1029  1092  1173  1236  1266  1267  1234  1155  1046  929  801  667  570  538  544  538  470  323  138  -9  -90  -122  -142  -177  -217  -237  -235  -231  -229  -204  -129  -26  37  24  -49  -147  -270  -434  -602  -672  -599  -453  -354  -353  -411  -467  -488  -456  -362  -238  -147  -112  -109  -118  -149  -214  -284  -308  -301  -304  -308  -280  -210  -115  -37  -2  1  -7  -22  -41  -58  -65  -43  26  126  207  233  183  54  -102  -208  -253  -293  -389  -535  -658  -670  -504  -158  236  509  617  633  648  714  813  835  615  94  -528  -931  -964  -688  -285  46  227  287  269  207  142  114  112  117  148  209  237  168  13  -151  -269  -329  -338  -311  -291  -321  -411  -520  -599  -627  -617  -586  -533  -422  -232  49  507  1240  2296  3658  5053  5980  6052  5179  3611  1876  479  -327  -549  -338  64  383  416  153  -214  -459  -507  -427  -316  -242  -230  -274  -362  -484  -612  -696  -709  -654  -551  -431  -338  -273  -201  -105  1  94  157  184  191  201  219  236  254  277  295  270  159  -24  -199  -294  -302  -240  -118  44  210  344  442  542  669  801  904  966  990  973  902  783  645  516  393  248  78  -66  -165  -235  -290  -345  -413  -486  -537  -535  -453  -293  -94  85  186  159  -15  -279  -513  -645  -694  -683  -590  -390  -161  -51  -126  -295  -430  -512  -611  -752  -876  -924  -896  -842  -811  -822  -862  -887  -849  -728  -529  -250  90  419  614  554  154  -495  -1112  -1457  -1530  -1474  -1411  -1379  -1372  -1376  -1380  -1389  -1413  -1435  -1417  -1328  -1191  -1078  -1027  -1017  -1017  -1007  -976  -939  -920  -947  -1028  -1141  -1266  -1419  -1584  -1700  -1728  -1681  -1614  -1575  -1563  -1548  -1511  -1459  -1416  -1396  -1391  -1388  -1381  -1374  -1377  -1397  -1429  -1456  -1466  -1456  -1444  -1485  -1623  -1806  -1905  -1854  -1721  -1616  -1580  -1579  -1573  -1556  -1539  -1531  -1527  -1527  -1546  -1593  -1645  -1664  -1648  -1629  -1609  -1536  -1377  -1158  -925  -710  -439  81  944  2134  3625  5141  6164  6316  5501  3930  2180  836  71  -264  -391  -479  -553  -505  -298  -81  -7  -82  -217  -321  -360  -354  -331  -313  -312  -336  -409  -563  -765  -917  -950  -863  -690  -509  -390  -333  -295  -246  -165  -64  21  94  185  303  415  483  501  492  487  515  586  685  837  1074  1337  1553  1722  1837  1847  1748  1599  1474  1408  1396  1440  1555  1711  1832  1862  1776  1577  1335  1128  961  819  742  736  733  676  600  580  648  761  855  920  984  1035  1025  938  809  679  588  578  680  891  1148  1357  1442  1352  1070  659  274  55  56  289  703  1125  1372  1402  1271  1057  856  745  729  775  858  965  1078  1132  1088  1003  959  975  1006  1001  954  902  864  812  729  628  555  558  650  791  928  1022  1083  1142  1221  1323  1384  1324  1069  460  -473  -1376  -2106  -2828  -3572  -4227  -4616  -4476  -3711  -2578  -1508  -826  -563  -510  -475  -406  -302  -139  106  379  574  651  645  575  391  98  -133  -156  -52  53  203  515  960  1344  1523  1502  1352  1159  1024  1020  1169  1440  1771  2114  2406  2568  2603  2599  2650  2815  3076  3343  3551  3719  3868  3991  4093  4215  4403  4656  4908  5099  5246  5401  5558  5662  5701  5696  5628  5452  5207  5030  5042  5262  5550  5692  5637  5526  5500  5597  5783  6013  6284  6614  6961  7232  7405  7575  7833  8139  8369  8467  8425  8154  7524  6592  5631  4900  4487  4270  3994  3499  2838  2144  1491  857  188  -574  -1493  -2531  -3461  -4048  -4292  -4392  -4514  -4668  -4797  -4881  -4926  -4897  -4714  -4329  -3823  -3362  -3044  -2857  -2768  -2869  -3390  -4377  -5415  -6063  -6394  -6657  -6834  -6881  -6942  -7145  -7508  -8108  -8908  -9514  -9609  -9324  -8956  -8807  -9126  -9771  -10306  -10522  -10495  -10283  -9832  -9092  -8179  -7328  -6646  -6087  -5632  -5298  -5061  -4909  -4857  -4892  -5006  -5226  -5565  -6015  -6535  -7047  -7461  -7685  -7640  -7311  -6821  -6393  -6148  -6034  -5928  -5706  -5325  -4874  -4484  -4182  -3906  -3646  -3466  -3365  -3252  -3076  -2880  -2719  -2591  -2486  -2424  -2415  -2413  -2320  -2058  -1680  -1338  -1139  -1083  -1158  -1376  -1673  -1901  -1947  -1750  -1321  -820  -473  -350  -358  -381  -345  -220  -25  207  465  711  855  801  519  131  -145  -195  -66  123  270  349  392  431  497  609  776  1001  1282  1607  1919  2104  2044  1708  1244  913  849  997  1218  1387  1467  1497  1494  1461  1438  1483  1601  1744  1851  1888  1853  1758  1633  1527  1487  1547  1694  1858  1960  1985  1974  1976  2018  2083  2138  2183  2248  2336  2397  2374  2244  2069  1950  1921  1937  1957  1974  1998  2025  2039  2033  2016  2005  2000  1991  1969  1942  1911  1834  1667  1456  1303  1231  1200  1229  1365  1562  1721  1806  1835  1838  1841  1860  1904  1970  2035  2062  1987  1773  1493  1289  1199  1146  1076  1009  978  984  985  960  946  965  999  1039  1103  1215  1324  1360  1438  1877  2923  4439  6037  7304  7797  7298  6114  4795  3661  2755  2088  1636  1252  933  867  1009  1105  1049  907  773  683  623  582  576  628  741  862  929  944  957  1009  1091  1166  1214  1243  1257  1260  1258  1254  1253  1257  1274  1301  1327  1344  1356  1372  1414  1509  1656  1824  1992  2179  2409  2655  2851  2971  3046  3105  3142  3153  3143  3121  3101  3086  3075  3071  3080  3104  3126  3083  2916  2659  2433  2321  2296  2283  2240  2180  2157  2193  2237  2262  2300  2292  2115  1724  1071  48  -1293  -2724  -4074  -5302  -6440  -7445  -8184  -8651  -8954  -9109  -9054  -8807  -8416  -7849  -7157  -6585  -6298  -6197  -6089  -5877  -5540  -5063  -4468  -3900  -3553  -3467  -3526  -3595  -3547  -3244  -2690  -2119  -1793  -1759  -1910  -2107  -2243  -2283  -2242  -2134  -1990  -1862  -1786  -1760  -1762  -1755  -1694  -1555  -1372  -1224  -1159  -1160  -1187  -1201  -1174  -1095  -990  -897  -837  -820  -899  -1119  -1415  -1635  -1688  -1559  -1283  -969  -747  -647  -613  -604  -599  -587  -548  -469  -368  -286  -238  -212  -203  -229  -286  -325  -311  -278  -267  -271  -259  -209  -133  -66  -18  26  105  257  468  670  787  790  714  615  483  281  54  -96  -142  -127  -96  -67  -46  -41  -65  -115  -144  -109  -43  -6  -14  -60  -122  -175  -212  -225  -177  -106  -191  -430  -420  238  1570  3356  5178  6255  6066  5010  3727  2525  1654  1232  1060  918  743  517  230  -102  -419  -612  -632  -524  -359  -184  -15  97  95  35  45  145  247  296  313  321  284  134  -131  -393  -503  -417  -220  -35  72  117  129  127  115  90  58  48  109  289  564  827  1018  1176  1323  1390  1332  1226  1192  1261  1354  1395  1378  1341  1313  1299  1283  1256  1240  1254  1284  1297  1268  1179  1024  829  620  397  192  86  126  266  360  295  97  -164  -430  -628  -700  -599  -290  149  523  694  652  426  97  -184  -314  -279  -103  142  345  447  465  396  181  -181  -558  -798  -912  -1001  -1067  -1041  -938  -822  -713  -615  -536  -470  -417  -365  -274  -125  65  256  406  484  437  213  -113  -380  -512  -531  -457  -291  -82  79  143  137  109  77  40  20  101  361  728  992  982  683  249  -83  -177  10  469  1028  1401  1432  1172  797  487  298  232  322  518  650  600  408  186  4  -110  -116  47  403  844  1182  1307  1215  928  558  296  237  329  474  577  558  356  -21  -489  -944  -1319  -1628  -1940  -2261  -2522  -2684  -2781  -2838  -2856  -2868  -2973  -3250  -3586  -3672  -3279  -2380  -989  780  2565  3958  4690  4570  3665  2370  1079  11  -762  -1292  -1731  -2181  -2508  -2554  -2391  -2161  -1934  -1752  -1655  -1637  -1660  -1682  -1663  -1551  -1347  -1142  -1054  -1117  -1268  -1423  -1555  -1666  -1743  -1767  -1732  -1664  -1630  -1671  -1724  -1708  -1617  -1501  -1405  -1343  -1277  -1129  -880  -622  -456  -384  -354  -345  -356  -360  -296  -105  208  527  716  754  735  761  860  998  1136  1264  1374  1415  1278  893  386  -6  -184  -217  -201  -184  -173  -166  -161  -169  -202  -254  -313  -399  -521  -643  -711  -696  -601  -464  -347  -280  -252  -228  -176  -91  11  132  265  397  534  659  708  640  506  394  340  325  320  295  226  141  124  234  423  586  681  747  818  890  946  977  995  1022  1065  1126  1220  1342  1433  1415  1222  883  545  339  294  429  777  1239  1602  1768  1786  1710  1563  1395  1281  1270  1347  1457  1556  1623  1660  1699  1767  1862  1963  2038  2075  2086  2084  2080  2079  2081  2090  2126  2196  2268  2302  2301  2277  2200  2037  1829  1669  1614  1625  1598  1424  1087  703  415  279  279  417  726  1170  1594  1842  1851  1619  1206  787  539  491  592  840  1223  1619  1846  1740  1211  417  -252  -531  -412  -28  382  644  866  1228  1765  2506  3476  4580  5578  6011  5313  3244  267  -2545  -4301  -4898  -4791  -4519  -4386  -4302  -4058  -3699  -3415  -3251  -3111  -2944  -2773  -2612  -2448  -2291  -2179  -2125  -2095  -2031  -1915  -1792  -1690  -1576  -1448  -1346  -1262  -1149  -995  -856  -786  -789  -848  -939  -1038  -1134  -1219  -1260  -1240  -1184  -1103  -940  -649  -308  -55  64  118  185  292  420  553  709  900  1077  1174  1163  1053  882  698  520  356  239  203  238  270  240  171  109  24  -153  -394  -573  -632  -618  -587  -560  -545  -565  -665  -855  -1075  -1241  -1319  -1338  -1346  -1337  -1254  -1045  -738  -454  -292  -227  -164  -46  97  223  323  393  343  40  -506  -1088  -1486  -1631  -1557  -1293  -862  -381  -54  30  -42  -150  -236  -290  -305  -243  -39  313  699  965  1055  980  756  465  239  128  91  75  50  7  -83  -261  -472  -572  -479  -260  -48  89  159  184  181  166  145  127  123  153  241  385  495  416  93  -305  -547  -580  -520  -446  -360  -295  -307  -402  -528  -589  -510  -298  -48  136  220  241  241  239  240  246  247  224  156  46  -68  -147  -178  -179  -172  -172  -178  -191  -223  -292  -388  -477  -543  -595  -628  -609  -550  -570  -688  -714  -544  -208  418  1530  3050  4627  5806  6109  5296  3763  2255  1204  595  175  -268  -696  -899  -799  -528  -219  59  167  -41  -539  -1089  -1433  -1515  -1464  -1409  -1385  -1356  -1275  -1148  -1018  -900  -791  -716  -726  -863  -1111  -1361  -1511  -1547  -1497  -1374  -1217  -1099  -1055  -1062  -1082  -1093  -1090  -1080  -1070  -1057  -1028  -957  -815  -610  -416  -303  -264  -248  -223  -203  -206  -201  -128  38  237  359  378  353  331  290  187  22  -129  -204  -205  -176  -182  -295  -547  -860  -1105  -1213  -1193  -1074  -901  -750  -677  -700  -820  -1000  -1155  -1221  -1199  -1117  -974  -756  -500  -298  -211  -217  -266  -314  -338  -340  -347  -389  -465  -539  -594  -646  -692  -702  -644  -496  -268  -15  176  259  254  202  121  13  -96  -159  -166  -158  -150  -135  -140  -186  -258  -318  -328  -238  -28  233  422  484  463  413  363  329  320  356  468  666  896  1069  1140  1091  904  627  372  212  138  100  72  78  129  208  322  478  608  622  498  272  -32  -397  -763  -1050  -1205  -1238  -1197  -1114  -997  -876  -800  -780  -771  -732  -657  -570  -490  -416  -337  -234  -112  -30  -76  -270  -507  -641  -622  -498  -309  -38  354  845  1397  2123  3156  4280  5071  5365  5258  4808  4059  3146  2228  1451  929  674  600  599  602  583  524  418  296  217  227  351  597  899  1125  1182  1020  605  0]
