reading_id,reading_time,wire_id,result_classification,heart_rate,heart_rate_alert,firmware_version,device_app_version,hardware_version,waveform_samples
6a6df3a0-59a5-11ed-8080-808080808080,Tue Nov 01 05:24:10 UTC 2022,e100e3fd2639,NSR,81,NONE,20001.171.50,2.10.0,Charge 5,[4646  4983  5216  5117  4582  3835  3234  2959  2961  3126  3361  3578  3731  3807  3801  3725  3607  3428  3151  2807  2493  2290  2214  2192  2059  1684  1144  682  445  381  369  320  195  40  -49  -52  -67  -250  -686  -1316  -1987  -2527  -2819  -2902  -2902  -2864  -2712  -2442  -2306  -2573  -3168  -3778  -4170  -4315  -4317  -4240  -4034  -3664  -3346  -3440  -3935  -4452  -4775  -4958  -5064  -5102  -5095  -5077  -5092  -5200  -5441  -5769  -6070  -6285  -6434  -6539  -6600  -6633  -6666  -6680  -6593  -6343  -6001  -5697  -5462  -5276  -5181  -5201  -5271  -5261  -5024  -4587  -4330  -4459  -4464  -3813  -2552  -694  1952  5075  7879  9667  9821  7892  4371  712  -1861  -3011  -2961  -2343  -1985  -2220  -2687  -2982  -3051  -2994  -2888  -2793  -2737  -2723  -2759  -2838  -2925  -2985  -3004  -2983  -2921  -2829  -2726  -2607  -2478  -2386  -2353  -2364  -2393  -2411  -2354  -2163  -1884  -1635  -1482  -1415  -1405  -1443  -1544  -1690  -1831  -1916  -1869  -1633  -1303  -1077  -1061  -1224  -1458  -1656  -1799  -1925  -2042  -2114  -2123  -2096  -2058  -1995  -1873  -1715  -1602  -1568  -1578  -1579  -1541  -1463  -1378  -1348  -1496  -1924  -2504  -2923  -3009  -2839  -2589  -2386  -2214  -1994  -1752  -1593  -1570  -1672  -1875  -2109  -2234  -2132  -1779  -1253  -755  -548  -746  -1196  -1640  -1925  -2003  -1872  -1582  -1248  -985  -842  -812  -898  -1100  -1337  -1459  -1399  -1239  -1107  -1047  -1043  -1092  -1203  -1343  -1434  -1409  -1256  -1052  -894  -762  -562  -308  -117  -39  -43  -126  -315  -563  -768  -901  -994  -1060  -1125  -1250  -1461  -1619  -1474  -967  -254  621  1840  3675  6246  9148  11506  12592  12102  10205  7688  5417  3672  2299  1112  58  -730  -1090  -1065  -896  -791  -780  -808  -822  -760  -578  -333  -151  -91  -126  -223  -351  -462  -510  -465  -326  -133  27  85  46  -25  -85  -129  -176  -217  -170  45  399  752  976  1037  960  798  628  532  581  802  1118  1356  1367  1080  554  -2  -379  -490  -341  -45  227  406  520  599  674  786  920  1001  970  841  698  604  521  395  251  143  101  117  139  164  274  465  574  469  222  7  -80  -23  193  545  938  1265  1429  1300  774  -1  -640  -888  -759  -362  169  669  1010  1160  1159  1015  690  255  -87  -228  -222  -159  -77  43  238  454  538  397  148  19  114  318  456  481  428  320  187  89  69  132  262  406  502  525  466  318  124  -31  -93  -52  82  276  435  467  359  155  -96  -335  -503  -603  -679  -761  -848  -893  -763  -281  479  1232  2025  3226  5153  7917  10986  13182  13482  11667  8512  5344  3084  1789  1015  308  -479  -1080  -1231  -1048  -776  -540  -391  -333  -327  -361  -472  -693  -962  -1164  -1255  -1275  -1263  -1238  -1224  -1229  -1189  -1000  -637  -235  32  106  -15  -344  -781  -1118  -1248  -1204  -1025  -758  -485  -293  -219  -240  -294  -328  -328  -307  -249  -113  94  303  415  321  -12  -437  -729  -825  -811  -749  -637  -503  -411  -388  -387  -345  -261  -243  -389  -620  -789  -844  -819  -718  -515  -261  -80  -43  -123  -248  -361  -461  -562  -608  -530  -367  -216  -132  -104  -92  -81  -87  -136  -230  -344  -447  -509  -525  -516  -502  -491  -485  -482  -486  -512  -568  -649  -720  -713  -571  -300  -1  206  293  285  186  -1  -214  -371  -457  -495  -508  -520  -540  -528  -430  -313  -352  -616  -1001  -1354  -1554  -1534  -1301  -966  -692  -535  -429  -340  -303  -307  -315  -337  -407  -529  -688  -839  -918  -864  -639  -254  177  487  588  525  403  308  245  152  -34  -289  -540  -737  -828  -800  -734  -703  -703  -724  -803  -1024  -1392  -1706  -1749  -1433  -655  658  2487  4836  7622  10425  12556  13310  12196  9238  5259  1689  -380  -934  -707  -448  -498  -741  -943  -1062  -1187  -1359  -1551  -1717  -1807  -1774  -1606  -1378  -1211  -1148  -1138  -1115  -1047  -951  -872  -826  -798  -783  -817  -941  -1111  -1215  -1215  -1164  -1099  -991  -786  -483  -159  92  234  292  308  292  200  7  -211  -339  -348  -308  -279  -272  -271  -264  -247  -236  -243  -259  -267  -262  -254  -266  -327  -438  -553  -627  -665  -689  -703  -689  -635  -558  -495  -473  -506  -605  -735  -817  -801  -692  -526  -360  -249  -204  -204  -266  -430  -653  -820  -870  -813  -670  -493  -361  -318  -357  -465  -662  -931  -1151  -1245  -1278  -1327  -1351  -1262  -1080  -924  -855  -848  -865  -877  -849  -746  -589  -448  -368  -351  -426  -635  -922  -1146  -1198  -1033  -665  -234  53  94  -102  -485  -948  -1347  -1571  -1595  -1456  -1199  -859  -490  -191  -49  -107  -375  -769  -1109  -1237  -1034  -441  335  900  1022  700  54  -633  -1068  -1184  -1052  -720  -289  85  364  573  639  457  58  -379  -678  -783  -748  -661  -593  -574  -620  -774  -1038  -1291  -1290  -732  491  2157  4096  6363  8828  11030  12306  11967  9848  6709  3715  1644  629  233  -104  -517  -843  -1053  -1211  -1305  -1298  -1206  -1070  -904  -732  -624  -656  -857  -1143  -1344  -1322  -1052  -659  -330  -131  -4  62  3  -179  -388  -537  -611  -632  -614  -537  -380  -148  125  376  524  529  401  196  6  -108  -146  -110  4  173  358  551  740  855  816  601  292  19  -138  -167  -93  13  78  82  39  -34  -113  -187  -271  -348  -387  -396  -395  -397  -398  -389  -382  -422  -552  -740  -868  -826  -586  -258  -28  -6  -177  -440  -675  -824  -887  -849  -681  -411  -151  -2  17  -31  -84  -142  -261  -458  -676  -838  -891  -809  -595  -287  19  207  226  105  -78  -229  -297  -302  -284  -260  -250  -307  -489  -772  -1061  -1274  -1330  -1197  -977  -770  -556  -306  -89  -5  -85  -253  -397  -460  -463  -447  -429  -413  -414  -463  -578  -721  -819  -849  -836  -801  -729  -607  -501  -523  -671  -805  -809  -713  -618  -563  -516  -452  -396  -381  -413  -459  -452  -369  -294  -304  -370  -433  -485  -545  -608  -655  -701  -805  -993  -1213  -1391  -1478  -1423  -1129  -413  824  2401  4188  6327  8806  11145  12552  12388  10601  7707  4498  1780  7  -923  -1320  -1358  -1184  -971  -829  -810  -955  -1262  -1629  -1907  -2028  -2006  -1847  -1569  -1274  -1077  -998  -961  -869  -668  -396  -160  -65  -174  -485  -913  -1349  -1704  -1895  -1829  -1456  -888  -388  -116  -23  17  67  102  72  -37  -175  -220  -97  97  226  283  326  341  256  68  -149  -354  -518  -582  -511  -349  -176  -48  14  7  -63  -175  -288  -367  -398  -385  -359  -362  -396  -397  -344  -298  -297  -318  -352  -419  -542  -694  -803  -834  -811  -770  -718  -644  -542  -423  -315  -235  -185  -185  -272  -445  -635  -760  -783  -682  -451  -184  -51  -139  -358  -545  -625  -635  -603  -511  -361  -225  -224  -415  -683  -877  -952  -913  -776  -594  -418  -283  -209  -207  -308  -547  -885  -1162  -1224  -1074  -788  -354  184  654  911  870  477  -171  -836  -1334  -1590  -1614  -1518  -1432  -1374  -1251  -1006  -717  -528  -478  -491  -479  -381  -168  154  503  715  608  112  -573  -1071  -1203  -1056  -771  -451  -181  -29  25  74  183  350  552  763  954  1058  952  547  -24  -466  -635  -638  -615  -617  -633  -674  -761  -865  -916  -862  -687  -434  -129  380  1335  2853  4930  7474  10169  12311  13027  11876  9146  5738  2875  1357  983  1034  957  541  -103  -742  -1214  -1484  -1593  -1616  -1630  -1679  -1747  -1783  -1733  -1581  -1386  -1238  -1158  -1092  -1007  -927  -886  -893  -925  -938  -904  -823  -709  -580  -451  -313  -155  4  81  -31  -290  -516  -615  -618  -537  -349  -106  61  99  62  37  116  361  705  944  887  484  -74  -486  -635  -612  -482  -218  181  590  831  860  781  648  350  -213  -865  -1234  -1116  -634  -110  190  207  18  -238  -408  -431  -379  -314  -232  -133  -54  -24  -39  -74  -92  -102  -193  -430  -704  -808  -711  -576  -506  -452  -332  -163  -40  0  -5  -31  -104  -267  -509  -731  -846  -857  -815  -760  -697  -613  -519  -449  -424  -438  -474  -504  -508  -483  -440  -389  -341  -316  -359  -511  -727  -880  -854  -625  -300  -66  -25  -157  -379  -598  -755  -826  -795  -675  -523  -398  -326  -296  -294  -340  -490  -734  -951  -1010  -899  -708  -539  -443  -423  -488  -665  -906  -1084  -1103  -950  -684  -423  -250  -159  -105  -68  -58  -61  -19  102  236  320  388  481  559  531  337  36  -256  -494  -679  -790  -830  -837  -848  -883  -917  -843  -512  16  332  211  177  971  2924  6039  9812  13046  14493  13611  10732  6837  3155  573  -661  -757  -204  375  556  314  -229  -997  -1762  -2216  -2272  -2065  -1784  -1513  -1130  -492  261  793  858  329  -742  -1926  -2649  -2640  -1991  -1086  -418  -192  -275  -481  -702  -875  -982  -1010  -872  -442  247  902  1193  1015  483  -207  -843  -1219  -1230  -883  -320  190  448  442  262  24  -149  -166  29  424  865  1130  1051  583  -85  -600  -780  -732  -653  -646  -717  -850  -1013  -1118  -1040  -707  -242  90  128  -97  -421  -656  -735  -727  -704  -689  -677  -666  -667  -685  -680  -600  -437  -233  -54  23  -45  -236  -453  -597  -641  -617  -561  -481  -357  -182  -11  87  92  19  -99  -241  -385  -496  -568  -644  -744  -843  -913  -941  -938  -917  -874  -791  -668  -532  -411  -324  -274  -254  -266  -327  -458  -651  -856  -1002  -1041  -992  -904  -778  -581  -353  -203  -213  -380  -612  -779  -832  -811  -755  -670  -567  -490  -480  -511  -526  -498  -428  -313  -174  -84  -143  -407  -786  -1090  -1203  -1076  -675  -123  317  497  437  168  -243  -629  -825  -765  -468  -73  210  285  199  30  -148  -268  -313  -343  -402  -468  -550  -718  -994  -1281  -1411  -1231  -643  519  2403  4821  7397  9825  11709  12487  11767  9659  6760  3858  1511  -125  -1074  -1409  -1340  -1127  -901  -671  -425  -185  7  94  -4  -360  -947  -1559  -1940  -2017  -1895  -1699  -1506  -1349  -1247  -1195  -1145  -1030  -828  -574  -327  -149  -60  -28  -27  -70  -174  -311  -416  -447  -381  -211  5  171  261  327  391  426  406  322  180  13  -120  -186  -196  -174  -119  -31  77  185  267  326  350  265  52  -177  -319  -365  -363  -365  -387  -421  -456  -482  -512  -570  -654  -716  -688  -533  -304  -133  -68  -37  -29  -129  -359  -608  -735  -728  -677  -637  -614  -614  -632  -625  -550  -447  -414  -467  -535  -574  -594  -598  -533  -338  -63  132  126  -90  -398  -644  -785  -861  -865  -776  -639  -537  -493  -460  -407  -357  -337  -346  -381  -485  -705  -1004  -1258  -1357  -1267  -1035  -767  -569  -483  -482  -518  -562  -586  -578  -548  -516  -492  -480  -504  -593  -747  -924  -1052  -1039  -833  -528  -304  -226  -217  -198  -148  -79  -7  50  82  102  145  241  357  383  235  -53  -371  -632  -795  -863  -870  -834  -741  -595  -444  -348  -403  -740  -1356  -1876  -1668  -323  2238  5880  9863  12882  13933  12721  9602  5671  2321  334  -390  -383  -181  -124  -271  -508  -719  -846  -852  -677  -299  152  424  246  -503  -1536  -2298  -2533  -2366  -1974  -1493  -1082  -837  -737  -708  -681  -614  -510  -401  -328  -322  -368  -421  -449  -444  -373  -190  79  322  453  509  568  654  735  776  732  574  355  193  139  158  209  264  303  317  307  261  161  18  -110  -151  21  516  1203  1732  1834  1410  519  -506  -1236  -1509  -1443  -1170  -777  -413  -257  -344  -514  -573  -496  -393  -339  -320  -321  -386  -567  -819  -1018  -1090  -1020  -807  -525  -327  -317  -488  -734  -919  -967  -865  -627  -344  -143  -74  -111  -229  -389  -521  -583  -596  -596  -579  -508  -389  -362  -585  -975  -1253  -1278  -1152  -1040  -1008  -1027  -1051  -1050  -993  -828  -515  -134  137  185  -2  -359  -720  -928  -975  -954  -944  -966  -982  -888  -587  -154  175  190  -202  -913  -1631  -2039  -1993  -1468  -609  242  800  1017  952  623  94  -414  -693  -709  -556  -353  -205  -174  -289  -555  -894  -1181  -1354  -1440  -1515  -1605  -1503  -798  694  2775  5168  7627  9828  11339  11787  10998  8971  6119  3258  1041  -292  -791  -755  -534  -345  -374  -644  -919  -1031  -1026  -999  -990  -985  -937  -828  -717  -680  -734  -835  -919  -1000  -1158  -1363  -1480  -1435  -1279  -1082  -849  -593  -354  -144  -9  -72  -344  -642  -784  -770  -694  -586  -403  -110  240  530  665  660  610  595  600  530  302  -21  -256  -280  -106  144  323  350  232  30  -169  -305  -385  -448  -506  -548  -556  -507  -431  -383  -364  -369  -416  -472  -465  -356  -187  -56  -15  -65  -232  -524  -842  -1041  -1046  -849  -514  -193  -20  -15  -130  -299  -449  -541  -579  -585  -555  -470  -337  -209  -140  -138  -187  -266  -361  -461  -534  -551  -535  -528  -550  -586  -626  -689  -777  -867  -962  -1068  -1152  -1153  -1027  -804  -598  -490  -468  -477  -493  -533  -616  -737  -866  -959  -973  -921  -866  -846  -853  -862  -846  -785  -693  -587  -466  -348  -259  -185  -149  -175  -168  -49  105  200  218  203  199  215  201  75  -195  -507  -706  -758  -757  -802  -910  -998  -974  -864  -773  -693  -424  200  1048  1991  3299  5292  7922  10723  12776  13065  11252  8025  4624  2006  477  -113  -215  -321  -587  -876  -1064  -1150  -1201  -1250  -1286  -1292  -1261  -1187  -1073  -951  -864  -821  -792  -762  -740  -717  -674  -619  -593  -610  -636  -638  -622  -601  -567  -512  -444  -376  -306  -213  -107  -33  -12  -18  -10  34  109  203  332  485  589  573  422  211  53  0  31  122  236  302  252  74  -152  -308  -358  -366  -403  -487  -587  -670  -715  -727  -723  -713  -697  -678  -670  -678  -685  -645  -520  -346  -219  -184  -220  -290  -367  -434  -471  -471  -435  -380  -319  -253  -195  -148  -114  -107  -134  -203  -339  -524  -702  -833  -907  -948  -988  -1019  -1024  -998  -915  -769  -640  -587  -585  -596  -621  -685  -785  -886  -960  -1000  -995  -933  -840  -767  -735  -726  -725  -742  -780  -804  -785  -738  -686  -626  -567  -533  -556  -623  -636  -509  -309  -193  -208  -237  -181  -84  -25  -13  -10  3  2  -86  -316  -602  -774  -761  -655  -576  -536  -433  -176  139  185  -339  -1338  -2313  -2830  -2686  -1743  -41  2106  4399  6774  9228  11448  12722  12335  10134  6799  3554  1471  877  1215  1495  1107  184  -794  -1473  -1768  -1797  -1688  -1480  -1236  -1068  -1026  -1054  -1060  -956  -712  -414  -223  -298  -713  -1337  -1864  -2083  -1944  -1465  -842  -388  -222  -224  -286  -396  -535  -636  -636  -517  -282  28  320  489  485  321  62  -194  -394  -507  -495  -392  -299  -270  -264  -206  -63  139  350  518  585  522  359  152  -61  -256  -406  -513  -611  -713  -794  -851  -902  -949  -969  -934  -804  -568  -315  -220  -388  -740  -1094  -1324  -1392  -1333  -1238  -1162  -1094  -1017  -908  -715  -403  3  414  652  469  -271  -1296  -2030  -2153  -1774  -1230  -847  -724  -762  -865  -990  -1084  -1052  -773  -237  341  676  602  128  -508  -961  -1102  -1069  -1022  -1037  -1131  -1273  -1406  -1486  -1468  -1295  -990  -678  -471  -365  -309  -279  -277  -304  -357  -421  -469  -465  -353  -115  159  336  366  295  194  120  79  24  -99  -279  -448  -580  -703  -838  -978  -1094  -1128  -1060  -972  -932  -822  -481  153  1211  2891  5256  8089  10877  12854  13163  11429  8230  4741  1991  398  -287  -651  -1056  -1358  -1302  -1003  -753  -657  -676  -798  -1025  -1305  -1527  -1578  -1451  -1265  -1155  -1147  -1154  -1092  -979  -885  -851  -865  -880  -817  -624  -375  -236  -258  -307  -267  -184  -180  -298  -440  -457  -330  -185  -104  -63  -4  108  278  498  726  867  814  533  150  -126  -211  -187  -154  -178  -284  -434  -541  -550  -471  -359  -281  -257  -259  -259  -255  -282  -427  -769  -1222  -1557  -1617  -1378  -930  -490  -294  -398  -653  -862  -941  -927  -884  -829  -746  -647  -543  -428  -347  -363  -464  -581  -655  -680  -686  -694  -727  -822  -967  -1082  -1114  -1071  -974  -853  -763  -732  -739  -733  -649  -497  -378  -343  -358  -390  -439  -522  -637  -757  -857  -890  -826  -724  -658  -647  -666  -679  -643  -530  -366  -228  -159  -141  -143  -167  -234  -340  -445  -505  -509  -481  -450  -431  -435  -475  -567  -687  -776  -805  -798  -787  -792  -826  -860  -804  -626  -492  -492  -274  760  2940  6113  9604  12247  12874  11120  7770  4262  1749  573  387  445  128  -521  -1102  -1447  -1593  -1560  -1358  -1047  -752  -577  -544  -659  -948  -1370  -1773  -1991  -1921  -1525  -932  -424  -174  -138  -249  -503  -819  -1022  -1036  -927  -752  -487  -169  54  47  -209  -593  -904  -1021  -927  -631  -207  208  509  652  647  537  390  281  261  355  554  784  934  936  775  486  148  -135  -291  -323  -298  -271  -259  -277  -336  -425  -489  -446  -241  64  273  144  -436  -1244  -1840  -2020  -1887  -1583  -1177  -729  -345  -126  -77  -124  -179  -191  -238  -434  -733  -971  -1043  -969  -839  -727  -642  -530  -326  -71  55  -93  -429  -704  -791  -759  -689  -575  -389  -170  -18  7  -85  -249  -418  -534  -572  -541  -493  -473  -487  -517  -529  -491  -408  -343  -365  -459  -548  -589  -595  -569  -491  -352  -179  -23  69  101  109  117  110  32  -181  -528  -894  -1153  -1268  -1288  -1269  -1247  -1254  -1332  -1486  -1612  -1497  -958  1  1264  2843  4893  7408  10014  12013  12552  11084  7914  4227  1351  -138  -524  -436  -401  -542  -689  -795  -937  -1121  -1307  -1459  -1541  -1550  -1513  -1466  -1436  -1435  -1457  -1474  -1417  -1212  -866  -486  -197  -103  -246  -543  -821  -963  -974  -915  -840  -793  -818  -938  -1118  -1266  -1287  -1092  -645  -73  389  600  534  207  -272  -678  -861  -849  -723  -508  -223  43  193  191  53  -173  -397  -543  -606  -623  -610  -549  -433  -283  -130  3  85  55  -168  -578  -1001  -1232  -1211  -1012  -765  -558  -387  -242  -185  -250  -389  -516  -576  -578  -569  -572  -568  -510  -387  -297  -343  -454  -500  -487  -466  -447  -432  -436  -476  -576  -744  -927  -1006  -862  -494  -70  205  265  135  -132  -435  -652  -750  -746  -633  -449  -322  -393  -693  -1058  -1264  -1271  -1181  -1037  -775  -318  255  730  959  944  717  297  -208  -585  -707  -676  -641  -640  -675  -705  -649  -500  -284  -43  115  36  -370  -967  -1449  -1653  -1662  -1603  -1421  -763  722  2772  4565  5622  6252  7060  8350  9830  10681  10101  8074  5497  3369  2027  1154  309  -634  -1476  -1906  -1815  -1498  -1296  -1220  -1122  -961  -815  -745  -736  -740  -724  -706  -722  -795  -918  -1028  -1047  -968  -827  -633  -411  -268  -351  -737  -1285  -1694  -1760  -1449  -873  -297  26  62  -80  -270  -410  -452  -363  -111  255  610  854  925  752  325  -187  -542  -666  -682  -724  -804  -842  -780  -650  -503  -342  -176  -59  -16  -16  -40  -103  -169  -117  69  140  -141  -641  -993  -1025  -868  -709  -615  -581  -627  -761  -917  -979  -892  -705  -505  -347  -242  -162  -84  -10  44  63  41  11  -5  -52  -201  -463  -752  -965  -1053  -1019  -911  -774  -647  -562  -525  -513  -512  -517  -518  -507  -485  -472  -487  -518  -546  -573  -615  -668  -710  -724  -720  -714  -725  -769  -830  -840  -764  -663  -591  -534  -476  -433  -418  -421  -432  -440  -426  -349  -180  38  194  170  -84  -489  -840  -973  -871  -623  -368  -213  -180  -256  -440  -697  -965  -1218  -1451  -1636  -1690  -1402  -532  911  2548  3722  4000  3945  4792  7065  10042  12252  12337  10096  6790  4080  2729  2367  1979  773  -968  -2280  -2655  -2306  -1594  -809  -240  -23  -104  -421  -908  -1426  -1834  -2042  -1996  -1677  -1165  -655  -356  -385  -652  -903  -957  -806  -573  -401  -336  -341  -399  -528  -697  -815  -801  -642  -412  -225  -128  -81  -47  -45  -90  -148  -178  -185  -183  -171  -130  -62  10  78  151  199  165  54  -57  -120  -135  -101  -7  118  207  208  121  -3  -117  -225  -349  -485  -612  -712  -794  -876  -898  -781  -575  -413  -351  -354  -397  -483  -587  -637  -599  -522  -473  -469  -487  -493  -494  -532  -629  -748  -832  -871  -901  -929  -908  -794  -627  -499  -449  -449  -487  -577  -704  -793  -760  -561  -269  -65  -133  -543  -1126  -1541  -1539  -1113  -499  -54  2  -348  -962  -1554  -1880  -1860  -1498  -894  -312  31  164  207  145  -146  -679  -1233  -1567  -1607  -1375  -928  -442  -128  -67  -242  -605  -1012  -1282  -1366  -1320  -1167  -919  -624  -356  -153  28  238  454  603  648  603  493  282  -96  -563  -900  -1000  -929  -779  -624  -513  -459  -464  -550  -742  -1029  -1326  -1438  -1130  -369  578  1489  2601  4456  7307  10699  13436  14100  12116  8355  4478  1807  702  540  332  -323  -1048  -1402  -1389  -1229  -1075  -988  -974  -1002  -1039  -1061  -1057  -1023  -974  -929  -901  -886  -888  -921  -991  -1072  -1139  -1161  -1082  -898  -701  -589  -594  -667  -700  -623  -471  -335  -252  -182  -100  -12  85  218  387  561  679  650  393  -64  -531  -820  -911  -876  -739  -489  -157  153  341  395  374  327  262  185  101  12  -71  -170  -323  -494  -621  -695  -713  -696  -689  -685  -637  -518  -352  -207  -137  -196  -418  -715  -901  -886  -747  -576  -382  -174  -11  50  -30  -284  -625  -866  -898  -738  -439  -107  117  179  111  -41  -252  -495  -742  -958  -1099  -1100  -924  -647  -410  -279  -238  -249  -273  -287  -307  -367  -486  -649  -804  -876  -803  -597  -399  -392  -568  -749  -821  -817  -801  -807  -840  -874  -884  -876  -879  -897  -912  -910  -903  -894  -876  -856  -849  -843  -798  -676  -515  -400  -354  -323  -261  -155  3  180  297  295  176  9  -109  -138  -99  -31  28  26  -114  -428  -814  -1113  -1261  -1243  -968  -411  116  230  -32  -372  -359  630  2858  5900  9081  11597  12681  12096  10039  6953  3740  1199  -620  -1860  -2503  -2625  -2329  -1757  -1206  -912  -849  -851  -788  -650  -570  -651  -806  -900  -888  -776  -607  -449  -345  -302  -311  -359  -417  -464  -518  -617  -737  -795  -746  -634  -524  -431  -343  -260  -168  -67  4  29  50  130  256  316  192  -112  -455  -652  -576  -197  324  709  806  637  274  -175  -557  -763  -809  -790  -769  -765  -770  -768  -739  -668  -576  -503  -472  -478  -537  -663  -827  -957  -1016  -1024  -1020  -1019  -1003  -949  -858  -760  -641  -448  -206  -28  31  16  -26  -76  -125  -170  -234  -352  -504  -613  -615  -508  -351  -227  -184  -244  -419  -647  -815  -875  -856  -779  -647  -486  -377  -418  -602  -806  -929  -976  -989  -990  -967  -893  -778  -675  -624  -614  -597  -532  -428  -331  -271  -248  -246  -250  -256  -265  -278  -282  -241  -125  23  94  -8  -264  -542  -711  -741  -653  -478  -279  -120  -15  50  82  86  81  87  118  147  88  -127  -427  -663  -764  -744  -658  -557  -437  -283  -142  -162  -473  -937  -1191  -910  83  1718  3828  6318  8828  10699  11427  10749  8586  5537  2848  1267  571  208  -273  -969  -1510  -1553  -1171  -661  -287  -152  -260  -599  -1050  -1402  -1550  -1526  -1379  -1175  -1003  -883  -758  -611  -503  -457  -431  -392  -360  -404  -585  -873  -1155  -1319  -1251  -842  -142  563  988  1089  944  550  -56  -642  -953  -880  -461  93  485  597  536  440  369  330  320  349  420  507  570  581  514  349  116  -98  -234  -293  -307  -303  -270  -185  -77  -41  -143  -319  -445  -475  -452  -430  -423  -424  -426  -429  -435  -434  -392  -272  -101  18  -12  -225  -530  -774  -885  -872  -752  -567  -372  -197  -77  -53  -131  -251  -338  -383  -435  -522  -648  -816  -993  -1107  -1104  -988  -815  -669  -593  -572  -572  -573  -571  -568  -571  -581  -597  -618  -630  -597  -496  -378  -350  -474  -689  -862  -935  -951  -953  -935  -877  -799  -759  -791  -867  -935  -960  -916  -789  -621  -506  -480  -493  -457  -297  -7  311  522  580  515  346  101  -131  -225  -146  -19  17  -55  -192  -331  -419  -448  -444  -424  -380  -322  -311  -439  -729  -1029  -1154  -1105  -925  -516  235  1355  2912  5123  7979  10832  12723  12917  11104  7691  3878  969  -451  -559  58  572  379  -357  -1037  -1368  -1440  -1375  -1179  -857  -538  -404  -542  -877  -1218  -1419  -1477  -1459  -1388  -1241  -1020  -777  -569  -411  -299  -229  -179  -127  -73  -34  -19  -29  -76  -161  -257  -305  -250  -119  -12  17  26  111  284  442  512  520  512  495  450  362  249  154  86  33  -2  -19  -22  1  70  171  243  211  30  -253  -514  -675  -756  -794  -810  -816  -818  -803  -747  -658  -586  -575  -611  -643  -633  -589  -555  -560  -582  -605  -655  -743  -825  -848  -822  -784  -713  -556  -347  -193  -146  -166  -188  -152  -22  160  295  319  234  97  -9  -55  -99  -239  -539  -927  -1220  -1333  -1324  -1236  -1054  -819  -641  -574  -573  -558  -464  -296  -145  -113  -221  -378  -475  -498  -486  -432  -295  -104  27  -8  -248  -609  -924  -1088  -1128  -1114  -1070  -965  -803  -668  -635  -723  -916  -1152  -1344  -1429  -1302  -804  14  800  1213  1143  637  -90  -684  -941  -922  -758  -547  -361  -232  -169  -185  -255  -304  -279  -192  -88  2  76  101  -28  -395  -846  -1119  -1165  -921  -127  1341  3501  6301  9275  11644  12768  12343  10478  7749  4981  2764  1212  133  -626  -1003  -1054  -1087  -1209  -1291  -1268  -1160  -1005  -855  -757  -752  -863  -1080  -1326  -1488  -1488  -1319  -1051  -795  -633  -624  -801  -1098  -1366  -1509  -1508  -1325  -919  -401  3  185  150  -100  -517  -927  -1156  -1109  -742  -144  417  718  747  591  311  -36  -360  -564  -624  -554  -350  -57  194  304  277  180  51  -98  -240  -351  -444  -534  -590  -546  -361  -101  92  126  -1  -233  -461  -599  -645  -632  -582  -523  -487  -477  -479  -480  -482  -495  -520  -538  -534  -513  -462  -354  -218  -148  -198  -317  -418  -461  -477  -512  -574  -598  -529  -413  -342  -367  -493  -666  -797  -841  -803  -690  -539  -436  -458  -623  -853  -1020  -1068  -1033  -960  -862  -739  -612  -524  -502  -559  -696  -862  -979  -1014  -975  -822  -511  -147  39  -69  -365  -670  -918  -1107  -1211  -1197  -1049  -809  -583  -447  -403  -410  -433  -440  -404  -316  -202  -81  60  206  325  420  506  539  407  40  -434  -766  -833  -702  -502  -333  -223  -162  -136  -138  -189  -353  -695  -1148  -1514  -1666  -1623  -1439  -1220  -1204  -1488  -1667  -1021  886  3901  7440  10663  12749  13396  12698  10733  7829  4697  2027  242  -617  -813  -719  -668  -749  -875  -1016  -1148  -1214  -1217  -1195  -1181  -1217  -1333  -1500  -1637  -1695  -1640  -1423  -1073  -744  -572  -566  -661  -781  -868  -901  -892  -846  -745  -585  -414  -318  -302  -292  -253  -181  -60  84  212  343  501  677  837  926  856  567  154  -173  -323  -372  -409  -446  -444  -348  -136  109  251  240  150  76  54  59  58  32  -15  -82  -203  -435  -739  -969  -1057  -1068  -1070  -1034  -905  -710  -544  -442  -373  -327  -319  -376  -512  -680  -800  -836  -814  -766  -713  -666  -609  -511  -385  -298  -317  -456  -653  -810  -888  -897  -823  -645  -420  -259  -209  -242  -318  -396  -456  -505  -547  -577  -588  -576  -575  -631  -745  -902  -1071  -1189  -1199  -1090  -883  -624  -373  -183  -42  75  96  -66  -356  -629  -802  -895  -953  -977  -950  -897  -855  -837  -820  -767  -612  -330  -70  -70  -331  -613  -761  -785  -685  -430  -98  137  215  234  296  401  484  524  554  559  380  -140  -857  -1399  -1601  -1574  -1423  -1154  -815  -526  -414  -606  -1131  -1736  -1988  -1537  -216  1840  4293  6960  9725  12050  12960  11757  8710  4991  1930  266  -252  -521  -964  -1296  -1295  -1070  -865  -823  -875  -919  -949  -999  -1068  -1118  -1130  -1129  -1158  -1226  -1272  -1208  -1042  -875  -779  -745  -746  -745  -688  -542  -359  -239  -231  -295  -345  -345  -327  -294  -217  -105  -8  20  -13  -2  159  470  812  1021  1002  791  529  356  287  257  235  225  225  226  224  216  204  196  200  211  208  146  -10  -219  -377  -446  -471  -488  -506  -526  -539  -573  -664  -768  -820  -817  -778  -711  -626  -552  -530  -569  -610  -576  -473  -377  -325  -302  -289  -288  -313  -376  -470  -555  -581  -545  -525  -607  -780  -957  -1038  -876  -344  411  944  816  -98  -1388  -2304  -2395  -1752  -840  -179  54  -4  -230  -535  -787  -905  -917  -891  -869  -861  -877  -922  -972  -986  -947  -878  -808  -714  -589  -535  -631  -778  -798  -623  -337  -93  29  43  -23  -141  -261  -339  -361  -308  -157  53  223  292  264  170  50  -91  -298  -558  -768  -856  -835  -779  -791  -941  -1206  -1461  -1507  -1162  -391  756  2289  4186  6449  9035  11408  12607  11922  9320  5597  2150  70  -601  -626  -782  -1258  -1703  -1827  -1670  -1385  -1099  -902  -851  -919  -992  -997  -965  -927  -828  -603  -303  -95  -180  -687  -1483  -2175  -2444  -2221  -1625  -926  -401  -143  -122  -283  -505  -655  -691  -634  -518  -373  -244  -191  -236  -338  -428  -463  -405  -222  38  269  419  500  513  455  387  395  482  536  458  263  29  -187  -348  -423  -401  -288  -134  -24  -26  -163  -402  -658  -832  -870  -813  -727  -633  -550  -492  -446  -406  -409  -507  -707  -925  -1056  -1066  -988  -884  -813  -786  -773  -720  -590  -419  -296  -250  -234  -212  -218  -309  -451  -538  -532  -493  -490  -546  -639  -747  -885  -1048  -1156  -1106  -853  -506  -254  -170  -183  -214  -240  -261  -278  -301  -360  -463  -575  -643  -656  -639  -629  -670  -798  -978  -1120  -1173  -1147  -1063  -936  -781  -616  -443  -282  -217  -269  -285  -155  50  219  307  322  284  189  48  -92  -194  -245  -253  -249  -299  -469  -753  -1046  -1237  -1313  -1314  -1206  -890  -354  217  675  1156  2019  3745  6568  9903  12546  13486  12356  9512  5986  2970  979  -189  -821  -1012  -858  -623  -577  -783  -1177  -1627  -1935  -1996  -1854  -1623  -1424  -1330  -1321  -1342  -1358  -1341  -1267  -1141  -986  -822  -680  -596  -575  -588  -606  -616  -610  -554  -410  -208  -44  15  -21  -107  -187  -242  -267  -220  -44  258  587  820  891  760  428  27  -241  -295  -201  -65  30  61  46  5  -42  -75  -94  -114  -123  -86  -41  -98  -271  -446  -560  -646  -726  -763  -727  -642  -561  -510  -488  -487  -498  -521  -531  -460  -241  50  193  11  -447  -925  -1191  -1227  -1123  -923  -667  -409  -169  41  186  242  204  62  -186  -471  -667  -729  -706  -646  -574  -486  -362  -218  -120  -91  -95  -90  -65  -57  -157  -431  -796  -1069  -1159  -1083  -869  -606  -449  -477  -617  -748  -803  -763  -602  -307  28  233  161  -226  -763  -1161  -1284  -1175  -905  -561  -255  -52  42  58  41  29  53  145  319  518  627  552  270  -140  -500  -682  -712  -672  -606  -528  -454  -398  -398  -500  -665  -716  -571  -512  -776  -1078  -885  188  2243  5016  8052  10917  13077  13857  12821  10157  6613  3171  681  -505  -667  -361  -59  -64  -414  -891  -1302  -1620  -1864  -2019  -2061  -1922  -1528  -996  -607  -527  -729  -1087  -1422  -1597  -1587  -1442  -1252  -1124  -1113  -1205  -1331  -1417  -1439  -1433  -1435  -1410  -1192  -579  410  1415  1990  1902  1176  151  -664  -1037  -1091  -1001  -825  -517  -54  429  724  709  388  -97  -509  -710  -758  -731  -580  -197  373  891  1125  955  343  -587  -1482  -1991  -2049  -1796  -1414  -1059  -812  -678  -634  -629  -587  -450  -234  -25  109  178  194  103  -167  -543  -836  -958  -977  -959  -902  -803  -690  -578  -467  -369  -312  -293  -269  -201  -100  -22  -43  -215  -506  -780  -921  -908  -783  -622  -506  -468  -480  -516  -555  -571  -532  -419  -269  -145  -82  -106  -274  -601  -960  -1176  -1193  -1088  -962  -817  -595  -337  -159  -84  -54  -30  -20  -67  -225  -509  -815  -967  -880  -623  -317  -62  74  70  -54  -232  -372  -431  -419  -338  -180  9  138  155  83  -11  -80  -147  -276  -454  -619  -769  -943  -1120  -1256  -1338  -1399  -1477  -1445  -962  136  1470  2542  3316  4165  5669  8126  10933  12848  12844  10733  7451  4417  2347  1121  370  -314  -1144  -1873  -2199  -2194  -2028  -1665  -1056  -372  99  193  -149  -893  -1748  -2299  -2378  -2110  -1717  -1382  -1158  -1021  -969  -998  -1067  -1104  -1020  -722  -223  281  559  490  90  -439  -814  -945  -972  -1004  -966  -712  -288  67  216  221  201  207  229  248  260  265  272  288  287  215  40  -183  -337  -342  -203  -5  138  161  64  -112  -304  -452  -537  -569  -568  -554  -573  -689  -904  -1102  -1156  -1085  -983  -872  -740  -616  -566  -602  -655  -664  -651  -660  -679  -640  -513  -353  -239  -191  -182  -189  -224  -323  -492  -674  -789  -819  -800  -770  -756  -773  -776  -700  -622  -695  -884  -1000  -960  -843  -758  -728  -714  -696  -686  -693  -712  -731  -742  -758  -801  -884  -989  -1063  -1073  -1025  -951  -869  -765  -628  -474  -326  -215  -174  -204  -259  -297  -315  -319  -287  -192  -55  67  144  175  143  -2  -284  -609  -828  -892  -879  -869  -873  -864  -836  -814  -812  -806  -768  -687  -517  -205  258  791  1263  1879  3265  5738  8753  11251  12240  11230  8513  5129  2265  490  -280  -339  -95  -41  -328  -682  -875  -952  -1030  -1130  -1200  -1225  -1243  -1280  -1302  -1243  -1094  -919  -804  -780  -832  -945  -1085  -1185  -1197  -1106  -928  -710  -524  -430  -415  -419  -403  -357  -294  -237  -174  -83  27  130  225  330  461  606  731  810  817  752  677  641  607  501  305  90  -46  -81  -43  41  139  203  215  189  151  111  38  -116  -340  -565  -742  -867  -950  -1004  -1028  -1009  -924  -767  -586  -456  -399  -393  -407  -415  -408  -402  -426  -492  -567  -611  -627  -636  -644  -654  -660  -645  -580  -461  -333  -270  -308  -418  -551  -632  -580  -416  -266  -213  -262  -419  -688  -997  -1200  -1181  -930  -577  -318  -252  -361  -589  -834  -992  -1047  -1036  -955  -769  -530  -391  -452  -675  -945  -1135  -1167  -1046  -806  -456  -14  449  829  1055  1089  813  125  -749  -1359  -1486  -1259  -923  -670  -549  -511  -533  -637  -824  -1013  -1070  -886  -377  472  1512  2375  2434  1122  -1195  -3080  -3232  -1436  1737  5449  8786  11071  11960  11252  9047  6082  3374  1485  386  -206  -550  -754  -833  -840  -845  -859  -858  -846  -843  -858  -886  -919  -958  -996  -1029  -1060  -1081  -1084  -1074  -1058  -1029  -983  -921  -848  -755  -639  -521  -432  -393  -393  -400  -395  -378  -336  -259  -164  -87  -52  -32  21  107  183  221  221  181  68  -121  -315  -429  -461  -460  -447  -395  -289  -182  -126  -76  8  90  109  43  -113  -351  -608  -785  -839  -822  -794  -794  -846  -933  -984  -942  -843  -758  -723  -725  -719  -660  -562  -525  -601  -728  -842  -925  -977  -1009  -1009  -942  -785  -586  -445  -433  -555  -751  -927  -1009  -975  -836  -650  -512  -460  -486  -588  -760  -941  -1069  -1136  -1136  -982  -588  -89  209  160  -113  -429  -715  -942  -1033  -932  -669  -345  -82  33  -9  -168  -376  -571  -716  -793  -791  -674  -426  -137  61  148  189  249  376  591  841  1013  968  587  -73  -720  -1073  -1095  -909  -658  -446  -305  -256  -364  -667  -1137  -1647  -1950  -1811  -1100  242  2063  4057  6173  8499  10764  12321  12400  10628  7560  4364  1967  605  -36  -439  -894  -1303  -1403  -1191  -931  -816  -851  -993  -1206  -1439  -1586  -1504  -1170  -792  -664  -880  -1237  -1468  -1506  -1390  -1101  -680  -306  -125  -132  -250  -395  -496  -544  -569  -584  -554  -435  -238  -38  114  216  269  278  268  246  198  121  29  -60  -124  -120  -49  44  98  58  -27  -8  125  186  88  -57  -143  -171  -199  -277  -410  -550  -641  -678  -702  -735  -767  -767  -698  -552  -386  -281  -270  -348  -503  -689  -823  -872  -870  -833  -750  -634  -526  -443  -371  -312  -271  -259  -319  -492  -727  -894  -919  -818  -638  -446  -331  -335  -428  -560  -688  -775  -802  -757  -621  -434  -297  -308  -503  -817  -1099  -1264  -1346  -1377  -1321  -1140  -796  -229  463  1018  1226  929  20  -1196  -2064  -2214  -1786  -1178  -755  -606  -581  -563  -547  -525  -430  -196  167  568  895  1043  884  340  -388  -916  -1087  -1051  -978  -944  -992  -1153  -1381  -1551  -1563  -1380  -1043  -636  -184  357  990  1593  2067  2561  3532  5531  8561  11637  13286  12574  9750  6089  3016  1224  564  361  -50  -641  -1009  -1163  -1296  -1381  -1381  -1346  -1325  -1324  -1312  -1264  -1202  -1165  -1155  -1157  -1162  -1165  -1164  -1146  -1095  -1002  -874  -720  -565  -445  -373  -347  -361  -395  -423  -436  -436  -434  -437  -444  -441  -421  -398  -384  -355  -261  -76  159  358  462  481  450  384  297  202  83  -50  -147  -176  -162  -143  -134  -138  -158  -214  -322  -458  -559  -594  -563  -469  -346  -267  -290  -412  -535  -531  -394  -243  -163  -138  -146  -224  -414  -657  -810  -781  -565  -221  118  327  349  137  -319  -853  -1200  -1239  -1041  -769  -577  -492  -437  -368  -311  -286  -277  -275  -304  -405  -571  -751  -893  -970  -982  -940  -850  -721  -552  -351  -173  -75  -83  -200  -399  -588  -674  -650  -592  -607  -751  -953  -1093  -1138  -1109  -974  -692  -327  -24  115  78  -109  -362  -536  -506  -245  129  391  366  34  -430  -767  -856  -752  -555  -360  -235  -184  -176  -205  -308  -494  -686  -785  -764  -668  -538  -419  -348  -221  320  1795  4550  8387  12350  15038  15395  13224  9135  4462  778  -1184  -1669  -1228  -516  -137  -229  -491  -664  -759  -897  -1084  -1219  -1263  -1300  -1423  -1614  -1768  -1788  -1624  -1303  -963  -756  -678  -621  -531  -468  -490  -567  -637  -665  -646  -596  -532  -466  -423  -415  -430  -441  -401  -272  -89  41  46  -73  -243  -368  -405  -364  -263  -137  -34  36  113  211  302  347  296  101  -192  -448  -591  -660  -704  -734  -756  -767  -776  -800  -820  -789  -671  -484  -300  -193  -171  -204  -304  -512  -784  -987  -1039  -969  -844  -695  -528  -366  -244  -196  -260  -461  -719  -875  -839  -640  -359  -92  70  114  98  75  58  52  65  111  186  233  134  -202  -684  -1075  -1252  -1268  -1191  -990  -592  -79  309  389  69  -631  -1435  -1950  -2002  -1679  -1201  -804  -591  -526  -565  -663  -738  -704  -513  -188  159  401  462  283  -171  -746  -1147  -1227  -1059  -790  -542  -367  -255  -182  -103  33  220  379  452  434  328  150  -66  -299  -530  -737  -913  -1054  -1138  -1157  -1128  -1066  -971  -864  -823  -904  -1021  -907  -210  1118  2743  4490  6497  8762  10971  12494  12504  10538  7080  3392  719  -478  -691  -715  -896  -1099  -1148  -1063  -969  -964  -1106  -1398  -1746  -2020  -2133  -2014  -1620  -1076  -609  -299  -131  -152  -355  -648  -954  -1177  -1201  -1045  -880  -858  -955  -999  -866  -614  -391  -257  -162  -40  132  330  502  591  579  482  305  71  -157  -347  -484  -535  -501  -438  -395  -386  -396  -407  -417  -423  -390  -245  54  445  790  963  852  388  -305  -948  -1357  -1524  -1499  -1336  -1110  -930  -854  -850  -847  -785  -634  -433  -276  -234  -316  -494  -711  -887  -966  -902  -622  -135  367  670  711  518  120  -413  -874  -995  -770  -479  -331  -328  -409  -528  -656  -790  -915  -988  -963  -822  -622  -461  -383  -355  -341  -334  -349  -422  -600  -900  -1241  -1471  -1496  -1339  -1090  -829  -600  -492  -567  -730  -842  -866  -838  -816  -840  -896  -935  -927  -870  -748  -546  -310  -129  -39  -12  -6  11  61  129  167  152  105  48  -37  -183  -387  -599  -754  -834  -864  -872  -876  -871  -822  -690  -577  -729  -1079  -1098  -456  706  2188  3910  5939  8341  10733  12187  11776  9316  5685  2341  388  -96  18  -160  -776  -1400  -1693  -1702  -1625  -1542  -1439  -1303  -1163  -1069  -1030  -1009  -966  -880  -770  -687  -655  -644  -631  -625  -635  -651  -634  -545  -389  -281  -363  -611  -835  -898  -817  -671  -477  -187  155  392  439  348  217  133  136  205  289  369  446  466  365  187  48  15  85  247  469  685  846  926  851  507  -79  -666  -1036  -1181  -1204  -1177  -1130  -1077  -1036  -1019  -985  -850  -597  -369  -345  -511  -699  -800  -825  -788  -679  -515  -372  -310  -330  -388  -431  -436  -427  -453  -525  -608  -669  -701  -719  -730  -725  -674  -552  -380  -216  -112  -124  -283  -517  -717  -831  -864  -853  -840  -841  -850  -853  -847  -829  -764  -634  -477  -362  -361  -511  -748  -945  -1038  -1051  -1003  -886  -715  -542  -422  -373  -369  -340  -232  -68  68  135  151  148  147  145  113  18  -132  -300  -460  -595  -678  -710  -716  -715  -691  -613  -494  -390  -334  -331  -396  -537  -753  -982  -1004  -639  48  1011  2357  4176  6484  9062  11238  12064  10868  7872  4263  1387  -102  -385  -109  67  -171  -686  -1121  -1308  -1329  -1303  -1274  -1239  -1187  -1129  -1088  -1058  -1010  -944  -881  -827  -776  -735  -717  -743  -834  -963  -1032  -926  -608  -182  165  306  194  -175  -723  -1232  -1432  -1144  -418  403  934  1072  925  572  81  -418  -784  -901  -686  -152  484  935  1089  949  492  -187  -799  -1106  -1094  -860  -523  -187  81  205  126  -113  -445  -795  -1050  -1154  -1163  -1124  -993  -782  -682  -859  -1203  -1415  -1307  -917  -391  101  400  417  148  -309  -747  -992  -1039  -962  -805  -630  -526  -531  -606  -695  -752  -680  -336  285  937  1289  1077  207  -968  -1812  -2033  -1831  -1520  -1292  -1158  -1009  -764  -467  -232  -100  -29  2  -25  -150  -385  -658  -843  -887  -832  -745  -645  -509  -348  -234  -224  -311  -407  -405  -301  -199  -189  -284  -436  -578  -689  -779  -837  -819  -644  -226  404  1029  1374  1253  628  -246  -917  -1176  -1172  -1093  -1004  -915  -857  -852  -894  -950  -1001  -1057  -1120  -1052  -597  380  1851  3849  6375  9087  11288  12301  11826  9964  7165  4178  1764  382  4  126  108  -395  -1190  -1774  -1910  -1728  -1411  -1080  -811  -638  -557  -536  -553  -631  -792  -1000  -1185  -1311  -1362  -1362  -1375  -1358  -1164  -727  -148  375  675  668  311  -338  -1011  -1405  -1436  -1214  -910  -648  -435  -250  -134  -106  -120  -118  -65  39  154  220  230  242  295  377  453  487  464  414  354  259  105  -102  -307  -435  -469  -466  -488  -549  -608  -606  -535  -440  -368  -332  -327  -379  -526  -746  -944  -1042  -1029  -928  -774  -613  -471  -362  -297  -262  -232  -201  -179  -177  -199  -238  -299  -404  -547  -675  -742  -757  -760  -770  -780  -780  -771  -765  -769  -782  -781  -718  -547  -317  -173  -236  -498  -819  -1031  -1050  -871  -527  -90  325  584  552  130  -614  -1359  -1770  -1742  -1366  -867  -512  -397  -441  -558  -691  -796  -854  -850  -758  -609  -496  -495  -609  -772  -887  -875  -685  -321  103  434  594  621  586  509  389  219  15  -168  -304  -421  -519  -579  -608  -612  -609  -619  -636  -646  -653  -672  -726  -830  -918  -806  -426  -1  281  672  1737  3854  6920  10345  13029  13861  12560  9661  6042  2770  659  -267  -555  -694  -820  -933  -1075  -1206  -1235  -1140  -947  -776  -795  -1023  -1292  -1453  -1476  -1388  -1217  -1023  -892  -854  -873  -905  -939  -977  -1012  -990  -835  -559  -306  -203  -241  -320  -364  -378  -397  -408  -356  -223  -66  35  59  42  54  155  350  564  711  754  644  336  -73  -379  -470  -370  -131  145  335  392  343  219  63  -88  -276  -546  -837  -1064  -1201  -1194  -1005  -742  -571  -524  -521  -503  -483  -494  -514  -502  -466  -441  -435  -449  -486  -517  -477  -358  -247  -197  -181  -182  -258  -473  -769  -985  -1032  -950  -829  -725  -630  -524  -444  -460  -563  -630  -562  -414  -291  -218  -150  -39  105  212  202  26  -283  -590  -777  -854  -883  -882  -818  -688  -544  -449  -416  -421  -459  -545  -658  -742  -755  -681  -530  -358  -230  -154  -104  -87  -131  -220  -319  -404  -456  -472  -465  -452  -445  -462  -513  -581  -618  -583  -455  -247  -25  124  180  187  168  98  -43  -176  -164  14  245  420  516  560  560  446  109  -432  -965  -1258  -1284  -1181  -1075  -997  -924  -839  -725  -484  -27  521  905  1241  2245  4588  8122  11844  14307  14300  11754  7862  4121  1507  306  188  521  791  654  40  -664  -1048  -1109  -1055  -1019  -1033  -1091  -1170  -1245  -1295  -1256  -1011  -526  -6  221  -29  -649  -1298  -1660  -1610  -1172  -542  -45  133  52  -133  -305  -412  -459  -469  -453  -400  -298  -148  37  212  291  232  93  -33  -106  -137  -129  -38  193  545  908  1181  1288  1062  354  -617  -1349  -1577  -1351  -789  -102  406  574  421  38  -395  -678  -740  -641  -447  -168  209  621  927  1027  828  263  -479  -1011  -1157  -1038  -839  -665  -531  -401  -232  -14  201  349  400  364  247  87  -45  -114  -139  -143  -139  -132  -117  -65  27  106  141  188  277  355  360  308  259  230  168  16  -190  -345  -397  -386  -347  -285  -221  -185  -184  -191  -157  -51  85  136  22  -204  -409  -499  -453  -283  -60  104  167  152  73  -52  -166  -223  -229  -216  -206  -214  -259  -343  -440  -506  -506  -454  -401  -367  -327  -256  -165  -66  62  238  440  613  681  597  386  135  -76  -214  -304  -404  -521  -607  -635  -639  -657  -691  -720  -719  -669  -542  -298  -5  2  -512  -1187  -1422  -814  983  4041  7853  11538  13954  14053  11632  7571  3379  406  -821  -770  -437  -554  -1148  -1794  -2088  -2018  -1841  -1723  -1705  -1791  -1941  -2088  -2192  -2246  -2261  -2237  -2157  -2025  -1889  -1805  -1794  -1843  -1915  -1968  -1997  -2030  -2073  -2107  -2105  -2047  -1930  -1774  -1622  -1530  -1523  -1583  -1666  -1734  -1779  -1808  -1822  -1824  -1840  -1895  -1981  -2048  -2050  -1960  -1749  -1369  -845]
