reading_id,reading_time,wire_id,result_classification,heart_rate,heart_rate_alert,firmware_version,device_app_version,hardware_version,waveform_samples
bd4f3910-5cc2-11ed-8080-808080808080,Sat Nov 05 04:31:38 UTC 2022,e100e3fd2639,NSR,66,NONE,20001.171.50,2.10.0,Charge 5,[0  535  947  1195  1295  1265  1123  928  756  636  552  495  439  347  250  209  220  237  241  252  306  401  459  431  400  443  495  466  361  212  32  -124  -190  -152  -59  51  179  304  355  290  164  70  36  31  37  72  144  210  221  189  166  162  147  98  38  14  68  224  430  573  586  505  407  325  241  167  134  137  156  180  189  131  -35  -261  -445  -546  -585  -590  -585  -581  -579  -574  -566  -562  -563  -558  -524  -454  -368  -255  -81  110  235  282  281  242  167  87  59  120  246  371  442  411  207  -175  -587  -863  -984  -1018  -997  -931  -842  -744  -642  -558  -545  -674  -997  -1391  -1454  -800  586  2524  4951  7651  9931  11085  10749  8703  5391  2172  86  -845  -960  -642  -398  -434  -530  -532  -495  -467  -444  -413  -376  -340  -316  -330  -417  -573  -732  -828  -864  -873  -869  -818  -688  -501  -311  -113  96  276  404  497  555  566  531  469  435  484  619  782  916  1005  1061  1114  1207  1369  1565  1732  1832  1880  1926  1992  2060  2130  2235  2381  2522  2632  2698  2696  2616  2467  2230  1904  1557  1265  1039  858  691  506  321  201  159  122  -13  -294  -683  -1068  -1297  -1323  -1239  -1144  -1068  -1018  -993  -982  -973  -968  -990  -1062  -1152  -1187  -1150  -1090  -1048  -1023  -987  -935  -929  -982  -986  -894  -793  -748  -738  -731  -709  -673  -645  -644  -672  -712  -773  -883  -1020  -1118  -1137  -1073  -938  -753  -567  -453  -456  -569  -724  -836  -880  -889  -881  -860  -844  -853  -891  -939  -962  -930  -848  -755  -695  -691  -745  -850  -966  -1017  -953  -807  -671  -602  -592  -607  -632  -669  -712  -736  -726  -690  -670  -697  -752  -823  -926  -1026  -1068  -1056  -1026  -1004  -993  -991  -1002  -1035  -1084  -1120  -1126  -1096  -1034  -957  -898  -864  -839  -821  -825  -849  -854  -818  -765  -747  -790  -850  -831  -695  -506  -351  -272  -259  -292  -355  -418  -446  -445  -436  -416  -361  -281  -226  -276  -474  -755  -978  -1081  -1112  -1122  -1129  -1138  -1156  -1169  -1107  -857  -470  -288  -545  -948  -965  -289  1091  3066  5369  7459  8724  8764  7480  5193  2688  853  -40  -481  -932  -1415  -1775  -1858  -1628  -1259  -941  -769  -792  -1008  -1316  -1564  -1671  -1654  -1516  -1250  -926  -640  -412  -274  -352  -684  -1103  -1387  -1445  -1310  -1052  -751  -494  -333  -264  -252  -257  -232  -140  12  184  341  471  566  629  675  736  859  1098  1411  1668  1798  1830  1820  1810  1822  1858  1897  1914  1917  1917  1886  1772  1572  1341  1121  924  752  545  208  -262  -746  -1105  -1285  -1332  -1320  -1298  -1274  -1241  -1239  -1324  -1485  -1617  -1629  -1548  -1478  -1460  -1449  -1401  -1340  -1335  -1390  -1437  -1440  -1408  -1350  -1280  -1208  -1119  -994  -821  -638  -520  -491  -507  -526  -537  -540  -541  -540  -533  -501  -432  -359  -365  -518  -800  -1089  -1251  -1229  -1019  -666  -313  -113  -122  -320  -627  -925  -1131  -1222  -1201  -1088  -933  -790  -661  -524  -421  -426  -557  -751  -915  -998  -1018  -994  -907  -726  -512  -400  -461  -616  -740  -786  -784  -767  -730  -682  -681  -781  -918  -961  -872  -739  -676  -727  -837  -922  -953  -959  -963  -942  -850  -669  -448  -258  -141  -95  -92  -104  -123  -155  -206  -274  -327  -335  -314  -340  -501  -799  -1106  -1293  -1349  -1339  -1309  -1261  -1178  -1072  -1005  -1021  -1117  -1262  -1423  -1549  -1533  -1267  -734  9  933  2240  4260  6822  9123  10295  9747  7454  4366  1821  386  -150  -164  -28  32  38  0  -121  -287  -469  -652  -775  -761  -581  -303  -70  19  -13  -83  -118  -106  -74  -37  5  76  206  376  482  480  455  500  652  895  1126  1265  1332  1348  1313  1269  1267  1331  1454  1626  1841  2057  2243  2416  2572  2660  2686  2738  2891  3110  3272  3294  3194  3053  2954  2927  2948  2991  3039  3050  2930  2588  2079  1603  1304  1175  1131  1091  998  832  621  408  179  -132  -530  -897  -1107  -1149  -1081  -948  -803  -707  -678  -681  -664  -594  -490  -427  -475  -618  -719  -673  -551  -469  -445  -416  -320  -159  -25  -18  -168  -401  -588  -668  -676  -668  -673  -685  -672  -599  -461  -294  -156  -83  -65  -68  -70  -67  -66  -76  -88  -88  -104  -207  -415  -649  -804  -853  -838  -789  -706  -585  -459  -373  -326  -284  -233  -185  -178  -280  -488  -688  -785  -795  -773  -730  -627  -444  -247  -122  -88  -120  -211  -369  -550  -683  -752  -791  -791  -733  -662  -646  -705  -797  -855  -849  -813  -786  -772  -754  -710  -626  -523  -451  -444  -500  -586  -651  -661  -604  -475  -303  -164  -105  -122  -207  -355  -522  -638  -678  -672  -639  -575  -494  -441  -487  -682  -978  -1247  -1408  -1474  -1482  -1431  -1302  -1124  -985  -931  -898  -778  -642  -676  -782  -583  264  1987  4553  7477  9921  11041  10343  7951  4627  1412  -813  -1716  -1666  -1307  -1006  -860  -859  -898  -893  -861  -839  -833  -840  -852  -860  -855  -827  -774  -712  -655  -602  -547  -493  -462  -485  -565  -670  -750  -778  -739  -612  -416  -216  -56  57  157  292  451  567  607  588  533  467  450  555  796  1077  1277  1389  1515  1739  2017  2229  2320  2338  2355  2411  2490  2536  2479  2291  2030  1788  1586  1388  1186  1008  828  548  147  -236  -449  -469  -366  -220  -102  -87  -273  -707  -1233  -1581  -1610  -1376  -1051  -819  -743  -773  -862  -977  -1097  -1213  -1301  -1340  -1325  -1272  -1218  -1188  -1147  -1032  -815  -554  -371  -358  -533  -834  -1120  -1276  -1297  -1231  -1119  -1000  -910  -861  -842  -841  -852  -867  -882  -896  -911  -919  -884  -778  -639  -536  -492  -479  -472  -461  -449  -445  -484  -625  -879  -1136  -1250  -1172  -977  -778  -639  -581  -603  -691  -813  -902  -912  -873  -838  -815  -791  -765  -746  -734  -722  -716  -738  -810  -925  -1018  -1020  -958  -928  -959  -988  -944  -802  -623  -499  -453  -454  -487  -547  -613  -662  -702  -752  -787  -756  -640  -479  -344  -290  -310  -353  -393  -449  -528  -599  -618  -567  -462  -337  -224  -144  -92  -52  -26  -25  -39  -52  -44  -6  50  84  68  38  34  23  -72  -283  -543  -749  -849  -855  -819  -775  -707  -611  -560  -620  -763  -923  -1051  -1072  -890  -429  325  1312  2603  4459  6846  9147  10486  10165  8136  5181  2374  528  -83  95  418  581  395  -160  -717  -981  -1020  -994  -948  -853  -702  -537  -399  -301  -242  -216  -210  -196  -155  -82  2  50  18  -106  -294  -418  -313  -2  304  470  516  509  488  464  454  516  706  975  1191  1290  1315  1341  1403  1490  1609  1793  2043  2326  2578  2718  2697  2524  2282  2095  2019  2010  2022  2065  2169  2292  2287  2022  1558  1120  883  838  860  784  481  -6  -469  -743  -839  -848  -828  -802  -789  -798  -820  -835  -838  -843  -872  -922  -952  -931  -885  -856  -870  -945  -1065  -1170  -1188  -1093  -928  -774  -697  -754  -983  -1287  -1467  -1428  -1266  -1126  -1047  -992  -944  -925  -937  -960  -987  -1014  -1019  -951  -771  -536  -366  -320  -370  -476  -601  -717  -804  -827  -768  -677  -617  -610  -642  -687  -729  -770  -813  -841  -837  -811  -788  -813  -919  -1065  -1158  -1121  -943  -703  -532  -476  -485  -505  -525  -570  -683  -849  -958  -937  -854  -798  -782  -773  -745  -698  -649  -603  -556  -529  -540  -577  -652  -805  -1020  -1216  -1337  -1389  -1397  -1375  -1316  -1220  -1098  -947  -781  -643  -535  -419  -316  -265  -239  -191  -137  -125  -144  -148  -142  -170  -234  -273  -271  -312  -431  -539  -572  -559  -560  -579  -573  -551  -581  -711  -894  -1023  -1064  -1081  -1143  -1242  -1300  -1237  -1066  -901  -765  -506  63  1162  3004  5471  7944  9639  9955  8638  6075  3322  1326  220  -358  -691  -959  -1224  -1347  -1236  -988  -737  -547  -421  -354  -376  -499  -640  -675  -598  -502  -430  -340  -230  -170  -227  -384  -534  -568  -457  -235  35  266  375  344  197  -20  -239  -380  -382  -191  184  598  882  1045  1221  1456  1673  1794  1823  1810  1798  1816  1890  2033  2218  2375  2465  2508  2542  2571  2569  2504  2374  2215  2069  1950  1848  1744  1594  1336  919  390  -78  -337  -409  -450  -599  -846  -1059  -1170  -1237  -1300  -1339  -1340  -1315  -1264  -1173  -1047  -929  -863  -846  -847  -854  -873  -916  -972  -1013  -1031  -1045  -1085  -1149  -1189  -1165  -1096  -1028  -975  -917  -831  -734  -669  -674  -717  -722  -660  -574  -506  -473  -469  -476  -484  -496  -523  -575  -648  -730  -810  -885  -962  -1042  -1101  -1095  -1026  -944  -871  -790  -730  -788  -1012  -1306  -1516  -1593  -1585  -1528  -1422  -1288  -1176  -1098  -1032  -968  -918  -897  -918  -988  -1064  -1082  -1037  -978  -932  -865  -771  -741  -857  -1058  -1189  -1157  -990  -755  -515  -324  -205  -144  -128  -170  -302  -510  -730  -905  -1025  -1107  -1157  -1172  -1165  -1161  -1177  -1206  -1220  -1210  -1207  -1222  -1242  -1266  -1292  -1346  -1437  -1352  -734  548  2364  4504  6694  8482  9260  8573  6522  3821  1438  53  -321  -216  -178  -335  -567  -809  -995  -1057  -1025  -949  -817  -624  -434  -340  -362  -428  -446  -372  -220  -48  59  18  -202  -514  -742  -769  -585  -265  81  392  652  824  877  839  773  728  715  729  784  890  1044  1281  1680  2226  2737  3008  2946  2568  2053  1686  1656  1970  2474  2923  3169  3243  3232  3174  3053  2853  2617  2413  2254  2105  1964  1839  1677  1367  874  325  -110  -365  -462  -475  -526  -707  -979  -1210  -1324  -1360  -1390  -1475  -1656  -1890  -2053  -2078  -2014  -1950  -1925  -1925  -1931  -1942  -1960  -1974  -1965  -1927  -1877  -1833  -1806  -1802  -1806  -1782  -1702  -1579  -1448  -1312  -1167  -1037  -932  -839  -762  -726  -742  -794  -873  -966  -1031  -1046  -1026  -966  -868  -780  -733  -707  -681  -665  -667  -666  -637  -598  -614  -697  -776  -772  -663  -502  -380  -331  -339  -406  -555  -778  -1014  -1196  -1294  -1309  -1217  -962  -562  -175  -17  -205  -650  -1109  -1372  -1397  -1232  -949  -645  -372  -99  173  371  450  403  233  17  -100  -46  108  245  314  330  323  296  246  175  83  -37  -175  -291  -354  -378  -392  -419  -460  -494  -503  -507  -557  -696  -916  -1138  -1231  -1091  -732  -265  265  1089  2584  4884  7646  10040  11082  10301  7997  4938  2055  72  -798  -805  -532  -452  -593  -841  -1087  -1221  -1252  -1271  -1331  -1414  -1456  -1427  -1361  -1287  -1201  -1123  -1086  -1090  -1102  -1077  -980  -832  -706  -639  -599  -544  -485  -468  -527  -638  -744  -788  -690  -370  105  543  820  950  990  993  997  1042  1169  1369  1568  1698  1781  1870  1982  2089  2145  2128  2079  2062  2121  2268  2477  2681  2783  2629  2098  1353  781  566  580  655  711  685  497  136  -284  -625  -831  -925  -962  -981  -983  -963  -931  -905  -900  -905  -897  -879  -865  -850  -827  -802  -788  -793  -827  -904  -1002  -1074  -1101  -1096  -1053  -938  -741  -532  -408  -408  -505  -636  -729  -759  -749  -722  -686  -647  -623  -658  -786  -955  -1058  -1041  -928  -816  -800  -862  -906  -906  -901  -900  -894  -900  -929  -932  -778  -352  226  661  781  589  153  -354  -736  -929  -963  -877  -758  -683  -653  -632  -600  -571  -555  -535  -495  -456  -448  -490  -564  -631  -672  -681  -666  -646  -636  -634  -633  -635  -648  -677  -706  -701  -638  -545  -480  -459  -447  -398  -292  -144  1  115  190  197  143  56  -64  -199  -304  -363  -383  -380  -366  -355  -374  -468  -644  -840  -994  -1094  -1124  -1056  -910  -755  -663  -672  -760  -891  -1060  -1210  -1142  -685  215  1661  3702  6106  8459  10197  10573  9192  6575  3710  1359  -49  -586  -805  -1017  -1106  -1060  -990  -929  -872  -807  -748  -724  -743  -791  -837  -843  -785  -697  -682  -788  -915  -929  -792  -586  -432  -370  -363  -402  -534  -770  -1020  -1149  -1054  -683  -93  496  843  880  695  429  219  131  179  380  696  1005  1217  1360  1507  1683  1842  1926  1948  1982  2096  2312  2564  2750  2832  2811  2632  2236  1694  1192  875  757  762  806  830  753  466  -38  -574  -916  -1023  -1010  -983  -967  -942  -891  -825  -768  -742  -753  -798  -877  -971  -1036  -1040  -986  -908  -853  -846  -887  -954  -1019  -1067  -1109  -1141  -1124  -1000  -754  -531  -545  -784  -1034  -1147  -1094  -945  -817  -763  -741  -693  -597  -496  -464  -515  -590  -664  -771  -894  -931  -811  -598  -421  -337  -327  -395  -577  -835  -1046  -1124  -1091  -1020  -962  -915  -870  -855  -905  -988  -1017  -939  -777  -596  -470  -445  -487  -542  -594  -628  -639  -653  -687  -738  -797  -849  -884  -896  -872  -809  -725  -639  -543  -433  -347  -333  -403  -528  -647  -707  -706  -672  -632  -603  -581  -557  -541  -543  -549  -513  -393  -221  -82  -30  -75  -228  -448  -633  -714  -683  -561  -397  -264  -196  -198  -272  -394  -540  -707  -875  -998  -1054  -1055  -1025  -975  -906  -843  -792  -737  -662  -528  -378  -341  -343  -73  814  2599  5194  7934  9877  10204  8636  5768  2756  544  -558  -833  -765  -670  -697  -806  -799  -666  -571  -561  -576  -577  -553  -505  -439  -369  -338  -374  -442  -491  -498  -464  -409  -367  -327  -252  -141  -23  86  183  242  258  249  237  239  277  372  522  687  803  852  871  904  965  1079  1289  1570  1815  1950  2003  2060  2199  2403  2574  2654  2678  2702  2741  2767  2735  2602  2385  2161  1969  1743  1407  1021  735  579  414  123  -234  -517  -664  -703  -679  -638  -627  -667  -748  -886  -1097  -1315  -1445  -1450  -1358  -1234  -1145  -1113  -1114  -1104  -1043  -945  -869  -844  -848  -850  -830  -783  -724  -672  -630  -592  -586  -653  -800  -966  -1067  -1071  -996  -888  -801  -756  -743  -745  -755  -765  -759  -703  -584  -467  -464  -595  -774  -919  -1002  -1036  -1037  -1004  -921  -780  -599  -451  -427  -578  -882  -1231  -1467  -1494  -1306  -982  -685  -559  -618  -767  -900  -982  -1021  -1015  -947  -840  -770  -769  -799  -837  -876  -889  -872  -844  -798  -704  -537  -332  -171  -100  -97  -119  -137  -145  -163  -225  -350  -523  -708  -853  -919  -921  -900  -879  -869  -869  -876  -894  -928  -963  -993  -1045  -1180  -1398  -1504  -1221  -530  326  1177  2180  3702  5838  8126  9751  9955  8470  5812  3043  997  -192  -794  -1043  -1058  -918  -730  -612  -610  -690  -793  -862  -887  -888  -873  -833  -765  -691  -646  -639  -645  -632  -578  -498  -436  -414  -417  -429  -436  -430  -390  -280  -91  106  209  199  172  227  368  530  676  801  896  954  1002  1059  1125  1191  1243  1301  1427  1650  1915  2144  2300  2412  2511  2583  2610  2574  2444  2203  1880  1558  1336  1246  1234  1218  1125  910  567  98  -433  -866  -1083  -1119  -1067  -996  -971  -1034  -1161  -1282  -1345  -1351  -1329  -1280  -1176  -1031  -905  -829  -804  -824  -871  -913  -936  -950  -971  -999  -1020  -1027  -1028  -1031  -1035  -1024  -978  -907  -850  -835  -845  -839  -775  -650  -513  -427  -404  -411  -410  -389  -356  -335  -352  -418  -508  -573  -604  -627  -662  -699  -722  -728  -718  -688  -644  -606  -593  -632  -746  -900  -1020  -1069  -1042  -940  -796  -677  -625  -626  -614  -532  -422  -364  -398  -525  -696  -823  -865  -833  -742  -630  -551  -524  -523  -529  -548  -595  -656  -693  -690  -669  -648  -592  -452  -253  -80  37  112  136  98  26  -38  -90  -146  -212  -283  -356  -437  -532  -631  -720  -794  -859  -917  -941  -885  -768  -705  -780  -953  -1147  -1302  -1388  -1325  -889  33  1289  2860  4953  7443  9691  10944  10589  8492  5397  2465  464  -415  -445  -177  -30  -107  -332  -560  -684  -702  -635  -479  -258  -61  44  65  32  -38  -128  -200  -236  -249  -254  -252  -242  -229  -217  -204  -190  -178  -160  -101  38  222  360  418  425  420  436  501  629  797  960  1085  1182  1290  1419  1510  1520  1514  1580  1702  1803  1846  1862  1895  1945  1984  2003  2021  2042  2011  1829  1460  1019  689  546  504  409  172  -176  -499  -676  -713  -686  -646  -624  -672  -847  -1113  -1337  -1435  -1432  -1397  -1377  -1378  -1370  -1335  -1286  -1247  -1224  -1208  -1193  -1186  -1188  -1170  -1123  -1077  -1054  -1045  -1037  -1026  -1016  -1011  -1015  -1030  -1052  -1073  -1087  -1088  -1064  -1006  -922  -832  -750  -680  -630  -611  -615  -606  -578  -563  -575  -600  -634  -704  -839  -1018  -1175  -1251  -1206  -1018  -742  -491  -335  -269  -259  -286  -356  -473  -624  -761  -812  -758  -649  -559  -529  -542  -544  -504  -440  -405  -403  -407  -421  -430  -400  -331  -241  -148  -82  -83  -180  -364  -559  -682  -717  -673  -536  -322  -119  -34  -102  -272  -458  -604  -709  -785  -835  -860  -848  -783  -690  -610  -564  -546  -533  -496  -423  -340  -280  -256  -255  -251  -216  -137  -36  47  103  149  197  239  258  250  216  151  51  -85  -243  -381  -469  -519  -568  -651  -783  -933  -1044  -1092  -1096  -1083  -1078  -1090  -1105  -1106  -1073  -998  -885  -662  -197  657  2100  4203  6699  9033  10508  10551  8993  6252  3293  1130  157  6  76  -2  -276  -592  -831  -988  -1056  -1024  -932  -832  -760  -724  -723  -745  -776  -804  -821  -826  -820  -803  -783  -765  -758  -768  -790  -783  -669  -405  -83  138  205  160  49  -65  -80  68  309  508  636  752  866  938  961  974  1012  1077  1175  1346  1599  1876  2104  2244  2309  2336  2350  2355  2356  2363  2389  2409  2324  2002  1435  840  465  343  351  388  387  260  -84  -583  -1005  -1193  -1176  -1055  -920  -843  -834  -853  -874  -899  -929  -946  -947  -956  -972  -969  -962  -1006  -1113  -1237  -1318  -1344  -1338  -1323  -1296  -1228  -1083  -898  -765  -718  -716  -723  -753  -837  -964  -1076  -1133  -1131  -1059  -897  -664  -441  -334  -384  -554  -765  -951  -1064  -1087  -1033  -911  -720  -519  -424  -487  -628  -714  -678  -553  -411  -305  -264  -316  -467  -680  -877  -982  -970  -859  -689  -513  -421  -489  -675  -840  -914  -920  -891  -835  -756  -675  -616  -585  -560  -524  -470  -403  -331  -277  -255  -262  -280  -310  -367  -445  -506  -532  -536  -537  -531  -493  -408  -317  -289  -355  -474  -584  -657  -692  -683  -626  -550  -511  -567  -721  -871  -874  -723  -552  -453  -424  -425  -429  -438  -467  -524  -581  -587  -494  -282  40  436  816  1042  995  628  63  -420  -647  -663  -577  -435  -270  -141  -87  -89  -118  -151  -172  -176  -163  -140  -127  -179  -342  -566  -742  -838  -880  -844  -743  -694  -741  -791  -754  -498  213  1616  3773  6423  8951  10519  10461  8799  6229  3634  1710  702  333  201  141  82  -97  -426  -770  -979  -1016  -941  -826  -710  -599  -512  -484  -480  -426  -314  -203  -136  -113  -110  -120  -165  -266  -374  -399  -328  -234  -177  -161  -168  -175  -148  -46  123  283  400  528  693  896  1151  1422  1615  1698  1714  1711  1711  1726  1753  1786  1844  1983  2233  2516  2703  2746  2676  2529  2342  2154  1991  1844  1634  1306  946  693  553  428  268  91  -95  -295  -462  -553  -591  -635  -731  -890  -1066  -1186  -1231  -1240  -1246  -1251  -1238  -1198  -1143  -1103  -1091  -1097  -1113  -1131  -1147  -1156  -1149  -1103  -991  -829  -689  -626  -632  -655  -660  -647  -653  -728  -885  -1035  -1073  -1009  -917  -832  -764  -718  -704  -743  -839  -956  -1031  -1019  -913  -765  -661  -661  -762  -905  -1010  -1041  -1011  -941  -861  -792  -731  -673  -633  -613  -600  -582  -565  -565  -583  -602  -613  -612  -589  -527  -428  -313  -220  -201  -301  -511  -756  -944  -1008  -943  -803  -659  -527  -407  -353  -414  -535  -643  -714  -751  -760  -748  -704  -611  -471  -338  -274  -296  -371  -414  -355  -212  -76  -54  -204  -467  -710  -850  -881  -821  -695  -545  -409  -305  -242  -213  -196  -187  -196  -228  -281  -337  -379  -408  -433  -436  -394  -326  -271  -249  -254  -240  -160  -10  171  336  431  431  356  243  141  60  -32  -143  -262  -376  -433  -392  -306  -285  -360  -445  -486  -549  -726  -983  -1183  -1220  -1060  -731  -336  -24  37  -311  -973  -1406  -1045  211  2220  4807  7485  9511  10338  9704  7619  4641  1764  -202  -988  -820  -170  474  642  129  -686  -1283  -1519  -1507  -1353  -1113  -876  -733  -694  -698  -691  -653  -593  -535  -499  -496  -543  -656  -801  -895  -862  -677  -424  -240  -185  -212  -262  -293  -261  -123  104  362  626  867  1011  1030  978  923  890  899  1003  1237  1564  1922  2262  2516  2608  2503  2233  1911  1676  1579  1574  1610  1672  1741  1754  1647  1428  1193  1033  924  786  615  483  391  233  -99  -593  -1074  -1329  -1317  -1197  -1120  -1106  -1106  -1093  -1082  -1103  -1163  -1232  -1278  -1287  -1277  -1274  -1273  -1237  -1130  -969  -816  -723  -695  -703  -715  -716  -709  -701  -694  -695  -728  -839  -1027  -1170  -1120  -919  -739  -648  -626  -658  -720  -769  -759  -665  -534  -442  -412  -409  -412  -440  -520  -643  -766  -877  -978  -1039  -1018  -907  -764  -673  -648  -644  -641  -639  -621  -562  -500  -515  -616  -720  -776  -801  -815  -811  -782  -742  -718  -717  -716  -672  -564  -426  -322  -285  -316  -407  -538  -674  -781  -844  -863  -846  -761  -541  -161  254  506  440  21  -577  -1048  -1230  -1167  -946  -669  -450  -325  -249  -182  -135  -131  -140  -100  9  151  275  360  391  321  85  -305  -733  -1043  -1163  -1131  -1044  -981  -961  -965  -979  -998  -1015  -1033  -1054  -1002  -718  -109  853  2168  3728  5461  7301  8774  9125  8018  5687  2792  327  -971  -1193  -918  -593  -410  -416  -525  -619  -667  -672  -653  -643  -656  -674  -679  -672  -657  -619  -552  -491  -468  -472  -485  -498  -508  -502  -463  -405  -373  -375  -361  -295  -206  -153  -158  -187  -140  98  526  961  1212  1274  1269  1291  1345  1399  1465  1558  1645  1719  1835  2006  2172  2289  2384  2510  2652  2720  2656  2514  2389  2306  2218  2041  1705  1271  907  690  560  446  313  154  -7  -129  -210  -309  -495  -752  -1018  -1270  -1485  -1608  -1615  -1543  -1452  -1385  -1344  -1325  -1323  -1319  -1282  -1191  -1060  -933  -873  -900  -963  -1003  -1013  -1005  -985  -949  -901  -852  -825  -844  -916  -1006  -1064  -1067  -1022  -936  -827  -730  -663  -619  -590  -576  -571  -564  -552  -558  -629  -757  -872  -936  -989  -1054  -1106  -1124  -1123  -1123  -1111  -1033  -855  -670  -639  -763  -886  -895  -793  -645  -532  -493  -540  -681  -874  -1028  -1097  -1103  -1067  -991  -897  -825  -788  -734  -604  -430  -312  -314  -415  -530  -588  -597  -588  -548  -454  -318  -182  -83  -46  -84  -185  -300  -353  -309  -220  -161  -189  -362  -681  -1018  -1200  -1178  -1029  -855  -714  -627  -593  -626  -779  -1085  -1431  -1517  -1025  115  1705  3481  5217  6743  7996  8792  8616  7124  4678  2093  158  -701  -640  -234  -49  -227  -488  -613  -627  -613  -609  -626  -665  -693  -655  -560  -478  -447  -444  -441  -432  -412  -361  -273  -177  -104  -76  -77  -46  39  136  216  280  318  313  266  205  169  191  306  540  850  1150  1401  1592  1698  1724  1708  1692  1716  1815  1973  2155  2364  2586  2738  2748  2650  2540  2472  2421  2346  2245  2135  1974  1696  1313  922  594  339  164  58  -65  -311  -633  -866  -939  -925  -916  -953  -1026  -1090  -1122  -1131  -1130  -1110  -1048  -933  -782  -632  -544  -570  -723  -931  -1081  -1134  -1135  -1120  -1077  -965  -779  -603  -554  -632  -724  -771  -812  -890  -977  -1039  -1077  -1083  -1058  -1023  -975  -923  -886  -862  -846  -837  -821  -788  -759  -776  -849  -934  -979  -981  -972  -965  -955  -942  -937  -949  -975  -995  -991  -966  -918  -845  -771  -725  -709  -708  -727  -790  -896  -1002  -1064  -1081  -1066  -1026  -961  -877  -793  -735  -709  -696  -689  -700  -737  -781  -788  -718  -559  -366  -236  -234  -356  -533  -682  -769  -794  -749  -638  -479  -307  -178  -129  -149  -191  -213  -228  -300  -471  -687  -846  -924  -965  -1000  -1015  -993  -952  -921  -911  -918  -974  -1072  -1052  -727  -167  365  930  2022  3945  6464  8951  10546  10499  8679  5726  2672  407  -690  -833  -454  60  263  -59  -558  -832  -893  -922  -985  -1024  -998  -967  -985  -1030  -1069  -1088  -1068  -972  -794  -601  -470  -397  -341  -329  -398  -500  -562  -550  -451  -248  55  378  587  614  497  329  204  156  185  303  518  833  1260  1717  2021  2077  1942  1745  1607  1595  1721  1950  2185  2339  2400  2409  2395  2325  2157  1919  1712  1604  1567  1465  1131  565  9  -300  -366  -335  -310  -313  -341  -408  -522  -656  -781  -889  -981  -1042  -1062  -1053  -1036  -1029  -1058  -1132  -1213  -1255  -1241  -1170  -1048  -899  -763  -674  -636  -633  -640  -627  -588  -551  -543  -572  -642  -745  -847  -891  -849  -761  -681  -624  -580  -549  -535  -526  -522  -546  -627  -767  -912  -999  -1000  -907  -739  -566  -465  -450  -493  -559  -616  -642  -643  -646  -672  -695  -677  -648  -643  -637  -619  -595  -558  -525  -531  -593  -699  -803  -864  -882  -879  -865  -831  -789  -796  -872  -949  -950  -877  -773  -685  -642  -656  -710  -766  -789  -793  -804  -804  -760  -690  -657  -701  -797  -884  -919  -854  -645  -348  -98  62  209  347  353  147  -197  -514  -669  -630  -441  -199  -22  44  19  -103  -332  -599  -796  -861  -818  -728  -635  -549  -475  -437  -452  -502  -547  -563  -536  -464  -426  -497  -527  -226  632  2165  4308  6739  8918  10178  9971  8223  5438  2549  524  -249  -123  262  372  -36  -688  -1079  -1120  -1060  -1030  -996  -911  -791  -699  -683  -752  -862  -948  -977  -944  -852  -734  -649  -612  -581  -514  -415  -332  -297  -288  -243  -124  25  116  124  91  76  149  360  659  922  1076  1133  1133  1113  1105  1155  1307  1543  1788  1978  2094  2177  2288  2447  2613  2730  2769  2745  2676  2526  2252  1888  1538  1271  1075  926  821  718  503  104  -360  -694  -857  -938  -978  -953  -836  -668  -534  -501  -603  -843  -1130  -1323  -1362  -1281  -1135  -965  -789  -633  -535  -515  -580  -730  -922  -1081  -1157  -1128  -999  -822  -672  -576  -519  -496  -550  -725  -966  -1150  -1213  -1165  -1027  -852  -728  -697  -738  -811  -875  -920  -958  -973  -920  -750  -452  -86  232  398  337  25  -426  -792  -950  -960  -931  -910  -898  -880  -848  -810  -767  -697  -587  -446  -308  -227  -265  -456  -733  -957  -1049  -1035  -965  -873  -782  -684  -571  -473  -448  -517  -620  -686  -693  -670  -651  -647  -647  -655  -686  -737  -785  -812  -818  -815  -812  -815  -829  -849  -861  -853  -824  -788  -757  -725  -697  -694  -740  -842  -970  -1070  -1092  -998  -776  -494  -277  -185  -180  -224  -308  -411  -479  -451  -304  -92  90  221  341  412  261  -230  -904  -1428  -1632  -1554  -1283  -947  -709  -633  -669  -770  -913  -1065  -1190  -1210  -961  -319  686  1975  3456  5020  6703  8449  9661  9532  7847  5202  2642  1041  554  629  496  -169  -941  -1282  -1222  -1079  -999  -967  -959  -966  -972  -953  -880  -765  -652  -563  -497  -460  -453  -463  -467  -436  -342  -189  -61  -71  -213  -355  -386  -295  -150  -28  75  226  442  656  793  829  792  739  716  765  951  1235  1449  1519  1535  1604  1751  1935  2084  2158  2184  2226  2303  2364  2375  2363  2365  2382  2375  2292  2110  1819  1418  982  623  368  178  12  -197  -473  -732  -901  -986  -1017  -1009  -985  -973  -988  -1015  -1030  -1012  -954  -876  -820  -802  -804  -810  -828  -875  -945  -1016  -1084  -1150  -1181  -1132  -1003  -855  -755  -716  -709  -709  -707  -701  -681  -647  -602  -537  -453  -399  -472  -740  -1119  -1401  -1445  -1241  -883  -543  -365  -371  -506  -680  -800  -843  -845  -836  -812  -762  -702  -664  -661  -667  -639  -551  -438  -387  -430  -501  -524  -510  -539  -660  -822  -921  -898  -754  -532  -316  -175  -112  -107  -182  -369  -623  -831  -929  -941  -908  -854  -801  -766  -757  -763  -779  -791  -762  -646  -460  -284  -178  -154  -247  -503  -851  -1109  -1170  -1049  -811  -547  -346  -245  -227  -292  -456  -674  -830  -845  -731  -555  -390  -258  -161  -129  -175  -254  -302  -294  -252  -200  -157  -120  -58  33  111  107  -8  -175  -315  -454  -671  -940  -1157  -1269  -1286  -1225  -1104  -971  -870  -818  -830  -893  -983  -1059  -914  -304  806  2416  4526  6909  9016  10103  9637  7670  4813  1976  -29  -880  -790  -251  206  240  -131  -616  -950  -1072  -1073  -1043  -1013  -981  -945  -914  -884  -834  -746  -630  -514  -412  -330  -291  -299  -326  -378  -464  -505  -427  -254  -67  57  109  139  173  210  269  390  593  845  1068  1196  1233  1241  1299  1458  1713  1980  2160  2239  2265  2261  2226  2192  2237  2420  2688  2879  2887  2742  2531  2312  2085  1842  1614  1414  1171  789  332  0  -131  -185  -301  -485  -650  -753  -832  -929  -1030  -1095  -1115  -1107  -1084  -1047  -1014  -1016  -1054  -1094  -1101  -1050  -938  -803  -698  -643  -638  -682  -789  -961  -1145  -1266  -1300  -1251  -1118  -944  -808  -733  -707  -760  -897  -1029  -1052  -934  -739  -588  -528  -521  -550  -616  -686  -730  -748  -758  -780  -830  -886  -902  -869  -825  -804  -785  -716  -570  -372  -177  -78  -177  -498  -884  -1100  -1090  -983  -891  -843  -826  -816  -807  -795  -733  -580  -382  -242  -194  -192  -197  -228  -329  -515  -752  -974  -1114  -1139  -1045  -847  -608  -412  -296  -269  -339  -483  -638  -736  -736  -598  -323  -15  172  146  -100  -455  -735  -849  -840  -760  -636  -518  -476  -540  -661  -760  -801  -785  -673  -425  -112  100  108  -74  -333  -512  -518  -363  -147  5  48  20  -32  -83  -113  -86  23  189  334  387  303  31  -407  -844  -1102  -1171  -1150  -1081  -952  -801  -719  -729  -770  -786  -750  -605  -308  41  267  380  623  1319  2743  4876  7227  9082  9762  8797  6349  3348  924  -288  -386  56  352  83  -524  -914  -931  -808  -717  -677  -672  -713  -825  -983  -1104  -1106  -944  -645  -336  -142  -81  -97  -143  -202  -262  -309  -325  -293  -220  -109  44  212  347  424  452  448  423  379  349  420  684  1096  1458  1636  1661  1622  1580  1589  1705  1935  2232  2553  2870  3125  3257  3227  2990  2563  2106  1802  1688  1681  1701  1705  1650  1496  1259  1023  830  612  280  -128  -487  -709  -798  -799  -771  -764  -812  -934  -1095  -1209  -1219  -1128  -987  -866  -796  -770  -770  -799  -876  -1000  -1106  -1107  -1002  -883  -811  -796  -822  -852  -858  -845  -831  -810  -769  -711  -662  -632  -625  -658  -735  -790  -741  -641  -638  -770  -938  -1056  -1104  -1063  -910  -685  -493  -402  -395  -447  -568  -757  -927  -953  -822  -659  -579  -602  -692  -812  -936  -1031  -1065  -995  -798  -539  -360  -349  -494  -698  -845  -894  -883  -849  -808  -759  -699  -649  -651  -715  -807  -876  -891  -849  -752  -587  -394  -281  -303  -401  -480  -508  -505  -496  -491  -491  -504  -545  -615  -678  -678  -610  -519  -442  -377  -317  -281  -304  -403  -539  -640  -675  -663  -628  -588  -554  -516  -436  -303  -159  -49  24  79  125  166  197  220  245  266  277  279  274  248  179  66  -63  -173  -247  -323  -454  -622  -738  -754  -695  -599  -495  -449  -593  -999  -1479  -1686  -1435  -759  282  1728  3631  5952  8324  9954  10105  8569  5784  2765  577  -357  -441  -359  -437  -636  -803  -824  -743  -670  -637  -632  -670  -780  -937  -1062  -1110  -1098  -1050  -972  -848  -665  -461  -314  -247  -207  -153  -100  -88  -129  -198  -253  -269  -221  -84  94  222  261  271  360  606  935  1179  1284  1335  1386  1416  1423  1475  1648  1917  2174  2339  2411  2449  2523  2641  2760  2846  2891  2861  2698  2406  2100  1891  1785  1724  1640  1439  1060  537  -14  -448  -669  -705  -656  -593  -556  -591  -750  -1013  -1265  -1410  -1442  -1401  -1318  -1228  -1172  -1200  -1338  -1544  -1714  -1786  -1772  -1689  -1530  -1319  -1137  -1043  -1005  -962  -913  -916  -983  -1024  -977  -920  -954  -1059  -1145  -1183  -1219  -1296  -1390  -1436  -1382  -1238  -1067  -940  -880  -863  -852  -831  -806  -782  -760  -740  -721  -693  -655  -632  -646  -680  -724  -795  -884  -948  -969  -975  -992  -1016  -1019  -986  -933  -877  -818  -759  -708  -677  -677  -685  -648  -541  -399  -283  -221  -189  -183  -274  -536  -899  -1164  -1218  -1089  -876  -686  -571  -523  -516  -526  -543  -575  -643  -739  -823  -873  -886  -848  -741  -584  -427  -283  -138  -8  74  102  106  138  231  342  362  234  11  -211  -364  -425  -430  -427  -446  -511  -641  -798  -920  -993  -1029  -1031  -1004  -968  -937  -911  -869  -762  -555  -326  -200  -152  24  653  2017  4042  6282  8171  9146  8748  6943  4336  1822  37  -849  -1058  -959  -796  -595  -364  -191  -119  -107  -109  -126  -200  -339  -476  -532  -489  -405  -359  -387  -455  -508  -530  -539  -547  -522  -409  -205  3  123  151  139  124  112  104  126  231  437  675  864  1026  1222  1421  1555  1625  1696  1813  1951  2058  2126  2193  2277  2371  2458  2532  2611  2710  2811  2888  2932  2948  2935  2895  2830  2694  2366  1767  1031  433  114  3  -17  -24  -72  -215  -502  -876  -1172  -1320  -1399  -1460  -1481  -1446  -1365  -1268  -1188  -1132  -1098  -1086  -1087  -1089  -1086  -1081  -1083  -1095  -1118  -1145  -1162  -1170  -1180  -1204  -1241  -1281  -1312  -1336  -1354  -1340  -1258  -1123  -999  -922  -883  -864  -861  -876  -904  -952  -1021  -1064  -1035  -941  -851  -844  -913  -956  -969  -1032  -1127  -1178  -1173  -1143  -1107  -1077  -1070  -1076  -1033  -907  -766  -721  -809  -945  -1026  -1072  -1167  -1292  -1336  -1237  -1063  -923  -851  -805  -754  -713  -711  -737  -761  -774  -761  -664  -431  -127  92  149  78  -62  -236  -411  -530  -541  -474  -409  -407  -479  -600  -750  -943  -1156  -1303  -1335  -1275  -1173  -1078  -1018  -995  -1023  -1140  -1329  -1440  -1223  -412  1154  3372  5853  8073  9397  9260  7643  5123  2502  515  -445  -615  -570  -596  -650  -685  -709  -727  -734  -738  -760  -816  -890  -929  -901  -835  -769  -716  -680  -659  -647  -640  -632  -620  -595  -537  -429  -289  -175  -124  -83  31  202  347  426  448  446  454  469  470  465  491  595  816  1143  1492  1763  1921  1996  2023  2032  2065  2183  2419  2704  2896  2894  2698  2408  2168  2034  1952  1847  1703  1572  1499  1422  1196  753  235  -141  -331  -439  -560  -708  -865  -1028  -1183  -1286  -1321  -1306  -1255  -1167  -1046  -913  -804  -737  -708  -705  -719  -762  -853  -968  -1051  -1083  -1082  -1051  -976  -874  -793  -763  -784  -848  -931  -991  -1007  -990  -949  -870  -732  -560  -419  -354  -407  -616  -907  -1130  -1227  -1235  -1164  -985  -736  -535  -454  -463  -502  -522  -505  -470  -440  -414  -392  -408  -535  -800  -1105  -1299  -1297  -1103  -798  -511  -329  -256  -273  -379  -558  -736  -807  -729  -559  -408  -338  -332  -353  -377  -383  -341  -234  -95  1  11  -57  -159  -237  -266  -265  -256  -249  -245  -256  -301  -378  -474  -578  -667  -722  -751  -781  -851  -985  -1149  -1269  -1315  -1287  -1172  -1033  -1072  -1341  -1461  -1012  59  1605  3436  5373  7334  9081  9959  9350  7313  4568  2045  449  -131  -204  -316  -606  -911  -1083  -1109  -1055  -987  -942  -929  -949  -1000  -1073  -1138  -1157  -1058  -794  -467  -302  -410  -660  -825  -803  -678  -578  -544  -525  -463  -361  -264  -211  -199  -189  -111  68  286  436  493  511  542  595  664  746  822  864  885  958  1173  1532  1901  2144  2241  2257  2261  2272  2288  2308  2327  2350  2357  2253  1931  1413  862  412  105  -54  -106  -116  -106  -84  -114  -269  -548  -882  -1172  -1348  -1401  -1376  -1328  -1274  -1200  -1115  -1056  -1035  -1034  -1038  -1052  -1089  -1142  -1187  -1210  -1221  -1238  -1264  -1274  -1252  -1224  -1223  -1250  -1282  -1301  -1296  -1238  -1079  -800  -478  -269  -281  -511  -831  -1068  -1149  -1107  -964  -727  -469  -305  -310  -492  -779  -1029  -1153  -1175  -1157  -1117  -1033  -916  -826  -804  -829  -849  -835  -796  -749  -686  -594  -454  -253  -71  -64  -280  -624  -958  -1148  -1142  -996  -771  -524  -341  -279  -374  -657  -1035  -1304  -1334  -1151  -887  -689  -604  -576  -526  -400  -213  -46  41  57  37  0  -45  -98  -159  -215  -245  -246  -233  -213  -189  -190  -291  -554  -901  -1165  -1282  -1309  -1301  -1270  -1214  -1146  -1063  -911  -685  -500  -454  -503  -474  -23  1255  3488  6365  9208  11041  11023  9098  6015  2817  386  -859  -1092  -822  -501  -337  -360  -533  -763  -926  -953  -879  -777  -681  -569  -443  -350  -330  -397  -546  -742  -906  -973  -953  -895  -801  -653  -494  -395  -374  -393  -410  -399  -342  -230  -20  343  789  1118  1229  1161  985  782  640  586  608  727  965  1269  1558  1818  2036  2163  2215  2296  2482  2731  2925  2975  2853  2566  2200  1909  1759  1686  1598  1416  1105  736  417  170  -40  -228  -379  -502  -621  -750  -888  -1003  -1045  -990  -888  -818  -808  -820  -824  -831  -854  -896  -963  -1042  -1099  -1109  -1074  -1007  -920  -822  -726  -661  -675  -802  -977  -1060  -970  -772  -589  -483  -442  -430  -425  -422  -437  -492  -597  -737  -840  -843  -772  -698  -655  -629  -591  -537  -496  -493  -529  -583  -620  -605  -525  -414  -333  -307  -318  -346  -389  -446  -503  -539  -535  -503  -479  -489  -524  -560  -582  -584  -558  -494  -409  -335  -298  -335  -486  -701  -853  -870  -797  -735  -730  -756  -812  -884  -900  -839  -746  -671  -653  -681  -708  -758  -852  -938  -980  -992  -992  -965  -887  -776  -687  -646  -637  -636  -627  -599  -556  -504  -435  -332  -209  -114  -80  -108  -168  -192  -130  -25  30  4  -61  -105  -114  -112  -113  -111  -115  -184  -389  -696  -957  -1074  -1075  -1027  -976  -952  -989  -1120  -1317  -1483  -1533  -1391  -1004  -515  -172  5  264  989  2539  4892  7496  9505  10169  9227  7044  4392  2067  548  -177  -475  -633  -696  -669  -623  -618  -668  -762  -883  -1009  -1108  -1162  -1177  -1179  -1187  -1176  -1109  -999  -878  -773  -704  -658  -582  -446  -277  -135  -44  28  131  263  372  421  424  403  367  319  260  215  213  275  431  685  985  1274  1514  1675  1754  1786  1825  1941  2178  2489  2759  2904  2897  2722  2400  2054  1823  1734  1731  1745  1699  1518  1199  820  478  215  7  -170  -302  -372  -398  -404  -403  -434  -563  -795  -1038  -1189  -1231  -1180  -1004  -676  -309  -166  -434  -1000  -1533  -1806  -1831  -1701  -1474  -1211  -990  -873  -858  -880  -861  -776  -638  -480  -363  -364  -484  -645  -776  -845  -849  -800  -713  -624  -565  -540  -541  -595  -756  -1043  -1341  -1443  -1288  -1049  -917  -912  -944  -944  -891  -809  -727  -639  -537  -436  -355  -309  -315  -363  -409  -425  -425  -440  -504  -630  -796  -953  -1052  -1075  -1022  -889  -717  -594  -570  -627  -715  -776  -763  -643  -444  -256  -156  -177  -333  -586  -827  -967  -1010  -987  -907  -794  -701  -668  -698  -749  -775  -754  -690  -609  -523  -444  -466  -683  -1005  -1189  -1097  -813  -511  -299  -194  -163  -165  -189  -241  -310  -359  -371  -358  -334  -305  -264  -216  -182  -172  -176  -177  -165  -139  -131  -193  -340  -522  -667  -741  -761  -763  -762  -758  -745  -710  -646  -561  -482  -430  -450  -635  -972  -1246  -1154  -534  528  1962  3889  6253  8523  9904  9777  8011  5154  2310  440  -281  -335  -276  -372  -550  -614  -547  -505  -579  -732  -869  -938  -949  -923  -850  -717  -552  -402  -308  -282  -310  -378  -455  -463  -352  -160  30  153  200  216  227  230  227  234  269  343  452  580  693  775  873  1044  1281  1520  1714  1863  1985  2078  2134  2168  2213  2291  2406  2529  2628  2690  2729  2745  2716  2634  2512  2361  2191  2019  1836  1566  1185  813  563  391  195  -19  -175  -266  -361  -494  -651  -840  -1049  -1207  -1271  -1267  -1242  -1232  -1279  -1406  -1565  -1636  -1538  -1311  -1085  -956  -928  -968  -1052  -1146  -1208  -1210  -1150  -1055  -964  -905  -875  -867  -881  -911  -970  -1079  -1210  -1295  -1278  -1160  -1005  -898  -864  -862  -850  -821  -798  -806  -856  -930  -989  -1010  -991  -934  -860  -809  -790  -784  -775  -785  -866  -1052  -1288  -1468  -1533  -1484  -1341  -1140  -941  -800  -748  -781  -865  -952  -1017  -1056  -1067  -1022  -894  -723  -605  -621  -782  -1009  -1173  -1205  -1122  -982  -851  -771  -736  -727  -729  -729  -722  -716  -714  -693  -621  -493  -352  -254  -226  -247  -275  -292  -298  -315  -378  -495  -650  -826  -985  -1079  -1100  -1085  -1072  -1069  -1060  -1032  -987  -938  -912  -927  -931  -875  -721  -295  652  2201  4157  6186  7896  8758  8347  6775  4615  2450  676  -475  -1017  -1156  -1103  -980  -841  -718  -643  -623  -632  -658  -705  -760  -780  -725  -590  -429  -322  -291  -301  -323  -353  -385  -402  -390  -343  -263  -165  -82  -43  -38  -21  42  143  240  300  330  358  392  438  541  746  1000  1186  1257  1281  1390  1674  2070  2407  2594  2663  2675  2666  2654  2652  2669  2703  2731  2713  2587  2318  1976  1700  1546  1444  1282  992  623  301  78  -108  -329  -556  -706  -775  -846  -973  -1119  -1214  -1244  -1240  -1217  -1169  -1097  -1018  -946  -898  -881  -870  -837  -806  -833  -939  -1061  -1114  -1117  -1121  -1106  -1045  -951  -852  -801  -825  -869  -885  -884  -887  -895  -890  -866  -833  -793  -740  -691  -671  -679  -685  -672  -647  -624  -603  -587  -578  -578  -600  -666  -789  -927  -995  -951  -847  -766  -735  -725  -698  -652  -614  -602  -622  -667  -714  -739  -746  -757  -784  -807  -795  -726  -595  -444  -342  -305  -312  -355  -440  -570  -722  -828  -850  -823  -797  -771  -723  -641  -534  -388  -169  89  264  248  29  -278  -504  -567  -493  -336  -164  -61  -93  -287  -572  -802  -890  -869  -817  -793  -813  -856  -891  -907  -917  -937  -969  -978  -881  -667  -460  -270  38  631  1835  3909  6596  9162  10646  10348  8352  5439  2626  694  -229  -556  -648  -608  -538  -536  -597  -687  -763  -782  -750  -725  -746  -796  -839  -860  -866  -855  -826  -793  -777  -770  -733  -662  -608  -600  -596  -505  -278  3  197  251  204  105  -1  -65  -34  111  322  491  574  611  637  642  631  675  877  1257  1713  2089  2291  2325  2235  2055  1863  1777  1853  2015  2145  2193  2169  2086  1952  1750  1430  1017  668  505  488  496  417  176  -191  -554  -820  -989  -1065  -1043  -997  -1048  -1196  -1327  -1375  -1349  -1252  -1065  -832  -660  -602  -629  -708  -809  -893  -935  -929  -896  -869  -874  -925  -1019  -1123  -1175  -1142  -1034  -856  -604  -334  -168  -207  -467  -828  -1083  -1116  -960  -731  -534  -381  -263  -228  -320  -480  -595  -623  -608  -595  -599  -628  -696  -782  -823  -776  -668  -574  -545  -567  -597  -613  -616  -605  -571  -514  -460  -435  -447  -478  -513  -547  -566  -559  -536  -517  -507  -502  -510  -556  -660  -804  -943  -1023  -1036  -1020  -996  -946  -850  -715  -561  -421  -333  -308  -327  -378  -442  -499  -545  -584  -587  -525  -435  -375  -358  -359  -360  -371  -417  -490  -501  -374  -172  -45  -52  -114  -146  -144  -159  -232  -318  -319  -230  -135  -89  -80  -90  -147  -309  -580  -859  -1047  -1129  -1124  -1032  -848  -615  -442  -414  -574  -920  -1244  -1226  -786  68  1486  3512  5913  8252  9893  10194  8988  6724  4126  1852  321  -406  -577  -504  -427  -460  -574  -715  -882  -1042  -1139  -1166  -1146  -1084  -979  -878  -838  -860  -908  -942  -914  -782  -556  -309  -150  -150  -317  -577  -808  -923  -884  -654  -257  140  378  428  326  93  -175  -301  -179  112  421  695  967  1235  1443  1547  1558  1527  1513  1569  1746  2039  2359  2600  2708  2666  2484  2243  2065  1994  1990  2017  2037  1962  1689  1238  753  343  20  -236  -453  -633  -752  -798  -797  -788  -800  -838  -883  -907  -901  -871  -839  -828  -861  -951  -1066  -1142  -1137  -1044  -898  -769  -702  -689  -712  -775  -867  -939  -928  -807  -622  -462  -380  -367  -404  -490  -598  -674  -694  -676  -661  -701  -838  -1035  -1181  -1181  -1006  -717  -452  -321  -344  -505  -743  -949  -1055  -1065  -979  -785  -550  -408  -431  -591  -816  -1026  -1133  -1101  -989  -904  -880  -873  -869  -877  -847  -769  -713  -709  -723  -729  -726  -719  -714  -725  -760  -812  -856  -872  -839  -740  -608  -511  -478  -481  -498  -524  -552  -566  -559  -550  -596  -738  -931  -1043  -982  -783  -569  -437  -391  -382  -378  -376  -399  -447  -494  -523  -553  -595  -637  -663  -674  -677  -677  -671  -655  -619  -555  -455  -318  -166  -45  0  -70  -236  -390  -453  -421  -319  -195  -108  -73  -59  -59  -112  -267  -502  -759  -1031  -1281  -1380  -1250  -999  -806  -738  -755  -824  -936  -1059  -1148  -1137  -883  -172  1194  3301  5961  8520  10083  10106  8632  6177  3554  1575  584  255  54  -192  -382  -486  -592  -725  -825  -859  -867  -898  -956  -1010  -1032  -1011  -950  -872  -783  -663  -544  -472  -445  -451  -458  -417  -329  -234  -168  -131  -106  -93  -99  -111  -116  -114  -112  -82  45  312  633  866  965  986  999  1058  1174  1306  1416  1531  1699  1908  2085  2178  2197  2186  2177  2174  2174  2176  2176  2148  2052  1882  1689  1515  1340  1112  775  322  -128  -410  -504  -517  -525  -559  -650  -784  -876  -873  -819  -780  -767  -776  -815  -890  -978  -1040  -1062  -1061  -1049  -1024  -984  -925  -847  -780  -752  -747  -721  -662  -615  -630  -691  -748  -774  -780  -785  -791  -786  -752  -682  -596  -519  -471  -463  -466  -445  -410  -388  -382  -380  -375  -372  -371  -349  -251  -50  189  346  339  174  -52  -215  -268  -249  -195  -113  -31  -3  -61  -181  -305  -383  -398  -360  -292  -203  -74  99  282  420  490  506  508  517  523  514  495  471  431  357  264  208  233  322  406  444  440  409  345  251]
