reading_id,reading_time,wire_id,result_classification,heart_rate,heart_rate_alert,firmware_version,device_app_version,hardware_version,waveform_samples
47319790-6961-11ed-8080-808080808080,Mon Nov 21 05:56:44 UTC 2022,e100e3fd2639,NSR,72,NONE,20001.171.50,2.10.0,Charge 5,[-1759  -2486  -2904  -3021  -3024  -2999  -2935  -2831  -2703  -2556  -2388  -2182  -1917  -1640  -1446  -1356  -1305  -1210  -1014  -761  -564  -464  -412  -366  -311  -225  -99  8  22  -1  89  372  775  1150  1395  1513  1535  1396  997  433  -20  -210  -199  -62  170  427  606  678  689  665  598  503  428  350  194  -22  -161  -146  -66  -19  9  112  353  669  905  1012  1057  1057  977  851  765  742  707  577  363  155  41  49  129  196  212  208  226  273  342  440  562  660  687  588  338  38  -108  2  277  553  755  884  876  531  -269  -1229  -1791  -1721  -1280  -850  -582  -432  -357  -335  -311  -270  -250  -270  -309  -340  -327  -213  1  148  73  -170  -463  -693  -770  -768  -807  -851  -826  -734  -610  -477  -321  -115  104  270  362  397  376  278  113  -55  -171  -247  -305  -322  -294  -269  -252  -228  -249  -325  -408  -455  -410  -236  8  201  202  -134  -901  -1859  -2439  -2254  -1203  673  3111  5838  8727  11278  12499  11742  9076  5176  1348  -1102  -1883  -1670  -1217  -849  -643  -593  -612  -644  -720  -902  -1193  -1487  -1615  -1507  -1282  -1099  -1016  -1005  -1018  -1022  -1007  -958  -856  -729  -642  -606  -551  -405  -206  -81  -98  -187  -223  -160  -64  -25  -65  -140  -147  -6  245  495  666  762  880  1118  1425  1614  1593  1453  1339  1303  1309  1305  1267  1213  1176  1158  1116  1030  948  905  847  693  434  175  51  94  217  293  245  78  -157  -412  -628  -755  -785  -739  -627  -460  -285  -168  -134  -169  -253  -350  -408  -343  -76  309  603  718  747  769  769  703  538  297  82  -14  -14  4  -2  -22  2  99  220  330  453  580  676  746  806  838  808  689  486  269  123  71  79  113  146  129  10  -176  -328  -384  -342  -211  -30  127  222  265  278  261  193  63  -83  -182  -207  -162  -54  69  127  77  -35  -139  -212  -250  -239  -190  -155  -176  -251  -350  -443  -504  -532  -521  -456  -351  -265  -234  -235  -240  -242  -251  -269  -289  -305  -352  -474  -631  -701  -603  -410  -282  -293  -331  -278  -177  -157  -286  -532  -801  -997  -1047  -941  -771  -635  -549  -499  -487  -515  -568  -608  -620  -626  -603  -515  -411  -360  -374  -434  -517  -606  -728  -915  -1125  -1274  -1326  -1314  -1287  -1285  -1317  -1333  -1201  -813  -329  -29  95  352  1194  2978  5560  8329  10493  11302  10388  7943  4583  1187  -1426  -2854  -3133  -2632  -1951  -1611  -1677  -1825  -1844  -1816  -1828  -1855  -1853  -1798  -1688  -1541  -1392  -1274  -1196  -1174  -1248  -1415  -1596  -1681  -1641  -1552  -1506  -1518  -1551  -1553  -1445  -1153  -709  -268  18  108  54  -52  -134  -164  -136  -36  125  299  445  554  625  661  670  681  786  1071  1441  1662  1648  1489  1258  1008  802  637  482  365  325  326  275  102  -141  -321  -383  -382  -372  -349  -301  -279  -338  -430  -480  -465  -399  -310  -222  -129  -24  70  141  195  216  195  161  145  155  192  243  293  337  398  490  580  615  585  529  484  433  331  195  96  71  96  133  162  174  169  164  184  234  285  320  337  313  205  -4  -255  -435  -505  -509  -493  -470  -446  -440  -476  -561  -654  -683  -616  -471  -306  -236  -323  -507  -657  -687  -645  -635  -659  -646  -584  -537  -539  -540  -505  -435  -331  -238  -204  -243  -361  -544  -743  -900  -972  -968  -937  -910  -885  -850  -808  -789  -817  -860  -866  -811  -711  -603  -512  -452  -431  -435  -432  -431  -506  -710  -958  -1081  -1007  -834  -705  -660  -629  -554  -475  -478  -569  -670  -740  -791  -808  -704  -392  40  354  349  -23  -612  -1121  -1364  -1364  -1188  -849  -434  -149  -185  -609  -1257  -1798  -2033  -2024  -1900  -1689  -1363  -991  -669  -253  623  2163  4252  6621  8909  10545  10869  9547  6706  2906  -756  -3145  -3897  -3414  -2389  -1493  -1092  -1155  -1459  -1792  -2023  -2114  -2105  -2024  -1814  -1411  -922  -594  -587  -875  -1275  -1559  -1633  -1561  -1419  -1216  -931  -657  -553  -623  -689  -607  -403  -197  -62  4  28  34  34  0  -58  -33  156  461  760  948  1004  990  962  945  969  1072  1260  1497  1735  1941  2090  2099  1894  1542  1170  828  525  285  125  31  -46  -146  -255  -337  -400  -491  -614  -715  -734  -667  -569  -470  -364  -300  -371  -580  -789  -823  -624  -270  94  320  339  180  -57  -259  -361  -375  -344  -311  -313  -372  -486  -588  -589  -483  -332  -167  1  112  72  -187  -607  -985  -1137  -995  -603  -113  302  563  626  434  0  -519  -911  -1077  -1043  -856  -561  -261  -80  -78  -220  -411  -550  -594  -527  -336  -81  98  119  2  -167  -307  -399  -460  -474  -419  -327  -258  -235  -228  -197  -120  -14  65  90  75  49  30  23  38  86  155  216  238  188  38  -163  -307  -328  -257  -166  -95  -42  -3  12  -3  -50  -114  -170  -214  -271  -356  -445  -511  -535  -494  -404  -296  -166  -50  -2  -25  -97  -220  -414  -569  -363  387  1566  3154  5194  7377  9170  10076  9654  7823  5134  2397  220  -1035  -1359  -1137  -785  -599  -736  -1023  -1172  -1134  -1024  -958  -950  -928  -884  -880  -925  -973  -978  -941  -935  -1003  -1103  -1195  -1280  -1325  -1214  -846  -326  45  23  -423  -1067  -1548  -1645  -1325  -679  19  469  619  629  635  673  750  852  937  979  1003  1063  1177  1303  1397  1426  1328  1116  908  767  617  345  -36  -370  -524  -532  -548  -711  -1027  -1349  -1529  -1556  -1506  -1446  -1404  -1370  -1333  -1321  -1357  -1408  -1427  -1406  -1363  -1333  -1356  -1457  -1604  -1706  -1675  -1490  -1236  -1042  -950  -920  -952  -1084  -1297  -1479  -1529  -1440  -1254  -1009  -768  -590  -478  -430  -498  -722  -1021  -1243  -1316  -1256  -1077  -828  -576  -341  -200  -292  -589  -877  -1004  -975  -876  -789  -739  -713  -694  -671  -640  -597  -515  -364  -168  -20  -10  -156  -375  -540  -599  -584  -539  -473  -388  -317  -290  -279  -251  -240  -303  -420  -508  -504  -402  -219  -14  122  163  148  126  109  96  89  123  237  413  564  585  393  0  -435  -723  -817  -809  -802  -827  -851  -839  -805  -839  -1001  -1121  -884  -156  1078  2908  5209  7477  9298  10341  10031  8193  5487  2781  729  -347  -614  -557  -670  -1059  -1418  -1524  -1417  -1196  -944  -744  -627  -593  -699  -1019  -1464  -1780  -1755  -1360  -802  -407  -356  -599  -949  -1208  -1290  -1198  -945  -608  -335  -201  -155  -113  -32  81  193  274  314  320  309  298  315  404  610  915  1231  1485  1642  1667  1575  1458  1401  1424  1499  1588  1649  1612  1412  1099  830  704  689  718  755  755  641  351  -59  -421  -602  -633  -632  -683  -774  -843  -851  -807  -740  -692  -673  -650  -619  -629  -692  -750  -729  -615  -491  -449  -469  -485  -483  -478  -477  -468  -441  -404  -377  -369  -372  -372  -356  -318  -270  -237  -229  -228  -220  -207  -199  -209  -250  -327  -441  -551  -586  -548  -470  -336  -141  51  146  116  31  -26  -63  -131  -237  -328  -367  -375  -375  -355  -297  -228  -190  -198  -227  -254  -275  -296  -317  -339  -384  -477  -591  -670  -691  -670  -597  -433  -207  -23  46  3  -113  -243  -329  -355  -335  -274  -179  -83  -10  36  53  0  -164  -408  -631  -764  -844  -920  -983  -1057  -1201  -1409  -1620  -1680  -1430  -901  -179  802  2203  4100  6388  8752  10655  11399  10449  7985  4953  2278  403  -537  -769  -824  -984  -1157  -1267  -1347  -1405  -1432  -1449  -1481  -1534  -1597  -1649  -1666  -1592  -1364  -1025  -742  -636  -709  -892  -1088  -1214  -1246  -1186  -1031  -846  -780  -915  -1150  -1255  -1088  -710  -302  -15  70  -14  -124  -140  -89  -24  86  294  589  874  1007  919  696  491  409  473  648  857  1007  1054  1022  926  725  401  46  -208  -312  -298  -217  -113  -28  4  -69  -307  -646  -919  -1030  -1031  -1001  -980  -991  -1064  -1192  -1308  -1333  -1269  -1159  -1014  -855  -731  -653  -588  -517  -452  -428  -430  -383  -304  -318  -444  -582  -668  -712  -727  -706  -619  -452  -265  -156  -208  -454  -795  -1048  -1108  -977  -713  -433  -249  -178  -165  -170  -206  -301  -437  -554  -617  -638  -638  -617  -568  -515  -521  -632  -798  -883  -781  -509  -198  13  79  28  -82  -208  -335  -470  -584  -611  -536  -444  -430  -497  -565  -568  -499  -398  -324  -286  -243  -139  41  239  372  421  422  394  315  168  -7  -137  -191  -182  -115  27  196  250  85  -227  -540  -803  -1017  -1129  -1109  -1021  -967  -985  -1049  -1138  -1225  -1236  -1105  -786  -284  414  1565  3514  6251  9298  11828  12804  11544  8417  4626  1464  -317  -844  -812  -843  -1067  -1270  -1364  -1367  -1280  -1157  -1049  -962  -908  -889  -881  -865  -839  -823  -830  -851  -883  -937  -997  -1003  -916  -789  -737  -799  -906  -999  -1073  -1062  -880  -594  -384  -326  -349  -363  -323  -206  -6  239  471  661  807  904  951  969  973  954  925  946  1070  1258  1408  1471  1454  1322  1018  614  290  145  124  129  94  -25  -217  -406  -523  -546  -490  -402  -334  -298  -302  -387  -597  -872  -1084  -1153  -1066  -828  -525  -305  -227  -246  -338  -511  -711  -810  -741  -586  -501  -574  -754  -924  -1008  -985  -842  -609  -385  -267  -267  -354  -499  -655  -747  -736  -645  -514  -387  -303  -272  -294  -385  -542  -703  -799  -825  -810  -766  -685  -588  -520  -492  -480  -461  -427  -369  -295  -241  -241  -310  -420  -501  -503  -434  -325  -252  -274  -332  -389  -495  -624  -701  -722  -720  -709  -679  -608  -489  -361  -271  -230  -229  -293  -453  -663  -814  -850  -777  -619  -440  -360  -458  -693  -935  -1055  -948  -567  -53  315  419  351  247  181  168  189  222  251  248  167  -8  -215  -354  -396  -378  -333  -281  -246  -262  -349  -492  -648  -810  -1035  -1332  -1529  -1400  -778  555  2664  5229  7763  9779  10911  11017  10021  7966  5285  2576  390  -788  -960  -691  -485  -466  -676  -1124  -1573  -1786  -1794  -1717  -1602  -1457  -1311  -1223  -1226  -1282  -1297  -1190  -1002  -845  -764  -729  -708  -697  -720  -782  -853  -913  -948  -928  -819  -594  -298  -57  59  79  59  35  41  141  385  715  978  1091  1102  1085  1071  1051  1005  942  892  859  827  791  767  765  780  808  840  825  661  288  -191  -570  -725  -699  -609  -538  -507  -518  -602  -779  -985  -1117  -1146  -1121  -1091  -1080  -1104  -1173  -1264  -1321  -1321  -1288  -1216  -1031  -693  -316  -69  2  -57  -245  -580  -945  -1089  -869  -440  -94  26  -49  -259  -505  -660  -675  -605  -509  -396  -250  -99  -17  -55  -187  -311  -328  -240  -127  -48  -18  -48  -145  -273  -366  -395  -381  -360  -366  -445  -610  -789  -871  -811  -679  -555  -445  -328  -264  -311  -418  -513  -599  -728  -914  -1090  -1175  -1135  -982  -741  -487  -320  -273  -307  -375  -433  -463  -480  -511  -583  -689  -776  -810  -811  -808  -808  -799  -759  -684  -576  -429  -266  -142  -80  -71  -96  -130  -152  -164  -183  -221  -276  -316  -302  -205  -44  117  206  150  -59  -319  -488  -541  -552  -573  -585  -566  -568  -633  -722  -762  -718  -608  -497  -424  -311  -19  566  1394  2269  3244  4666  6673  8973  10856  11396  10079  7294  4105  1568  156  -342  -453  -578  -783  -887  -782  -591  -477  -506  -708  -1067  -1434  -1634  -1634  -1537  -1452  -1419  -1425  -1434  -1399  -1273  -1040  -764  -550  -451  -436  -450  -452  -430  -392  -344  -271  -159  -18  144  313  440  491  497  526  626  765  863  889  889  926  1015  1083  1066  1001  959  952  958  961  955  946  954  1015  1144  1302  1389  1232  690  -80  -680  -906  -891  -839  -866  -1007  -1206  -1345  -1330  -1151  -901  -723  -680  -733  -812  -865  -862  -802  -709  -630  -594  -594  -613  -631  -618  -550  -455  -398  -405  -445  -480  -492  -490  -478  -461  -454  -480  -535  -591  -634  -649  -586  -398  -142  55  141  156  131  55  -55  -128  -112  -48  -19  -82  -275  -580  -850  -888  -685  -422  -247  -179  -173  -178  -173  -164  -158  -150  -148  -169  -200  -208  -191  -207  -310  -456  -558  -596  -612  -636  -652  -598  -441  -246  -139  -194  -398  -690  -982  -1159  -1131  -890  -556  -321  -299  -471  -719  -890  -894  -738  -517  -364  -354  -473  -641  -760  -792  -764  -717  -686  -687  -696  -626  -406  -91  164  285  307  264  155  5  -125  -231  -363  -522  -637  -674  -666  -659  -679  -731  -804  -872  -917  -957  -998  -959  -727  -193  760  2155  3963  6207  8659  10637  11444  10773  8668  5629  2572  191  -1307  -1909  -1805  -1409  -1071  -907  -859  -828  -774  -716  -694  -776  -1019  -1353  -1603  -1680  -1612  -1443  -1227  -1047  -961  -952  -962  -936  -820  -582  -281  -37  78  57  -89  -281  -370  -269  -40  169  277  315  349  430  597  833  1042  1143  1157  1169  1244  1368  1479  1548  1608  1665  1667  1560  1380  1228  1153  1100  1004  862  674  399  73  -190  -356  -472  -555  -587  -561  -526  -565  -690  -842  -995  -1145  -1252  -1287  -1250  -1144  -1009  -909  -865  -845  -829  -817  -811  -808  -807  -823  -868  -924  -940  -883  -783  -705  -675  -674  -678  -677  -669  -645  -595  -514  -444  -463  -603  -795  -934  -981  -976  -962  -941  -877  -745  -564  -410  -398  -556  -749  -822  -742  -599  -547  -597  -606  -548  -514  -524  -557  -572  -524  -452  -421  -461  -573  -713  -807  -832  -822  -813  -813  -813  -790  -737  -690  -709  -784  -832  -783  -650  -507  -417  -381  -362  -345  -328  -296  -232  -131  -6  104  161  157  106  41  -4  -19  -12  5  19  -13  -163  -467  -834  -1110  -1242  -1286  -1265  -1109  -749  -285  46  81  -197  -683  -1192  -1598  -1813  -1624  -805  715  2895  5525  8105  9928  10492  9837  8287  6154  3868  1885  391  -644  -1275  -1507  -1374  -1061  -809  -710  -713  -797  -978  -1185  -1242  -1033  -668  -371  -265  -371  -695  -1129  -1469  -1589  -1451  -1042  -503  -112  -10  -141  -409  -728  -970  -1015  -877  -640  -343  -37  216  427  620  801  967  1103  1201  1297  1433  1583  1696  1768  1822  1862  1886  1904  1921  1911  1813  1594  1335  1163  1105  1088  1042  932  730  434  121  -83  -131  -75  11  63  9  -188  -460  -655  -711  -679  -649  -716  -942  -1253  -1482  -1558  -1532  -1465  -1371  -1251  -1138  -1072  -1038  -970  -818  -606  -404  -270  -216  -204  -203  -280  -531  -882  -1136  -1209  -1161  -1067  -941  -755  -541  -393  -362  -433  -563  -694  -779  -815  -818  -805  -791  -786  -788  -790  -783  -753  -685  -593  -522  -512  -573  -662  -679  -599  -523  -517  -543  -563  -585  -634  -707  -776  -823  -833  -784  -688  -615  -632  -704  -715  -607  -417  -226  -113  -140  -321  -579  -768  -771  -545  -161  199  388  407  336  242  159  96  51  3  -91  -262  -493  -718  -854  -839  -674  -442  -273  -246  -365  -601  -924  -1256  -1379  -1114  -608  -134  379  1376  3217  5861  8828  11262  12257  11334  8624  4892  1336  -1109  -2152  -1942  -999  -53  319  -61  -940  -1818  -2310  -2320  -1969  -1495  -1123  -898  -752  -679  -727  -889  -1065  -1132  -1068  -946  -834  -756  -711  -694  -704  -734  -745  -642  -348  44  331  439  447  418  345  241  184  237  372  532  677  773  826  910  1092  1357  1613  1779  1825  1757  1614  1465  1372  1321  1232  1052  828  642  493  311  82  -117  -225  -261  -277  -293  -310  -346  -410  -478  -535  -599  -659  -688  -691  -688  -688  -700  -734  -787  -828  -806  -704  -573  -479  -450  -498  -636  -821  -955  -979  -898  -757  -629  -572  -593  -649  -694  -701  -667  -588  -471  -344  -242  -193  -219  -310  -405  -437  -436  -469  -521  -530  -474  -386  -314  -268  -233  -219  -286  -478  -733  -910  -911  -736  -484  -296  -251  -364  -623  -951  -1221  -1355  -1376  -1334  -1252  -1161  -1098  -1056  -983  -855  -695  -533  -401  -317  -275  -258  -245  -210  -144  -63  6  37  16  -57  -172  -293  -371  -378  -324  -243  -177  -159  -224  -407  -685  -942  -1044  -952  -755  -585  -511  -528  -624  -777  -912  -894  -680  -431  -254  -52  324  1191  2943  5442  8045  10160  11233  10771  8756  5737  2571  161  -933  -905  -469  -274  -640  -1343  -1843  -1934  -1815  -1678  -1585  -1539  -1530  -1534  -1503  -1395  -1238  -1117  -1070  -1070  -1075  -1073  -1072  -1084  -1105  -1105  -1054  -960  -848  -726  -613  -543  -508  -493  -500  -508  -465  -319  -71  189  346  401  441  498  533  532  547  679  999  1399  1653  1692  1599  1451  1308  1207  1099  903  641  420  285  198  122  54  -30  -179  -403  -645  -835  -947  -987  -993  -1012  -1056  -1099  -1108  -1075  -1030  -995  -964  -935  -909  -884  -867  -869  -896  -940  -964  -934  -858  -771  -707  -671  -652  -657  -671  -620  -462  -314  -352  -575  -820  -975  -1045  -1068  -1029  -855  -529  -177  42  107  101  91  86  51  -49  -204  -352  -441  -469  -456  -434  -445  -501  -562  -564  -485  -386  -342  -339  -341  -386  -490  -578  -578  -504  -445  -470  -579  -756  -960  -1094  -1047  -774  -390  -114  -89  -307  -638  -901  -1002  -968  -854  -696  -539  -442  -421  -432  -416  -341  -230  -148  -137  -187  -266  -331  -350  -289  -105  197  530  782  900  851  619  278  -43  -252  -336  -362  -392  -440  -515  -628  -748  -815  -782  -627  -353  -46  114  -56  -560  -1028  -1011  -400  705  2149  3589  4919  6553  8713  10857  11995  11218  8352  4490  1303  -287  -467  -82  4  -443  -993  -1199  -1101  -928  -725  -496  -345  -338  -443  -630  -905  -1214  -1429  -1471  -1345  -1103  -842  -653  -563  -556  -577  -567  -507  -404  -299  -285  -410  -608  -764  -799  -726  -588  -394  -178  -28  18  8  6  80  277  545  766  897  972  1007  1014  1051  1173  1349  1482  1505  1412  1235  1020  796  563  293  -16  -295  -450  -485  -465  -438  -428  -470  -594  -759  -876  -917  -932  -975  -1033  -1050  -997  -899  -813  -780  -775  -754  -723  -720  -745  -762  -762  -791  -874  -968  -1020  -1010  -912  -707  -452  -262  -198  -267  -468  -741  -952  -1018  -983  -968  -1057  -1194  -1208  -979  -598  -278  -125  -105  -152  -210  -238  -227  -202  -202  -259  -395  -570  -699  -742  -725  -673  -610  -576  -620  -756  -891  -869  -642  -343  -142  -115  -212  -335  -426  -470  -444  -312  -88  128  245  234  123  -28  -154  -235  -275  -271  -260  -312  -450  -612  -705  -682  -573  -433  -315  -264  -288  -351  -399  -413  -406  -397  -404  -447  -526  -605  -651  -665  -661  -638  -591  -548  -557  -622  -683  -634  -375  93  572  776  598  214  -107  -247  -255  -211  -171  -158  -148  -120  -152  -314  -513  -643  -714  -752  -753  -739  -749  -810  -927  -1063  -1091  -874  -386  370  1405  2726  4434  6605  8918  10689  11232  10214  7886  4924  2130  167  -762  -1005  -1065  -1169  -1289  -1357  -1320  -1194  -1080  -1052  -1091  -1147  -1189  -1217  -1234  -1240  -1223  -1172  -1102  -1045  -1025  -1053  -1122  -1207  -1276  -1285  -1216  -1123  -1046  -962  -871  -813  -793  -741  -569  -260  73  288  353  343  333  357  456  672  952  1158  1233  1230  1208  1197  1228  1332  1479  1590  1593  1463  1224  929  647  448  369  374  399  378  249  3  -289  -492  -509  -396  -301  -298  -356  -460  -647  -883  -1062  -1132  -1126  -1057  -923  -792  -753  -771  -746  -665  -568  -479  -416  -384  -369  -356  -351  -391  -496  -611  -663  -623  -518  -417  -373  -373  -379  -378  -383  -411  -453  -497  -546  -584  -590  -556  -502  -451  -406  -365  -336  -327  -329  -331  -333  -333  -334  -335  -332  -317  -280  -226  -188  -197  -256  -339  -411  -461  -496  -499  -451  -383  -345  -363  -417  -450  -415  -329  -236  -162  -98  -13  99  185  174  49  -121  -236  -270  -302  -411  -587  -740  -799  -734  -542  -304  -143  -90  -98  -127  -157  -174  -176  -159  -126  -90  -54  -20  21  95  200  241  103  -166  -385  -469  -480  -486  -482  -439  -376  -331  -316  -316  -323  -339  -364  -379  -343  -223  -58  64  106  96  72  62  98  207  358  468  475  368  189  9  -136  -246  -318  -350  -369  -450  -640  -860  -981  -965  -875  -809  -800  -803  -798  -765  -573  -76  790  2036  3611  5467  7533  9510  10867  11129  10038  7660  4560  1512  -801  -1860  -1724  -1044  -469  -354  -653  -1019  -1208  -1232  -1176  -1070  -911  -723  -565  -502  -564  -729  -943  -1165  -1362  -1489  -1519  -1448  -1275  -1040  -814  -646  -543  -484  -444  -408  -378  -383  -434  -479  -432  -245  15  217  308  334  357  456  704  1061  1379  1558  1602  1568  1516  1460  1371  1259  1178  1154  1154  1130  1053  938  814  686  558  446  335  174  -42  -237  -338  -339  -272  -177  -118  -188  -444  -799  -1066  -1158  -1112  -970  -773  -592  -495  -505  -576  -619  -583  -501  -447  -469  -555  -653  -708  -703  -668  -639  -613  -570  -510  -452  -411  -401  -413  -405  -346  -243  -115  22  150  222  165  -64  -391  -647  -742  -700  -566  -395  -251  -147  -73  -45  -74  -151  -236  -284  -290  -287  -293  -298  -292  -279  -269  -266  -277  -314  -387  -485  -580  -649  -682  -678  -642  -590  -545  -519  -517  -542  -600  -679  -741  -761  -746  -717  -702  -709  -708  -678  -643  -619  -595  -571  -562  -578  -616  -649  -658  -651  -647  -653  -671  -693  -699  -662  -574  -483  -459  -523  -658  -819  -938  -981  -963  -900  -813  -739  -705  -709  -733  -761  -777  -778  -773  -772  -776  -779  -764  -708  -609  -485  -367  -290  -257  -241  -224  -195  -131  -28  62  63  -32  -167  -293  -408  -519  -632  -736  -814  -854  -853  -824  -793  -774  -769  -821  -970  -1115  -1017  -405  849  2481  4091  5669  7411  9215  10571  10795  9435  6635  3285  555  -942  -1328  -1041  -592  -331  -375  -683  -1047  -1248  -1260  -1180  -1098  -1043  -993  -927  -850  -766  -682  -618  -590  -606  -680  -815  -963  -1073  -1144  -1204  -1243  -1201  -1021  -741  -503  -403  -414  -450  -454  -414  -335  -238  -153  -68  48  171  241  253  250  265  317  439  668  1008  1379  1649  1743  1709  1648  1574  1366  990  622  433  401  403  331  149  -93  -320  -491  -605  -670  -699  -707  -709  -708  -687  -628  -551  -498  -481  -480  -480  -480  -485  -498  -522  -562  -619  -674  -680  -603  -470  -348  -278  -244  -215  -214  -283  -404  -510  -549  -498  -351  -166  -35  5  -5  -30  -45  -17  94  277  447  514  438  239  10  -140  -191  -178  -120  -18  90  156  168  162  170  173  137  56  -58  -209  -366  -472  -511  -494  -420  -281  -99  67  164  189  172  150  171  288  501  726  860  845  650  308  -49  -294  -372  -297  -143  37  219  331  333  256  136  19  -43  -54  -46  -41  -41  -39  -12  91  311  550  637  554  430  337  252  149  44  -56  -167  -233  -175  -12  172  325  425  455  424  385  386  411  397  324  252  237  259  259  200  91  -20  -97  -145  -187  -237  -318  -460  -640  -790  -888  -957  -1000  -1016  -1018  -1021  -1003  -858  -416  446  1764  3576  5875  8413  10673  11929  11471  9224  6034  3015  921  -12  -254  -569  -1141  -1589  -1633  -1415  -1226  -1168  -1199  -1294  -1444  -1607  -1733  -1791  -1771  -1670  -1487  -1273  -1122  -1067  -1055  -1028  -974  -947  -995  -1079  -1123  -1092  -1003  -913  -866  -852  -855  -868  -874  -844  -768  -682  -609  -523  -404  -245  -42  214  548  905  1155  1240  1213  1127  1002  876  802  791  808  821  802  702  482  180  -91  -239  -265  -229  -206  -311  -635  -1083  -1414  -1510  -1425  -1252  -1068  -931  -875  -905  -1004  -1164  -1346  -1476  -1519  -1514  -1511  -1534  -1577  -1606  -1598  -1567  -1529  -1485  -1447  -1419  -1385  -1334  -1244  -1115  -1030  -1041  -1084  -1098  -1096  -1104  -1111  -1068  -921  -717  -606  -696  -924  -1148  -1277  -1313  -1293  -1229  -1108  -928  -724  -563  -500  -521  -566  -588  -590  -596  -627  -685  -760  -840  -901  -904  -853  -802  -788  -796  -809  -824  -830  -797  -707  -596  -523  -502  -507  -526  -555  -568  -538  -477  -440  -439  -425  -382  -348  -348  -396  -503  -661  -824  -936  -984  -996  -981  -928  -855  -806  -805  -831  -822  -684  -364  35  295  225  -223  -857  -1314  -1357  -983  -376  185  514  604  552  464  379  281  185  160  255  439  616  711  686  506  189  -144  -363  -447  -487  -572  -674  -665  -487  -250  -107  -52  78  361  546  310  -96  25  1079  3100  5932  8942  11171  11965  11211  9183  6468  3877  1977  701  -195  -675  -834  -993  -1216  -1370  -1434  -1465  -1499  -1519  -1488  -1402  -1286  -1174  -1062  -910  -727  -582  -503  -462  -442  -440  -445  -437  -400  -341  -289  -262  -253  -245  -227  -198  -171  -163  -181  -207  -203  -130  16  199  390  615  873  1085  1190  1207  1204  1284  1506  1799  1999  1993  1788  1503  1298  1224  1219  1225  1228  1198  1080  854  568  291  74  -76  -192  -287  -342  -358  -394  -502  -655  -772  -817  -821  -817  -803  -747  -642  -551  -556  -634  -675  -620  -513  -426  -374  -338  -320  -346  -441  -571  -667  -699  -690  -666  -639  -619  -612  -617  -617  -575  -468  -359  -350  -449  -554  -586  -555  -513  -492  -488  -490  -497  -522  -574  -622  -614  -532  -408  -278  -168  -103  -99  -144  -205  -247  -283  -352  -467  -596  -702  -764  -782  -774  -762  -764  -780  -771  -677  -522  -430  -481  -608  -670  -608  -505  -493  -596  -719  -777  -760  -714  -701  -746  -814  -844  -835  -878  -1008  -1127  -1163  -1149  -1142  -1145  -1104  -953  -717  -514  -403  -347  -314  -288  -237  -142  -29  55  81  31  -106  -284  -417  -485  -553  -672  -816  -918  -955  -955  -954  -962  -953  -886  -787  -767  -882  -996  -934  -740  -453  167  1407  3337  5796  8375  10459  11452  11019  9162  6281  3149  595  -815  -1033  -559  -76  -53  -528  -1123  -1474  -1574  -1588  -1594  -1569  -1496  -1417  -1364  -1286  -1120  -902  -736  -672  -678  -706  -727  -734  -733  -730  -725  -716  -705  -710  -755  -807  -782  -652  -496  -396  -376  -416  -465  -441  -258  79  437  675  769  795  851  987  1157  1290  1400  1579  1842  2094  2257  2306  2146  1662  973  424  204  197  219  171  6  -286  -613  -827  -885  -851  -790  -729  -688  -685  -716  -765  -842  -962  -1069  -1075  -1003  -962  -983  -998  -976  -953  -962  -986  -1005  -1023  -1046  -1072  -1086  -1070  -995  -852  -689  -576  -536  -547  -578  -596  -551  -414  -225  -86  -66  -163  -315  -452  -566  -679  -774  -830  -843  -799  -670  -477  -292  -164  -94  -67  -61  -64  -88  -147  -225  -282  -317  -373  -482  -610  -685  -688  -666  -658  -655  -620  -527  -401  -303  -260  -269  -346  -524  -764  -961  -1062  -1067  -972  -799  -626  -520  -464  -390  -283  -186  -128  -97  -70  -55  -72  -113  -155  -175  -147  -82  -16  57  184  382  597  744  803  814  809  796  766  709  642  577  473  273  14  -189  -289  -339  -380  -396  -386  -402  -478  -582  -676  -749  -808  -861  -825  -477  351  1612  3256  5401  7993  10445  11874  11707  9988  7252  4366  2095  596  -365  -950  -1275  -1434  -1443  -1347  -1241  -1173  -1146  -1143  -1109  -993  -812  -648  -570  -614  -778  -985  -1134  -1182  -1168  -1143  -1121  -1080  -1007  -910  -812  -735  -661  -536  -368  -232  -173  -169  -175  -158  -98  4  132  240  305  357  405  437  474  575  818  1229  1664  1888  1813  1533  1211  993  927  963  1030  1085  1099  1029  869  656  387  40  -314  -547  -622  -616  -617  -683  -856  -1137  -1432  -1559  -1414  -1137  -988  -1047  -1127  -1073  -976  -988  -1094  -1171  -1150  -1069  -1003  -982  -988  -990  -962  -905  -868  -907  -1028  -1191  -1338  -1419  -1424  -1375  -1295  -1193  -1051  -874  -711  -603  -547  -526  -518  -516  -543  -640  -816  -1005  -1125  -1153  -1110  -1010  -888  -804  -779  -787  -791  -767  -715  -654  -608  -580  -570  -593  -672  -791  -896  -928  -813  -501  -117  60  -114  -485  -777  -883  -881  -849  -782  -656  -516  -452  -469  -488  -462  -416  -376  -323  -235  -125  -38  0  3  21  112  292  506  667  726  641  368  -29  -373  -546  -583  -557  -504  -454  -444  -485  -530  -530  -506  -526  -599  -671  -716  -762  -820  -808  -538  175  1359  2806  4312  6015  8015  9862  10949  10943  9751  7737  5538  3262  790  -1405  -2722  -3004  -2436  -1433  -566  -313  -646  -1096  -1328  -1321  -1189  -1054  -972  -939  -943  -1000  -1129  -1296  -1420  -1466  -1453  -1406  -1334  -1214  -1020  -796  -621  -512  -449  -428  -445  -495  -562  -622  -662  -650  -510  -195  199  503  661  737  792  854  943  1064  1195  1296  1335  1319  1301  1318  1339  1318  1262  1214  1170  1062  843  558  307  154  75  -34  -277  -601  -845  -935  -921  -845  -709  -546  -427  -383  -388  -410  -431  -449  -464  -472  -473  -492  -580  -753  -959  -1132  -1234  -1250  -1205  -1158  -1144  -1144  -1087  -909  -661  -480  -433  -466  -503  -496  -390  -155  123  269  198  0  -196  -364  -517  -628  -672  -643  -541  -412  -360  -445  -609  -741  -800  -804  -742  -571  -326  -123  -33  -50  -161  -342  -521  -622  -643  -638  -651  -675  -658  -561  -404  -239  -117  -56  -43  -80  -208  -442  -685  -788  -732  -630  -565  -541  -529  -510  -484  -463  -453  -456  -479  -513  -517  -448  -316  -182  -114  -101  -55  53  159  212  228  246  277  301  275  145  -120  -462  -745  -897  -957  -984  -993  -971  -898  -757  -584  -509  -642  -937  -1214  -1255  -863  71  1574  3602  5931  8167  9955  11058  11184  10036  7731  4862  2085  -90  -1324  -1645  -1455  -1152  -912  -764  -712  -790  -1008  -1283  -1474  -1505  -1410  -1266  -1152  -1100  -1095  -1105  -1110  -1106  -1084  -1018  -903  -773  -685  -685  -758  -837  -871  -825  -648  -327  1  127  30  -118  -202  -229  -205  -63  236  592  833  909  890  839  780  726  724  868  1212  1623  1838  1733  1440  1183  1063  1033  1035  1051  1063  1032  890  601  248  -4  -92  -88  -97  -177  -330  -502  -623  -661  -646  -620  -610  -623  -690  -844  -1031  -1118  -1007  -737  -460  -310  -327  -482  -689  -833  -848  -749  -601  -483  -424  -394  -378  -392  -461  -569  -675  -766  -844  -894  -906  -896  -885  -885  -884  -846  -738  -589  -474  -424  -413  -425  -495  -652  -842  -929  -809  -503  -167  40  64  -93  -405  -793  -1125  -1297  -1300  -1184  -1022  -879  -781  -750  -795  -873  -930  -943  -915  -871  -840  -855  -949  -1105  -1242  -1296  -1272  -1221  -1188  -1178  -1174  -1157  -1105  -1009  -909  -864  -882  -905  -873  -780  -655  -524  -412  -343  -324  -345  -399  -460  -464  -357  -155  71  251  329  255  25  -285  -560  -724  -770  -731  -657  -590  -564  -630  -837  -1132  -1363  -1391  -1140  -614  59  719  1402  2390  3962  6177  8751  10940  11830  10864  8165  4634  1591  -106  -562  -442  -379  -668  -1115  -1341  -1300  -1201  -1155  -1147  -1143  -1126  -1097  -1059  -1001  -919  -843  -812  -863  -1006  -1190  -1325  -1374  -1333  -1189  -958  -717  -546  -472  -468  -498  -520  -489  -373  -182  69  330  501  520  407  239  110  100  270  615  991  1215  1223  1096  1005  1101  1370  1650  1818  1871  1864  1849  1822  1756  1658  1539  1323  910  377  -47  -243  -300  -345  -429  -544  -662  -751  -798  -809  -783  -706  -592  -507  -557  -816  -1206  -1520  -1629  -1523  -1240  -896  -652  -553  -534  -538  -550  -559  -557  -543  -526  -512  -495  -466  -431  -426  -465  -515  -539  -532  -512  -496  -501  -526  -562  -588  -588  -572  -569  -569  -541  -476  -380  -273  -222  -273  -369  -439  -470  -480  -502  -568  -665  -727  -693  -582  -481  -438  -433  -438  -465  -533  -628  -697  -697  -627  -524  -443  -410  -417  -440  -448  -389  -221  9  175  187  50  -150  -307  -363  -299  -105  157  362  453  480  497  510  499  461  413  384  375  358  311  213  23  -245  -508  -692  -778  -787  -760  -727  -702  -686  -686  -743  -903  -1024  -703  350  2000  3848  5498  6955  8598  10345  11428  11088  9107  6038  2928  595  -680  -1069  -1028  -956  -1041  -1295  -1538  -1605  -1522  -1388  -1246  -1089  -927  -816  -781  -788  -804  -818  -833  -840  -811  -718  -585  -491  -502  -629  -804  -932  -982  -995  -1004  -985  -891  -722  -521  -296  -65  110  207  295  456  677  881  1055  1241  1421  1540  1590  1600  1581  1508  1381  1251  1186  1201  1258  1313  1340  1312  1183  942  638  355  160  50  -56  -250  -535  -813  -984  -1041  -1039  -1017  -971  -892  -805  -742  -713  -700  -703  -757  -895  -1080  -1207  -1181  -982  -699  -478  -385  -384  -440  -551  -688  -796  -858  -902  -919  -890  -845  -822  -817  -797  -747  -697  -696  -762  -845  -854  -761  -637  -552  -541  -615  -739  -851  -908  -907  -858  -742  -537  -332  -257  -268  -266  -283  -359  -481  -671  -908  -1112  -1226  -1243  -1187  -1090  -991  -927  -887  -836  -780  -768  -811  -840  -802  -742  -722  -739  -757  -758  -762  -810  -932  -1095  -1209  -1218  -1125  -992  -899  -897  -983  -1108  -1198  -1200  -1098  -919  -715  -548  -456  -431  -427  -405  -350  -257  -150  -69  -31  -20  -26  -72  -190  -364  -538  -705  -888  -1071  -1210  -1278  -1283  -1271  -1280  -1308  -1336  -1358  -1366  -1366  -1396  -1513  -1708  -1765  -1357  -438  734  2003  3372  4947  6931  9171  10858  11062  9408  6345  2917  203  -1244  -1644  -1599  -1540  -1605  -1703  -1677  -1555  -1469  -1450  -1458  -1468  -1490  -1542  -1613  -1635  -1521  -1277  -1037  -936  -991  -1118  -1224  -1264  -1218  -1062  -819  -568  -378  -268  -224  -233  -282  -332  -334  -263  -140  2  171  419  765  1124  1363  1449  1481  1563  1706  1862  2001  2119  2219  2318  2428  2513  2494  2315  2037  1785  1597  1405  1188  1005  887  782  632  426  198  17  -63  -87  -132  -214  -295  -370  -459  -539  -547  -455  -289  -94  58  110  42  -126  -315  -433  -473  -468  -403  -240  -22  134  154  56  -84  -191  -248  -277  -293  -300  -305  -306  -287  -230  -149  -83  -47  -27  -2  28  56  75  100  154  228  292  329  336  267  73  -179  -316  -228  11  236  342  343  301  263  249  243  229  200  137  6  -168  -293  -302  -200  -43  97  171  174  147  148  196  222  166  50  -85  -217  -296  -305  -286  -281  -300  -331  -357  -371  -371  -332  -214  -3  262  488  533  324  -4  -187  -69  282  698  1028  1142  959  535  62  -297  -509  -617  -682  -740  -784  -814  -847  -895  -950  -995  -1031  -1024  -833  -301  639  2015  3810  5923  8131  10005  10921  10351  8227  5031  1635  -983  -2202  -2153  -1538  -997  -751  -814  -1162  -1580  -1801  -1782  -1662  -1566  -1516  -1476  -1420  -1338  -1237  -1161  -1133  -1102  -1001  -829  -671  -636  -768  -999  -1197  -1288  -1289  -1235  -1132  -978  -806  -672  -602  -546  -396  -95  252  482  549  512  419  306  230  257  422  677  895  996  1005  986  972  968  973  986  993  968  889  771  625  413  104  -249  -559  -783  -929  -1028  -1129  -1252  -1354  -1414  -1473  -1553  -1623  -1656  -1657  -1651  -1655  -1679  -1712  -1741  -1760  -1773  -1754  -1645  -1426  -1210  -1153  -1252  -1393  -1521  -1619  -1668  -1654  -1562  -1409  -1236  -1089  -1000  -966  -956  -940  -922  -913  -899  -827  -672  -512  -473  -577  -714  -777  -755  -715  -698  -662  -580  -513  -521  -586  -666  -718  -731  -724  -661  -510  -362  -337  -452  -629  -769  -844  -884  -908  -924  -940  -946  -897  -743  -513  -318  -231  -237  -292  -365  -436  -491  -511  -453  -287  -62  111  178  154  75  -38  -136  -113  100  401  547  402  78  -202  -337  -362  -359  -394  -489  -603  -671  -681  -690  -730  -774  -800  -814  -822  -808  -718  -529  -325  -142  220  1003  2302  4176  6548  8856  10324  10571  9510  7232  4395  1916  239  -689  -1076  -1190  -1267  -1322  -1250  -1100  -1012  -1025  -1098  -1172  -1182  -1090  -934  -790  -698  -648  -629  -649  -749  -974  -1249  -1382  -1272  -1008  -769  -675  -675  -645  -563  -471  -383  -293  -168  26  247  391  424  406  424  545  781  1068  1305  1442  1513  1575  1653  1751  1867  1979  2056  2093  2095  2027  1844  1590  1389  1305  1287  1260  1198  1103  967  796  622  447  239  11  -170  -278  -337  -393  -469  -548  -594  -591  -565  -544  -533  -522  -516  -543  -631  -745  -793  -721  -582  -472  -434  -452  -501  -559  -599  -612  -610  -606  -607  -614  -623  -639  -682  -750  -793  -774  -702  -582  -434  -327  -291  -298  -314  -323  -313  -283  -250  -243  -261  -276  -282  -313  -402  -519  -566  -466  -257  -54  59  89  72  35  -7  -51  -110  -202  -308  -396  -414  -282  -27  194  288  289  240  140  0  -127  -201  -217  -192  -139  -78  -39  -38  -82  -153  -198  -110  191  609  915  980  843  612  378  193  90  81  118  127  93  58  42  9  -82  -209  -299  -319  -306  -327  -436  -632  -887  -1146  -1204  -789  133  1378  2849  4676  6942  9285  10926  11139  9656  6864  3669  1000  -606  -1170  -1128  -933  -857  -1003  -1306  -1619  -1830  -1934  -1971  -1946  -1842  -1687  -1564  -1519  -1526  -1542  -1534  -1480  -1367  -1232  -1125  -1043  -942  -811  -693  -626  -608  -605  -599  -591  -583  -564  -520  -448  -360  -274  -199  -140  -89  -1  180  430  656  801  884  940  989  1045  1140  1298  1476  1591  1586  1465  1282  1099  914  703  462  198  -67  -295  -457  -574  -674  -740  -756  -729  -690  -690  -765  -896  -1028  -1120  -1169  -1180  -1104  -897  -632  -483  -546  -774  -1059  -1296  -1411  -1395  -1316  -1252  -1227  -1224  -1229  -1233  -1229  -1196  -1110  -971  -820  -714  -657  -619  -590  -572  -567  -563  -554  -548  -578  -675  -810  -909  -922  -858  -763  -699  -716  -827  -983  -1102  -1142  -1101  -983  -824  -688  -609  -595  -662  -796  -912  -900  -737  -519  -364  -363  -520  -683  -729  -703  -684  -681  -674  -630  -563  -530  -512  -443  -322  -186  -84  -89  -223  -422  -582  -625  -574  -517  -495  -448  -305  -87  107  223  277  294  252  91  -191  -500  -743  -898  -960  -918  -777  -599  -490  -479  -494  -450  -338  -235  -203  -214  -225  -247  -292  -238  165  1135  2800  5224  8171  10908  12529  12395  10349  6955  3425  898  -221  -268  50  119  -164  -501  -666  -661  -574  -493  -459  -485  -584  -742  -898  -996  -1024  -1004  -973  -946  -895  -805  -690  -585  -522  -506  -510  -516  -519  -525  -534  -536  -498  -391  -235  -102  -49  -39  44  284  605  848  957  1002  1067  1204  1413  1648  1847  1963  1992  1953  1856  1734  1649  1629  1655  1681  1629  1415  1066  732  511  373  261  153  34  -88  -188  -266  -329  -358  -337  -280  -226  -202  -203  -213  -220  -220  -231  -296  -454  -670  -848  -923  -887  -755  -579  -404  -199  71  341  518  595  600  510  301  29  -223  -441  -631  -752  -758  -640  -411  -109  191  402  479  399  146  -188  -432  -524  -533  -526  -495  -395  -211  26  263  444  525  462  234  -72  -298  -383  -402  -426  -440  -408  -349  -314  -336  -409  -485  -518  -517  -516  -538  -573  -599  -614  -624  -621  -586  -510  -430  -378  -328  -266  -262  -385  -639  -937  -1137  -1174  -1077  -889  -670  -512  -456  -488  -602  -786  -971  -1045  -915  -603  -267  -71  -58  -178  -360  -558  -767  -982  -1170  -1317  -1472  -1670  -1842  -1918  -1916  -1884  -1851  -1832  -1834  -1859  -1887  -1871  -1788  -1653  -1460  -1079  -217  1456  4071  7285  10225  11807  11272  8770  5370  2238  23  -1104  -1420  -1435  -1409  -1362  -1405  -1602  -1846  -2018  -2054  -1971  -1862  -1783  -1712  -1628  -1568  -1592  -1708  -1831  -1849  -1760  -1664  -1624  -1614  -1596  -1565  -1543  -1543  -1547  -1511  -1402  -1235  -1056  -882  -725  -616  -558  -515  -471  -434  -413  -393  -314  -101  240  585  794  869  916  991  1067  1122  1183  1288  1409  1466  1434  1357  1262  1125  889  529  128  -167  -303  -349  -409  -514  -610  -620  -546  -454  -376  -303  -243  -218  -227  -256  -296  -330  -375  -456  -559  -656  -736  -779  -740  -582  -355  -172  -97  -96  -128  -200  -331  -478  -560  -560  -536  -527  -499  -382  -165  65  211  256  260  279  320  341  283  122  -109  -350  -537  -595  -479  -243  -6  164  272  332  374  448  547  546  312  -92  -437  -587  -561  -409  -178  30  94  16  -87  -138  -144  -120  -60  27  98  83  -92  -429  -787  -1009  -1052  -947  -726  -466  -270  -188  -203  -259  -288  -262  -224  -234  -294  -354  -374  -348  -273  -121  130  409  584  567  362  78  -121  -152  -44  113  229  268  226  103  -66  -224  -332  -363  -303  -204  -148  -190  -353  -625  -927  -1128  -1135  -898  -311  769  2400  4521  6967  9378  11144  11672  10724  8537  5746  3169  1352  312  -145  -218  -213  -327  -509  -682  -836  -958  -1030  -1058  -1058  -1052  -1049  -1050  -1057  -1068  -1065  -1032  -976  -918  -849  -754  -659  -631  -689  -750  -732  -663  -615  -623  -685  -764  -803  -742  -550  -291  -103  -42  -52  -69  -68  -51  -2  146  458  857  1168  1315  1351  1344  1306  1224  1111  1019  979  972  942  817  556  217  -68  -222  -269  -266  -261  -275  -312  -375  -456  -566  -767  -1074  -1379  -1556  -1604  -1588  -1541  -1449  -1303  -1117  -913  -751  -695  -770  -952  -1147  -1265  -1303  -1309  -1342  -1450  -1598  -1669  -1590  -1406  -1185  -933  -680  -516  -493  -579  -699  -784  -811  -803  -787  -786  -816  -868  -899  -881  -844  -828  -825  -798  -725  -653  -661  -756  -852  -861  -768  -619  -451  -288  -189  -231  -446  -747  -961  -984  -834  -619  -460  -415  -481  -637  -810  -890  -822  -670  -529  -431  -381  -401  -485  -576  -632  -637  -576  -448  -291  -178  -136  -141  -177  -252  -355  -441  -465  -395  -217  5  167  227  228  208  167  90  -10  -101  -178  -251  -309  -342  -353  -337  -256  -76  166  352  391  303  159  -7  -182  -330  -444  -559  -703  -852  -960  -1004  -1002  -973  -933  -926  -1013  -1130  -994  -362  768  2337  4317  6599  8967  10975  11822  10884  8407  5280  2398  422  -452  -570  -384  -175  -155  -411  -811  -1165  -1372  -1441  -1445  -1420  -1310  -1060  -770  -644  -726  -861  -931  -940  -921  -871  -765  -626  -513  -448  -395  -324  -248  -196  -184  -208  -234  -214  -116  33  157  236  323  448  584  703  792  852  903  984  1138  1354  1548  1660  1720  1798  1900  1969  1975  1956  1954  1939  1806  1477  1039  692  535  512  519  481  362  170  -26  -149  -183  -166  -122  -54  30  93  81  -6  -107  -163  -173  -163  -154  -152  -150  -140  -129  -137  -179  -241  -300  -345  -373  -384  -373  -329  -247  -157  -116  -144  -193  -211  -209  -241  -347  -496  -607  -646  -645  -633  -609  -568  -539  -572  -668  -776  -855  -894  -907  -914  -922  -927  -920  -900  -876  -859  -852  -846  -831  -807  -781  -761  -746  -737  -737  -749  -773  -805  -834  -854  -861  -852  -818  -752  -657  -540  -426  -366  -414  -548  -674  -732  -736  -725  -719  -717  -719  -723  -731  -751  -786  -817  -816  -780  -737  -703  -683  -678  -680  -675  -657  -629  -600  -570  -538  -509  -488  -477  -473  -474  -477  -490  -532  -607  -677  -706  -697  -680  -699  -774  -872  -935  -962  -1041  -1206  -1351  -1396  -1373  -1328  -1273  -1193  -1097  -1034  -956  -637  99  1229  2695  4552  6845  9288  11148  11639  10453  7909  4796  2076  399  -286  -487  -623  -826  -1041  -1185  -1228  -1203  -1167  -1148  -1148  -1150  -1149  -1184  -1271  -1368  -1445  -1517  -1586  -1609  -1539  -1369  -1142  -920  -754  -665  -648  -670  -693  -702  -703  -703  -707  -714  -724  -719  -679  -625  -586  -530  -393  -150  168  475  667  731  744  789  904  1047  1144  1185  1236  1347  1487  1577  1550  1409  1220  992  680  339  71  -102  -193  -220  -215  -203  -188  -183  -238  -406  -659  -897  -1065  -1170  -1190  -1111  -995  -907  -831  -734  -625  -546  -519  -513  -483  -436  -412  -427  -441  -413  -353  -300  -271  -267  -315  -446  -618  -728  -734  -685  -640  -613  -571  -479  -334  -168  -21  70  96  50  -75  -237  -354  -393  -387  -371  -355  -337  -319  -307  -306  -310  -312  -314  -340  -422  -541  -617  -602  -530  -452  -381  -308  -218  -88  96  288  372  287  103  -60  -159  -219  -288  -380  -468  -525  -555  -567  -564  -556  -552  -547  -512  -427  -310  -211  -152  -121  -98  -74  -65  -97  -185  -315  -447  -560  -633  -617  -491  -301  -120  -2  46  57  54  38  0  -60  -113  -125  -52  122  312  397  341  144  -181  -522  -730  -774  -727  -664  -623  -605  -601  -602  -599  -574  -508  -413  -256  98  737  1693  3044  4772  6832  9195  11429  12641  11964  9312  5717  2551  654  69  153  163  -130  -482  -678  -770  -866  -965  -1031  -1070  -1101  -1102  -1023  -854  -649  -483  -398  -381  -396  -415  -436  -483  -563  -646  -695  -683  -592  -464  -395  -422  -459  -401  -245  -69  53  114  165  296  574  951  1256  1385  1391  1385  1433  1533  1645  1734  1764  1683  1464  1184  1000  1041  1342  1771  2079  2080  1744  1212  725  406  205  70  33  93  168  181  100  -53  -207  -298  -318  -292  -233  -175  -202  -389  -695  -980  -1148  -1204  -1188  -1131  -1060  -1008  -988  -994  -1019  -1055  -1094  -1127  -1121  -1034  -866  -680  -539  -461  -435  -441  -463  -482  -487  -473  -453  -452  -493  -577  -686  -785  -865  -946  -979  -907  -795  -752  -802  -891  -954  -964  -944  -928  -928  -942  -970  -1015  -1069  -1108  -1111  -1073  -1010  -964  -1018  -1247  -1606  -1927  -2091  -2112  -2066  -1988  -1852  -1642  -1400  -1208  -1117  -1109]
