reading_id,reading_time,wire_id,result_classification,heart_rate,heart_rate_alert,firmware_version,device_app_version,hardware_version,waveform_samples
1269a0a0-5653-11ed-8080-808080808080,Thu Oct 27 23:57:10 UTC 2022,e100e3fd2639,NSR,58,NONE,20001.171.50,2.10.0,Charge 5,[2471  2642  3024  3717  4666  5667  6465  6955  7189  7179  6729  5627  4094  2773  2115  2002  2072  2112  2096  2065  2045  2020  1966  1899  1852  1834  1829  1816  1785  1741  1707  1701  1739  1836  1985  2142  2234  2165  1868  1422  1048  881  884  976  1110  1267  1425  1552  1590  1478  1232  993  909  978  1091  1187  1289  1423  1579  1743  1918  2085  2194  2229  2219  2195  2164  2129  2116  2151  2215  2262  2275  2281  2298  2316  2309  2258  2135  1923  1683  1514  1416  1295  1099  878  659  399  87  -206  -423  -555  -614  -623  -600  -561  -520  -485  -436  -346  -231  -143  -109  -107  -109  -110  -126  -171  -248  -347  -436  -487  -500  -497  -484  -457  -418  -382  -361  -353  -346  -317  -253  -192  -201  -287  -385  -440  -450  -432  -384  -303  -204  -114  -63  -70  -131  -218  -286  -311  -309  -320  -374  -470  -572  -646  -666  -625  -549  -479  -435  -415  -407  -398  -382  -372  -369  -338  -272  -204  -155  -130  -165  -302  -508  -681  -745  -699  -579  -444  -342  -281  -246  -239  -277  -348  -428  -494  -537  -560  -576  -567  -502  -398  -301  -230  -175  -159  -228  -389  -576  -707  -747  -694  -549  -354  -197  -118  -91  -82  -87  -115  -152  -168  -148  -108  -78  -73  -83  -105  -148  -207  -260  -292  -298  -282  -271  -290  -339  -387  -412  -402  -362  -308  -269  -254  -250  -253  -280  -348  -437  -502  -525  -527  -529  -534  -542  -551  -560  -569  -567  -534  -454  -355  -288  -269  -277  -288  -281  -242  -173  -101  -49  -48  -160  -419  -730  -917  -913  -805  -705  -654  -632  -620  -640  -734  -890  -1044  -1124  -1027  -690  -179  450  1252  2184  3099  3890  4438  4572  4142  3132  1736  299  -832  -1462  -1612  -1457  -1183  -911  -726  -644  -586  -518  -487  -520  -594  -651  -650  -621  -597  -567  -510  -438  -381  -359  -368  -387  -405  -430  -470  -515  -546  -547  -511  -434  -339  -269  -231  -197  -154  -119  -94  -48  43  182  341  501  673  850  975  1037  1077  1116  1139  1142  1166  1257  1407  1552  1647  1691  1707  1709  1710  1712  1714  1724  1742  1740  1647  1386  978  565  281  137  69  27  -2  -23  -46  -88  -152  -210  -240  -267  -326  -391  -426  -446  -487  -539  -553  -502  -419  -358  -342  -355  -369  -372  -367  -355  -330  -282  -211  -139  -92  -77  -77  -80  -79  -77  -76  -78  -85  -100  -127  -179  -253  -290  -248  -176  -144  -161  -200  -224  -217  -186  -134  -60  4  21  2  -21  -35  -37  -8  68  176  260  271  187  7  -226  -429  -506  -425  -243  -64  44  69  23  -69  -165  -227  -249  -238  -173  -45  103  203  219  148  5  -165  -299  -355  -334  -272  -216  -197  -208  -233  -269  -306  -324  -317  -292  -263  -237  -208  -180  -165  -161  -163  -175  -202  -226  -223  -195  -176  -198  -253  -305  -333  -357  -411  -496  -579  -639  -695  -764  -847  -918  -933  -875  -789  -732  -718  -724  -734  -740  -731  -693  -626  -569  -559  -597  -653  -701  -730  -736  -715  -660  -579  -497  -425  -349  -281  -237  -202  -153  -70  56  199  290  264  89  -187  -443  -594  -647  -656  -663  -673  -675  -675  -704  -793  -919  -1015  -1034  -968  -844  -739  -679  -566  -272  273  1066  2031  3047  3935  4451  4398  3736  2576  1170  -103  -988  -1474  -1598  -1444  -1215  -1039  -903  -804  -764  -765  -769  -742  -663  -553  -458  -402  -362  -308  -244  -192  -167  -153  -116  -28  99  225  312  348  347  331  315  303  299  312  347  395  427  439  458  529  674  844  959  993  980  957  940  951  1019  1150  1302  1436  1558  1672  1750  1782  1791  1799  1810  1823  1817  1738  1542  1261  979  752  603  535  504  448  341  198  27  -184  -425  -653  -823  -910  -943  -986  -1067  -1155  -1216  -1244  -1254  -1257  -1242  -1176  -1050  -909  -823  -835  -944  -1094  -1206  -1244  -1219  -1146  -1055  -989  -965  -967  -981  -1009  -1055  -1098  -1108  -1067  -972  -832  -688  -582  -524  -510  -564  -722  -940  -1101  -1125  -1004  -789  -586  -477  -469  -518  -584  -639  -676  -688  -670  -628  -573  -505  -423  -356  -335  -340  -345  -371  -433  -489  -507  -495  -477  -463  -451  -434  -416  -412  -422  -419  -388  -352  -329  -311  -274  -196  -95  -21  -22  -115  -272  -415  -474  -436  -333  -214  -125  -96  -137  -226  -315  -362  -362  -327  -282  -251  -243  -253  -274  -298  -313  -292  -221  -129  -65  -40  -27  -13  -26  -76  -133  -168  -188  -195  -186  -165  -123  -24  148  321  388  345  275  232  217  213  214  220  236  258  260  189  48  -76  -128  -126  -102  -76  -75  -128  -247  -383  -467  -500  -533  -555  -480  -210  275  866  1432  1987  2656  3493  4304  4711  4402  3335  1854  590  4  37  232  143  -321  -820  -990  -843  -578  -315  -120  -20  11  -5  -71  -164  -236  -269  -272  -242  -159  -31  83  139  131  76  3  -50  -55  4  122  247  324  347  345  339  331  315  310  372  560  848  1103  1228  1243  1218  1193  1178  1172  1179  1220  1308  1435  1570  1688  1792  1881  1943  1971  1973  1933  1823  1655  1492  1375  1280  1170  1056  969  898  785  609  397  176  -26  -172  -251  -311  -400  -515  -622  -698  -732  -723  -698  -687  -692  -704  -727  -772  -827  -853  -830  -783  -742  -707  -668  -630  -608  -601  -594  -575  -554  -558  -596  -656  -714  -753  -765  -743  -680  -593  -520  -479  -461  -467  -504  -559  -602  -608  -569  -507  -458  -440  -456  -506  -578  -648  -705  -743  -747  -710  -655  -615  -593  -573  -548  -522  -504  -496  -496  -501  -506  -509  -505  -493  -468  -439  -425  -453  -533  -633  -699  -687  -591  -454  -351  -333  -417  -582  -752  -827  -779  -667  -565  -489  -419  -377  -412  -528  -651  -706  -688  -630  -552  -462  -378  -324  -285  -224  -142  -78  -51  -39  -38  -87  -229  -429  -583  -629  -560  -392  -176  -2  86  115  124  129  131  128  122  124  155  227  295  294  223  153  129  116  22  -216  -523  -743  -814  -779  -680  -551  -441  -400  -445  -551  -678  -738  -543  42  922  1853  2698  3505  4274  4806  4840  4242  3038  1447  -48  -991  -1330  -1270  -990  -663  -483  -510  -613  -663  -660  -652  -659  -660  -641  -621  -602  -564  -511  -466  -433  -416  -409  -398  -368  -314  -240  -168  -115  -74  -37  -8  10  23  29  28  17  0  -22  -47  -47  46  291  638  953  1157  1267  1313  1311  1279  1242  1223  1241  1330  1524  1784  1996  2097  2120  2108  2056  1932  1716  1444  1195  1008  868  772  729  734  762  767  667  398  4  -346  -500  -444  -293  -172  -123  -142  -244  -431  -634  -760  -784  -748  -699  -668  -658  -665  -687  -718  -734  -699  -594  -471  -422  -458  -517  -555  -569  -565  -543  -505  -464  -434  -424  -429  -436  -437  -435  -444  -476  -522  -559  -574  -571  -564  -553  -526  -477  -420  -380  -361  -348  -320  -268  -196  -128  -83  -69  -83  -120  -166  -201  -218  -226  -244  -287  -358  -434  -483  -502  -506  -492  -431  -309  -179  -119  -152  -222  -269  -292  -316  -350  -403  -471  -503  -464  -405  -390  -422  -462  -464  -445  -442  -435  -399  -347  -313  -348  -456  -575  -647  -655  -581  -411  -187  -6  69  42  -61  -192  -282  -304  -286  -270  -312  -452  -648  -791  -816  -737  -610  -499  -426  -384  -364  -359  -360  -358  -352  -343  -327  -304  -269  -210  -134  -82  -98  -200  -340  -440  -467  -445  -412  -391  -380  -371  -360  -331  -241  -55  189  400  503  473  317  103  -65  -143  -158  -146  -126  -112  -129  -204  -327  -442  -484  -448  -416  -463  -565  -654  -723  -829  -978  -1053  -942  -654  -211  384  1101  1930  2861  3822  4635  4991  4603  3450  1831  247  -819  -1199  -1139  -968  -799  -668  -633  -667  -695  -685  -635  -558  -484  -436  -416  -408  -379  -313  -234  -181  -167  -174  -187  -206  -241  -290  -333  -356  -347  -278  -135  39  175  239  259  267  279  310  386  519  678  798  842  837  847  926  1083  1267  1416  1504  1556  1622  1727  1852  1959  2033  2079  2100  2101  2093  2081  2045  1942  1762  1571  1439  1374  1335  1266  1110  820  449  143  -16  -65  -85  -133  -232  -356  -459  -536  -602  -649  -663  -659  -670  -717  -784  -833  -839  -808  -767  -737  -712  -667  -604  -553  -531  -528  -530  -545  -585  -644  -702  -746  -764  -760  -753  -743  -713  -679  -662  -662  -665  -662  -652  -640  -635  -628  -605  -565  -531  -528  -546  -551  -526  -488  -454  -430  -419  -450  -536  -632  -675  -654  -617  -594  -568  -533  -515  -521  -522  -487  -428  -381  -359  -340  -299  -226  -143  -87  -66  -63  -61  -61  -64  -64  -57  -42  -33  -45  -86  -149  -220  -281  -317  -316  -265  -159  -29  61  90  80  52  14  -32  -74  -87  -49  53  193  298  302  198  44  -72  -111  -103  -95  -109  -137  -162  -179  -179  -147  -88  -30  7  22  19  -16  -101  -213  -302  -340  -337  -309  -263  -211  -175  -182  -231  -285  -310  -295  -248  -181  -121  -98  -115  -134  -125  -93  -54  -17  7  7  -24  -82  -139  -164  -147  -109  -77  -52  -29  -27  -117  -361  -692  -943  -1035  -1013  -929  -794  -618  -442  -330  -366  -639  -1112  -1513  -1542  -1121  -328  712  1849  2968  3987  4652  4618  3803  2422  823  -571  -1430  -1689  -1493  -1051  -590  -362  -459  -686  -824  -854  -852  -861  -871  -867  -858  -853  -845  -814  -750  -648  -489  -262  -23  123  110  -54  -282  -449  -502  -465  -360  -205  -41  83  151  184  221  301  418  520  574  592  616  673  746  799  833  884  970  1094  1253  1432  1609  1759  1857  1906  1936  1961  1974  1973  1967  1952  1905  1796  1631  1457  1308  1185  1057  882  628  350  144  35  -34  -112  -212  -366  -567  -745  -835  -847  -831  -823  -796  -710  -594  -542  -614  -758  -845  -796  -655  -525  -452  -420  -410  -435  -507  -607  -685  -715  -707  -666  -591  -494  -394  -315  -272  -264  -278  -308  -350  -393  -421  -419  -372  -276  -162  -81  -56  -79  -137  -210  -271  -311  -346  -379  -411  -454  -503  -539  -548  -526  -468  -382  -289  -222  -198  -212  -247  -291  -334  -372  -401  -413  -414  -431  -480  -537  -564  -545  -493  -435  -390  -358  -341  -359  -420  -493  -534  -528  -500  -473  -448  -418  -387  -364  -356  -377  -420  -460  -479  -475  -443  -386  -313  -243  -195  -170  -157  -153  -158  -170  -189  -210  -228  -242  -254  -264  -274  -287  -315  -360  -404  -429  -435  -434  -428  -408  -354  -252  -135  -74  -111  -216  -310  -335  -280  -161  -15  111  185  207  198  186  181  183  189  199  206  192  140  59  -20  -70  -103  -151  -225  -324  -439  -542  -597  -596  -544  -452  -357  -304  -342  -506  -735  -871  -793  -477  32  687  1528  2610  3826  4846  5222  4678  3317  1563  -36  -1059  -1418  -1318  -999  -623  -333  -228  -316  -554  -844  -1049  -1105  -1043  -908  -748  -608  -508  -434  -363  -292  -239  -217  -213  -204  -166  -62  131  363  525  540  389  119  -144  -275  -262  -176  -67  83  290  489  603  627  606  581  590  680  884  1175  1460  1636  1688  1677  1657  1639  1634  1680  1818  2015  2176  2237  2171  1970  1705  1504  1415  1389  1366  1311  1183  939  603  263  -18  -219  -328  -361  -360  -359  -369  -384  -409  -463  -560  -675  -770  -828  -850  -847  -820  -759  -677  -618  -611  -648  -702  -741  -754  -745  -715  -654  -568  -484  -450  -499  -599  -668  -662  -595  -514  -460  -434  -410  -380  -356  -351  -363  -384  -402  -413  -418  -421  -410  -353  -253  -207  -291  -431  -518  -532  -502  -463  -443  -442  -448  -454  -458  -459  -461  -461  -455  -437  -411  -380  -345  -315  -309  -324  -332  -318  -292  -294  -356  -451  -510  -500  -452  -414  -402  -407  -412  -404  -379  -342  -312  -311  -354  -439  -530  -585  -591  -566  -532  -505  -489  -479  -461  -417  -338  -255  -220  -257  -348  -440  -489  -486  -441  -382  -340  -324  -326  -343  -375  -404  -401  -364  -319  -283  -247  -212  -209  -274  -398  -512  -533  -447  -295  -137  -32  0  -27  -97  -179  -233  -231  -172  -84  -13  14  7  -21  -74  -167  -289  -402  -489  -553  -590  -601  -602  -611  -637  -678  -734  -806  -856  -769  -420  170  822  1422  2036  2738  3524  4294  4726  4433  3350  1837  432  -440  -685  -562  -458  -556  -741  -827  -798  -745  -712  -711  -749  -807  -837  -815  -752  -670  -562  -413  -250  -139  -103  -123  -173  -228  -253  -232  -186  -155  -149  -156  -164  -172  -171  -143  -69  46  166  249  291  315  331  350  413  575  829  1094  1292  1407  1457  1471  1474  1497  1570  1705  1859  1972  2030  2045  2003  1884  1730  1616  1562  1526  1460  1351  1208  1018  787  523  204  -132  -362  -429  -398  -348  -314  -304  -322  -376  -464  -562  -654  -725  -753  -735  -703  -687  -690  -695  -691  -676  -656  -636  -608  -558  -487  -422  -381  -365  -370  -399  -442  -481  -505  -516  -518  -515  -519  -534  -552  -568  -587  -609  -627  -634  -632  -620  -591  -547  -507  -485  -484  -490  -486  -463  -430  -412  -426  -460  -498  -539  -578  -595  -553  -429  -264  -150  -154  -279  -455  -582  -619  -586  -517  -440  -379  -342  -337  -377  -460  -553  -613  -628  -608  -551  -461  -361  -284  -244  -238  -264  -321  -391  -446  -467  -443  -351  -196  -31  82  130  126  59  -82  -256  -379  -414  -379  -304  -221  -166  -158  -193  -249  -300  -326  -329  -311  -273  -225  -177  -126  -59  23  92  129  134  96  2  -118  -216  -277  -316  -338  -332  -289  -226  -171  -146  -142  -137  -111  -67  -27  2  42  103  165  207  230  249  273  316  399  502  571  575  517  426  317  186  32  -115  -235  -322  -376  -404  -419  -421  -405  -379  -353  -325  -289  -261  -286  -343  -291  29  669  1550  2555  3578  4484  5072  5114  4485  3265  1743  354  -542  -903  -936  -833  -703  -613  -572  -566  -584  -601  -604  -602  -602  -603  -603  -603  -602  -593  -575  -553  -536  -529  -538  -560  -591  -631  -665  -656  -590  -489  -407  -373  -374  -383  -378  -343  -269  -162  -53  19  61  119  212  314  387  433  484  582  742  938  1133  1307  1452  1559  1624  1648  1639  1612  1592  1582  1574  1564  1535  1442  1269  1058  866  718  586  424  238  85  -5  -81  -205  -378  -543  -654  -731  -800  -856  -888  -896  -885  -866  -843  -808  -766  -731  -714  -712  -714  -717  -719  -716  -704  -685  -684  -716  -743  -721  -650  -554  -453  -386  -387  -456  -558  -643  -683  -685  -666  -641  -615  -576  -509  -410  -303  -228  -200  -196  -194  -188  -179  -164  -135  -94  -63  -69  -132  -238  -339  -392  -387  -336  -263  -196  -149  -121  -110  -108  -108  -108  -114  -134  -162  -183  -178  -138  -77  -27  -7  -10  -17  -2  48  120  174  193  187  166  138  119  123  146  156  134  103  87  76  50  10  -27  -46  -43  -7  72  171  242  274  287  271  211  139  111  141  203  257  267  220  123  10  -67  -90  -80  -49  17  122  234  312  337  311  251  184  132  99  76  70  95  155  249  376  502  578  570  465  290  124  32  1  -13  -24  -14  35  108  162  178  174  185  232  295  318  271  184  118  96  102  112  92  -19  -280  -654  -1005  -1227  -1318  -1333  -1299  -1206  -1055  -905  -813  -784  -785  -813  -933  -1152  -1283  -1087  -520  292  1270  2399  3534  4359  4558  3946  2588  902  -523  -1332  -1574  -1517  -1400  -1384  -1447  -1407  -1252  -1142  -1121  -1128  -1132  -1131  -1123  -1087  -995  -873  -785  -756  -755  -744  -710  -664  -615  -564  -514  -471  -439  -416  -406  -405  -402  -389  -365  -326  -265  -176  -68  32  115  201  306  414  493  548  626  766  942  1104  1220  1284  1336  1441  1607  1761  1841  1856  1848  1839  1834  1820  1777  1694  1597  1525  1476  1409  1291  1121  911  662  390  129  -99  -271  -360  -377  -361  -349  -374  -459  -576  -660  -679  -649  -604  -571  -555  -555  -573  -609  -648  -684  -718  -733  -716  -684  -662  -650  -641  -625  -598  -559  -507  -446  -389  -326  -239  -148  -107  -146  -233  -301  -330  -370  -445  -506  -517  -496  -475  -467  -467  -466  -458  -436  -388  -318  -253  -210  -193  -203  -235  -269  -281  -262  -220  -155  -58  54  137  155  100  -18  -151  -236  -262  -265  -281  -308  -315  -292  -268  -254  -240  -232  -249  -285  -316  -320  -292  -248  -214  -203  -213  -242  -278  -302  -309  -310  -318  -339  -369  -400  -420  -418  -385  -324  -247  -177  -135  -125  -134  -151  -170  -185  -193  -201  -220  -255  -281  -260  -188  -92  0  60  59  -4  -97  -167  -193  -187  -160  -121  -82  -58  -51  -55  -58  -62  -85  -131  -174  -187  -177  -170  -161  -104  34  210  334  377  378  376  378  376  359  335  321  295  200  10  -210  -377  -464  -500  -533  -590  -642  -626  -526  -404  -326  -306  -318  -317  -258  -145  35  414  1119  2115  3253  4300  4907  4750  3786  2282  660  -638  -1329  -1430  -1176  -792  -428  -221  -238  -363  -449  -460  -431  -385  -340  -307  -290  -284  -282  -286  -303  -325  -310  -225  -106  -33  -43  -102  -148  -159  -159  -158  -143  -113  -69  -8  72  161  242  305  352  386  413  444  505  619  784  969  1142  1274  1357  1413  1466  1528  1596  1671  1766  1877  1964  1989  1945  1857  1768  1698  1644  1607  1589  1577  1547  1446  1219  861  435  47  -207  -324  -368  -383  -375  -345  -299  -254  -221  -212  -257  -387  -580  -759  -857  -874  -858  -841  -835  -835  -836  -833  -828  -830  -840  -844  -829  -797  -745  -675  -603  -552  -527  -525  -530  -528  -519  -506  -479  -426  -359  -304  -285  -322  -435  -584  -672  -622  -454  -278  -206  -240  -299  -331  -336  -323  -290  -234  -178  -166  -235  -358  -451  -465  -409  -330  -271  -241  -232  -246  -296  -388  -490  -536  -484  -363  -246  -181  -179  -245  -378  -531  -635  -665  -642  -582  -490  -395  -334  -331  -384  -467  -537  -568  -572  -564  -547  -522  -492  -464  -446  -428  -399  -359  -318  -283  -257  -243  -237  -240  -261  -309  -379  -451  -511  -545  -553  -550  -548  -549  -541  -511  -463  -425  -411  -405  -370  -280  -154  -36  39  71  77  77  76  67  46  12  -26  -52  -61  -60  -59  -62  -66  -68  -71  -96  -171  -301  -461  -609  -703  -734  -729  -714  -697  -696  -735  -784  -727  -465  7  649  1426  2290  3135  3865  4377  4444  3851  2657  1216  -44  -861  -1183  -1136  -965  -834  -732  -629  -559  -541  -567  -614  -660  -689  -679  -612  -513  -435  -406  -407  -405  -381  -343  -312  -302  -302  -293  -265  -235  -223  -218  -184  -97  30  150  217  225  208  204  232  291  368  454  555  678  818  948  1039  1089  1134  1227  1374  1534  1674  1780  1846  1885  1919  1963  2011  2041  2015  1902  1729  1582  1512  1496  1475  1395  1217  944  637  351  121  -26  -100  -150  -205  -267  -367  -536  -728  -851  -859  -771  -644  -541  -487  -467  -463  -471  -496  -528  -549  -556  -556  -560  -549  -473  -289  -47  116  75  -199  -581  -855  -924  -851  -738  -651  -605  -587  -585  -581  -549  -486  -413  -341  -274  -232  -221  -240  -286  -346  -391  -410  -405  -371  -305  -227  -170  -147  -151  -170  -196  -219  -229  -224  -212  -214  -248  -304  -345  -342  -299  -248  -221  -222  -231  -239  -247  -253  -238  -187  -104  -23  26  29  -15  -99  -198  -272  -296  -270  -208  -139  -86  -59  -75  -135  -234  -342  -400  -412  -416  -393  -338  -300  -298  -305  -307  -310  -319  -332  -344  -349  -340  -309  -261  -202  -127  -43  27  65  65  21  -65  -168  -239  -263  -257  -228  -168  -83  -9  20  -3  -60  -120  -166  -192  -178  -127  -71  -26  7  25  22  7  12  47  84  99  94  85  85  103  130  154  172  185  195  196  168  99  -3  -112  -203  -276  -366  -503  -651  -754  -792  -788  -766  -746  -728  -691  -582  -317  144  768  1549  2494  3510  4416  4986  4946  4093  2523  708  -738  -1424  -1353  -879  -469  -401  -606  -835  -940  -930  -842  -705  -567  -475  -443  -452  -467  -470  -461  -442  -403  -337  -265  -222  -213  -219  -212  -178  -129  -89  -75  -90  -136  -198  -245  -252  -215  -137  -33  86  203  287  340  414  536  664  742  790  863  962  1036  1074  1117  1200  1325  1487  1650  1759  1793  1777  1725  1637  1519  1403  1332  1322  1357  1392  1334  1072  611  121  -232  -424  -515  -550  -555  -543  -518  -468  -399  -352  -386  -529  -730  -881  -934  -908  -822  -698  -583  -519  -527  -610  -732  -823  -845  -805  -721  -612  -506  -437  -426  -476  -577  -688  -758  -766  -720  -637  -537  -439  -359  -304  -267  -243  -239  -274  -355  -451  -515  -535  -540  -552  -570  -586  -597  -600  -583  -526  -440  -357  -291  -229  -167  -132  -157  -252  -371  -443  -451  -434  -429  -442  -449  -396  -237  -16  145  175  86  -63  -199  -277  -313  -326  -304  -238  -149  -70  -30  -57  -161  -308  -423  -463  -407  -244  -27  123  118  -55  -312  -522  -623  -637  -585  -465  -299  -143  -39  3  -8  -59  -123  -168  -184  -188  -188  -170  -118  -51  -20  -52  -121  -178  -212  -248  -297  -328  -305  -248  -204  -199  -223  -253  -280  -307  -333  -351  -336  -242  -59  143  266  261  140  -29  -148  -141  0  212  385  455  421  301  146  32  -9  -8  4  18  31  29  -26  -168  -350  -482  -528  -522  -493  -438  -347  -245  -188  -207  -280  -309  -137  320  1089  2191  3505  4703  5348  5056  3789  1956  159  -1079  -1570  -1477  -1091  -675  -409  -330  -397  -578  -802  -971  -1027  -967  -806  -608  -457  -387  -377  -385  -384  -372  -359  -351  -344  -323  -264  -154  -29  39  20  -42  -80  -67  -28  2  12  15  45  102  165  233  328  468  628  756  821  836  836  871  988  1173  1346  1455  1527  1598  1663  1714  1760  1805  1836  1847  1837  1799  1714  1593  1485  1401  1279  1053  759  520  397  309  141  -131  -429  -653  -765  -792  -784  -763  -729  -686  -658  -666  -714  -784  -846  -877  -883  -878  -870  -864  -860  -861  -867  -873  -857  -792  -678  -559  -481  -458  -472  -487  -488  -480  -472  -462  -437  -383  -312  -275  -317  -428  -531  -543  -474  -399  -359  -330  -285  -241  -264  -404  -605  -736  -735  -648  -542  -443  -357  -294  -263  -272  -332  -445  -572  -660  -678  -615  -474  -302  -178  -131  -145  -212  -324  -446  -538  -587  -602  -593  -561  -496  -406  -328  -290  -290  -308  -326  -333  -318  -278  -230  -210  -238  -299  -359  -404  -429  -428  -396  -340  -275  -211  -154  -107  -83  -85  -104  -125  -134  -134  -135  -137  -139  -160  -212  -265  -262  -201  -141  -129  -166  -224  -269  -286  -270  -213  -125  -47  -8  -5  -21  -42  -58  -54  -11  78  196  305  373  384  314  150  -54  -208  -265  -231  -118  36  139  83  -177  -541  -816  -923  -903  -761  -488  -196  10  237  662  1345  2269  3367  4431  5100  5012  4001  2234  252  -1260  -1921  -1829  -1343  -837  -537  -462  -505  -567  -618  -676  -748  -814  -846  -822  -729  -597  -489  -437  -431  -436  -418  -374  -334  -320  -323  -325  -312  -276  -228  -196  -190  -193  -177  -118  -11  118  235  324  398  463  508  540  584  652  724  787  856  964  1102  1200  1235  1269  1335  1396  1436  1492  1593  1707  1783  1810  1809  1786  1714  1559  1329  1106  981  956  957  878  653  333  26  -249  -509  -711  -837  -915  -953  -957  -952  -955  -965  -965  -948  -929  -921  -915  -896  -867  -846  -842  -847  -846  -835  -830  -855  -908  -964  -993  -1002  -1037  -1114  -1177  -1181  -1154  -1131  -1111  -1072  -1003  -925  -869  -840  -817  -787  -749  -687  -581  -447  -339  -287  -274  -265  -245  -227  -229  -264  -325  -357  -319  -259  -238  -249  -263  -269  -258  -221  -167  -110  -50  7  50  75  98  134  177  206  198  149  82  39  43  91  156  207  229  230  208  151  78  32  45  107  182  242  283  309  301  231  109  -20  -123  -179  -167  -91  9  105  183  227  231  194  125  40  -32  -58  -16  64  129  149  141  137  157  204  265  309  325  316  292  262  238  232  253  303  366  413  426  398  315  149  -104  -367  -533  -586  -576  -526  -436  -347  -344  -457  -642  -814  -835  -559  51  912  1895  2868  3724  4402  4779  4624  3790  2396  856  -336  -970  -1195  -1217  -1146  -1057  -974  -881  -786  -711  -665  -634  -599  -563  -526  -473  -416  -391  -414  -476  -548  -610  -668  -708  -705  -669  -629  -590  -536  -462  -382  -312  -260  -211  -148  -58  67  214  328  380  400  435  489  531  551  577  633  708  781  861  968  1096  1229  1364  1489  1566  1599  1632  1694  1768  1822  1849  1861  1850  1752  1498  1131  816  655  598  546  453  318  131  -95  -313  -462  -524  -526  -520  -547  -612  -687  -743  -778  -795  -788  -758  -717  -687  -681  -700  -745  -801  -839  -834  -781  -705  -647  -626  -644  -697  -769  -819  -811  -731  -606  -487  -407  -373  -389  -458  -546  -601  -606  -588  -569  -548  -507  -429  -339  -299  -334  -411  -474  -480  -410  -277  -132  -36  -16  -56  -133  -229  -336  -440  -513  -551  -566  -566  -564  -571  -577  -569  -552  -538  -522  -483  -413  -314  -188  -61  19  23  -59  -215  -371  -450  -435  -375  -325  -301  -298  -316  -369  -447  -516  -550  -553  -536  -503  -454  -379  -264  -127  -20  28  39  25  -27  -137  -295  -452  -553  -589  -586  -566  -536  -506  -487  -472  -449  -420  -395  -369  -327  -266  -209  -180  -177  -182  -169  -124  -61  -15  -3  -12  -19  3  73  167  232  252  248  241  232  219  203  192  190  196  207  216  222  219  189  99  -64  -251  -386  -439  -443  -439  -458  -517  -597  -632  -552  -381  -276  -314  -335  -148  317  1098  2197  3447  4541  5200  5210  4467  3105  1485  46  -867  -1180  -1082  -877  -787  -822  -871  -877  -860  -835  -801  -765  -735  -719  -720  -729  -723  -685  -628  -584  -568  -563  -552  -539  -534  -527  -500  -456  -408  -357  -304  -256  -229  -216  -197  -155  -81  31  173  311  401  414  362  311  341  488  701  879  975  1045  1162  1309  1415  1448  1448  1469  1533  1617  1691  1746  1775  1762  1701  1613  1523  1446  1373  1293  1212  1106  899  572  249  62  8  -25  -128  -289  -443  -565  -674  -770  -837  -864  -843  -789  -737  -712  -707  -704  -695  -685  -667  -629  -551  -422  -276  -172  -134  -152  -223  -343  -465  -538  -559  -556  -547  -537  -530  -529  -535  -542  -539  -516  -467  -407  -357  -327  -309  -292  -262  -213  -162  -140  -158  -196  -230  -243  -220  -150  -52  17  1  -118  -297  -439  -492  -475  -426  -364  -286  -188  -91  -34  -57  -173  -331  -445  -468  -420  -345  -286  -260  -263  -293  -347  -402  -428  -410  -367  -320  -273  -225  -179  -130  -73  -8  63  156  272  342  256  12  -241  -373  -385  -361  -352  -349  -336  -316  -296  -265  -208  -131  -55  -3  11  -6  -44  -79  -99  -103  -91  -57  1  57  71  32  -38  -117  -175  -203  -218  -238  -263  -284  -274  -208  -102  -9  43  62  54  12  -78  -200  -297  -332  -319  -290  -268  -258  -259  -258  -230  -140  3  151  271  359  407  408  372  322  287  275  275  279  286  292  291  276  252  218  157  67  -22  -87  -135  -180  -241  -342  -488  -630  -718  -736  -680  -525  -241  171  657  1170  1724  2383  3231  4194  4929  5037  4345  3012  1460  154  -644  -994  -1132  -1176  -1105  -944  -776  -631  -507  -412  -356  -328  -314  -305  -300  -311  -349  -400  -410  -336  -213  -113  -74  -90  -135  -200  -270  -319  -332  -316  -281  -231  -176  -109  0  175  373  503  543  530  496  441  363  298  300  386  521  680  860  1046  1188  1262  1295  1328  1379  1447  1518  1579  1617  1635  1637  1629  1622  1627  1627  1555  1344  1032  755  589  504  419  257  7  -259  -479  -644  -780  -896  -989  -1057  -1098  -1112  -1094  -1023  -896  -762  -681  -670  -704  -752  -786  -792  -760  -686  -587  -500  -451  -445  -481  -558  -645  -703  -718  -712  -706  -710  -727  -752  -772  -782  -783  -767  -724  -660  -592  -528  -477  -453  -465  -499  -530  -545  -553  -566  -557  -488  -370  -263  -212  -221  -281  -377  -495  -638  -798  -936  -1009  -1002  -918  -791  -680  -623  -604  -596  -591  -591  -598  -609  -621  -618  -552  -377  -139  26  -2  -250  -597  -859  -967  -974  -941  -887  -812  -743  -724  -743  -752  -742  -718  -681  -630  -557  -471  -401  -365  -351  -331  -284  -213  -151  -122  -118  -119  -122  -139  -187  -262  -345  -413  -441  -422  -377  -335  -308  -289  -266  -224  -155  -62  25  77  92  94  100  111  125  144  153  105  -44  -256  -421  -479  -436  -319  -177  -72  -23  -4  0  -3  5  80  260  498  680  750  724  630  510  419  379  364  340  268  107  -114  -292  -357  -328  -256  -187  -134  -88  -45  -29  -81  -235  -433  -484  -249  220  846  1656  2712  3975  5188  5895  5677  4436  2512  546  -855  -1445  -1379  -981  -545  -263  -186  -247  -360  -469  -544  -580  -586  -558  -494  -398  -269  -130  -41  -54  -172  -336  -455  -489  -457  -387  -295  -195  -109  -61  -50  -50  -31  31  135  244  327  406  523  664  764  788  759  715  683  683  726  814  934  1069  1206  1335  1439  1504  1533  1559  1614  1693  1768  1826  1876  1922  1958  1986  2000  1955  1794  1522  1200  873  560  281  51  -119  -222  -270  -302  -370  -505  -677  -816  -887  -909  -909  -906  -905  -904  -898  -886  -872  -857  -835  -809  -785  -758  -729  -713  -733  -790  -868  -935  -967  -946  -867  -761  -685  -658  -661  -673  -695  -723  -727  -684  -611  -547  -511  -497  -487  -468  -441  -408  -370  -341  -327  -312  -275  -228  -213  -265  -372  -478  -537  -550  -536  -510  -481  -469  -486  -524  -560  -580  -582  -568  -530  -449  -319  -172  -67  -28  -50  -120  -208  -273  -299  -301  -287  -246  -171  -87  -29  -10  -21  -52  -98  -164  -247  -315  -339  -326  -295  -268  -264  -279  -289  -261  -195  -127  -76  -37  -11  0  -2  -37  -121  -254  -391  -477  -481  -410  -295  -177  -84  -27  -3  0  -20  -92  -238  -414  -534  -564  -552  -568  -656  -789  -889  -882  -743  -516  -300  -165  -109  -96  -99  -106  -111  -96  -39  50  138  195  222  237  250  238  180  98  41  24  29  38  33  -6  -105  -234  -328  -361  -356  -331  -287  -242  -248  -345  -495  -609  -648  -615  -487  -233  104  458  856  1365  2009  2849  3839  4652  4892  4286  2827  967  -624  -1547  -1758  -1489  -1105  -841  -720  -675  -637  -565  -470  -395  -357  -343  -338  -339  -340  -338  -328  -312  -296  -279  -262  -254  -272  -328  -409  -478  -510  -489  -407  -281  -146  -21  90  182  243  284  324  370  422  511  673  870  1008  1052  1061  1092  1145  1195  1247  1324  1418  1493  1537  1568  1616  1697  1790  1865  1924  1979  2021  2013  1913  1716  1497  1345  1264  1194  1114  1040  947  756  412  -13  -355  -519  -559  -575  -611  -653  -678  -684  -684  -684  -678  -652  -607  -540  -441  -309  -188  -130  -178  -350  -584  -751  -781  -695  -566  -466  -430  -443  -486  -550  -617  -671  -716  -762  -786  -756  -666  -528  -399  -365  -434  -523  -568  -566  -529  -457  -370  -307  -285  -287  -303  -334  -372  -402  -412  -401  -364  -315  -280  -281  -324  -396  -472  -530  -560  -565  -555  -531  -494  -454  -429  -436  -489  -596  -728  -823  -855  -848  -824  -782  -721  -646  -565  -488  -430  -404  -401  -406  -413  -418  -410  -371  -300  -220  -155  -113  -102  -128  -181  -238  -283  -307  -308  -283  -230  -154  -71  -6  18  -20  -143  -314  -435  -425  -277  -66  82  100  4  -136  -242  -281  -276  -256  -228  -195  -169  -162  -173  -191  -206  -194  -131  -19  101  179  199  184  154  119  87  71  75  90  89  58  10  -31  -68  -116  -185  -246  -259  -227  -183  -150  -150  -206  -320  -422  -392  -177  185  670  1298  2124  3167  4250  4992  5017  4139  2499  658  -727  -1365  -1365  -1043  -743  -631  -644  -676  -716  -782  -840  -863  -865  -862  -854  -830  -787  -741  -700  -661  -622  -595  -589  -597  -612  -623  -611  -554  -457  -362  -302  -273  -258  -249  -243  -236  -225  -208  -175  -109  -2  117  221  303  372  465  633  855  1035  1133  1213  1336  1483  1599  1670  1722  1777  1820  1826  1811  1802  1791  1765  1735  1710  1668  1576  1433  1258  1042  752  425  164  30  -18  -53  -110  -197  -305  -420  -552  -698  -814  -876  -894  -889  -866  -824  -765  -709  -677  -676  -688  -694  -689  -675  -658  -647  -639  -623  -590  -554  -553  -619  -745  -861  -876  -779  -617  -408  -187  -36  -11  -112  -298  -477  -550  -491  -360  -242  -166  -97  -13  58  86  66  28  6  24  78  146  202  228  215  162  88  26  -17  -69  -145  -241  -354  -466  -539  -560  -548  -525  -502  -478  -446  -400  -349  -308  -276  -240  -187  -133  -111  -130  -193  -302  -421  -495  -523  -540  -572  -605  -604  -542  -425  -294  -199  -164  -171  -211  -292  -396  -474  -502  -498  -482  -457  -424  -386  -345  -302  -265  -241  -231  -207  -129  -2  116  177  181  148  94  43  15  15  32  49  55  53  55  63  79  109  147  180  193  181  142  81  2  -97  -216  -328  -403  -436  -443  -442  -450  -493  -596  -746  -878  -922  -832  -563  -85  608  1523  2636  3829  4858  5387  5094  3923  2241  614  -515  -959  -853  -610  -536  -619  -752  -862  -910  -906  -876  -830  -778  -730  -687  -651  -616  -579  -535  -483  -415  -342  -292  -277  -278  -269  -240  -203  -175  -152  -115  -68  -33  -15  8  45  80  94  97  117  168  230  291  362  460  600  769  919  1013  1074  1163  1311  1502  1685  1808  1871  1919  1970  2003  2008  1998  1974  1918  1798  1592  1333  1097  933  833  762  655  447  167  -74  -209  -262  -277  -275  -264  -257  -272  -315  -376  -437  -482  -497  -483  -468  -474  -500  -537  -575  -600  -594  -555  -500  -456  -434  -428  -435  -457  -483  -494  -478  -442  -399  -364  -342  -320  -282  -237  -208  -210  -237  -265  -280  -308  -380  -477  -532  -499  -397  -290  -224  -203  -208  -228  -271  -350  -447  -518  -546  -546  -534  -505  -457  -405  -374  -364  -362  -360  -369  -401  -445  -469  -462  -452  -475  -532  -589  -612  -599  -579  -569  -567  -566  -565  -566  -579  -605  -622  -593  -493  -342  -204  -124  -110  -162  -292  -460  -583  -627  -623  -600  -560  -503  -459  -444  -437  -429  -424  -427  -434  -439  -435  -418  -400  -394  -399  -402  -405  -414  -436  -463  -477  -463  -431  -399  -382  -376  -356  -321  -286  -256  -228  -179  -68  98  253  337  353  335  294  229  155  102  76  54  7  -73  -164  -229  -254  -250  -231  -204  -185  -207  -306  -471  -623  -686  -633  -509  -421  -409  -325  14  643  1478  2452  3475  4379  4950  4949  4198  2785  1137  -219  -976  -1156  -1021  -836  -697  -566  -421  -291  -213  -190  -207  -258  -333  -411  -469  -497  -500  -492  -483  -479  -478  -471  -443  -385  -310  -245  -203  -164  -99  -8  73  117  128  147  200  258  275  269  281  314  363  455  588  707  771  792  803  845  959  1148  1362  1553  1725  1886  2014  2083  2105  2112  2116  2103  2050  1961  1858  1763  1692  1637  1547  1313  879  391  75  -13  8  41  59  73  80  40  -96  -312  -508  -608  -618  -578  -513  -445  -401  -398  -451  -557  -674  -746  -755  -712  -639  -564  -503  -455  -422  -414  -439  -486  -534  -565  -569  -529  -426  -284  -168  -126  -171  -285  -417  -503  -529  -523  -500  -453  -368  -245  -118  -32  -1  -18  -92  -237  -407  -532  -582  -578  -531  -440  -332  -260  -261  -339  -463  -582  -662  -686  -640  -525  -377  -262  -216  -230  -274  -342  -447  -572  -664  -694  -674  -615  -530  -444  -380  -344  -327  -316  -307  -298  -284  -254  -205  -146  -99  -79  -89  -129  -182  -219  -221  -192  -149  -117  -107  -122  -164  -222  -269  -286  -276  -261  -262  -298  -375  -469  -534  -547  -522  -484  -451  -427  -412  -398  -373  -331  -285  -243  -203  -165  -139  -131  -131  -121  -90  -47  -12  6  12  15  40  114  222  305  303  201  39  -108  -201  -239  -242  -225  -190  -145  -113  -135  -232  -378  -503  -568  -587  -583  -565  -526  -472  -423  -408  -477  -667  -915  -1068  -980  -606  1  790  1746  2817  3881  4726  5013  4465  3127  1383  -200  -1160  -1435  -1288  -1014  -812  -740  -721  -694  -668  -651  -626  -578  -525  -510  -553  -620  -662  -669  -663  -646  -605  -545  -489  -453  -433  -417  -398  -378  -364  -350  -325  -279  -209  -122  -19  107  251  375  450  476  469  453  462  540  704  909  1080  1180  1218  1213  1177  1155  1231  1455  1752  1973  2055  2048  2014  1977  1945  1925  1921  1928  1915  1809  1550  1192  885  712  625  556  490  437  380  259  53  -168  -323  -418  -524  -664  -789  -857  -875  -873  -871  -872  -865  -838  -793  -746  -717  -714  -738  -786  -843  -891  -913  -905  -871  -827  -790  -759  -728  -691  -646  -612  -615  -648  -670  -652  -602  -554  -535  -539  -542  -539  -535  -536  -537  -527  -496  -455  -435  -452  -481  -496  -498  -495  -493  -491  -487  -480  -474  -470  -470  -473  -470  -441  -381  -332  -355  -442  -525  -568  -585  -583  -531  -405  -245  -134  -101  -109  -121  -132  -150  -175  -182  -171  -185  -246  -328  -394  -427  -423  -386  -335  -295  -277  -274  -277  -280  -282  -283  -284  -283  -282  -282  -291  -325  -396  -482  -549  -582  -592  -588  -571  -529  -465  -415  -400  -408  -412  -397  -364  -323  -283  -245  -198  -145  -101  -69  -41  -14  12  31  40  35  -14  -149  -324  -410  -332  -162  -27  20  6  -41  -110  -186  -250  -287  -300  -306  -320  -348  -386  -423  -446  -462  -487  -511  -483  -355  -112  260  760  1376  2130  3033  3997  4778  5065  4635  3463  1838  275  -824  -1337  -1340  -1091  -859  -718  -608  -501  -427  -403  -409  -421  -429  -426  -409  -390  -365  -310  -234  -178  -179  -226  -266  -271  -257  -248  -234  -190  -108  -16  52  99  148  201  249  286  315  347  397  476  578  679  770  855  932  992  1033  1065  1122  1252  1456  1664  1806  1878  1916  1948  1989  2043  2104  2154  2176  2138  2000  1778  1556  1412  1351  1319  1238  1055  782  494  235  13  -148  -226  -242  -234  -228  -236  -265  -325  -418  -516  -583  -609  -608  -585  -545  -491  -425  -359  -318  -325  -391  -495  -595  -673  -725  -740  -707  -642  -580  -541  -523  -505  -469  -426  -398  -394  -401  -403  -387  -344  -274  -196  -147  -165  -262  -398  -498  -516  -450  -329  -208  -141  -137  -182  -247  -304  -338  -354  -362  -361  -338  -292  -251  -245  -251  -235  -206  -191  -196  -207  -229  -290  -420  -604  -793  -936  -1019  -1053  -1044  -991  -907  -821  -764  -740  -725  -706  -686  -674  -670  -674  -689  -714  -751  -799  -853  -898  -920  -891  -771  -567  -375  -295  -361  -520  -682  -782  -816  -810  -775  -706  -611  -517  -448  -405  -374  -345  -324  -312  -294  -247  -167  -74  0  51  102  158  196  194  151  97  66  59  20  -111  -328  -539  -668  -715  -713  -694  -680  -675  -673  -671  -669  -673  -693  -732  -757  -707  -520  -160  382  1085  1925  2907  3942  4751  4989  4418  3059  1314  -191  -1037  -1222  -1013  -754  -686  -773  -833  -796  -698  -590  -517  -492  -495  -503  -508  -509  -503  -485  -455  -420  -378  -328  -289  -277  -281  -276  -264  -261  -262  -242  -179  -93  -30  -11  -19  -24  -5  56  172  321  452  535  591  649  710  771  837  910  1001  1126  1294  1495  1678  1782  1796  1751  1691  1652  1652  1692  1755  1816  1865  1900  1901  1809  1557  1177  821  599  477  370  251  135  24  -94  -247  -449  -657  -794  -838  -826  -786  -726  -663  -625  -622  -636  -649  -654  -651  -641  -626  -609  -593  -595  -632  -694  -735  -721  -651  -549  -452  -396  -397  -454  -547  -632  -665  -626  -523  -402  -317  -293  -337  -458  -615  -727  -746  -687  -594  -509  -451  -418  -400  -394  -395  -397  -391  -370  -336  -303  -278  -262  -253  -243  -233  -226  -223  -220  -221  -242  -297  -372  -436  -468  -463  -415  -327  -232  -176  -172  -200  -234  -262  -276  -261  -209  -148  -121  -158  -236  -301  -327  -327  -307  -265  -212  -176  -168  -175  -183  -191  -196  -191  -171  -138  -106  -88  -88  -110  -168  -248  -305  -302  -231  -124  -35  0  -31  -135  -262  -336  -320  -250  -180  -137  -123  -134  -157  -179  -183  -145  -47  85  179  185  106  -6  -84  -85  -11  91  164  184  169  147  133  135  157  188  216  224  193  103  -38  -180  -266  -292  -290  -295  -324  -383  -464  -545  -599  -608  -566  -488  -417  -359  -215  135  757  1649  2734  3871  4848  5364  5109  3981  2286  586  -642  -1205  -1244  -1071  -895  -772  -706  -685  -703  -753  -802  -827  -818  -765  -669  -570  -512  -502  -513  -512  -470  -376  -263  -185  -160  -177  -222  -273  -296  -270  -209  -142  -93  -68  -63  -63  -52  -22  25  92  188  325  477  589  637  649  685  785  942  1111  1253  1356  1428  1486  1562  1692  1846  1945  1949  1900  1856  1841  1851  1873  1880  1808  1589  1231  852  569  382  228  89  -5  -54  -91  -157  -252  -340  -400  -440  -469  -487  -493  -494  -494  -496  -510  -538  -568  -585  -586  -583  -583  -586  -587  -580  -562  -538  -520  -514  -518  -530  -546  -560  -565  -550  -503  -440  -394  -379  -381  -386  -389  -390  -386  -373  -344  -303  -268  -254  -266  -307  -365  -411  -420  -385  -328  -279  -243  -217  -211  -239  -297  -349  -363  -343  -313  -285  -254  -223  -204  -211  -246  -294  -329  -343  -343  -333  -311  -283  -262  -249  -241  -240  -251  -264  -270  -269  -271  -278  -286  -284  -283  -304  -342  -365  -351  -312  -279  -270  -277  -288  -298  -309  -327  -361  -406  -427  -402  -361  -346  -358  -376  -382  -371  -343  -304  -269  -241  -215  -190  -190  -235  -315  -383  -394  -344  -279  -248  -259  -295  -333  -357  -364  -357  -339  -316  -298  -296  -317  -358  -403  -424  -388  -283  -144  -40  -4  -16  -31  -19  29  100  171  218  230  199  115  -9  -135  -232  -307  -371  -421  -462  -504  -541  -563  -572  -574  -573  -574  -594  -630  -629  -515  -237  212  798  1507  2387  3406  4361  4952  4910  4125  2758  1211  -85  -864  -1113  -1019  -785  -573  -551  -738  -944  -1002  -909  -758  -640  -579  -542  -497  -435  -351  -265  -209  -193  -200  -216  -235  -251  -246  -196  -95  22  117  179  217  231  195  90  -36  -84  2  163  305  418  550  701  831  921  979  1020  1066  1131  1205  1270  1338  1438  1566  1686  1782  1851  1889  1901  1900  1886  1849  1790  1718  1630  1511  1360  1202  1071  985  924  835  690  502  303  135  33  -24  -99  -223  -389  -576  -750  -862  -892  -873  -842  -803  -750  -696  -674  -697  -732  -733  -687  -614  -549  -511  -498  -502  -514  -521  -490  -393  -261  -177  -200  -327  -491  -606  -645  -642  -635  -633  -627  -606  -571  -538  -525  -529  -534  -533  -530  -528  -519  -495  -461  -436  -430  -435  -440  -427  -383  -322  -275  -259  -277  -327  -392  -439  -443  -416  -393  -387  -380  -373  -394  -442  -503  -567  -619  -647  -650  -622  -564  -498  -453  -438  -445  -468  -505  -537  -542  -515  -464  -409  -366  -344  -355  -409  -485  -548  -580  -589  -586  -580  -576  -575  -577  -579  -578  -567  -548  -522  -482  -433  -396  -394  -439  -522  -609  -666  -681  -646  -547  -415  -323  -318  -394  -511  -610  -654  -654  -637  -622  -607  -567  -477  -363  -277  -238  -223  -209  -197  -198  -195  -159  -74  31  109  142  146  135  105  43  -52  -156  -222  -253  -297  -398  -554  -718  -823  -846  -817  -771  -731  -699  -673  -636  -536  -375  -271  -322  -478  -544  -255  475  1508  2685  3789  4532  4717  4211  3006  1384  -158  -1180  -1513  -1321  -949  -668  -571  -614  -694  -743  -760  -757  -743  -717  -664  -573  -467  -395  -386  -430  -494  -538  -544  -516  -470  -431  -411  -391  -345  -271  -195  -130  -70  -8  53  103  139  176  226  292  361  419  465  520  610  731  852  951  1038  1140  1282  1452  1594  1669  1699  1728  1769  1812  1843  1859  1869  1879  1880  1854  1794  1685  1504  1270  1051  897  796  699  569  371  100  -172  -353  -425  -435  -428  -423  -424  -440  -496  -617  -771  -877  -884  -797  -667  -555  -485  -437  -384  -315  -257  -243  -255  -253  -238  -221  -204  -181  -144  -89  -23]
