reading_id,reading_time,wire_id,result_classification,heart_rate,heart_rate_alert,firmware_version,device_app_version,hardware_version,waveform_samples
060681a0-d4cc-11ed-8080-808080808080,Thu Apr 06 22:40:25 UTC 2023,6119e4d89339,NSR,70,NONE,20001.188.58,2.13.0,Charge 5,[-13929  -14062  -14179  -14256  -14223  -13974  -13486  -12914  -12462  -12189  -12010  -11841  -11639  -11407  -11217  -11244  -11766  -12893  -14233  -15183  -15546  -15529  -15281  -14754  -13929  -12960  -11988  -10936  -9713  -8510  -7630  -7137  -6812  -6383  -5715  -4819  -3796  -2792  -1920  -1229  -721  -374  -143  24  182  333  458  595  817  1097  1389  1768  2346  3105  3891  4543  5063  5618  6356  7176  7790  8098  8258  8432  8683  9046  9678  10819  12416  14068  15465  16651  17858  19188  20564  21882  22954  23562  23679  23386  22728  21871  21128  20646  20288  19848  19235  18526  17930  17601  17485  17387  17129  16680  16128  15515  14810  14062  13465  13138  13010  12942  12841  12670  12458  12261  12073  11828  11480  11003  10343  9360  7912  6178  4702  3879  3588  3499  3437  3340  3140  2828  2478  2161  1910  1741  1661  1666  1725  1752  1575  1053  328  -250  -560  -832  -1355  -2152  -2925  -3363  -3446  -3340  -3184  -3055  -2988  -2976  -2999  -3050  -3097  -2998  -2549  -1701  -594  633  1795  2586  2860  2716  2277  1590  689  -349  -1341  -2052  -2389  -2413  -2120  -1466  -658  -84  90  -39  -361  -752  -1053  -1197  -1219  -1118  -842  -444  -154  -266  -968  -2049  -2925  -3255  -3171  -2715  -1696  -152  1628  3349  4612  4987  4381  2993  1072  -1014  -2821  -4127  -4955  -5391  -5578  -5740  -6014  -6377  -6826  -7375  -7890  -8213  -8326  -8302  -8189  -8018  -7843  -7728  -7688  -7682  -7632  -7465  -7131  -6588  -5774  -4626  -3252  -2018  -1229  -842  -629  -426  -153  229  689  1099  1338  1407  1389  1382  1480  1766  2283  3011  3829  4528  4997  5289  5480  5587  5625  5672  5867  6295  6864  7394  7767  7967  8045  8073  8088  8075  7998  7834  7576  7217  6800  6426  6135  5880  5617  5351  5126  4946  4760  4522  4235  3973  3847  3889  4012  4117  4200  4307  4408  4407  4300  4172  4039  3806  3393  2863  2355  1949  1667  1480  1315  1151  1041  984  871  619  293  40  -66  -43  87  297  514  664  724  700  590  419  241  92  -34  -161  -310  -556  -1050  -1851  -2719  -3305  -3511  -3502  -3452  -3421  -3396  -3365  -3312  -3219  -3079  -2898  -2672  -2441  -2287  -2235  -2246  -2305  -2424  -2571  -2681  -2730  -2784  -2903  -3059  -3189  -3258  -3237  -3132  -2988  -2821  -2636  -2455  -2290  -2142  -2011  -1880  -1740  -1644  -1665  -1786  -1953  -2261  -2893  -3844  -4931  -6025  -7001  -7661  -7936  -7952  -7840  -7638  -7363  -7059  -6727  -6267  -5617  -4942  -4524  -4484  -4733  -5081  -5356  -5546  -5761  -6059  -6392  -6674  -6856  -6923  -6770  -6202  -5217  -4150  -3375  -2948  -2584  -1984  -1151  -383  35  51  -232  -636  -899  -707  116  1291  2229  2675  2820  2884  2933  2978  3038  3116  3180  3202  3188  3158  3140  3149  3141  2978  2515  1855  1444  1678  2527  3703  4807  5370  5105  4051  2354  177  -2118  -4040  -5275  -5789  -5718  -5331  -4966  -4765  -4566  -4263  -3960  -3742  -3564  -3324  -2953  -2473  -2012  -1719  -1625  -1664  -1800  -2011  -2148  -1854  -791  839  2397  3479  4070  4282  4288  4263  4275  4251  4001  3391  2591  1973  1721  1726  1822  1919  1980  2013  2092  2313  2678  3128  3696  4520  5637  6857  7925  8693  9142  9368  9508  9622  9693  9692  9607  9454  9294  9195  9202  9360  9675  10055  10347  10456  10397  10253  10091  9892  9628  9358  9192  9164  9232  9339  9462  9619  9822  10030  10186  10274  10311  10338  10395  10470  10523  10561  10648  10812  11000  11136  11201  11212  11150  10910  10423  9826  9341  9041  8863  8762  8724  8712  8657  8506  8253  7965  7743  7634  7561  7366  6954  6364  5666  4841  3794  2537  1199  -361  -2542  -5200  -7481  -8752  -9106  -8929  -8479  -7959  -7598  -7510  -7680  -8035  -8429  -8713  -8912  -9186  -9647  -10197  -10609  -10777  -10753  -10658  -10700  -11120  -11976  -12972  -13685  -13980  -13874  -13171  -11698  -9820  -8260  -7422  -7184  -7217  -7288  -7340  -7395  -7445  -7473  -7636  -8345  -9854  -11791  -13443  -14501  -15255  -16131  -17272  -18510  -19577  -20218  -20030  -18336  -14848  -10405  -6491  -4008  -2825  -2459  -2894  -4543  -7289  -10047  -11847  -12744  -13299  -13914  -14816  -16123  -17689  -19021  -19488  -18514  -15609  -10865  -5599  -1823  -869  -2568  -5371  -7100  -6319  -3422  -48  2289  2965  2416  1570  1013  756  493  -72  -1022  -2105  -2884  -3165  -3076  -2791  -2448  -2154  -1900  -1641  -1391  -1161  -901  -515  104  1015  2248  3734  5177  6329  7261  8121  8852  9318  9480  9232  8307  6668  4853  3571  3044  2987  3060  3149  3303  3542  3748  3785  3670  3520  3387  3258  3144  3069  3032  3055  3217  3573  4007  4317  4436  4416  4214  3685  2869  2191  2105  2573  3172  3582  3751  3733  3535  3152  2657  2165  1748  1424  1199  1084  1056  1059  1059  1072  1149  1337  1640  1979  2235  2349  2340  2257  2191  2348  2944  3885  4776  5377  5700  5546  4294  1647  -1460  -3503  -3672  -2013  791  3522  5215  5783  5537  4600  3149  1737  898  699  880  1170  1405  1573  1772  2045  2336  2607  2824  2858  2495  1607  414  -627  -1322  -1818  -2246  -2551  -2675  -2679  -2651  -2635  -2645  -2678  -2717  -2726  -2690  -2638  -2606  -2585  -2576  -2641  -2829  -3143  -3544  -3906  -4042  -3860  -3442  -2942  -2480  -2143  -1978  -2009  -2310  -2893  -3531  -3925  -4015  -3971  -3979  -4132  -4398  -4677  -4847  -4623  -3571  -1703  191  1322  1708  1867  2152  2569  2937  3130  3161  3046  2760  2385  2119  2092  2282  2557  2762  2813  2693  2405  1990  1516  1035  597  269  67  -114  -419  -838  -1197  -1355  -1283  -1017  -665  -318  23  377  697  938  1095  1188  1242  1277  1330  1412  1474  1487  1514  1598  1732  1961  2247  2388  2189  1591  806  371  761  1982  3551  4752  5012  4233  2884  1645  969  893  1072  1055  666  18  -676  -1209  -1524  -1717  -1841  -1885  -1876  -1871  -1900  -2006  -2271  -2750  -3347  -3890  -4318  -4657  -4918  -5100  -5234  -5357  -5445  -5331  -4764  -3655  -2191  -744  291  765  840  653  95  -984  -2438  -3763  -4505  -4592  -4158  -3380  -2544  -1929  -1600  -1494  -1573  -1809  -2074  -2195  -2146  -2056  -2019  -2022  -1995  -1888  -1706  -1456  -1080  -585  -125  152  232  172  21  -206  -487  -716  -753  -547  -217  36  132  130  107  106  140  205  330  591  990  1408  1773  2104  2384  2537  2537  2441  2389  2646  3436  4532  5332  5464  4991  4218  3445  2699  1833  863  -50  -822  -1462  -1984  -2342  -2483  -2430  -2279  -2121  -2002  -1935  -1905  -1886  -1872  -1877  -1871  -1715  -1248  -515  172  550  622  528  336  17  -461  -1020  -1496  -1807  -1948  -1822  -1258  -270  848  1737  2205  2306  2235  2137  2056  2036  2288  3130  4515  5845  6539  6470  5819  4969  4364  4172  4284  4576  4906  5067  4947  4656  4399  4281  4260  4267  4320  4525  4956  5493  5891  6044  6056  6058  6078  6078  6039  5967  5848  5581  4979  3985  2893  2042  1412  690  -325  -1394  -1794  -702  1991  5322  7834  8271  6225  2724  -203  -870  1302  5713  10514  13475  13713  12000  9601  7528  6208  5201  3801  1915  -56  -1748  -2942  -3625  -4028  -4382  -4747  -5085  -5372  -5621  -5841  -6017  -6111  -6092  -5961  -5780  -5641  -5586  -5607  -5687  -5786  -5851  -5860  -5837  -5810  -5793  -5790  -5805  -5824  -5809  -5724  -5558  -5344  -5143  -4983  -4843  -4731  -4701  -4783  -4932  -5091  -5254  -5418  -5533  -5548  -5431  -5175  -4791  -4240  -3462  -2527  -1575  -561  629  1875  2873  3440  3547  3027  1554  -789  -3129  -4512  -4843  -4679  -4475  -4381  -4438  -4682  -5089  -5556  -5976  -6250  -6197  -5541  -4194  -2517  -1024  31  622  830  814  718  615  558  629  892  1272  1594  1777  1866  1882  1830  1772  1766  1797  1831  1926  2289  3079  4063  4761  4996  4951  4803  4593  4370  4253  4323  4533  4769  4986  5247  5583  5901  6122  6273  6387  6414  6316  6167  6071  6039  6028  6003  5970  5967  6006  6010  5827  5370  4778  4358  4290  4541  4960  5356  5619  5771  5888  6002  5978  5411  3838  1345  -1209  -2959  -3778  -4036  -4065  -4043  -4039  -4045  -4042  -4056  -4180  -4516  -5019  -5473  -5724  -5800  -5813  -5821  -5763  -5493  -4946  -4205  -3357  -2378  -1260  -179  603  1021  1242  1454  1713  2006  2343  2753  3213  3613  3828  3807  3583  3274  3042  2953  2952  2980  3030  3091  3052  2660  1751  608  -176  -270  237  1015  1724  2268  2779  3409  4131  4735  4974  4585  3385  1642  -119  -1673  -2935  -3755  -4213  -4539  -4780  -4871  -4773  -4485  -4081  -3679  -3346  -3161  -3357  -4213  -5617  -6973  -7723  -7527  -6066  -3459  -688  1161  1843  1715  1042  -50  -1320  -2566  -3830  -5120  -6190  -6767  -6804  -6393  -5666  -4830  -4112  -3617  -3318  -3217  -3296  -3328  -3095  -2621  -2050  -1638  -1633  -1889  -1822  -965  467  1723  2070  1159  -766  -2718  -3538  -2975  -1794  -1004  -1235  -2438  -3952  -5035  -5439  -5406  -5177  -4781  -4191  -3444  -2614  -1723  -759  182  879  1213  1209  832  -1  -1149  -2197  -2801  -2915  -2574  -1705  -292  1462  3239  4709  5640  5993  5735  4674  2920  1210  261  169  669  1498  2421  3238  3843  4273  4621  4900  5072  5138  5156  5190  5288  5467  5700  5901  5999  6008  5988  5972  5937  5854  5761  5726  5767  5864  5983  6006  5718  4926  3687  2350  1222  354  -334  -900  -1355  -1686  -1898  -2079  -2334  -2632  -2852  -2940  -2899  -2664  -2156  -1492  -985  -844  -1067  -1564  -2154  -2578  -2625  -2169  -1173  256  1832  3132  3867  4119  4103  3831  3228  2482  1966  1794  1730  1524  1171  859  713  682  632  461  129  -402  -1133  -1894  -2462  -2772  -2921  -3047  -3253  -3578  -3967  -4335  -4615  -4775  -4851  -4921  -5004  -5075  -5122  -5132  -5016  -4677  -4198  -3809  -3655  -3814  -4390  -5329  -6309  -7019  -7391  -7497  -7234  -6324  -4840  -3425  -2678  -2701  -3310  -4187  -4922  -5248  -5084  -4418  -3450  -2585  -2085  -1958  -2103  -2388  -2748  -3207  -3744  -4278  -4815  -5479  -6301  -7054  -7469  -7513  -7321  -7043  -6801  -6632  -6504  -6400  -6344  -6337  -6329  -6256  -6088  -5847  -5567  -5173  -4430  -3241  -2030  -1509  -1945  -2913  -3650  -3454  -2184  -592  134  -629  -2539  -4687  -5973  -5435  -2899  720  4104  6361  7091  6458  5147  3492  1433  -601  -1961  -2562  -2762  -2893  -3123  -3480  -3885  -4189  -4207  -3843  -3143  -2299  -1615  -1287  -1288  -1521  -1895  -2280  -2595  -2883  -3215  -3604  -3996  -4280  -4310  -3888  -2917  -1683  -709  -224  -47  20  -30  -271  -727  -1356  -1991  -2415  -2592  -2659  -2675  -2438  -1608  -183  1256  2092  2298  2273  2342  2586  2889  3101  3278  3777  5075  7493  10883  14395  16884  17888  17789  17077  16058  14998  14038  13134  12295  11692  11430  11435  11638  12053  12644  13247  13660  13724  13228  11928  9751  6936  4098  2020  1068  937  1120  1367  1618  1811  1892  1807  1514  1094  744  577  554  607  721  971  1475  2218  3012  3687  4172  4451  4583  4694  4866  5067  5227  5323  5375  5379  5205  4615  3550  2351  1481  1108  1125  1459  2076  2770  3278  3576  3776  3909  3979  4043  4168  4392  4684  4916  4952  4800  4514  3977  3090  2123  1506  1329  1368  1449  1553  1699  1863  2019  2178  2380  2642  2910  3057  2924  2376  1430  311  -711  -1483  -1969  -2253  -2439  -2545  -2547  -2451  -2298  -2138  -1994  -1949  -2304  -3371  -4923  -6250  -6942  -7168  -7174  -6905  -6165  -5079  -4036  -3123  -2065  -736  622  1637  2101  2116  1949  1768  1578  1328  1029  796  863  1509  2744  4063  4832  4783  4041  3050  2350  2109  2111  2171  2270  2391  2461  2422  2215  1701  837  -86  -707  -1053  -1412  -1844  -2168  -2359  -2620  -3038  -3463  -3751  -3977  -4421  -5309  -6463  -7389  -7820  -7932  -8015  -8161  -8260  -8199  -7955  -7550  -7038  -6546  -6186  -5950  -5776  -5653  -5614  -5656  -5706  -5688  -5586  -5417  -5232  -5111  -5063  -5027  -4931  -4655  -4072  -3280  -2619  -2312  -2289  -2392  -2566  -2886  -3510  -4449  -5381  -5919  -5989  -5772  -5489  -5294  -5230  -5269  -5420  -5706  -6082  -6524  -7174  -8160  -9269  -10078  -10422  -10396  -10020  -9142  -7628  -5674  -3859  -2620  -1909  -1407  -803  -17  701  1092  1167  1088  960  816  655  450  203  -33  -234  -489  -929  -1487  -1916  -2110  -2151  -2172  -2374  -2941  -3729  -4295  -4248  -3488  -2252  -938  158  860  1063  804  166  -880  -2181  -3236  -3665  -3448  -2794  -2112  -1721  -1455  -915  21  1134  2142  3002  3932  5192  6789  8333  9360  9783  9812  9602  9214  8740  8295  7956  7775  7788  8003  8358  8718  8977  9116  9157  9094  8868  8424  7840  7329  7008  6829  6730  6725  6823  6971  7083  7133  7152  7157  7133  7058  6938  6816  6742  6726  6748  6789  6794  6625  6130  5373  4677  4296  4156  4030  3856  3765  3870  4116  4357  4511  4602  4678  4689  4406  3614  2520  1656  1282  1214  1215  1207  1196  1193  1206  1239  1289  1329  1347  1352  1345  1307  1212  1019  659  88  -542  -959  -1085  -1109  -1245  -1565  -1997  -2442  -2836  -3153  -3431  -3748  -4097  -4381  -4537  -4502  -4117  -3298  -2327  -1652  -1406  -1417  -1563  -1841  -2201  -2493  -2602  -2538  -2399  -2266  -2107  -1834  -1459  -1115  -909  -842  -816  -601  5  840  1445  1564  1304  928  661  537  463  393  350  295  99  -314  -830  -1257  -1540  -1732  -1883  -2004  -2086  -2088  -1979  -1791  -1608  -1473  -1379  -1317  -1282  -1296  -1434  -1758  -2199  -2602  -2865  -2939  -2811  -2531  -2198  -1864  -1475  -907  -113  781  1564  2074  2291  2321  2278  2221  2180  2172  2188  2205  2211  2209  2175  2039  1786  1545  1392  1160  715  193  -137  -28  529  1118  1191  499  -929  -2912  -5024  -6780  -7968  -8569  -8555  -8069  -7539  -7277  -7214  -7179  -6990  -6348  -5084  -3423  -1861  -819  -414  -565  -1181  -2074  -2913  -3464  -3701  -3723  -3632  -3470  -3248  -3007  -2824  -2761  -2821  -2957  -3096  -3189  -3229  -3204  -3062  -2750  -2287  -1779  -1312  -882  -458  -31  379  714  914  990  958  738  243  -432  -1076  -1597  -2016  -2284  -2298  -2024  -1549  -1011  -508  -126  65  99  60  -4  -74  -116  -94  16  251  675  1335  2133  2844  3316  3560  3651  3654  3602  3492  3266  2856  2313  1754  1129  314  -569  -1234  -1614  -1850  -2017  -2103  -2131  -2162  -2199  -2098  -1628  -720  403  1406  2140  2784  3572  4462  5236  5749  5978  5948  5688  5242  4700  4192  3827  3626  3534  3503  3505  3522  3528  3473  3329  3194  3210  3338  3364  3169  2833  2477  2160  1887  1619  1308  1002  806  761  827  958  1105  1200  1199  1108  981  876  780  632  428  235  97  2  -90  -195  -286  -326  -265  -36  368  837  1218  1440  1510  1444  1248  977  681  265  -381  -1120  -1665  -1905  -1982  -2170  -2691  -3473  -4175  -4588  -4810  -5013  -5248  -5479  -5673  -5835  -5969  -6028  -5984  -5890  -5823  -5811  -5826  -5844  -5880  -5964  -6094  -6246  -6429  -6691  -7125  -7798  -8567  -9129  -9360  -9388  -9367  -9364  -9416  -9593  -9938  -10386  -10796  -11062  -11189  -11245  -11207  -10879  -10077  -8959  -7988  -7480  -7413  -7697  -8336  -9233  -10116  -10741  -10849  -9838  -7134  -3323  -101  1408  1457  825  103  -385  -581  -497  21  1086  2435  3657  4594  5375  6269  7409  8654  9670  10031  9425  7926  5924  3768  1660  -55  -959  -1022  -637  -153  384  1133  2332  4013  5680  6704  6986  6823  6420  5891  5406  5071  4859  4708  4599  4582  4809  5440  6400  7344  7958  8176  8037  7531  6777  6111  5780  5728  5787  5874  5992  6158  6363  6542  6629  6631  6600  6561  6505  6417  6241  5893  5419  5000  4724  4459  4032  3479  3008  2707  2498  2350  2303  2356  2533  3006  4071  5887  8069  9937  11269  12203  12733  12773  12285  11338  10256  9514  9332  9521  9790  9998  10035  9835  9702  10444  12685  15852  18565  19965  20018  19207  18287  17755  17452  16813  15549  13947  12539  11686  11372  11300  11262  11210  11013  10574  10044  9614  9273  8889  8462  8137  7948  7756  7467  7127  6736  6104  5001  3426  1617  -137  -1566  -2453  -2790  -2694  -2368  -2274  -2808  -3844  -4949  -5725  -5831  -5169  -4214  -3752  -4167  -5285  -6634  -7583  -7737  -7293  -6782  -6564  -6741  -7311  -8071  -8621  -8632  -7947  -6619  -4981  -3544  -2713  -2523  -2792  -3406  -4217  -4947  -5450  -5858  -6325  -6858  -7426  -8005  -8521  -8896  -9114  -9199  -9173  -8989  -8537  -7810  -7062  -6631  -6679  -7155  -7798  -8260  -8413  -8358  -8202  -8003  -7820  -7697  -7653  -7688  -7769  -7855  -7924  -7978  -8019  -8058  -8100  -8103  -7942  -7507  -6919  -6482  -6382  -6603  -7058  -7653  -8347  -9141  -9959  -10660  -11186  -11632  -12081  -12494  -12810  -13052  -13310  -13608  -13900  -14228  -14716  -15452  -16424  -17490  -18471  -19366  -20219  -20891  -21226  -21285  -21241  -21186  -21125  -21073  -21064  -21081  -20977  -20533  -19672  -18581  -17547  -16791  -16400  -16332  -16557  -17176  -18280  -19714  -21135  -22265  -22918  -22825  -21602  -19092  -15640  -11872  -8346  -5274  -2539  3  2408  4583  6266  7230  7451  7128  6547  5804  4807  3591  2338  1192  184  -879  -2328  -4237  -6238  -7660  -7892  -6901  -5331  -4116  -3977  -4974  -6538  -8057  -9301  -10313  -11122  -11713  -12113  -12414  -12769  -13285  -13916  -14508  -14918  -15083  -14855  -13955  -12319  -10243  -8040  -5828  -3594  -1312  979  3071  4588  5330  5571  5859  6553  7596  8701  9652  10334  10739  11014  11297  11579  11839  12199  12829  13729  14684  15457  16009  16484  17055  17785  18524  19043  19404  19937  20739  21457  21666  21225  20378  19710  19750  20392  20896  20552  19006  16257  12926  9957  7892  6953  7259  8497  9883  10676  10727  10470  10298  10243  10221  10211  10232  10285  10343  10340  10213  9990  9768  9607  9481  9279  8867  8212  7420  6649  6002  5462  4938  4386  3845  3326  2771  2246  2002  2210  2787  3549  4442  5582  7036  8642  10167  11555  12849  13984  14797  15259  15553  15897  16379  16922  17364  17611  17689  17702  17790  18139  18883  19877  20706  21114  21196  21133  20936  20493  19732  18733  17703  16807  16078  15463  14872  14241  13568  12881  12165  11374  10473  9476  8512  7686  6895  5969  4852  3578  2214  847  -354  -1159  -1482  -1464  -1273  -990  -691  -492  -448  -542  -763  -1085  -1413  -1647  -1748  -1721  -1590  -1419  -1301  -1303  -1424  -1595  -1716  -1737  -1672  -1571  -1504  -1546  -1738  -2021  -2256  -2331  -2148  -1597  -663  481  1510  2162  2410  2226  1333  -415  -2634  -4682  -6127  -6874  -7079  -6954  -6604  -6129  -5720  -5499  -5410  -5353  -5274  -5138  -4943  -4712  -4417  -3977  -3398  -2760  -2072  -1361  -797  -514  -454  -488  -561  -694  -911  -1229  -1676  -2289  -3028  -3731  -4220  -4461  -4569  -4657  -4771  -4933  -5127  -5286  -5369  -5382  -5299  -5062  -4679  -4255  -3917  -3725  -3567  -3222  -2575  -1758  -1038  -600  -434  -433  -501  -567  -593  -586  -558  -525  -516  -609  -907  -1428  -2001  -2408  -2609  -2751  -2975  -3287  -3609  -3887  -4097  -4219  -4274  -4330  -4454  -4620  -4743  -4785  -4774  -4733  -4661  -4543  -4374  -4160  -3889  -3540  -3147  -2810  -2588  -2404  -2142  -1822  -1578  -1485  -1502  -1572  -1680  -1816  -1936  -2001  -2004  -1944  -1826  -1675  -1524  -1396  -1328  -1375  -1560  -1807  -1975  -2013  -1998  -2051  -2241  -2503  -2696  -2788  -2873  -3003  -3132  -3207  -3236  -3237  -3175  -2997  -2744  -2555  -2554  -2787  -3180  -3539  -3681  -3563  -3280  -2992  -2787  -2589  -2275  -1881  -1565  -1410  -1441  -1757  -2409  -3192  -3775  -4025  -4038  -3964  -3925  -3984  -4115  -4248  -4344  -4389  -4342  -4153  -3853  -3569  -3392  -3282  -3145  -2962  -2760  -2530  -2286  -2116  -2055  -2047  -2049  -2096  -2293  -2724  -3318  -3873  -4255  -4461  -4529  -4460  -4232  -3901  -3612  -3447  -3367  -3298  -3223  -3171  -3171  -3224  -3311  -3412  -3531  -3693  -3898  -4092  -4218  -4263  -4231  -4094  -3841  -3554  -3359  -3361  -3643  -4194  -4802  -5202  -5282  -5042  -4568  -4037  -3448  -2570  -1312  159  1626  2811  3336  2939  1774  192  -1592  -3219  -4199  -4452  -4330  -4217  -4268  -4374  -4325  -3960  -3319  -2677  -2284  -2127  -2047  -1949  -1843  -1758  -1665  -1461  -1056  -498  37  418  630  740  811  862  894  924  943  876  604  117  -396  -713  -786  -697  -515  -300  -131  -46  -4  76  243  470  682  841  957  1031  1053  1007  879  706  566  499  516  678  1026  1444  1718  1749  1587  1362  1207  1159  1172  1198  1215  1190  1062  791  440  154  18  -3  15  21  -3  -46  -84  -110  -116  -50  147  437  669  687  376  -295  -1195  -2059  -2639  -2856  -2802  -2601  -2353  -2133  -1952  -1792  -1671  -1644  -1730  -1872  -1980  -2016  -1994  -1933  -1863  -1828  -1851  -1912  -1972  -2012  -1996  -1848  -1531  -1156  -914  -904  -1107  -1411  -1657  -1702  -1400  -684  230  995  1494  1777  1862  1811  1706  1557  1376  1197  1046  959  928  882  767  607  422  109  -431  -1052  -1482  -1645  -1643  -1548  -1381  -1192  -1079  -1099  -1202  -1287  -1318  -1337  -1396  -1482  -1546  -1567  -1571  -1595  -1649  -1719  -1780  -1801  -1714  -1460  -1113  -848  -726  -686  -703  -806  -973  -1136  -1262  -1358  -1433  -1425  -1171  -557  242  870  1166  1306  1581  2124  2844  3597  4315  4955  5484  5868  6070  6119  6097  6061  6049  6136  6426  6928  7475  7899  8206  8479  8745  9006  9265  9488  9637  9737  9861  10088  10472  10930  11181  11112  11086  11484  12317  13563  15222  16950  18220  18765  18567  17704  16365  14850  13437  12255  11410  11060  11177  11519  11903  12239  12458  12539  12538  12505  12450  12383  12339  12378  12548  12811  13044  13089  12744  11882  10712  9695  9100  8838  8669  8428  8091  7702  7279  6821  6420  6207  6193  6261  6278  6120  5698  5127  4710  4681  5073  5714  6289  6596  6691  6739  6821  6885  6815  6537  6147  5852  5737  5739  5745  5589  5137  4514  4045  3885  3924  4007  4059  4071  4038  3935  3734  3432  3069  2715  2420  2154  1856  1496  1032  401  -279  -745  -940  -1133  -1646  -2592  -3878  -5401  -7101  -8806  -10250  -11254  -11844  -12223  -12620  -13119  -13649  -14118  -14514  -14848  -15113  -15301  -15401  -15425  -15408  -15388  -15382  -15402  -15467  -15587  -15737  -15871  -15949  -15915  -15695  -15278  -14748  -14224  -13787  -13450  -13159  -12862  -12542  -12222  -11929  -11598  -11115  -10521  -10029  -9801  -9848  -10108  -10457  -10740  -10904  -10986  -11014  -11002  -10965  -10914  -10867  -10810  -10678  -10437  -10118  -9799  -9565  -9449  -9396  -9265  -8854  -8054  -7033  -6161  -5729  -5807  -6311  -6979  -7447  -7526  -7270  -6869  -6540  -6397  -6392  -6423  -6420  -6352  -6238  -6132  -6079  -6109  -6247  -6458  -6594  -6405  -5730  -4802  -4116  -3869  -3881  -3961  -4053  -4163  -4277  -4350  -4319  -4149  -3887  -3625  -3363  -2992  -2388  -1493  -367  835  1908  2643  2968  2978  2771  2365  1803  1184  607  152  -152  -379  -590  -685  -445  245  1177  1934  2326  2506  2646  2740  2741  2686  2627  2595  2788  3590  5069  6814  8319  9043  8538  6926  4866  2952  1459  532  151  32  -83  -231  -364  -432  -385  -220  0  176  259  278  275  226  53  -271  -632  -877  -972  -971  -878  -650  -342  -71  139  331  485  563  589  646  819  1104  1407  1634  1751  1783  1779  1752  1670  1500  1237  914  615  441  450  669  1083  1624  2179  2623  2903  3091  3269  3431  3542  3601  3628  3634  3622  3595  3570  3597  3738  3996  4270  4439  4485  4472  4440  4395  4353  4344  4347  4253  3958  3539  3236  3224  3502  3904  4198  4252  4055  3642  3020  2176  1263  606  351  352  432  532  624  652  580  456  368  356  404  510  728  1102  1546  1876  2003  1981  1866  1639  1300  964  759  672  588  444  273  148  121  235  514  864  1122  1224  1193  1015  642  105  -431  -793  -968  -1056  -1135  -1259  -1474  -1774  -2068  -2263  -2317  -2197  -1892  -1507  -1205  -1051  -1040  -1183  -1473  -1887  -2372  -2798  -3017  -2947  -2602  -2144  -1818  -1709  -1713  -1713  -1681  -1660  -1679  -1706  -1703  -1694  -1716  -1761  -1797  -1832  -1983  -2374  -2913  -3310  -3372  -3120  -2705  -2324  -2099  -2022  -2013  -1971  -1845  -1715  -1739  -1975  -2337  -2705  -2962  -3006  -2800  -2439  -2095  -1873  -1757  -1692  -1671  -1776  -2039  -2242  -2140  -1794  -1255  -382  741  1871  3014  4109  4729  4542  3536  1879  93  -1130  -1531  -1306  -748  -62  661  1368  1956  2364  2619  2790  2932  3039  3085  3098  3132  3190  3236  3272  3351  3509  3720  3910  3988  3921  3764  3595  3448  3334  3263  3235  3231  3228  3199  3131  3035  2942  2864  2781  2697  2719  2967  3387  3797  4087  4212  4118  3856  3622  3591  3819  4249  4753  5185  5434  5498  5452  5335  5137  4889  4675  4530  4409  4273  4171  4216  4410  4478  4173  3631  3094  2578  2057  1653  1470  1477  1575  1567  1245  649  -52  -775  -1431  -2012  -2609  -3148  -3454  -3513  -3402  -3161  -2834  -2508  -2270  -2154  -2127  -2130  -2131  -2126  -2095  -2006  -1878  -1767  -1682  -1571  -1337  -849  -110  608  1017  1085  936  648  198  -470  -1268  -1963  -2456  -2810  -3053  -3116  -2948  -2510  -1783  -970  -410  -204  -183  -193  -190  -187  -207  -260  -328  -391  -464  -574  -704  -814  -879  -892  -855  -804  -808  -950  -1273  -1704  -2090  -2317  -2390  -2328  -2050  -1501  -857  -399  -229  -257  -348  -412  -444  -492  -590  -727  -907  -1185  -1600  -2067  -2397  -2478  -2381  -2237  -2105  -1992  -1915  -1874  -1856  -1834  -1743  -1524  -1231  -983  -799  -611  -399  -197  -29  93  141  92  -22  -172  -355  -544  -660  -634  -468  -275  -205  -246  -207  75  689  1626  2714  3711  4386  4491  3816  2311  260  -1757  -3174  -3714  -3479  -2841  -2204  -1863  -1897  -2147  -2412  -2587  -2666  -2697  -2729  -2753  -2705  -2545  -2310  -2013  -1588  -1062  -607  -330  -224  -264  -438  -674  -857  -941  -968  -984  -969  -844  -535  -56  490  990  1372  1632  1821  1969  2062  2095  2094  2062  1979  1857  1765  1784  1951  2193  2418  2678  3079  3562  3941  4122  4113  3898  3428  2743  2062  1621  1415  1257  1061  864  653  337  -66  -426  -703  -973  -1254  -1495  -1686  -1834  -1910  -1895  -1827  -1747  -1670  -1596  -1538  -1506  -1497  -1504  -1529  -1577  -1653  -1736  -1788  -1789  -1753  -1709  -1673  -1641  -1621  -1638  -1723  -1882  -2061  -2151  -2087  -1918  -1746  -1628  -1550  -1488  -1440  -1410  -1394  -1369  -1304  -1184  -1040  -926  -850  -783  -685  -528  -324  -124  25  103  128  173  303  494  654  741  793  851  928  1035  1140  1152  1040  901  819  794  795  810  868  1005  1195  1344  1379  1315  1207  1062  864  636  452  383  437  564  701  809  877  908  928  964  1023  1102  1201  1318  1432  1507  1514  1442  1304  1149  1006  836  621  435  362  420  565  724  838  888  853  693  422  161  38  57  139  221  258  229  162  95  42  4  -19  -24  0  49  109  197  395  738  1100  1329  1448  1607  2041  3038  4582  6197  7267  7314  6195  4285  2268  712  -121  -220  242  1011  1841  2496  2847  2977  3043  3095  3092  3010  2894  2823  2830  2902  2999  3070  3094  3068  2989  2884  2802  2776  2819  2940  3118  3306  3504  3752  4029  4247  4375  4471  4597  4765  4938  5118  5396  5856  6463  7077  7543  7803  7908  7949  8008  8166  8462  8845  9208  9470  9601  9631  9623  9610  9575  9505  9439  9434  9484  9548  9622  9592  8946  6985  3679  1  -2962  -4829  -5807  -6275  -6500  -6595  -6626  -6649  -6704  -6868  -7241  -7781  -8268  -8531  -8601  -8599  -8581  -8529  -8415  -8270  -8160  -8120  -8166  -8334  -8627  -8950  -9184  -9312  -9399  -9487  -9555  -9505  -9105  -8119  -6756  -5646  -5126  -4984  -4947  -4970  -5066  -5170  -5204  -5152  -5070  -5018  -5010  -5008  -4974  -4909  -4892  -5013  -5274  -5613  -5976  -6314  -6568  -6723  -6817  -6876  -6876  -6763  -6499  -6164  -5925  -5839  -5801  -5714  -5585  -5505  -5540  -5654  -5758  -5819  -5858  -5884  -5866  -5756  -5563  -5364  -5218  -5109  -4995  -4835  -4581  -4257  -3963  -3751  -3599  -3476  -3282  -2804  -1890  -656  658  1866  2790  3289  3402  3279  3045  2780  2540  2320  2057  1708  1295  914  662  532  409  234  67  -21  -32  -15  -16  -74  -207  -380  -533  -635  -654  -571  -447  -373  -380  -461  -577  -689  -793  -912  -1042  -1145  -1194  -1231  -1388  -1766  -2271  -2707  -3007  -3225  -3402  -3531  -3566  -3379  -2769  -1720  -439  820  1665  1650  736  -703  -2312  -3823  -5008  -5847  -6388  -6613  -6574  -6362  -6015  -5574  -5125  -4755  -4472  -4188  -3843  -3490  -3247  -3157  -3157  -3176  -3196  -3231  -3262  -3217  -3042  -2797  -2578  -2388  -2142  -1788  -1340  -856  -453  -215  -67  127  381  602  782  1063  1661  2684  3953  5171  6246  7269  8315  9324  10105  10487  10452  10085  9557  9073  8722  8484  8348  8299  8297  8304  8310  8323  8354  8390  8352  8126  7690  7218  6939  6951  7218  7589  7859  7894  7660  7226  6786  6503  6338  6142  5883  5639  5440  5240  5027  4854  4762  4707  4588  4359  4086  3871  3737  3624  3465  3242  3006  2821  2713  2666  2652  2642  2621  2594  2573  2541  2470  2369  2274  2178  2034  1828  1596  1368  1157  975  818  681  590  595  747  1035  1343  1530  1538  1370  1083  784  558  410  314  266  259  268  281  329  448  620  765  818  763  649  541  458  393  352  341  347  364  405  476  555  614  644  649  619  531  384  217  87  29  53  159  337  498  502  357  215  154  153  178  207  235  278  333  382  431  510  644  822  986  1083  1113  1085  966  738  470  263  113  -54  -216  -253  -151  -47  -54  -184  -380  -594  -831  -1078  -1280  -1380  -1308  -1088  -844  -471  281  1303  2307  3157  3617  3432  2672  1507  -7  -1677  -3186  -4361  -5135  -5495  -5547  -5412  -5097  -4605  -4006  -3383  -2831  -2428  -2185  -2053  -1976  -1953  -2062  -2369  -2806  -3226  -3573  -3874  -4120  -4274  -4336  -4328  -4256  -4173  -4157  -4206  -4265  -4314  -4368  -4452  -4549  -4584  -4493  -4289  -4032  -3785  -3585  -3394  -3109  -2654  -2049  -1433  -981  -745  -624  -523  -406  -196  197  715  1149  1378  1454  1468  1467  1473  1484  1466  1382  1244  1085  907  723  567  404  172  -92  -307  -475  -654  -835  -967  -1051  -1127  -1208  -1332  -1588  -1981  -2356  -2563  -2586  -2476  -2268  -1977  -1615  -1243  -969  -843  -816  -820  -826  -834  -883  -1035  -1330  -1705  -2022  -2219  -2339  -2424  -2478  -2502  -2496  -2445  -2322  -2145  -1983  -1871  -1781  -1669  -1526  -1385  -1298  -1304  -1435  -1683  -1967  -2236  -2553  -2965  -3382  -3667  -3799  -3868  -3943  -3998  -3983  -3899  -3760  -3589  -3434  -3324  -3266  -3283  -3380  -3517  -3633  -3672  -3607  -3424  -3070  -2442  -1535  -548  215  601  720  800  987  1273  1555  1753  1876  2007  2211  2478  2725  2866  2871  2763  2606  2502  2573  2884  3330  3689  3863  3927  3986  4073  4155  4212  4241  4206  4067  3829  3476  2940  2244  1577  1126  936  920  932  847  619  323  108  34  71  179  309  402  448  484  470  182  -601  -1669  -2463  -2558  -1802  -289  1614  3323  4244  4121  3030  1171  -1058  -3179  -4962  -6294  -7000  -7051  -6596  -5850  -5087  -4514  -4158  -3908  -3628  -3294  -3003  -2824  -2735  -2699  -2711  -2761  -2824  -2891  -2954  -3000  -3040  -3085  -3097  -2999  -2753  -2392  -1983  -1612  -1359  -1231  -1170  -1124  -1086  -1061  -1034  -949  -756  -489  -258  -115  5  206  575  1160  1938  2813  3586  4043  4168  4133  4084  4089  4199  4445  4765  5014  5100  5058  4991  4982  5051  5169  5306  5467  5625  5721  5767  5804  5823  5784  5685  5580  5517  5479  5441  5407  5381  5356  5316  5172  4792  4186  3555  3057  2690  2408  2190  1994  1737  1399  1075  851  720  637  577  536  542  684  1041  1508  1852  1974  1965  1939  1963  2073  2277  2543  2807  3002  3118  3199  3272  3325  3345  3343  3337  3331  3308  3242  3119  2972  2858  2789  2710  2549  2311  2081  1928  1859  1842  1843  1848  1814  1608  1129  514  52  -131  -129  -65  -33  -124  -394  -752  -1006  -1057  -938  -737  -530  -346  -194  -101  -75  -81  -73  -26  51  146  272  422  537  574  512  329  61  -176  -301  -339  -361  -396  -445  -515  -618  -734  -819  -853  -842  -777  -648  -498  -398  -385  -458  -598  -757  -907  -1086  -1342  -1626  -1832  -1931  -1967  -1967  -1924  -1845  -1772  -1736  -1729  -1737  -1763  -1824  -1916  -2035  -2226  -2532  -2920  -3321  -3717  -4129  -4531  -4833  -4974  -5012  -5088  -5297  -5583  -5871  -6129  -6154  -5698  -4809  -3754  -2910  -2770  -3670  -5511  -7738  -9589  -10588  -10818  -10644  -10328  -9942  -9467  -8904  -8363  -7971  -7733  -7573  -7416  -7199  -6936  -6720  -6599  -6540  -6501  -6447  -6324  -6093  -5776  -5474  -5285  -5201  -5144  -5074  -4985  -4838  -4610  -4351  -4111  -3853  -3537  -3214  -2967  -2793  -2592  -2261  -1819  -1381  -1007  -684  -428  -263  -81  293  871  1473  1930  2186  2292  2334  2376  2454  2598  2833  3127  3371  3490  3510  3495  3465  3375  3174  2903  2696  2633  2673  2734  2775  2792  2777  2685  2475  2181  1896  1689  1589  1596  1686  1808  1909  1982  2059  2178  2336  2465  2517  2521  2516  2517  2525  2556  2657  2870  3169  3488  3789  4052  4243  4355  4420  4460  4485  4476  4378  4155  3883  3699  3645  3661  3688  3707  3712  3688  3602  3435  3219  3039  2944  2913  2895  2831  2672  2454  2260  2108  1953  1802  1711  1719  1827  1985  2091  2026  1736  1331  1013  860  812  814  839  867  876  856  816  768  717  658  577  492  471  548  651  667  589  503  466  465  472  475  484  527  622  740  835  905  961  1001  1029  1062  1130  1268  1503  1807  2113  2377  2577  2682  2689  2631  2560  2519  2508  2469  2268  1805  1215  804  735  937  1228  1443  1541  1595  1671  1778  1906  2048  2211  2411  2627  2783  2860  2915  2987  3071  3172  3278  3344  3405  3556  3842  4357  5230  6375  7522  8375  8594  7960  6635  5000  3360  1930  868  211  -50  83  511  995  1309  1358  1140  714  226  -169  -435  -611  -718  -767  -781  -785  -797  -830  -876  -911  -916  -881  -803  -681  -532  -406  -341  -338  -372  -429  -497  -567  -616  -630  -632  -685  -864  -1173  -1532  -1882  -2229  -2569  -2878  -3187  -3554  -3966  -4323  -4541  -4620  -4587  -4426  -4114  -3695  -3292  -3055  -3012  -3022  -2931  -2751  -2672  -2837  -3135  -3420  -3729  -4124  -4608  -5192  -5816  -6349  -6729  -6987  -7194  -7443  -7693  -7721  -7391  -6761  -5983  -5294  -4862  -4666  -4612  -4649  -4763  -4916  -5052  -5134  -5097  -4775  -4030  -2962  -1891  -1006  -199  656  1553  2524  3598  4644  5480  6047  6396  6600  6689  6627  6347  5886  5429  5123  4936  4752  4538  4359  4262  4156  3863  3278  2471  1691  1231  1222  1601  2163  2654  2944  3057  3060  2996  2892  2791  2711  2588  2330  1944  1519  1127  798  533  279  -40  -417  -732  -886  -908  -885  -862  -834  -796  -776  -796  -836  -875  -933  -1031  -1113  -1079  -891  -503  173  999  1594  1791  1737  1603  1471  1381  1334  1309  1262  1097  731  209  -305  -667  -864  -999  -1188  -1464  -1764  -1990  -2107  -2154  -2196  -2289  -2443  -2625  -2820  -3052  -3329  -3638  -3975  -4301  -4537  -4650  -4562  -4110  -3253  -2116  -896  68  390  -39  -1009  -2199  -3339  -4285  -4962  -5277  -5258  -5105  -4994  -4949  -4928  -4939  -5015  -5102  -5073  -4886  -4607  -4283  -3912  -3496  -3051  -2644  -2353  -2231  -2302  -2496  -2678  -2782  -2816  -2795  -2711  -2516  -2152  -1544  -636  377  1100  1387  1428  1404  1361  1281  1131  929  752  669  712  897  1173  1419  1567  1662  1747  1806  1835  1904  2073  2302  2497  2629  2752  2926  3157  3378  3517  3570  3591  3623  3649  3628  3550  3425  3240  2984  2680  2407  2251  2195  2093  1812  1399  1015  730  507  374  425  668  1014  1406  1789  2046  2081  1850  1392  892  557  403  315  234  172  117  -1  -231  -504  -707  -796  -814  -807  -798  -796  -782  -702  -515  -281  -118  -62  -61  -81  -165  -364  -622  -820  -932  -995  -1005  -957  -896  -869  -883  -912  -922  -889  -803  -666  -510  -405  -385  -437  -572  -831  -1194  -1551  -1778  -1864  -1910  -2016  -2172  -2302  -2360  -2358  -2320  -2263  -2203  -2143  -2078  -2013  -1953  -1889  -1805  -1684  -1496  -1220  -924  -723  -638  -601  -579  -555  -391  104  869  1567  1973  2104  2008  1712  1321  983  765  632  522  419  377  442  584  719  790  810  843  948  1109  1263  1404  1561  1710  1804  1816  1710  1455  1097  742  487  435  742  1530  2688  3908  4930  5584  5706  5207  4102  2444  477  -1320  -2526  -2950  -2641  -1887  -1122  -654  -478  -435  -423  -421  -452  -549  -705  -879  -1059  -1283  -1573  -1895  -2203  -2475  -2688  -2828  -2898  -2908  -2855  -2732  -2577  -2457  -2403  -2392  -2400  -2417  -2441  -2442  -2362  -2171  -1919  -1713  -1599  -1509  -1354  -1123  -872  -656  -493  -360  -226  -68  133  405  762  1174  1597  2083  2748  3600  4506  5301  5882  6254  6469  6574  6591  6482  6161  5626  5037  4589  4320  4101  3837  3538  3237  2943  2650  2371  2121  1867  1547  1172  829  603  501  446  363  248  146  80  23  -60  -167  -248  -273  -258  -226  -154  -5  219  478  710  863  916  882  773  634  532  501  527  600  710  801  794  675  507  326  100  -212  -582  -924  -1203  -1452  -1730  -2062  -2371  -2571  -2676  -2760  -2875  -3043  -3250  -3453  -3615  -3707  -3725  -3683  -3606  -3477  -3238  -2888  -2533  -2279  -2142  -2090  -2068  -2020  -1931  -1830  -1733  -1617  -1445  -1230  -1033  -900  -835  -818  -850  -947  -1068  -1151  -1184  -1187  -1135  -984  -756  -544  -416  -371  -365  -333  -218  4  347  810  1287  1600  1694  1658  1584  1509  1446  1408  1411  1461  1542  1609  1606  1514  1381  1279  1210  1109  962  907  1075  1346  1551  1773  2188  2907  3986  5249  6153  6127  5059  3303  1326  -487  -1829  -2555  -2778  -2686  -2449  -2240  -2125  -2044  -1937  -1817  -1756  -1791  -1865  -1913  -1922  -1914  -1914  -1921  -1914  -1883  -1849  -1838  -1847  -1853  -1816  -1688  -1448  -1163  -956  -882  -892  -927  -951  -954  -938  -868  -656  -244  306  850  1285  1600  1820  1974  2111  2283  2519  2802  3062  3237  3329  3381  3420  3433  3404  3356  3326  3330  3360  3397  3423  3414  3273  2891  2370  1968  1781  1693  1590  1438  1229  963  660  368  145  19  -22  3  64  104  94  51  -9  -84  -188  -290  -326  -324  -368  -452  -521  -569  -620  -664  -673  -660  -670  -735  -867  -1032  -1160  -1215  -1222  -1224  -1260  -1353  -1496  -1655  -1788  -1882  -1941  -1965  -1986  -2018  -2026  -1994  -1938  -1863  -1789  -1753  -1771  -1840  -1939  -2045  -2137  -2202  -2239  -2268  -2303  -2338  -2368  -2394  -2402  -2379  -2327  -2244  -2115  -1933  -1708  -1466  -1264  -1154  -1131  -1146  -1168  -1199  -1238  -1230  -1068  -699  -257  51  167  187  212  270  342  426  554  724  872  914  831  696  589  531  497  473  465  472  466  427  363  283  194  93  -34  -194  -372  -539  -589  -433  -180  22  260  721  1514  2692  4123  5342  5785  5199  3786  1988  271  -985  -1678  -1964  -1962  -1731  -1373  -974  -583  -233  80  363  582  719  797  844  889  961  1040  1065  1025  971  946  945  947  943  946  988  1096  1268  1443  1558  1619  1688  1813  2002  2236  2468  2663  2824  2965  3101  3271  3528  3882  4277  4635  4927  5164  5344  5465  5559  5685  5882  6129  6364  6531  6614  6639  6642  6627  6553  6382  6109  5779  5469  5234  5077  4980  4931  4921  4927  4917  4889  4877  4895  4919  4928  4930  4950  5008  5077  5079  4960  4774  4637  4600  4598  4522  4295  3943  3568  3214  2835  2421  2032  1716  1464  1237  1021  837  703  619  576  534  451  311  131  -53  -208  -325  -442  -598  -783  -918  -945  -901  -865  -873  -932  -1020  -1106  -1174  -1226  -1262  -1284  -1285  -1248  -1185  -1156  -1186  -1233  -1256  -1258  -1253  -1248  -1245  -1243  -1242  -1244  -1245  -1244  -1253  -1305  -1427  -1599  -1767  -1893  -1950  -1885  -1655  -1331  -1081  -1022  -1195  -1582  -2055  -2457  -2752  -2970  -3109  -3202  -3320  -3502  -3723  -3920  -4037  -4094  -4159  -4255  -4353  -4445  -4541  -4643  -4741  -4799  -4794  -4765  -4747  -4703  -4568  -4334  -4086  -3905  -3780  -3652  -3572  -3856  -4909  -6662  -8531  -10104  -11403  -12568  -13681  -14729  -15720  -16900  -18551  -20639  -22846  -24808  -26399  -27889  -29641  -31755  -32768  -32768  -32768  -32768  -32768  -32768  -32768  -32768  -32768  -32768  -32768  -32768  -32768  -32768  -32768  -32768  -31574  -30005  -28376  -26549  -24457  -22185  -19829  -17425  -14988  -12536  -10187  -8158  -6541  -5232  -3979  -2528  -949  436  1475  2225  2805  3313  3738  4043  4279  4508  4716  4874  4985  5061  5099  5105  5110  5144  5213  5302  5441  5739  6290  7021  7697  8118  8277  8318  8394  8555  8743  8905  9107  9460  9919  10330  10659  10944  11154  11266  11372  11604  12016  12555  13113  13577  13879  14049  14175  14305  14420  14484  14500  14467  14351  14119  13830  13608  13522  13552  13646  13791  14009  14270  14473  14550  14494  14299  14011  13757  13627  13585  13555  13548  13600  13643  13552  13293  12949  12610  12312  12067  11895  11794  11736  11702  11691  11718  11807  11964  12130  12236  12282  12320  12384  12456  12505  12508  12427  12198  11796  11264  10722  10324  10148  10155  10265  10431  10685  11093  11618  12115  12482  12763  13115  13623  14174  14594  14841  14978  15068  15140  15195  15234  15270  15328  15436  15605  15788  15926  16015  16082  16133  16201  16387  16735  17099  17315  17379  17401  17583  18088  18690  18733  17502  14835  11353  7918  5090  2988  1382  -8  -1155  -1777  -1833  -1672  -1575  -1531  -1469  -1405  -1391  -1449  -1615  -1942  -2356  -2664  -2776  -2747  -2639  -2498  -2378  -2301  -2260  -2267  -2375  -2615  -2907  -3097  -3062  -2783  -2377  -2032  -1828  -1726  -1679  -1656  -1623  -1554  -1436  -1270  -1086  -939  -858  -858  -983  -1280  -1701  -2127  -2473  -2731  -2971  -3319  -3815  -4305  -4598  -4675  -4660  -4681  -4854  -5281  -5983  -6783  -7384  -7684  -7865  -8156  -8602  -9059  -9370  -9534  -9642  -9751  -9861  -9950  -10005  -10024  -10000  -9886  -9631  -9310  -9091  -9030  -9048  -9075  -9102  -9138  -9148  -9011  -8617  -8037  -7507  -7178  -7009  -6905  -6851  -6902  -7102  -7380  -7577  -7627  -7605  -7535  -7302  -6821  -6241  -5816  -5628  -5588  -5602  -5634  -5677  -5717  -5745  -5760  -5760  -5734  -5657  -5492  -5260  -5052  -4922  -4849  -4828  -4878  -4985  -5115  -5248  -5366  -5435  -5451  -5443  -5447  -5482  -5538  -5577  -5557  -5459  -5323  -5221  -5187  -5204  -5250  -5301  -5301  -5189  -4969  -4718  -4503  -4324  -4158  -4015  -3925  -3912  -3965  -4062  -4199  -4345  -4444  -4476  -4470  -4461  -4459  -4467  -4494  -4543  -4590  -4595  -4544  -4459  -4359  -4254  -4141  -4016  -3897  -3808  -3749  -3680  -3507  -3122  -2469  -1575  -628  82  460  671  883  1258  2043  3304  4686  5806  6659  7409  8057  8477  8630  8485  7881  6745  5370  4257  3684  3552  3614  3718  3826  3910  3875  3617  3205  2843  2620  2471  2329  2297  2763  3976  5425  6213  5909  4585  2810  1524  916  245  -978  -2496  -3640  -3940  -3627  -3306  -3333  -3763  -4445  -5049  -5292  -5153  -4803  -4379  -3742  -2631  -1134  329  1464  2192  2545  2680  2770  2861  2897  2799  2513  2080  1624  1203  797  448  257  284  508  812  1032  1108  1099  1069  1035  993  907  712  326  -351  -1338  -2383  -3122  -3459  -3598  -3758  -4005  -4322  -4664  -4966  -5192  -5408  -5722  -6112  -6393  -6338  -5799  -4860  -3845  -3072  -2668  -2561  -2584  -2610  -2613  -2653  -2874  -3425  -4319  -5416  -6477  -7231  -7567  -7652  -7774  -8128  -8662  -9126  -9348  -9358  -9241  -9020  -8633  -8017  -7297  -6740  -6436  -6225  -5968  -5697  -5519  -5464  -5481  -5569  -5780  -6104  -6443  -6702  -6792  -6613  -6137  -5487  -4802  -4099  -3456  -3054  -2935  -2968  -3032  -3050  -2915  -2523  -1934  -1338  -784  -142  601  1277  1779  2121  2321  2399  2363  2134  1646  1037  639  835  1858  3410  4726  5344  5426  5314  5196  5166  5368  5934  6722  7368  7702  7807  7704  7328  6762  6156  5468  4621  3811  3330  3278  3624  4314  5296  6544  7893  9032  9929  10751  11274  10988  9749  7937  6073  4609  3960  4422  5901  7756  9121  9474  8769  7289  5762  5075  5457  6438  7316  7309  6221  4866  4045  3716  3458  3030  2444  1880  1561  1631  2115  2845  3549  4135  4650  5008  5095  5051  5111  5311  5576  5840  6009  6000  5808  5529  5328  5353  5665  6181  6725  7235  7832  8665  9703  10676  11302  11528  11459  11175  10739  10261  9818  9401  8939  8330  7531  6696  6034  5581  5277  5103  5045  5047  4982  4697  4143  3414  2704  2229  2055  2066  2129  2182  2162  1961  1523  986  553  254  -35  -373  -689  -896  -986  -1037  -1136  -1300  -1465  -1541  -1491  -1358  -1203  -1069  -987  -971  -1028  -1172  -1390  -1609  -1748  -1817  -1917  -2121  -2380  -2590  -2697  -2705  -2620  -2430  -2143  -1853  -1677  -1640  -1681  -1745  -1805  -1849  -1878  -1905  -1960  -2069  -2244  -2461  -2678  -2904  -3195  -3539  -3811  -3914  -3843  -3635  -3366  -3135  -2986  -2895  -2830  -2781  -2754  -2748  -2755  -2762  -2754  -2712  -2634  -2539  -2424  -2249  -1963  -1593  -1226  -904  -619  -356  -105  139  377  600  772  862  887  888  888  893  902  915  923  927  923  875  683  275  -239  -680  -1130  -1845  -2777  -3624  -4291  -4884  -5438  -5836  -5829  -5335  -4670  -4167  -3853  -3635  -3443  -3240  -3232  -3847  -5116  -6546  -7703  -8368  -8420  -8047  -7660  -7451  -7390  -7423  -7431  -7309  -7087  -6878  -6769  -6788  -6898  -7037  -7163  -7266  -7344  -7391  -7429  -7473  -7481  -7356  -7038  -6586  -6111  -5645  -5198  -4838  -4580  -4297  -3775  -2793  -1316  309  1614  2402  2773  2944  3091  3259  3429  3585  3727  3872  4047  4225  4338  4361  4337  4330  4409  4613  4893  5139  5271  5290  5300  5506  6058  6797  7337  7403  6927  6023  4980  4047  3295  2762  2485  2386  2317  2203  2074  1979  1919  1846  1699  1474  1252  1105  1015  860  540  116  -239  -465  -638  -796  -905  -940  -919  -881  -850  -829  -802  -768  -772  -923  -1291  -1769  -2170  -2447  -2637  -2741  -2767  -2766  -2763  -2696  -2477  -2124  -1772  -1535  -1426  -1369  -1264  -1089  -900  -754  -637  -499  -318  -153  -112  -249  -490  -710  -854  -933  -968  -950  -836  -599  -261  120  454  661  740  749  749  784  865  965  1051  1089  1002  698  240  -151  -331  -342  -288  -231  -201  -234  -357  -537  -686  -732  -611  -267  232  681  920  973  930  818  617  319  -31  -335  -512  -578  -604  -626  -658  -725  -856  -1028  -1183  -1279  -1336  -1431  -1664  -2072  -2604  -3136  -3534  -3783  -3969  -4157  -4332  -4457  -4554  -4713  -4992  -5319  -5572  -5736  -5851  -5841  -5615  -5278  -4961  -4576  -3990  -3211  -2354  -1685  -1554  -2163  -3460  -5132  -6700  -7775  -8187  -8022  -7645  -7408  -7294  -7052  -6596  -6067  -5609  -5183  -4634  -3853  -2874  -1926  -1287  -1003  -893  -810  -751  -737  -724  -626  -393  -65  303  724  1192  1621  2021  2553  3241  3897  4399  4756  4988  5166  5460  5996  6714  7455  8118  8646  9001  9227  9429  9658  9907  10137  10339  10544  10756  10905  10942  10916  10899  10857  10615  10024  9177  8341  7720  7375  7188  6767  5728  4257  2984  2234  1866  1663  1560  1587  1745  1910  1931  1819  1695  1553  1256  781  286  -85  -330  -523  -725  -965  -1262  -1580  -1830  -1961  -1999  -1995  -1980  -1964  -1949  -1946  -1962  -1985  -1961  -1835  -1643  -1481  -1388  -1335  -1297  -1236  -1109  -934  -766  -581  -266  247  841  1313  1657  2039  2508  2926  3160  3232  3239  3246  3268  3301  3358  3452  3555  3620  3620  3560  3468  3394  3373  3415  3498  3568  3590  3579  3570  3572  3570  3543  3471  3366  3248  3079  2775  2354  1957  1654  1379  1024  573  158  -69  -146  -291  -673  -1238  -1819  -2354  -2826  -3140  -3241  -3189  -3062  -2904  -2714  -2458  -2157  -1941  -1908  -1985  -2051  -2076  -2081  -2082  -2089  -2092  -2061  -1940  -1685  -1345  -1034  -767  -440  -22  358  567  565  366  27  -325  -576  -745  -970  -1392  -2018  -2687  -3212  -3555  -3817  -4108  -4441  -4733  -4909  -4987  -5030  -5063  -5037  -4790  -4117  -3056  -1965  -1174  -700  -384  -155  0]
