reading_id,reading_time,wire_id,result_classification,heart_rate,heart_rate_alert,firmware_version,device_app_version,hardware_version,waveform_samples
e85c3690-da11-11ed-8080-808080808080,Thu Apr 13 15:43:16 UTC 2023,6119e4d89339,NSR,67,NONE,20001.188.58,2.13.0,Charge 5,[0  11  -61  -256  -522  -737  -826  -810  -781  -861  -1139  -1534  -1863  -2054  -2157  -2210  -2230  -2240  -2237  -2176  -2017  -1811  -1664  -1613  -1610  -1607  -1617  -1686  -1811  -1918  -1925  -1799  -1598  -1470  -1495  -1595  -1668  -1699  -1696  -1611  -1390  -1092  -867  -776  -742  -684  -617  -618  -728  -911  -1095  -1207  -1210  -1111  -960  -829  -762  -750  -761  -760  -739  -716  -698  -671  -629  -600  -619  -703  -844  -970  -980  -881  -778  -734  -742  -794  -902  -1048  -1169  -1227  -1231  -1179  -1048  -855  -679  -597  -608  -654  -697  -738  -768  -768  -736  -690  -652  -641  -658  -685  -695  -672  -630  -585  -547  -514  -488  -469  -452  -422  -370  -300  -228  -187  -219  -316  -409  -434  -379  -290  -226  -204  -202  -192  -155  -84  9  108  203  291  356  371  337  317  384  529  635  564  307  1  -220  -330  -362  -349  -323  -306  -284  -226  -134  -25  81  158  200  212  179  70  -105  -281  -375  -300  -38  310  737  1427  2497  3792  4899  5355  4866  3463  1572  -241  -1607  -2342  -2470  -2294  -2048  -1733  -1403  -1151  -939  -701  -462  -291  -191  -104  -15  37  32  4  14  79  154  222  322  456  581  688  782  847  877  892  907  922  936  955  990  1041  1131  1294  1508  1725  1909  2028  2066  2065  2127  2337  2662  2952  3102  3163  3240  3341  3385  3348  3337  3421  3490  3356  2965  2455  2042  1843  1790  1724  1546  1268  967  725  562  429  278  120  7  -37  -45  -65  -132  -238  -336  -396  -426  -442  -462  -494  -527  -549  -558  -553  -524  -462  -391  -343  -330  -342  -377  -438  -506  -550  -563  -564  -581  -609  -612  -570  -519  -496  -492  -478  -446  -429  -468  -528  -527  -463  -425  -470  -551  -585  -551  -514  -534  -609  -688  -732  -754  -804  -906  -1019  -1063  -987  -805  -584  -396  -285  -245  -253  -294  -360  -454  -560  -638  -660  -627  -559  -495  -467  -469  -480  -483  -456  -394  -326  -290  -302  -375  -513  -695  -870  -983  -1015  -980  -881  -723  -522  -332  -228  -220  -244  -276  -376  -588  -852  -1050  -1141  -1163  -1119  -944  -620  -314  -255  -459  -718  -842  -814  -738  -696  -690  -683  -650  -603  -569  -581  -660  -758  -783  -729  -653  -553  -389  -204  -101  -111  -148  -151  -161  -208  -230  -168  -58  1  -46  -173  -309  -426  -525  -600  -658  -758  -953  -1152  -1150  -911  -655  -561  -599  -663  -694  -679  -638  -643  -717  -798  -825  -603  178  1488  2904  4051  4713  4681  3886  2583  1127  -313  -1656  -2710  -3322  -3513  -3286  -2534  -1481  -692  -412  -402  -389  -302  -197  -133  -91  -35  6  13  41  123  210  266  305  347  391  426  463  537  679  864  1034  1141  1175  1170  1176  1210  1271  1363  1490  1636  1777  1926  2135  2431  2744  2951  3009  2975  2924  2913  2976  3104  3266  3421  3534  3597  3602  3488  3214  2864  2576  2365  2167  1970  1756  1466  1139  904  750  526  186  -161  -411  -532  -561  -553  -538  -512  -474  -437  -413  -416  -474  -609  -777  -894  -934  -935  -934  -937  -935  -917  -857  -708  -449  -165  -30  -136  -377  -574  -647  -643  -624  -615  -609  -599  -594  -639  -771  -953  -1089  -1132  -1096  -1016  -943  -933  -989  -1073  -1129  -1135  -1127  -1121  -1078  -966  -821  -739  -776  -873  -957  -1030  -1104  -1157  -1163  -1101  -1001  -955  -989  -992  -943  -950  -994  -964  -863  -761  -688  -645  -617  -594  -574  -557  -539  -531  -567  -689  -886  -1072  -1167  -1143  -1011  -827  -660  -536  -455  -411  -389  -380  -365  -327  -265  -179  -82  -15  -6  -46  -102  -141  -154  -152  -149  -142  -115  -38  102  268  381  416  409  401  430  512  613  674  688  672  610  460  230  -13  -213  -361  -465  -499  -444  -348  -283  -266  -267  -256  -232  -250  -386  -572  -615  -514  -397  -272  -121  205  997  2246  3627  4720  5045  4359  2897  1113  -606  -1987  -2891  -3372  -3487  -3184  -2568  -1902  -1281  -719  -310  -101  -23  9  44  91  134  153  117  0  -164  -298  -364  -371  -303  -126  135  393  571  652  644  560  453  400  426  506  617  741  862  1016  1251  1516  1690  1728  1707  1751  1950  2265  2541  2685  2741  2788  2842  2884  2908  2948  3043  3162  3169  2943  2525  2066  1651  1255  875  585  428  344  260  149  5  -151  -269  -323  -332  -321  -311  -326  -389  -494  -602  -674  -718  -763  -803  -814  -808  -830  -918  -1047  -1139  -1135  -1042  -938  -895  -888  -820  -662  -493  -448  -605  -882  -1104  -1180  -1157  -1117  -1096  -1085  -1085  -1127  -1239  -1387  -1458  -1327  -968  -533  -255  -274  -589  -1037  -1378  -1515  -1535  -1543  -1540  -1447  -1211  -908  -685  -594  -588  -652  -810  -1028  -1204  -1278  -1277  -1243  -1185  -1107  -1030  -1000  -1038  -1113  -1177  -1212  -1223  -1186  -1051  -818  -577  -423  -370  -401  -520  -686  -810  -855  -855  -835  -790  -712  -624  -562  -546  -567  -591  -572  -503  -439  -434  -473  -499  -519  -551  -533  -480  -489  -557  -654  -777  -878  -886  -766  -551  -335  -191  -111  -65  -26  26  81  117  139  148  147  162  250  455  722  926  1002  950  781  569  404  267  68  -168  -330  -376  -366  -365  -389  -408  -405  -407  -434  -471  -474  -395  -258  -150  -98  -38  62  151  214  437  1048  2074  3347  4541  5191  4906  3670  1771  -364  -2116  -3029  -3150  -2708  -1979  -1337  -976  -855  -852  -796  -568  -231  40  186  280  373  431  423  379  347  335  333  351  401  458  491  497  491  481  465  458  508  668  916  1186  1467  1741  1934  2010  2008  1992  2024  2169  2455  2794  3029  3108  3109  3111  3132  3159  3196  3290  3469  3638  3637  3466  3282  3163  3032  2796  2475  2184  2004  1906  1798  1615  1330  945  494  58  -251  -392  -422  -418  -417  -430  -471  -553  -651  -700  -654  -529  -423  -423  -499  -564  -610  -683  -787  -868  -867  -757  -567  -382  -278  -274  -344  -421  -453  -447  -438  -436  -419  -364  -283  -222  -214  -273  -398  -551  -662  -710  -721  -720  -719  -733  -781  -851  -902  -882  -756  -561  -396  -334  -369  -449  -517  -551  -560  -558  -536  -477  -400  -353  -368  -432  -507  -561  -598  -640  -686  -710  -682  -582  -432  -302  -247  -288  -432  -629  -798  -908  -966  -965  -911  -821  -681  -503  -354  -269  -237  -242  -264  -286  -302  -305  -304  -333  -403  -470  -493  -480  -473  -498  -516  -481  -426  -404  -414  -432  -446  -443  -399  -299  -178  -102  -88  -85  -22  133  328  478  544  555  545  510  409  227  16  -137  -196  -199  -220  -306  -427  -516  -550  -555  -550  -541  -540  -573  -639  -679  -662  -670  -809  -1043  -1246  -1374  -1473  -1511  -1297  -675  212  1061  1790  2507  3255  3955  4313  3854  2397  348  -1618  -3037  -3757  -3817  -3423  -2843  -2251  -1733  -1317  -1021  -847  -749  -659  -545  -403  -235  -69  54  115  120  91  34  -46  -122  -184  -244  -277  -258  -195  -86  56  232  478  779  1054  1238  1334  1373  1383  1391  1421  1488  1591  1720  1881  2095  2336  2523  2614  2653  2709  2794  2864  2890  2883  2859  2823  2762  2644  2442  2179  1902  1619  1296  903  486  160  -30  -178  -366  -563  -710  -811  -898  -992  -1101  -1209  -1282  -1315  -1328  -1343  -1365  -1384  -1405  -1435  -1470  -1498  -1516  -1525  -1509  -1442  -1313  -1145  -991  -928  -985  -1106  -1203  -1244  -1244  -1201  -1096  -954  -844  -787  -759  -728  -670  -584  -494  -425  -385  -369  -369  -373  -375  -367  -343  -311  -287  -279  -278  -278  -288  -339  -459  -617  -718  -716  -667  -639  -635  -608  -522  -403  -319  -300  -315  -328  -338  -359  -402  -459  -503  -512  -491  -471  -494  -564  -630  -663  -671  -672  -664  -622  -529  -414  -323  -274  -255  -244  -217  -178  -147  -139  -149  -169  -180  -149  -46  95  192  192  117  34  -31  -103  -171  -198  -163  -65  78  247  435  594  675  710  724  679  552  338  69  -155  -277  -321  -335  -342  -355  -372  -381  -384  -383  -382  -382  -381  -393  -471  -623  -741  -699  -449  -49  383  857  1496  2406  3617  4766  5127  4339  2620  424  -1575  -2772  -3111  -2975  -2702  -2375  -2010  -1680  -1423  -1167  -797  -331  30  156  163  218  306  307  173  -3  -81  -24  146  404  642  757  768  747  735  743  767  795  825  869  906  908  895  907  988  1181  1484  1846  2170  2366  2441  2495  2585  2700  2831  3005  3209  3401  3574  3721  3775  3689  3517  3343  3161  2934  2682  2414  2078  1688  1363  1150  972  772  585  414  180  -129  -399  -547  -604  -608  -571  -523  -494  -490  -501  -513  -521  -543  -605  -720  -856  -949  -978  -976  -972  -969  -944  -882  -808  -758  -743  -750  -776  -822  -886  -966  -1063  -1186  -1307  -1349  -1285  -1164  -1041  -949  -896  -885  -956  -1156  -1431  -1635  -1688  -1610  -1454  -1291  -1172  -1087  -992  -867  -726  -604  -522  -485  -514  -639  -842  -1060  -1232  -1328  -1352  -1342  -1335  -1338  -1324  -1267  -1189  -1136  -1100  -1013  -821  -529  -220  -26  -41  -273  -612  -889  -1012  -1008  -951  -900  -866  -836  -806  -775  -736  -712  -733  -775  -787  -743  -636  -498  -383  -321  -312  -334  -330  -252  -95  96  244  297  277  218  140  28  -113  -257  -387  -497  -575  -638  -746  -909  -1046  -1090  -1045  -948  -847  -784  -760  -768  -840  -996  -1176  -1273  -1152  -686  109  1143  2287  3310  3988  4204  3873  2927  1386  -477  -2179  -3331  -3736  -3370  -2595  -1967  -1640  -1418  -1202  -1018  -891  -815  -744  -616  -418  -197  -2  148  231  230  163  79  40  82  192  326  426  475  493  525  631  844  1101  1286  1355  1362  1361  1360  1359  1379  1462  1643  1889  2117  2294  2462  2663  2887  3080  3220  3324  3396  3428  3440  3469  3533  3606  3603  3456  3208  2948  2677  2330  1885  1412  1028  814  750  742  709  619  494  393  319  208  2  -266  -492  -599  -586  -490  -368  -275  -209  -135  -52  5  26  29  28  12  -35  -109  -173  -198  -197  -212  -282  -388  -460  -458  -422  -406  -416  -431  -437  -445  -463  -483  -499  -526  -581  -628  -604  -534  -533  -624  -723  -771  -789  -818  -883  -978  -1072  -1134  -1147  -1112  -1045  -966  -893  -849  -840  -846  -835  -790  -724  -675  -674  -724  -802  -853  -814  -651  -425  -256  -198  -226  -311  -432  -579  -756  -897  -888  -739  -598  -566  -630  -711  -729  -642  -458  -241  -107  -100  -129  -135  -134  -131  -118  -109  -105  -84  -32  37  90  113  115  90  15  -104  -221  -297  -348  -411  -478  -506  -472  -405  -370  -431  -611  -857  -1077  -1208  -1253  -1250  -1237  -1258  -1380  -1601  -1729  -1553  -1070  -441  182  815  1592  2550  3563  4305  4334  3445  1864  13  -1702  -2940  -3582  -3674  -3207  -2347  -1565  -1171  -1073  -1047  -974  -821  -617  -439  -345  -321  -311  -278  -201  -63  115  279  374  375  319  284  318  396  466  507  529  543  550  556  573  618  706  840  1013  1172  1276  1385  1626  2018  2414  2673  2786  2809  2793  2782  2845  3045  3337  3594  3737  3773  3717  3541  3208  2781  2422  2225  2125  2011  1843  1635  1380  1037  610  207  -69  -202  -227  -202  -202  -281  -464  -697  -863  -902  -851  -777  -728  -714  -718  -727  -744  -781  -834  -876  -879  -842  -805  -813  -860  -900  -908  -898  -887  -856  -774  -648  -537  -477  -454  -453  -471  -501  -530  -554  -586  -633  -667  -649  -585  -510  -464  -471  -553  -735  -977  -1181  -1296  -1340  -1316  -1171  -858  -464  -186  -107  -168  -288  -399  -480  -565  -662  -763  -867  -931  -920  -855  -759  -634  -499  -384  -300  -240  -191  -149  -124  -127  -159  -204  -245  -276  -307  -372  -494  -611  -633  -579  -540  -566  -637  -684  -669  -607  -520  -422  -330  -248  -190  -195  -262  -321  -280  -87  185  392  467  457  422  371  261  11  -407  -863  -1159  -1240  -1196  -1119  -1048  -992  -941  -882  -832  -813  -802  -797  -885  -1152  -1523  -1748  -1623  -1200  -624  130  1141  2312  3479  4498  5109  4982  3922  2064  -70  -1894  -3084  -3587  -3565  -3212  -2644  -1993  -1380  -871  -510  -300  -214  -238  -327  -402  -422  -405  -374  -295  -145  18  141  226  282  315  336  345  343  340  359  420  515  623  742  870  981  1052  1086  1094  1101  1148  1267  1454  1662  1826  1926  2007  2147  2362  2585  2754  2859  2928  2992  3064  3131  3182  3183  3048  2715  2260  1844  1532  1250  930  602  338  167  72  26  -8  -95  -272  -484  -637  -701  -715  -730  -780  -852  -907  -935  -962  -1008  -1084  -1205  -1352  -1451  -1407  -1155  -761  -418  -257  -254  -331  -438  -570  -756  -977  -1138  -1189  -1178  -1170  -1195  -1231  -1237  -1200  -1119  -985  -825  -704  -654  -662  -705  -768  -832  -886  -930  -961  -967  -955  -944  -938  -938  -947  -972  -1007  -1035  -1051  -1049  -1013  -927  -818  -738  -708  -703  -700  -707  -761  -873  -971  -992  -969  -949  -934  -933  -951  -986  -1058  -1174  -1301  -1391  -1432  -1441  -1418  -1338  -1190  -1001  -806  -635  -517  -465  -456  -460  -471  -505  -556  -579  -549  -479  -354  -158  40  165  200  156  13  -227  -489  -689  -825  -925  -986  -1006  -998  -975  -941  -893  -814  -673  -498  -395  -425  -545  -719  -938  -1092  -1028  -666  24  963  2013  3119  4232  5072  5209  4469  2982  1018  -985  -2496  -3155  -3048  -2606  -2093  -1521  -1006  -671  -425  -130  190  407  479  476  469  473  474  469  482  554  688  828  906  922  927  963  1025  1073  1086  1078  1080  1132  1238  1340  1401  1457  1509  1519  1508  1572  1800  2153  2498  2776  3027  3262  3451  3580  3655  3689  3700  3694  3642  3515  3340  3180  3073  2989  2860  2657  2430  2233  2061  1904  1774  1650  1473  1218  923  641  389  150  -72  -260  -410  -527  -607  -636  -620  -587  -558  -538  -523  -504  -483  -465  -449  -438  -444  -468  -489  -489  -485  -503  -536  -552  -540  -534  -569  -624  -640  -610  -592  -628  -683  -696  -656  -612  -591  -586  -587  -604  -649  -713  -763  -785  -791  -807  -839  -858  -809  -663  -469  -314  -237  -235  -328  -552  -839  -1054  -1143  -1146  -1099  -1008  -887  -768  -677  -616  -582  -568  -569  -576  -569  -527  -450  -373  -329  -320  -329  -337  -335  -312  -265  -209  -179  -224  -377  -589  -759  -849  -884  -847  -707  -512  -368  -321  -327  -330  -304  -262  -248  -283  -335  -368  -367  -362  -388  -440  -472  -445  -353  -233  -130  -64  -31  -17  -15  -44  -133  -268  -401  -499  -574  -651  -731  -790  -813  -806  -794  -809  -883  -1010  -1147  -1243  -1285  -1289  -1271  -1229  -1178  -1146  -1141  -1154  -1151  -973  -426  465  1567  2810  3960  4561  4342  3368  1767  -200  -2040  -3340  -3959  -3903  -3312  -2507  -1773  -1231  -929  -836  -835  -851  -866  -868  -815  -670  -449  -234  -91  -15  37  90  125  105  21  -84  -162  -209  -239  -227  -113  129  443  727  899  946  929  921  958  1072  1295  1589  1842  1970  1991  1990  2092  2382  2777  3070  3172  3161  3121  3072  3023  2997  3003  3016  2969  2799  2539  2303  2144  2003  1784  1438  1002  577  233  -43  -295  -515  -655  -711  -726  -722  -694  -642  -594  -579  -580  -563  -531  -516  -547  -626  -731  -826  -883  -902  -905  -909  -914  -923  -943  -972  -1001  -1020  -1012  -935  -770  -578  -447  -394  -379  -373  -369  -368  -379  -407  -442  -458  -448  -431  -430  -437  -437  -430  -431  -470  -570  -701  -789  -781  -667  -475  -257  -80  11  18  -32  -112  -205  -291  -352  -417  -541  -707  -815  -803  -701  -582  -504  -479  -485  -494  -476  -424  -368  -316  -254  -191  -153  -164  -236  -361  -493  -592  -650  -680  -708  -756  -829  -911  -974  -1011  -1025  -992  -875  -689  -517  -423  -401  -409  -425  -469  -570  -699  -760  -696  -555  -439  -394  -402  -429  -442  -385  -212  25  212  314  381  443  474  425  290  107  -86  -283  -463  -595  -674  -698  -650  -556  -486  -470  -489  -516  -563  -661  -795  -900  -946  -951  -945  -960  -1000  -1022  -930  -610  -9  825  1808  2858  3835  4483  4521  3757  2207  214  -1699  -3116  -3733  -3518  -2858  -2210  -1750  -1459  -1257  -1080  -909  -721  -478  -190  48  174  230  299  398  470  463  374  248  151  114  118  165  268  397  496  544  556  565  596  675  818  1002  1172  1278  1325  1335  1333  1369  1540  1931  2448  2853  3029  3055  3031  2985  2910  2822  2762  2742  2746  2758  2775  2784  2759  2673  2508  2265  1993  1772  1641  1540  1343  959  452  5  -267  -378  -393  -393  -458  -634  -873  -1067  -1136  -1039  -777  -457  -253  -249  -389  -584  -761  -863  -869  -796  -692  -612  -581  -573  -552  -511  -472  -469  -503  -545  -574  -597  -626  -669  -714  -740  -732  -699  -661  -629  -596  -569  -563  -577  -601  -620  -626  -612  -578  -535  -500  -480  -476  -478  -473  -447  -406  -398  -456  -556  -664  -767  -844  -870  -824  -698  -539  -425  -363  -293  -184  -79  -54  -145  -305  -462  -579  -650  -686  -696  -674  -611  -527  -460  -419  -381  -331  -273  -226  -200  -188  -183  -205  -291  -431  -520  -485  -370  -247  -143  -76  -44  -29  -23  -27  -36  -26  21  87  134  163  174  160  139  107  30  -78  -181  -281  -394  -503  -577  -606  -598  -571  -554  -567  -608  -660  -696  -683  -631  -584  -557  -566  -635  -728  -729  -503  94  1135  2460  3717  4555  4714  4095  2876  1411  -35  -1323  -2344  -3031  -3357  -3300  -2902  -2282  -1600  -1039  -709  -570  -511  -465  -403  -315  -224  -167  -145  -119  -49  51  142  212  274  328  359  346  287  246  280  361  451  561  672  732  743  780  911  1101  1257  1391  1583  1827  2044  2215  2353  2451  2558  2763  3037  3242  3314  3311  3288  3249  3179  3101  3036  2916  2634  2241  1900  1658  1456  1269  1086  867  605  348  147  14  -61  -105  -175  -337  -588  -831  -975  -1021  -1019  -1000  -970  -947  -956  -983  -983  -945  -902  -868  -823  -760  -728  -771  -860  -919  -894  -818  -797  -874  -980  -1053  -1077  -1042  -947  -812  -690  -634  -645  -682  -714  -729  -728  -715  -694  -673  -663  -694  -793  -935  -1052  -1106  -1117  -1110  -1103  -1116  -1153  -1186  -1166  -1059  -864  -647  -509  -507  -622  -779  -890  -927  -923  -908  -882  -851  -862  -957  -1075  -1081  -936  -725  -545  -438  -396  -393  -419  -485  -586  -674  -715  -729  -742  -742  -715  -657  -567  -449  -354  -353  -439  -527  -574  -615  -697  -796  -825  -740  -600  -509  -500  -512  -490  -443  -409  -401  -410  -426  -429  -385  -277  -156  -82  -37  16  62  81  90  121  191  278  327  313  274  230  122  -98  -359  -529  -564  -530  -489  -453  -411  -372  -353  -363  -394  -430  -472  -554  -682  -829  -973  -1091  -1119  -975  -620  -65  657  1521  2493  3482  4291  4635  4218  2973  1241  -454  -1812  -2705  -3023  -2900  -2623  -2244  -1761  -1354  -1113  -898  -608  -319  -150  -113  -123  -79  67  249  354  358  297  192  72  -16  -64  -86  -84  -50  41  217  458  684  823  869  863  842  826  843  950  1202  1559  1897  2148  2347  2534  2700  2818  2874  2892  2930  3056  3281  3513  3648  3692  3715  3723  3609  3251  2712  2212  1872  1653  1469  1243  968  704  473  224  -40  -228  -289  -231  -73  113  184  44  -242  -515  -690  -782  -825  -857  -916  -981  -966  -811  -580  -402  -323  -305  -315  -341  -390  -464  -546  -604  -623  -611  -585  -554  -513  -465  -443  -490  -616  -773  -885  -930  -931  -894  -803  -682  -596  -593  -672  -782  -862  -892  -894  -880  -832  -739  -640  -596  -630  -703  -765  -808  -864  -956  -1069  -1160  -1177  -1092  -928  -777  -700  -675  -659  -649  -648  -652  -670  -715  -773  -800  -751  -627  -484  -382  -336  -313  -262  -200  -227  -377  -541  -624  -647  -671  -728  -813  -899  -951  -952  -905  -826  -723  -590  -444  -291  -146  -90  -155  -249  -294  -301  -301  -301  -277  -195  -65  48  96  101  126  219  356  463  505  489  407  239  21  -167  -321  -486  -645  -734  -727  -666  -632  -659  -696  -686  -659  -688  -770  -842  -876  -920  -975  -918  -666  -299  170  876  1831  2876  3831  4448  4414  3615  2242  622  -948  -2274  -3246  -3746  -3677  -3105  -2290  -1545  -1032  -734  -570  -480  -429  -381  -291  -170  -116  -138  -92  50  154  160  121  84  70  80  118  185  262  344  459  603  729  816  873  904  916  911  891  904  1035  1300  1587  1765  1838  1942  2182  2519  2808  2952  2976  2958  2944  2941  2938  2935  2924  2873  2749  2563  2351  2120  1848  1555  1317  1181  1095  943  677  381  164  49  -12  -70  -162  -313  -513  -706  -825  -856  -852  -864  -897  -922  -914  -882  -847  -819  -794  -768  -765  -812  -896  -971  -1009  -1005  -964  -909  -876  -878  -888  -847  -706  -504  -344  -278  -276  -308  -375  -467  -565  -673  -783  -846  -836  -797  -774  -746  -668  -545  -433  -387  -427  -514  -584  -608  -608  -610  -619  -628  -630  -625  -611  -568  -476  -352  -249  -194  -192  -253  -367  -499  -616  -697  -741  -758  -732  -643  -521  -435  -411  -422  -437  -446  -453  -458  -458  -453  -453  -464  -470  -457  -439  -436  -454  -488  -521  -530  -482  -326  -87  112  198  211  207  203  199  197  210  252  310  354  360  321  251  182  135  81  -29  -223  -473  -712  -875  -944  -946  -923  -895  -872  -856  -853  -863  -871  -838  -698  -441  -202  -93  -37  138  655  1684  3093  4382  4965  4489  2991  900  -1123  -2564  -3292  -3414  -3051  -2442  -1929  -1641  -1456  -1252  -1000  -746  -534  -347  -142  63  196  189  49  -118  -176  -111  -34  -13  -19  -11  10  24  36  73  166  310  465  585  646  667  704  797  958  1176  1411  1602  1729  1835  1955  2060  2111  2118  2138  2237  2451  2746  3015  3159  3172  3124  3077  3046  2993  2827  2481  2010  1590  1358  1262  1144  943  714  522  380  257  119  -27  -179  -346  -523  -691  -847  -977  -1032  -995  -926  -863  -782  -662  -532  -430  -377  -362  -357  -354  -384  -487  -654  -824  -946  -1003  -1007  -978  -929  -877  -837  -792  -703  -565  -406  -273  -202  -206  -266  -356  -472  -606  -708  -734  -694  -630  -583  -562  -561  -570  -579  -582  -572  -529  -427  -291  -186  -142  -129  -128  -176  -312  -453  -435  -250  -81  -78  -211  -300  -242  -136  -121  -200  -299  -363  -400  -459  -559  -664  -721  -672  -502  -283  -100  39  141  162  53  -182  -467  -694  -788  -742  -612  -480  -404  -382  -378  -345  -252  -121  -18  18  0  -50  -108  -154  -185  -193  -166  -105  -38  1  13  20  43  71  82  72  45  0  -58  -121  -192  -295  -436  -578  -700  -793  -812  -765  -741  -770  -803  -782  -711  -700  -824  -965  -918  -584  5  832  1956  3266  4384  4863  4349  2809  720  -1217  -2554  -3228  -3416  -3298  -2954  -2458  -1897  -1366  -961  -696  -529  -441  -417  -422  -429  -436  -452  -479  -509  -537  -566  -567  -454  -163  215  497  608  617  606  604  605  604  607  627  655  672  685  740  875  1065  1257  1449  1688  1994  2303  2514  2581  2570  2630  2883  3286  3639  3803  3779  3605  3340  3088  2927  2854  2796  2631  2251  1756  1392  1248  1179  1007  667  265  -7  -87  -71  -86  -198  -380  -548  -652  -705  -728  -735  -757  -830  -956  -1082  -1145  -1120  -1001  -799  -579  -444  -432  -485  -539  -585  -669  -829  -1020  -1146  -1136  -992  -792  -638  -565  -546  -566  -613  -655  -664  -640  -616  -619  -660  -758  -919  -1087  -1190  -1218  -1207  -1184  -1151  -1104  -1047  -1005  -997  -1002  -975  -906  -831  -796  -810  -842  -873  -928  -1025  -1145  -1240  -1281  -1275  -1249  -1234  -1247  -1280  -1311  -1332  -1345  -1341  -1292  -1182  -1045  -952  -947  -1036  -1192  -1370  -1543  -1688  -1736  -1627  -1392  -1141  -982  -942  -1001  -1121  -1234  -1275  -1213  -1040  -796  -577  -442  -385  -373  -378  -407  -485  -593  -661  -622  -476  -328  -287  -352  -462  -575  -668  -743  -810  -882  -977  -1076  -1099  -984  -781  -613  -542  -535  -541  -540  -556  -626  -759  -895  -925  -795  -612  -497  -324  166  1065  2316  3715  4806  5069  4282  2611  494  -1501  -2934  -3604  -3530  -2990  -2345  -1829  -1504  -1263  -988  -711  -520  -428  -377  -310  -226  -164  -144  -147  -153  -155  -153  -143  -103  2  170  339  438  461  453  458  497  564  625  652  660  733  953  1278  1569  1750  1850  1932  2062  2257  2462  2632  2754  2827  2887  2996  3153  3310  3445  3561  3647  3673  3616  3477  3274  3002  2636  2199  1792  1505  1322  1189  1088  1009  934  850  737  582  392  183  -13  -158  -232  -252  -254  -268  -286  -261  -146  31  173  206  153  81  40  47  78  95  80  47  21  14  19  22  5  -36  -82  -108  -128  -159  -192  -203  -196  -202  -224  -223  -178  -119  -75  -55  -57  -82  -131  -191  -242  -295  -376  -477  -553  -581  -574  -537  -449  -294  -113  7  -15  -202  -478  -721  -886  -971  -949  -828  -676  -542  -437  -378  -366  -375  -383  -382  -376  -370  -367  -369  -381  -398  -415  -431  -439  -436  -427  -422  -425  -436  -449  -468  -491  -506  -487  -417  -320  -214  -85  32  81  66  31  19  29  4  -100  -248  -376  -463  -537  -606  -648  -653  -623  -543  -424  -289  -161  -87  -162  -455  -878  -1221  -1326  -1158  -887  -804  -878  -653  219  1663  3329  4709  5247  4757  3521  1874  119  -1359  -2377  -3072  -3528  -3621  -3288  -2673  -1992  -1416  -1027  -785  -596  -415  -248  -116  -41  -25  -56  -117  -177  -203  -178  -90  45  178  259  282  274  254  234  256  366  533  659  692  659  609  594  680  907  1204  1440  1584  1727  1942  2220  2486  2660  2728  2738  2762  2843  2958  3030  2984  2807  2580  2421  2358  2320  2212  1968  1606  1239  996  896  840  712  487  247  58  -103  -284  -476  -642  -755  -812  -829  -857  -939  -1043  -1056  -896  -644  -472  -458  -541  -645  -756  -868  -949  -991  -1015  -1016  -964  -831  -614  -379  -224  -168  -159  -176  -257  -400  -539  -667  -854  -1096  -1269  -1268  -1089  -838  -658  -600  -613  -640  -661  -672  -678  -683  -683  -679  -685  -711  -744  -755  -724  -676  -642  -625  -619  -647  -746  -908  -1059  -1140  -1157  -1152  -1143  -1120  -1068  -1005  -967  -957  -932  -856  -748  -665  -628  -613  -608  -623  -664  -723  -771  -777  -751  -724  -684  -575  -394  -245  -228  -304  -361  -391  -480  -644  -809  -910  -921  -829  -644  -431  -261  -99  176  610  1037  1202  994  528  26  -380  -658  -799  -831  -817  -796  -782  -772  -759  -749  -756  -786  -841  -910  -964  -981  -975  -970  -986  -1029  -1048  -967  -796  -586  -331  23  642  1699  3075  4350  5017  4700  3435  1625  -334  -2123  -3409  -3971  -3810  -3101  -2180  -1424  -1008  -842  -768  -672  -490  -255  -69  20  38  21  8  17  25  10  -7  14  80  152  190  201  240  350  506  630  679  679  692  759  862  954  1040  1186  1400  1603  1743  1851  1944  2010  2106  2327  2648  2914  3022  3017  3002  3040  3129  3198  3121  2889  2670  2588  2575  2485  2247  1933  1663  1465  1304  1155  984  747  444  145  -76  -231  -375  -511  -602  -643  -662  -685  -703  -695  -640  -543  -434  -356  -339  -383  -456  -524  -564  -575  -570  -550  -509  -470  -496  -638  -834  -937  -870  -708  -580  -535  -538  -549  -563  -593  -641  -686  -706  -703  -696  -699  -732  -783  -791  -696  -523  -367  -299  -318  -396  -519  -664  -782  -849  -880  -892  -869  -785  -670  -535  -348  -145  -25  -54  -243  -503  -697  -797  -875  -952  -979  -881  -612  -293  -123  -137  -223  -284  -291  -275  -298  -403  -557  -632  -556  -442  -430  -520  -619  -652  -633  -609  -577  -495  -363  -240  -169  -136  -130  -164  -254  -422  -618  -708  -610  -405  -240  -179  -183  -197  -189  -149  -95  -52  -6  78  192  281  318  325  312  210  -70  -470  -804  -975  -1016  -959  -805  -600  -437  -364  -365  -434  -576  -749  -872  -900  -845  -758  -707  -727  -819  -870  -582  271  1614  3152  4518  5323  5201  4068  2262  257  -1540  -2802  -3449  -3607  -3376  -2871  -2244  -1627  -1147  -850  -672  -548  -431  -298  -179  -115  -94  -81  -63  -42  -17  9  27  37  50  74  102  121  142  190  272  360  418  437  444  502  670  901  1080  1173  1247  1369  1555  1769  1972  2139  2249  2291  2282  2261  2250  2250  2277  2376  2558  2782  2971  3050  2975  2765  2473  2160  1878  1660  1500  1371  1242  1062  803  510  251  46  -128  -286  -408  -475  -498  -500  -496  -503  -524  -536  -513  -458  -413  -448  -566  -686  -746  -760  -752  -715  -643  -571  -556  -590  -585  -512  -465  -486  -481  -353  -121  54  9  -217  -431  -538  -571  -580  -606  -649  -674  -635  -502  -315  -167  -115  -178  -362  -604  -784  -854  -859  -849  -823  -764  -681  -613  -581  -570  -562  -546  -502  -438  -391  -374  -364  -353  -354  -380  -429  -478  -508  -515  -503  -474  -434  -404  -400  -433  -495  -559  -603  -620  -593  -543  -540  -617  -730  -765  -642  -421  -232  -132  -110  -140  -221  -343  -457  -518  -523  -496  -457  -411  -345  -260  -167  -60  59  149  179  139  28  -111  -215  -299  -429  -598  -729  -824  -963  -1147  -1283  -1313  -1268  -1203  -1160  -1145  -1116  -1005  -788  -561  -466  -528  -642  -587  -113  800  1967  3244  4377  4854  4365  3115  1477  -255  -1809  -2958  -3635  -3827  -3400  -2385  -1304  -697  -580  -663  -743  -740  -611  -356  -72  111  166  151  118  85  46  -18  -108  -178  -138  54  333  567  662  630  563  537  570  660  770  858  928  1001  1082  1155  1239  1409  1676  1938  2140  2319  2499  2680  2859  3002  3080  3103  3098  3082  3062  3050  3055  3066  3047  2937  2663  2183  1594  1115  879  826  811  713  503  261  93  37  40  8  -120  -310  -469  -568  -632  -679  -721  -772  -824  -856  -861  -852  -821  -724  -549  -358  -272  -366  -590  -825  -981  -1048  -1057  -1039  -1003  -950  -884  -819  -771  -744  -723  -675  -583  -494  -492  -599  -763  -906  -982  -992  -945  -848  -763  -745  -772  -795  -810  -834  -869  -897  -908  -905  -902  -906  -917  -931  -943  -931  -850  -673  -468  -360  -375  -431  -460  -464  -469  -486  -501  -493  -465  -453  -481  -506  -442  -282  -137  -87  -108  -151  -185  -201  -211  -224  -234  -236  -232  -231  -238  -254  -271  -287  -307  -332  -353  -362  -356  -339  -319  -290  -237  -174  -123  -83  -36  19  74  122  159  193  234  289  361  466  599  687  664  566  451  304  109  -90  -228  -280  -277  -267  -288  -349  -418  -450  -445  -433  -428  -423  -412  -408  -432  -477  -506  -547  -730  -1098  -1430  -1429  -973  -142  829  1724  2530  3348  4122  4559  4352  3333  1561  -515  -2278  -3356  -3699  -3471  -2925  -2316  -1811  -1386  -964  -584  -324  -200  -164  -159  -134  -57  51  134  163  157  147  145  151  155  157  155  154  157  170  198  253  348  467  572  662  790  1018  1347  1666  1826  1792  1658  1540  1496  1566  1779  2077  2348  2580  2827  3060  3198  3236  3229  3218  3205  3165  3077  2949  2815  2701  2563  2310  1923  1465  1017  664  460  377  360  366  356  286  122  -125  -382  -568  -648  -650  -624  -605  -599  -598  -597  -597  -601  -609  -616  -616  -612  -606  -596  -582  -571  -568  -565  -556  -539  -528  -527  -522  -519  -576  -746  -981  -1160  -1225  -1203  -1113  -953  -771  -693  -779  -903  -903  -784  -712  -800  -956  -1033  -989  -882  -793  -742  -691  -636  -638  -746  -918  -1049  -1091  -1053  -943  -780  -650  -640  -720  -788  -831  -887  -917  -851  -713  -571  -435  -295  -210  -251  -411  -603  -729  -768  -764  -753  -736  -697  -645  -620  -663  -770  -891  -965  -971  -924  -854  -792  -752  -736  -748  -774  -781  -759  -715  -644  -553  -479  -455  -481  -542  -612  -664  -688  -673  -597  -475  -360  -295  -287  -319  -379  -449  -500  -498  -407  -220  15  251  449  545  474  254  -34  -318  -539  -660  -707  -737  -773  -806  -828  -846  -859  -865  -854  -809  -721  -630  -592  -609  -650  -701  -753  -790  -781  -699  -559  -332  150  1044  2253  3444  4245  4365  3691  2373  749  -842  -2180  -3088  -3377  -3027  -2301  -1564  -1068  -856  -783  -701  -600  -520  -472  -437  -393  -328  -264  -224  -189  -113  28  209  375  500  601  696  764  769  700  590  491  428  412  481  677  947  1158  1238  1226  1200  1249  1449  1776  2107  2360  2531  2613  2619  2616  2674  2813  2982  3104  3153  3157  3124  3023  2851  2672  2558  2520  2497  2383  2073  1554  971  533  302  197  136  85  2  -148  -327  -453  -493  -463  -380  -280  -241  -340  -574  -835  -999  -1045  -1032  -1006  -963  -877  -778  -750  -804  -883  -920  -859  -702  -483  -252  -120  -141  -227  -295  -335  -363  -398  -441  -470  -476  -482  -483  -455  -416  -420  -498  -621  -703  -698  -650  -621  -620  -622  -613  -594  -566  -531  -496  -461  -427  -395  -374  -407  -525  -702  -868  -972  -999  -926  -724  -455  -267  -240  -349  -531  -711  -820  -848  -849  -867  -888  -852  -745  -642  -599  -590  -560  -487  -386  -296  -259  -304  -446  -673  -908  -1056  -1098  -1072  -994  -867  -697  -493  -298  -187  -203  -308  -397  -402  -406  -483  -528  -440  -283  -175  -139  -104  -2  141  251  289  269  202  81  -88  -271  -418  -513  -570  -609  -657  -737  -840  -924  -962  -942  -840  -651  -436  -262  -149  -84  -76  -211  -535  -795  -562  327  1685  3103  4140  4560  4312  3415  2028  397  -1261  -2703  -3617  -3833  -3467  -2748  -1911  -1182  -649  -311  -155  -102  -70  -35  -2  27  55  72  47  -42  -172  -274  -284  -171  71  408  741  941  937  751  495  311  262  320  445  626  859  1099  1264  1346  1411  1505  1641  1813  2010  2238  2482  2674  2788  2904  3098  3298  3352  3256  3131  3036  2936  2785  2599  2451  2370  2305  2204  2061  1889  1654  1297  871  514  279  87  -152  -428  -635  -718  -719  -699  -668  -615  -552  -519  -528  -545  -558  -599  -670  -724  -738  -737  -735  -710  -636  -529  -442  -409  -418  -446  -500  -616  -792  -960  -1030  -944  -742  -609  -666  -800  -873  -883  -878  -871  -856  -833  -810  -795  -788  -803  -855  -941  -1022  -1041  -969  -819  -627  -431  -283  -209  -194  -225  -328  -518  -715  -803  -787  -750  -748  -797  -866  -904  -909  -909  -916  -920  -885  -776  -612  -462  -372  -336  -324  -315  -311  -342  -438  -573  -682  -748  -810  -884  -938  -940  -883  -781  -654  -513  -385  -332  -387  -501  -607  -703  -812  -897  -896  -824  -753  -692  -594  -451  -323  -251  -227  -222  -215  -193  -153  -95  -32  14  35  41  49  65  75  50  -18  -110  -206  -316  -433  -522  -576  -615  -633  -616  -557  -461  -376  -341  -341  -336  -305  -258  -224  -210  -198  -221  -409  -790  -1009  -579  586  2135  3527  4307  4400  4013  3212  1924  276  -1386  -2734  -3467  -3448  -2919  -2237  -1609  -1168  -948  -821  -647  -431  -268  -203  -195  -183  -123  -16  87  132  129  113  77  -6  -109  -133  -7  215  407  498  516  505  495  520  598  705  802  897  1007  1115  1210  1318  1464  1653  1889  2171  2464  2715  2884  2973  3037  3149  3319  3467  3494  3370  3161  2966  2816  2678  2509  2262  1935  1601  1321  1091  877  665  482  364  283  160  -35  -241  -370  -382  -322  -285  -306  -341  -353  -340  -336  -396  -546  -718  -837  -908  -956  -979  -968  -918  -835  -732  -632  -555  -511  -491  -485  -488  -491  -482  -449  -397  -342  -310  -345  -483  -671  -801  -825  -784  -734  -695  -649  -584  -520  -483  -473  -473  -469  -454  -432  -409  -391  -385  -387  -377  -347  -321  -334  -402  -495  -567  -606  -637  -677  -725  -769  -794  -807  -842  -926  -1017  -1030  -920  -727  -529  -403  -361  -376  -443  -581  -753  -874  -896  -841  -761  -705  -687  -699  -731  -769  -785  -752  -668  -569  -495  -461  -456  -463  -472  -480  -472  -440  -432  -504  -613  -690  -731  -769  -821  -866  -859  -745  -521  -281  -135  -90  -63  9  131  258  342  369  352  297  205  85  -44  -152  -224  -276  -323  -354  -357  -335  -303  -269  -230  -193  -189  -256  -406  -586  -719  -801  -898  -996  -931  -662  -473  -573  -727  -506  326  1738  3486  5024  5706  5265  3816  1753  -241  -1703  -2718  -3377  -3534  -3238  -2724  -2125  -1523  -1014  -640  -393  -267  -238  -250  -251  -207  -115  -13  60  98  106  99  98  139  239  364  455  492  489  471  470  523  642  785  885  926  944  979  1037  1103  1185  1332  1583  1886  2132  2274  2351  2411  2486  2626  2878  3185  3408  3485  3453  3343  3174  3006  2904  2857  2770  2540  2185  1836  1561  1329  1115  905  637  294  -25  -230  -345  -427  -493  -531  -526  -488  -460  -475  -519  -541  -511  -486  -542  -685  -841  -929  -915  -819  -682  -546  -444  -412  -473  -608  -746  -826  -835  -794  -726  -655  -596  -561  -557  -567  -561  -526  -460  -378  -315  -290  -286  -282  -282  -318  -421  -564  -671  -709  -709  -699  -677  -652  -656  -728  -868  -1009  -1078  -1073  -1027  -962  -884  -795  -712  -672  -670  -667  -654  -663  -686  -684  -646  -585  -516  -449  -393  -370  -410  -526  -679  -801  -851  -849  -835  -810  -749  -670  -615  -600  -604  -591  -540  -464  -404  -380  -387  -409  -426  -429  -434  -456  -482  -471  -415  -343  -264  -170  -69  24  107  175  214  197  112  -10  -99  -115  -89  -82  -152  -309  -491  -606  -629  -595  -547  -513  -496  -495  -530  -624  -758  -886  -974  -1017  -1031  -1020  -927  -680  -230  401  1057  1651  2325  3199  4136  4718  4469  3238  1317  -736  -2411  -3375  -3543  -3219  -2768  -2234  -1656  -1216  -949  -761  -601  -453  -320  -207  -92  29  116  152  166  169  121  -36  -275  -480  -572  -556  -450  -250  -2  201  346  487  635  769  878  965  1061  1209  1392  1536  1610  1682  1844  2080  2268  2336  2324  2291  2270  2287  2370  2528  2763  3072  3392  3625  3727  3697  3482  3001  2302  1641  1269  1188  1230  1228  1064  709  302  35  -69  -157  -340  -592  -815  -948  -986  -902  -665  -364  -177  -195  -354  -549  -707  -790  -784  -705  -595  -507  -458  -449  -478  -533  -587  -609  -589  -545  -521  -544  -601  -656  -686  -694  -691  -684  -676  -666  -656  -648  -633  -592  -530  -495  -535  -631  -719  -766  -806  -864  -894  -840  -721  -611  -576  -632  -734  -813  -840  -826  -784  -729  -680  -633  -536  -337  -93  29  -58  -264  -427  -482  -469  -433  -409  -454  -610  -810  -922  -883  -723  -523  -383  -336  -355  -412  -493  -579  -646  -682  -682  -648  -585  -507  -435  -398  -418  -494  -594  -673  -703  -669  -553  -367  -164  5  107  130  93  22  -50  -92  -84  -28  57  136  181  192  167  93  -38  -201  -370  -528  -648  -704  -706  -677  -642  -611  -585  -576  -642  -842  -1120  -1296  -1218  -918  -669  -696  -804  -608  -3  895  1980  3121  4134  4739  4556  3425  1598  -432  -2114  -3128  -3558  -3553  -3154  -2486  -1780  -1222  -875  -682  -548  -409  -262  -149  -93  -98  -147  -201  -265  -368  -458  -459  -366  -229  -86  57  197  297  345  371  405  451  508  582  673  762  830  891  978  1111  1262  1372  1433  1512  1673  1911  2185  2475  2783  3064  3242  3299  3294  3280  3267  3246  3209  3168  3132  3062  2890  2587  2187  1754  1317  933  688  590  539  418  155  -185  -444  -552  -583  -612  -649  -680  -713  -769  -826  -814  -700  -540  -428  -432  -526  -621  -670  -691  -714  -754  -801  -835  -839  -805  -729  -625  -537  -515  -551  -603  -610  -503  -307  -144  -83  -88  -107  -122  -156  -259  -445  -643  -761  -791  -779  -736  -640  -511  -412  -377  -383  -394  -400  -419  -465  -541  -645  -734  -752  -724  -722  -752  -775  -783  -788  -796  -788  -726  -593  -418  -260  -169  -157  -206  -274  -324  -342  -341  -321  -279  -236  -261  -403  -605  -727  -703  -598  -510  -479  -483  -497  -518  -548  -579  -593  -576  -538  -500  -466  -433  -405  -387  -372  -366  -381  -408  -417  -355  -188  26  179  231  228  209  170  101  20  -46  -101  -187  -355  -604  -851  -1006  -1056  -1048  -1021  -980  -933  -898  -882  -884  -917  -1020  -1177  -1240  -1047  -579  43  678  1301  1981  2765  3619  4270  4258  3371  1825  28  -1651  -2893  -3503  -3525  -3091  -2347  -1603  -1157  -997  -921  -816  -704  -630  -580  -504  -373  -217  -81  16  81  114  124  130  146  187  257  304  257  138  64  116  276  472  634  724  763  809  906  1057  1230  1375  1477  1570  1707  1921  2171  2380  2515  2592  2627  2638  2665  2744  2856  2940  2971  2970  2957  2926  2860  2733  2524  2248  1944  1636  1337  1067  837  632  432  221  -35  -326  -558  -669  -683  -643  -581  -522  -486  -474  -476  -488  -513  -543  -563  -569  -555  -488  -358  -230  -183  -253  -422  -614  -743  -805  -839  -845  -803  -745  -712  -704  -682  -610  -501  -395  -313  -266  -292  -407  -569  -704  -778  -808  -812  -797  -776  -752  -712  -663  -637  -660  -724  -794  -839  -850  -844  -838  -844  -870  -910  -947  -962  -924  -805  -639  -510  -462  -469  -502  -560  -651  -737  -764  -737  -711  -718  -736  -723  -670  -619  -601  -606  -602  -553  -466  -425  -484  -564  -551  -420  -241  -108  -59  -62  -79  -92  -99  -103  -94  -62  -20  0  -7  -21  -24  -26  -24  8  71  105  38  -151  -388  -557  -623  -628  -619  -608  -602  -621  -685  -791  -907  -1007  -1075  -1103  -1092  -1068  -1033  -869  -461  90  653  1246  1971  2890  3862  4505  4363  3184  1222  -815  -2312  -3108  -3314  -3114  -2754  -2385  -1977  -1486  -1020  -741  -660  -654  -618  -514  -336  -106  111  239  239  129  -26  -150  -213  -232  -213  -121  62  259  326  248  174  231  386  533  626  695  802  976  1209  1459  1659  1761  1793  1841  1963  2137  2289  2387  2468  2593  2771  2942  3041  3066  3061  3052  3033  2981  2872  2690  2411  2040  1672  1426  1306  1237  1159  1027  795  454  58  -287  -478  -518  -494  -470  -457  -442  -431  -447  -511  -601  -664  -680  -671  -660  -657  -662  -675  -692  -703  -708  -713  -718  -699  -620  -472  -300  -159  -71  -27  -17  -40  -122  -284  -482  -629  -677  -633  -545  -509  -577  -679  -726  -703  -649  -601  -571  -544  -511  -474  -459  -481  -503  -484  -437  -409  -432  -492  -554  -597  -624  -642  -660  -682  -704  -723  -742  -747  -726  -680  -627  -583  -553  -539  -536  -538  -538  -532  -522  -510  -510  -551  -663  -817  -937  -986  -966  -866  -681  -479  -352  -317  -326  -336  -337  -342  -358  -365  -311  -148  90  307  440  476  393  174  -124  -375  -499  -523  -513  -505  -505  -510  -515  -517  -518  -525  -547  -581  -623  -664  -694  -704  -694  -687  -714  -765  -783  -745  -622  -238  610  1858  3169  4184  4572  4069  2802  1297  -65  -1259  -2285  -3015  -3350  -3265  -2798  -2137  -1508  -1029  -730  -580  -508  -472  -457  -450  -435  -401  -357  -331  -331  -344  -353  -361  -367  -348  -279  -180  -104  -75  -79  -102  -118  -60  141  450  718  842  851  827  860  1019  1288  1564  1760  1867  1940  2037  2177  2339  2494  2616  2711  2817  2947  3066  3113  3068  2960  2848  2781  2763  2726  2524  2023  1280  556  86  -110  -164  -213  -326  -505  -734  -965  -1111  -1113  -981  -793  -636  -541  -503  -528  -597  -663  -698  -711  -727  -769  -834  -895  -895  -799  -659  -590  -651  -783  -885  -918  -898  -841  -756  -659  -564  -498  -489  -530  -594  -666  -746  -818  -835  -771  -665  -586  -561  -566  -571  -558  -536  -533  -563  -599  -616  -629  -662  -710  -747  -748  -713  -663  -628  -629  -668  -721  -760  -777  -781  -772  -729  -634  -488  -333  -231  -202  -217  -240  -245  -223  -190  -190  -292  -511  -726  -825  -854  -848  -772  -666  -586  -495  -349  -188  -95  -96  -136  -163  -174  -191  -225  -270  -303  -304  -263  -186  -102  -27  61  179  303  392  371  201  -16  -150  -175  -153  -180  -331  -575  -796  -904  -897  -850  -835  -852  -870  -880  -881  -863  -815  -749  -718  -813  -1032  -1093  -597  568  2079  3440  4372  4760  4455  3467  1993  208  -1644  -3148  -3974  -4110  -3702  -2924  -2102  -1560  -1305  -1156  -1044  -994  -995  -968  -827  -565  -280  -79  10  32  45  78  122  161  171  120  12  -103  -206  -300  -365  -374  -306  -163  38  290  556  763  880  950  1047  1191  1341  1479  1629  1778  1900  1990  2049  2133  2328  2613  2858  2984  3017  3008  2957  2808  2527  2189  1900  1697  1570  1487  1346  1025  511  -23  -357  -446  -409  -354  -321  -325  -395  -548  -740  -898  -1006  -1092  -1168  -1210  -1186  -1074  -904  -754  -688  -724  -861  -1050  -1202  -1263  -1214  -1035  -777  -575  -523  -598  -725  -840  -910  -932  -920  -873  -779  -640  -475  -314  -169  -55  -11  -56  -160  -277  -379  -444  -453  -420  -387  -374  -375  -373  -357  -325  -294  -282  -302  -329  -306  -210  -96  -30  -27  -64  -92  -81  -50  -29  -21  -21  -39  -91  -165  -218  -208  -128  -13  83  147  189  213  230  277  369  485  592  661  672  640  605  593  602  627  691  814  953  1065  1181  1325  1459  1539  1566  1573  1571  1518  1375  1180  1010  886  799  756  752  760  771  788  799  751  580  294]
