reading_id,reading_time,wire_id,result_classification,heart_rate,heart_rate_alert,firmware_version,device_app_version,hardware_version,waveform_samples
a7aca820-dec4-11ed-8080-808080808080,Wed Apr 19 15:12:52 UTC 2023,6119e4d89339,NSR,77,NONE,20001.188.58,2.13.0,Charge 5,[134  727  1161  1432  1604  1694  1719  1730  1755  1808  1919  2082  2204  2207  2117  1973  1754  1459  1156  900  693  522  392  302  216  81  -104  -272  -356  -343  -261  -157  -77  -36  -32  -69  -163  -322  -523  -711  -826  -850  -807  -726  -643  -591  -572  -571  -574  -574  -574  -577  -580  -573  -549  -514  -482  -465  -460  -463  -468  -478  -503  -548  -595  -621  -617  -591  -531  -404  -199  48  295  517  690  798  867  924  925  805  599  393  236  139  77  -13  -167  -369  -539  -573  -488  -366  -255  -192  -175  -165  -167  -198  -253  -339  -444  -543  -619  -655  -667  -680  -683  -635  -537  -436  -347  -238  -124  -44  6  48  56  -10  -153  -311  -405  -419  -388  -353  -336  -349  -387  -446  -535  -635  -706  -735  -745  -755  -766  -773  -789  -835  -913  -1025  -1181  -1360  -1482  -1374  -869  -24  918  1761  2530  3356  4087  4279  3587  2005  -79  -1998  -3261  -3796  -3718  -3252  -2658  -2002  -1309  -773  -520  -453  -418  -338  -227  -138  -86  -26  94  270  467  679  855  897  808  669  540  475  496  563  644  744  879  1065  1280  1468  1609  1715  1804  1904  2050  2238  2415  2539  2648  2830  3113  3389  3531  3537  3493  3447  3403  3373  3382  3410  3378  3213  2963  2745  2575  2396  2199  2036  1954  1930  1850  1604  1237  910  719  639  616  612  604  579  532  452  334  215  153  160  181  186  213  284  349  329  174  -68  -263  -329  -289  -200  -119  -88  -112  -170  -223  -238  -219  -175  -92  13  90  109  84  47  20  13  23  52  88  111  83  -15  -151  -249  -282  -279  -270  -262  -251  -233  -211  -180  -144  -106  -60  -8  34  57  66  70  76  79  54  -23  -139  -241  -302  -341  -392  -459  -507  -492  -400  -271  -170  -122  -101  -93  -101  -124  -145  -147  -145  -178  -262  -358  -404  -378  -316  -264  -216  -132  -25  45  70  121  273  494  661  673  507  221  -56  -234  -316  -351  -371  -409  -482  -569  -658  -748  -792  -762  -726  -753  -811  -839  -839  -854  -926  -1026  -1043  -881  -507  113  967  1941  2888  3600  3748  3092  1718  -7  -1738  -3240  -4274  -4629  -4253  -3377  -2496  -1995  -1799  -1598  -1281  -979  -785  -654  -532  -428  -359  -324  -310  -308  -307  -306  -313  -334  -351  -300  -98  229  534  689  693  610  504  427  411  481  645  851  1017  1119  1179  1214  1260  1396  1674  2003  2225  2313  2378  2501  2648  2734  2734  2702  2688  2667  2560  2305  1948  1599  1313  1075  874  718  613  530  433  302  123  -70  -209  -275  -320  -375  -425  -456  -487  -554  -654  -740  -779  -785  -771  -717  -591  -411  -250  -156  -124  -147  -225  -331  -419  -457  -462  -481  -550  -655  -745  -795  -804  -789  -778  -782  -761  -658  -510  -475  -664  -964  -1110  -966  -671  -456  -400  -435  -489  -529  -553  -582  -638  -733  -846  -925  -948  -935  -900  -832  -732  -637  -576  -530  -481  -437  -421  -441  -477  -510  -546  -585  -630  -683  -711  -689  -638  -583  -517  -430  -336  -269  -242  -242  -254  -256  -231  -168  -85  -37  -64  -134  -193  -221  -228  -232  -224  -168  -24  179  347  391  306  174  81  28  -37  -128  -217  -298  -399  -526  -647  -738  -799  -826  -803  -742  -675  -641  -678  -815  -1021  -1199  -1327  -1387  -1230  -768  -58  784  1657  2605  3560  4049  3619  2298  460  -1404  -2868  -3795  -4306  -4484  -4250  -3587  -2722  -1971  -1510  -1320  -1286  -1301  -1294  -1213  -1051  -880  -779  -756  -766  -771  -758  -726  -667  -577  -490  -445  -418  -358  -260  -144  -44  13  32  27  6  -24  -9  165  565  1074  1501  1778  1958  2096  2191  2224  2209  2192  2198  2217  2229  2230  2217  2180  2123  2076  2050  2026  1981  1904  1802  1656  1414  1087  791  609  513  420  271  89  -41  -89  -96  -106  -136  -177  -208  -208  -168  -97  -22  38  91  133  139  98  29  -44  -76  -45  5  30  40  51  34  -82  -331  -643  -903  -1046  -1033  -848  -583  -392  -331  -342  -364  -404  -508  -694  -900  -1046  -1115  -1126  -1035  -779  -399  -47  179  264  200  -8  -262  -418  -455  -447  -420  -383  -372  -421  -512  -573  -562  -528  -522  -525  -496  -425  -355  -330  -339  -345  -321  -263  -196  -152  -134  -123  -102  -76  -53  -12  83  233  400  532  582  541  425  243  22  -172  -278  -284  -220  -135  -73  -45  -38  -55  -120  -229  -349  -471  -630  -840  -1061  -1204  -1150  -870  -551  -371  -270  -51  496  1473  2702  3806  4403  4216  3171  1546  -136  -1524  -2584  -3323  -3653  -3585  -3179  -2494  -1785  -1307  -1035  -851  -713  -578  -386  -159  0  38  5  -19  19  105  180  217  237  257  268  274  317  402  475  499  486  466  483  594  808  1051  1249  1402  1541  1676  1795  1902  2033  2201  2350  2431  2457  2461  2459  2459  2463  2463  2449  2424  2390  2319  2197  2063  1959  1845  1647  1381  1137  931  709  472  292  215  213  232  229  169  32  -169  -367  -455  -388  -243  -148  -156  -223  -279  -306  -326  -349  -356  -313  -204  -81  -33  -82  -166  -230  -253  -257  -296  -361  -373  -334  -328  -400  -536  -673  -750  -742  -669  -586  -517  -437  -340  -245  -174  -140  -131  -144  -200  -294  -400  -493  -554  -573  -560  -537  -516  -496  -460  -405  -351  -326  -339  -366  -390  -416  -441  -420  -299  -91  107  210  207  127  12  -85  -142  -153  -118  -44  35  82  97  130  221  332  396  433  514  642  752  802  800  760  646  425  163  -17  -94  -129  -133  -86  -13  39  50  9  -70  -153  -217  -273  -322  -298  -140  86  324  692  1310  2129  3067  3999  4583  4403  3265  1360  -782  -2536  -3480  -3663  -3472  -3157  -2738  -2224  -1646  -1099  -737  -583  -501  -406  -327  -298  -300  -298  -272  -234  -207  -203  -213  -224  -226  -202  -136  -34  93  262  472  686  855  951  988  1006  1031  1083  1185  1310  1409  1480  1545  1604  1653  1685  1693  1688  1708  1788  1926  2068  2165  2247  2323  2326  2214  2005  1737  1451  1183  957  794  668  535  415  352  313  176  -146  -582  -915  -986  -854  -699  -626  -629  -677  -768  -892  -1016  -1126  -1242  -1362  -1440  -1426  -1305  -1125  -958  -817  -683  -576  -536  -560  -597  -603  -585  -571  -572  -579  -582  -581  -577  -578  -594  -627  -650  -635  -609  -612  -640  -661  -666  -665  -656  -638  -617  -610  -632  -692  -797  -915  -966  -899  -745  -580  -455  -382  -360  -383  -437  -513  -611  -707  -749  -727  -678  -632  -609  -612  -624  -644  -669  -682  -682  -670  -641  -579  -472  -340  -229  -171  -175  -223  -288  -352  -436  -576  -779  -1000  -1185  -1313  -1390  -1451  -1542  -1655  -1733  -1753  -1739  -1715  -1684  -1659  -1683  -1814  -2052  -2280  -2383  -2292  -1936  -1352  -624  232  1154  2031  2646  2626  1797  291  -1599  -3383  -4631  -5244  -5313  -5012  -4517  -3883  -3169  -2521  -2057  -1805  -1698  -1623  -1540  -1490  -1486  -1502  -1520  -1526  -1491  -1385  -1235  -1119  -1076  -1078  -1086  -1096  -1118  -1131  -1110  -1068  -1016  -936  -804  -590  -290  21  239  358  445  520  582  659  768  913  1078  1221  1319  1385  1441  1488  1513  1513  1493  1463  1427  1384  1321  1227  1111  980  779  423  -40  -415  -587  -624  -645  -695  -775  -886  -1003  -1071  -1073  -1052  -1053  -1068  -1077  -1072  -1062  -1053  -1039  -1006  -950  -851  -664  -400  -182  -110  -143  -186  -215  -233  -232  -219  -199  -172  -134  -85  -28  27  52  24  -32  -79  -100  -98  -78  -35  39  129  227  346  455  502  463  337  180  102  159  297  439  567  688  780  839  896  992  1155  1357  1514  1593  1635  1676  1697  1652  1532  1403  1348  1368  1400  1416  1447  1558  1784  2083  2385  2635  2772  2735  2517  2223  2010  1939  1945  1952  1927  1854  1716  1499  1255  1100  1084  1155  1238  1289  1298  1274  1233  1214  1260  1332  1306  1183  1225  1604  2212  2985  3943  4947  5777  6140  5669  4287  2380  460  -1074  -1958  -2178  -1953  -1489  -936  -465  -172  2  168  359  525  614  647  670  700  746  820  892  895  793  634  510  460  454  457  447  424  410  416  417  416  440  479  511  546  600  696  877  1141  1395  1539  1579  1601  1687  1868  2097  2291  2423  2543  2671  2766  2805  2815  2828  2852  2886  2933  2996  3011  2870  2588  2304  2102  1968  1861  1716  1477  1170  893  690  510  319  173  117  114  93  8  -109  -188  -197  -145  -47  57  135  152  62  -110  -255  -312  -312  -303  -290  -239  -142  -74  -147  -363  -613  -806  -890  -870  -833  -841  -868  -879  -878  -897  -956  -1034  -1075  -1041  -936  -810  -726  -716  -761  -822  -873  -934  -1033  -1105  -1042  -861  -698  -635  -637  -642  -621  -586  -564  -560  -558  -539  -500  -455  -426  -418  -417  -411  -404  -404  -417  -443  -474  -491  -469  -408  -324  -229  -136  -74  -80  -195  -414  -648  -802  -871  -914  -985  -1094  -1205  -1272  -1279  -1233  -1148  -1060  -1010  -1000  -1002  -993  -988  -1040  -1165  -1256  -1245  -1148  -831  -124  927  2100  3061  3454  3081  1993  461  -1108  -2372  -3197  -3540  -3382  -2887  -2371  -2082  -2051  -2120  -2124  -1968  -1643  -1233  -856  -592  -448  -380  -342  -323  -328  -360  -399  -432  -472  -522  -576  -612  -582  -445  -202  64  245  307  308  315  360  433  523  645  790  901  948  978  1067  1234  1415  1538  1592  1609  1608  1566  1462  1330  1238  1213  1219  1203  1133  1014  877  757  671  612  518  308  -21  -383  -677  -846  -908  -936  -995  -1091  -1178  -1222  -1236  -1243  -1244  -1228  -1189  -1132  -1074  -1037  -1022  -1009  -995  -997  -1042  -1134  -1241  -1313  -1337  -1332  -1306  -1259  -1221  -1236  -1301  -1365  -1407  -1445  -1490  -1531  -1551  -1536  -1486  -1430  -1416  -1462  -1528  -1562  -1560  -1549  -1544  -1540  -1531  -1518  -1517  -1542  -1593  -1641  -1663  -1666  -1666  -1687  -1734  -1730  -1587  -1360  -1187  -1120  -1118  -1131  -1121  -1072  -995  -905  -794  -669  -572  -526  -511  -512  -547  -638  -757  -832  -830  -788  -745  -670  -498  -231  41  255  393  408  255  -9  -262  -452  -621  -788  -925  -1007  -1037  -1037  -1030  -1027  -1027  -1029  -1027  -1014  -978  -917  -868  -865  -844  -718  -501  -229  148  751  1653  2708  3559  3873  3495  2454  963  -658  -2113  -3184  -3708  -3617  -3011  -2232  -1667  -1383  -1177  -921  -648  -407  -214  -79  -5  20  18  7  0  7  29  51  60  90  199  384  596  777  880  905  901  903  920  966  1079  1260  1444  1562  1605  1607  1587  1549  1530  1637  1975  2458  2845  3017  3050  3026  2974  2903  2817  2766  2804  2880  2857  2641  2274  1895  1621  1474  1388  1281  1139  1007  913  848  777  664  511  366  273  239  239  247  248  241  231  224  216  202  182  168  164  169  172  162  127  77  45  64  142  242  311  338  354  367  336  213  34  -107  -165  -164  -152  -187  -302  -449  -515  -436  -285  -206  -273  -430  -562  -614  -600  -544  -469  -396  -335  -313  -353  -432  -501  -522  -488  -420  -344  -266  -183  -102  -14  116  293  450  528  553  576  621  670  695  692  676  652  627  608  606  623  653  694  760  859  996  1191  1409  1561  1613  1610  1584  1528  1407  1198  932  680  454  204  -61  -267  -362  -361  -311  -268  -262  -271  -247  -183  -148  -201  -303  -357  -405  -632  -953  -951  -438  399  1328  2197  2941  3563  3927  3666  2528  755  -1070  -2485  -3303  -3575  -3553  -3422  -3156  -2763  -2253  -1578  -881  -417  -237  -224  -293  -410  -511  -508  -418  -344  -318  -284  -207  -117  -52  -1  64  139  213  291  351  375  379  377  379  424  542  698  815  875  938  1059  1232  1417  1563  1636  1627  1556  1462  1394  1369  1368  1375  1387  1407  1418  1369  1213  990  806  707  645  551  383  134  -175  -476  -675  -740  -711  -635  -566  -581  -730  -956  -1137  -1203  -1124  -887  -569  -344  -343  -570  -899  -1142  -1177  -977  -604  -236  -73  -167  -397  -587  -652  -632  -600  -591  -600  -609  -613  -630  -657  -648  -554  -385  -205  -88  -85  -172  -218  -125  31  121  110  51  -11  -82  -176  -328  -583  -878  -1023  -912  -671  -541  -634  -844  -992  -1005  -907  -734  -544  -407  -339  -309  -296  -290  -279  -264  -261  -278  -306  -324  -321  -309  -288  -237  -162  -102  -93  -132  -172  -163  -77  96  315  464  425  165  -193  -451  -539  -543  -565  -620  -670  -700  -724  -757  -789  -806  -817  -851  -959  -1167  -1392  -1419  -1126  -652  -176  302  887  1670  2641  3601  4086  3602  2177  404  -1113  -2149  -2782  -3166  -3368  -3302  -2852  -2154  -1522  -1142  -982  -934  -929  -937  -910  -784  -551  -318  -200  -193  -212  -193  -138  -108  -145  -198  -175  -28  182  341  397  392  372  351  360  469  726  1044  1260  1322  1305  1296  1337  1429  1571  1776  2014  2233  2442  2641  2744  2694  2572  2478  2397  2249  2022  1787  1610  1499  1416  1315  1199  1089  978  873  819  810  732  467  66  -267  -411  -420  -399  -390  -383  -355  -311  -268  -207  -98  31  120  144  127  96  62  30  17  33  61  71  40  -40  -162  -289  -380  -425  -431  -408  -374  -327  -236  -118  -38  -52  -162  -310  -433  -517  -547  -496  -387  -265  -186  -214  -346  -503  -616  -669  -678  -668  -650  -628  -610  -604  -602  -584  -537  -485  -461  -445  -389  -319  -309  -361  -409  -428  -457  -540  -659  -750  -783  -777  -752  -700  -598  -416  -153  120  302  360  336  271  178  71  -28  -106  -166  -216  -251  -286  -359  -477  -589  -650  -677  -715  -768  -811  -835  -863  -904  -945  -978  -1020  -1104  -1231  -1292  -1134  -718  -133  522  1213  1978  2797  3399  3407  2681  1304  -474  -2182  -3390  -3987  -4080  -3804  -3262  -2609  -2049  -1662  -1381  -1152  -984  -890  -848  -827  -784  -693  -570  -451  -351  -276  -233  -220  -226  -240  -274  -334  -364  -287  -90  205  558  873  1058  1114  1104  1086  1102  1162  1240  1315  1389  1491  1642  1827  2009  2156  2256  2309  2329  2329  2312  2273  2220  2164  2099  2018  1938  1867  1764  1562  1254  934  693  540  448  396  344  241  99  -22  -121  -254  -417  -538  -584  -585  -566  -530  -490  -467  -463  -443  -366  -238  -117  -50  -20  13  43  -4  -192  -496  -775  -860  -752  -602  -512  -483  -483  -486  -490  -502  -517  -529  -538  -544  -546  -544  -539  -538  -557  -610  -666  -650  -526  -371  -296  -300  -306  -277  -242  -233  -230  -211  -187  -177  -181  -203  -280  -444  -637  -732  -645  -406  -125  98  230  282  277  257  260  293  337  370  387  401  409  397  369  346  332  319  312  358  506  724  913  1005  1007  967  931  895  802  599  275  -95  -398  -573  -657  -699  -720  -730  -735  -730  -697  -639  -597  -614  -693  -824  -963  -1000  -807  -308  475  1436  2424  3269  3866  4127  3866  2911  1275  -762  -2692  -3990  -4358  -3896  -3015  -2124  -1461  -1081  -877  -742  -665  -651  -663  -646  -560  -417  -269  -160  -103  -94  -123  -177  -229  -267  -296  -296  -237  -126  2  129  270  434  597  748  894  1044  1193  1315  1387  1424  1468  1546  1645  1743  1858  2046  2309  2552  2679  2691  2641  2555  2444  2327  2213  2104  2005  1910  1800  1688  1602  1551  1530  1521  1465  1282  956  577  252  3  -196  -356  -474  -542  -547  -487  -403  -335  -291  -271  -267  -242  -158  -47  1  -56  -168  -245  -268  -273  -281  -288  -290  -287  -283  -280  -275  -271  -277  -301  -342  -397  -464  -515  -500  -419  -346  -342  -414  -519  -609  -676  -727  -742  -688  -572  -449  -369  -348  -404  -559  -765  -918  -975  -970  -935  -869  -779  -706  -681  -709  -765  -792  -752  -680  -617  -558  -496  -451  -437  -443  -459  -479  -474  -387  -180  68  221  223  134  21  -104  -228  -305  -335  -390  -535  -729  -872  -921  -915  -897  -880  -872  -902  -1010  -1170  -1274  -1261  -1189  -1136  -1105  -1068  -1038  -1017  -822  -187  864  1997  2874  3367  3473  3179  2486  1304  -432  -2363  -3865  -4512  -4222  -3296  -2308  -1704  -1476  -1303  -1021  -739  -562  -455  -365  -306  -297  -318  -337  -344  -345  -347  -349  -336  -280  -151  33  204  301  333  332  305  262  253  352  580  851  1052  1176  1278  1372  1439  1497  1625  1896  2280  2648  2886  2980  2981  2939  2867  2769  2666  2604  2576  2482  2251  1904  1548  1326  1266  1241  1156  1018  842  635  437  284  161  28  -125  -267  -378  -490  -605  -660  -610  -497  -403  -365  -366  -380  -392  -390  -364  -318  -267  -227  -195  -169  -169  -244  -432  -685  -866  -906  -867  -824  -804  -807  -823  -824  -759  -610  -484  -539  -758  -961  -1057  -1100  -1146  -1196  -1235  -1259  -1281  -1317  -1367  -1409  -1428  -1409  -1333  -1210  -1086  -1001  -963  -957  -970  -996  -1033  -1089  -1151  -1171  -1106  -987  -889  -849  -868  -951  -1097  -1250  -1318  -1239  -1015  -739  -531  -444  -442  -456  -417  -283  -92  49  58  -96  -375  -667  -869  -968  -1012  -1042  -1076  -1126  -1187  -1230  -1225  -1161  -1057  -944  -835  -738  -692  -770  -1002  -1206  -1068  -548  126  828  1533  2290  3183  3985  4155  3314  1483  -930  -3132  -4333  -4376  -3669  -2696  -1903  -1563  -1563  -1610  -1533  -1313  -982  -590  -247  -61  -26  -54  -80  -87  -80  -83  -141  -294  -493  -602  -537  -341  -101  122  286  372  414  460  520  589  684  841  1068  1310  1498  1603  1655  1743  1929  2162  2334  2413  2436  2437  2441  2466  2496  2509  2513  2523  2523  2446  2223  1907  1642  1501  1453  1441  1424  1376  1277  1086  772  374  22  -165  -196  -154  -105  -77  -69  -73  -81  -85  -64  4  104  173  151  32  -123  -233  -269  -264  -252  -243  -221  -170  -99  -38  -2  17  29  50  90  128  119  46  -65  -188  -301  -377  -400  -361  -252  -108  -5  18  -13  -61  -91  -97  -111  -191  -371  -598  -751  -746  -584  -351  -168  -84  -69  -79  -91  -98  -99  -96  -90  -82  -78  -95  -139  -180  -175  -124  -65  -17  38  117  217  350  545  770  931  991  972  875  681  457  329  324  349  324  259  206  181  156  105  24  -57  -105  -105  -79  -53  -34  -36  -90  -218  -362  -404  -243  163  783  1538  2388  3297  4146  4641  4370  3180  1359  -587  -2132  -2947  -3076  -2819  -2435  -2004  -1575  -1224  -955  -718  -495  -318  -247  -281  -325  -300  -218  -119  -11  102  198  256  303  385  495  569  556  452  275  74  -61  -25  252  709  1127  1344  1387  1371  1376  1439  1568  1736  1918  2105  2278  2422  2529  2588  2607  2610  2609  2601  2569  2498  2380  2221  2037  1877  1775  1696  1561  1302  933  587  394  353  361  315  177  -13  -197  -351  -487  -621  -752  -859  -915  -904  -853  -820  -838  -875  -890  -884  -878  -877  -868  -833  -775  -713  -663  -632  -613  -590  -558  -533  -546  -607  -688  -742  -758  -782  -862  -982  -1083  -1137  -1163  -1189  -1224  -1257  -1285  -1319  -1356  -1373  -1344  -1272  -1217  -1219  -1243  -1250  -1245  -1245  -1253  -1268  -1290  -1316  -1318  -1258  -1136  -992  -888  -858  -877  -898  -905  -909  -927  -961  -973  -927  -837  -739  -651  -582  -543  -537  -552  -580  -613  -639  -615  -506  -354  -253  -240  -276  -308  -330  -400  -568  -796  -984  -1080  -1118  -1153  -1203  -1251  -1272  -1270  -1281  -1313  -1344  -1358  -1335  -1279  -1230  -1218  -1250  -1328  -1393  -1315  -999  -446  236  928  1663  2512  3377  3944  3733  2506  569  -1527  -3256  -4217  -4387  -4030  -3380  -2576  -1769  -1164  -881  -835  -868  -890  -874  -816  -704  -561  -454  -422  -437  -442  -398  -319  -246  -200  -175  -144  -62  75  215  308  353  366  363  373  434  577  793  1026  1214  1350  1483  1648  1831  2014  2206  2395  2541  2628  2651  2620  2571  2528  2474  2391  2302  2248  2240  2252  2234  2122  1891  1598  1321  1068  791  510  320  247  218  184  161  166  176  116  -76  -343  -519  -495  -310  -119  -56  -110  -196  -279  -345  -372  -361  -323  -276  -243  -235  -243  -252  -243  -201  -146  -122  -156  -228  -291  -318  -318  -312  -319  -347  -383  -407  -415  -417  -423  -442  -480  -538  -605  -642  -630  -593  -547  -475  -383  -316  -308  -353  -424  -499  -581  -666  -734  -771  -763  -682  -518  -326  -193  -155  -186  -259  -371  -501  -599  -634  -610  -539  -441  -341  -255  -206  -223  -319  -462  -581  -616  -500  -194  195  474  566  535  447  335  224  128  54  6  -33  -98  -205  -349  -492  -586  -615  -608  -599  -603  -611  -618  -638  -691  -771  -824  -765  -572  -390  -320  -181  308  1252  2463  3579  4269  4330  3714  2497  859  -817  -2133  -2956  -3273  -3061  -2463  -1751  -1185  -926  -899  -894  -779  -545  -255  1  148  183  160  119  79  56  70  128  207  267  299  328  361  375  351  315  318  399  546  687  765  817  956  1253  1620  1873  1963  2016  2172  2430  2670  2816  2901  2966  2987  2941  2862  2795  2743  2680  2593  2504  2427  2326  2126  1790  1414  1164  1087  1080  1035  932  816  732  687  635  484  193  -146  -395  -523  -575  -570  -502  -371  -215  -99  -41  -18  -20  -35  -44  -47  -60  -89  -120  -131  -124  -119  -128  -151  -190  -248  -314  -375  -419  -435  -415  -358  -285  -234  -216  -218  -229  -247  -269  -288  -300  -315  -361  -478  -665  -864  -1009  -1055  -997  -888  -799  -757  -769  -851  -1002  -1160  -1259  -1289  -1277  -1240  -1173  -1080  -995  -961  -994  -1065  -1129  -1159  -1158  -1152  -1166  -1211  -1270  -1312  -1320  -1273  -1137  -935  -738  -579  -445  -342  -286  -259  -225  -185  -191  -296  -470  -621  -695  -717  -760  -897  -1128  -1361  -1509  -1553  -1490  -1311  -1073  -897  -848  -918  -1073  -1238  -1300  -1204  -1002  -813  -687  -457  127  1166  2512  3723  4276  3851  2387  273  -1657  -2872  -3477  -3699  -3664  -3493  -3223  -2814  -2290  -1745  -1281  -967  -795  -687  -591  -522  -508  -559  -646  -691  -653  -596  -579  -590  -601  -597  -560  -474  -346  -189  0  190  298  300  257  239  265  356  548  827  1123  1378  1585  1740  1839  1903  1973  2072  2182  2265  2303  2312  2313  2313  2296  2245  2164  2067  1942  1780  1613  1474  1353  1221  1073  895  641  325  62  -69  -111  -131  -140  -106  15  196  304  259  128  -16  -157  -268  -322  -331  -323  -312  -295  -271  -252  -256  -293  -347  -392  -432  -498  -587  -653  -669  -647  -613  -594  -612  -671  -733  -750  -741  -753  -789  -816  -828  -837  -840  -802  -686  -524  -407  -401  -502  -647  -757  -816  -866  -935  -1005  -1040  -993  -843  -676  -617  -656  -704  -725  -732  -732  -713  -656  -570  -498  -465  -465  -484  -525  -591  -679  -779  -881  -970  -1041  -1095  -1140  -1184  -1195  -1054  -641  -41  467  703  722  659  591  533  490  476  434  227  -144  -489  -671  -718  -711  -697  -707  -763  -862  -967  -1037  -1044  -946  -717  -435  -253  -272  -471  -677  -671  -388  130  872  1772  2665  3395  3829  3752  2939  1442  -363  -2071  -3343  -3921  -3835  -3319  -2564  -1790  -1221  -876  -641  -463  -342  -274  -245  -237  -240  -254  -292  -351  -406  -427  -386  -270  -123  -22  19  79  236  459  643  740  780  821  908  1018  1124  1242  1382  1557  1805  2084  2290  2371  2354  2313  2315  2377  2444  2472  2483  2530  2619  2670  2618  2511  2435  2413  2402  2339  2200  2010  1810  1634  1519  1467  1438  1379  1276  1133  943  716  517  406  372  373  392  453  587  758  864  832  677  476  317  243  230  239  252  285  357  454  536  585  627  691  750  721  564  342  153  43  8  6  -20  -110  -240  -303  -239  -146  -133  -164  -179  -178  -153  -90  -8  61  99  108  101  85  68  57  57  63  67  47  -15  -102  -169  -198  -204  -203  -205  -223  -260  -303  -327  -322  -293  -229  -107  48  169  230  253  261  264  265  262  251  246  278  372  499  602  650  665  691  767  871  946  970  958  895  747  533  337  208  138  96  54  -14  -116  -223  -300  -336  -355  -390  -444  -504  -560  -620  -702  -805  -907  -998  -1056  -988  -649  18  927  1974  3044  3856  4074  3551  2369  733  -1079  -2724  -3851  -4265  -4028  -3365  -2539  -1839  -1449  -1257  -1052  -802  -596  -481  -443  -449  -476  -500  -488  -418  -312  -229  -217  -260  -305  -323  -321  -321  -332  -344  -315  -178  79  359  530  564  522  475  495  659  993  1415  1783  2006  2091  2098  2087  2083  2097  2140  2225  2361  2518  2619  2579  2369  2078  1843  1697  1572  1415  1203  939  656  404  240  176  169  166  150  101  -29  -257  -496  -640  -677  -666  -651  -643  -655  -710  -812  -923  -990  -991  -937  -834  -680  -507  -382  -333  -337  -367  -401  -427  -448  -464  -476  -500  -557  -637  -707  -754  -788  -810  -819  -812  -794  -782  -778  -775  -770  -779  -823  -917  -1053  -1153  -1105  -929  -753  -654  -638  -676  -734  -805  -886  -962  -1019  -1071  -1138  -1203  -1238  -1244  -1234  -1218  -1202  -1187  -1173  -1151  -1105  -1036  -955  -868  -805  -820  -911  -1016  -1091  -1117  -1070  -944  -775  -628  -546  -503  -455  -399  -377  -410  -462  -496  -514  -527  -531  -512  -458  -375  -289  -248  -290  -379  -454  -493  -522  -575  -653  -716  -742  -745  -746  -754  -770  -797  -832  -862  -881  -891  -915  -1008  -1156  -1158  -792  -73  788  1635  2463  3319  4085  4415  3957  2664  848  -997  -2414  -3212  -3426  -3216  -2796  -2243  -1628  -1120  -770  -522  -353  -225  -107  -22  0  -21  -33  16  123  224  272  274  257  230  214  274  487  815  1101  1233  1212  1087  926  817  830  974  1187  1371  1487  1566  1652  1758  1873  1993  2111  2196  2243  2285  2348  2447  2580  2676  2672  2603  2520  2424  2314  2175  1968  1708  1455  1228  1021  839  678  527  394  280  165  58  8  40  113  168  181  151  69  -46  -172  -309  -449  -559  -648  -760  -886  -974  -1006  -1001  -960  -872  -761  -680  -642  -620  -599  -576  -546  -519  -506  -509  -522  -537  -552  -577  -651  -808  -1019  -1193  -1277  -1286  -1257  -1200  -1112  -997  -886  -818  -802  -817  -827  -789  -673  -515  -400  -370  -417  -523  -641  -732  -794  -827  -820  -777  -716  -653  -582  -503  -451  -444  -448  -423  -372  -341  -363  -421  -491  -556  -597  -586  -509  -393  -289  -225  -189  -145  -63  34  100  116  107  99  114  164  232  291  330  345  338  308  238  107  -41  -137  -171  -202  -284  -399  -485  -520  -523  -518  -521  -558  -672  -860  -1056  -1175  -1122  -846  -416  73  581  1075  1644  2412  3244  3838  3910  3222  1760  -134  -1931  -3212  -3733  -3468  -2820  -2275  -1915  -1635  -1404  -1168  -881  -607  -448  -426  -488  -573  -632  -620  -512  -328  -155  -65  -50  -58  -42  15  92  145  160  155  160  190  238  284  325  369  422  477  530  602  745  978  1261  1516  1677  1740  1774  1841  1945  2065  2176  2225  2187  2123  2093  2079  2021  1889  1714  1558  1435  1313  1191  1107  1059  962  745  455  226  109  63  47  32  -24  -160  -351  -512  -592  -610  -601  -562  -486  -412  -389  -389  -357  -306  -279  -280  -287  -277  -230  -145  -63  -35  -70  -122  -144  -153  -223  -391  -552  -549  -386  -222  -155  -158  -178  -195  -208  -216  -222  -227  -227  -199  -125  -27  3  -81  -211  -292  -315  -310  -301  -296  -292  -270  -230  -195  -182  -185  -193  -192  -169  -113  -34  46  118  173  195  168  84  -51  -204  -312  -344  -331  -319  -316  -295  -229  -138  -63  -8  34  66  85  99  108  103  83  52  21  -12  -57  -94  -59  92  316  502  595  620  604  497  240  -101  -366  -505  -573  -562  -458  -365  -393  -509  -606  -636  -624  -619  -667  -786  -942  -1063  -1125  -1154  -1106  -805  -30  1256  2736  3919  4449  4112  2855  958  -1058  -2768  -3845  -4082  -3651  -2948  -2189  -1566  -1300  -1316  -1323  -1162  -906  -717  -659  -672  -675  -613  -457  -236  -42  54  54  -1  -74  -119  -98  2  138  234  278  329  445  615  779  892  952  997  1083  1226  1383  1514  1620  1713  1794  1868  1942  2031  2140  2233  2278  2298  2318  2339  2348  2327  2252  2118  1957  1782  1580  1370  1212  1140  1114  1042  849  558  274  71  -47  -101  -112  -101  -86  -90  -153  -284  -383  -329  -176  -80  -74  -96  -122  -154  -197  -249  -297  -347  -417  -476  -462  -368  -252  -166  -118  -72  18  141  229  220  95  -91  -247  -331  -368  -391  -404  -401  -389  -386  -403  -433  -464  -468  -434  -382  -336  -296  -260  -235  -225  -227  -249  -303  -391  -485  -549  -582  -616  -659  -680  -656  -604  -562  -549  -568  -604  -624  -620  -634  -686  -737  -756  -751  -744  -745  -749  -739  -703  -655  -619  -589  -537  -460  -379  -302  -221  -144  -101  -104  -131  -143  -136  -159  -254  -381  -421  -296  -94  45  89  83  79  104  93  -42  -245  -388  -429  -410  -381  -372  -413  -527  -684  -816  -912  -992  -1049  -1063  -1047  -1051  -1142  -1302  -1367  -1184  -742  -54  876  1984  3082  3937  4373  4250  3482  2131  368  -1523  -3165  -4197  -4374  -3756  -2801  -2026  -1625  -1501  -1462  -1357  -1157  -937  -777  -693  -652  -609  -524  -375  -191  -36  41  49  17  -28  -73  -105  -102  -52  46  164  260  320  359  394  445  522  641  814  1020  1214  1371  1477  1531  1570  1643  1741  1824  1896  2004  2150  2295  2414  2499  2509  2403  2214  2022  1866  1729  1576  1398  1202  1017  865  717  521  295  107  -8  -64  -85  -86  -80  -70  -60  -70  -120  -196  -254  -273  -267  -254  -252  -281  -351  -420  -435  -380  -292  -237  -229  -233  -223  -205  -187  -177  -185  -216  -255  -295  -347  -405  -456  -495  -518  -524  -521  -519  -522  -526  -530  -537  -543  -543  -532  -518  -531  -593  -679  -737  -756  -756  -753  -740  -693  -596  -478  -395  -374  -402  -456  -511  -549  -572  -586  -586  -573  -576  -637  -756  -874  -921  -876  -787  -715  -667  -611  -543  -504  -525  -578  -625  -657  -672  -652  -579  -480  -403  -342  -258  -148  -29  59  57  -10  -68  -155  -325  -513  -638  -694  -711  -693  -636  -583  -605  -728  -909  -1083  -1199  -1250  -1249  -1180  -1012  -789  -659  -718  -750  -384  442  1506  2602  3555  4116  4019  3145  1538  -551  -2562  -3928  -4439  -4158  -3339  -2399  -1675  -1246  -999  -801  -617  -478  -403  -373  -356  -332  -305  -279  -246  -207  -170  -120  -23  98  188  226  256  350  562  846  1070  1164  1173  1171  1190  1214  1229  1246  1286  1342  1400  1499  1714  2032  2326  2505  2584  2608  2605  2600  2626  2705  2806  2853  2807  2712  2637  2576  2475  2328  2160  1944  1642  1290  961  708  554  484  451  423  398  360  275  155  72  99  245  416  475  381  193  -36  -261  -417  -484  -498  -497  -464  -329  -65  228  417  477  471  433  341  185  2  -145  -216  -227  -220  -213  -213  -236  -301  -389  -436  -399  -313  -231  -166  -121  -95  -92  -148  -303  -515  -675  -734  -732  -717  -696  -649  -577  -536  -576  -670  -772  -863  -926  -957  -968  -971  -971  -972  -976  -980  -968  -926  -860  -796  -764  -764  -766  -735  -659  -564  -497  -486  -534  -640  -775  -878  -899  -816  -614  -300  37  255  303  259  204  147  71  -17  -93  -166  -273  -422  -586  -740  -869  -964  -1031  -1067  -1057  -1013  -971  -959  -974  -999  -1055  -1185  -1345  -1335  -999  -463  121  799  1594  2469  3359  3914  3684  2647  1112  -570  -2000  -2950  -3503  -3758  -3727  -3426  -2880  -2185  -1501  -951  -570  -311  -104  70  177  182  91  -51  -177  -247  -263  -246  -216  -173  -85  65  234  348  395  407  412  414  420  430  435  458  593  925  1353  1664  1785  1815  1849  1912  1991  2085  2217  2371  2498  2583  2642  2680  2701  2718  2724  2684  2552  2312  2023  1779  1615  1484  1329  1139  924  695  483  322  181  -6  -224  -385  -463  -517  -581  -621  -584  -477  -366  -308  -292  -289  -281  -270  -260  -241  -208  -193  -210  -235  -242  -233  -225  -225  -220  -205  -189  -174  -148  -104  -62  -60  -111  -189  -283  -378  -455  -515  -558  -569  -542  -484  -410  -345  -302  -272  -255  -264  -307  -370  -415  -399  -304  -168  -72  -88  -229  -426  -569  -610  -581  -516  -416  -285  -177  -155  -201  -260  -301  -328  -359  -388  -400  -387  -360  -332  -313  -304  -306  -312  -306  -284  -253  -245  -284  -341  -358  -267  -20  307  551  645  659  658  623  495  274  24  -186  -321  -382  -378  -310  -208  -108  -27  12  -32  -196  -428  -614  -696  -694  -652  -633  -739  -976  -1127  -972  -517  130  911  1780  2690  3561  4164  4149  3369  1998  336  -1269  -2492  -3132  -3188  -2811  -2211  -1634  -1273  -1097  -945  -750  -567  -445  -344  -187  11  154  199  186  165  157  175  229  302  358  384  398  414  436  478  568  698  819  893  942  1011  1114  1243  1433  1720  2071  2391  2608  2734  2836  2943  3018  3021  2957  2876  2837  2849  2877  2899  2913  2911  2856  2691  2432  2164  1935  1706  1404  1014  615  325  184  136  102  17  -165  -403  -591  -695  -771  -857  -935  -980  -995  -989  -955  -880  -786  -717  -692  -706  -754  -825  -892  -937  -960  -970  -970  -972  -1010  -1097  -1184  -1210  -1178  -1134  -1106  -1105  -1127  -1163  -1215  -1295  -1408  -1524  -1595  -1607  -1586  -1570  -1576  -1593  -1605  -1602  -1581  -1541  -1488  -1437  -1405  -1395  -1400  -1421  -1463  -1513  -1548  -1561  -1565  -1571  -1580  -1587  -1580  -1539  -1462  -1379  -1328  -1320  -1354  -1431  -1529  -1596  -1583  -1475  -1314  -1175  -1099  -1076  -1079  -1087  -1083  -1055  -995  -894  -761  -647  -603  -648  -769  -918  -1058  -1192  -1323  -1468  -1649  -1841  -2027  -2203  -2315  -2305  -2183  -2020  -1899  -1856  -1895  -2026  -2217  -2369  -2393  -2280  -2090  -1850  -1448  -711  437  1834  3014  3428  2806  1400  -282  -1903  -3216  -4068  -4625  -5049  -5115  -4646  -3848  -2989  -2225  -1703  -1486  -1473  -1519  -1535  -1489  -1387  -1273  -1201  -1188  -1211  -1237  -1243  -1213  -1137  -1032  -940  -893  -875  -834  -734  -551  -294  -41  108  163  213  332  525  727  854  888  889  929  1034  1177  1336  1550  1848  2102  2104  1864  1627  1594  1782  2067  2287  2371  2309  2079  1717  1371  1155  1043  936  779  590  428  311  192  32  -133  -236  -271  -271  -241  -151  7  214  453  687  844  905  903  834  666  441  273  220  255  325  400  481  579  673  731  743  728  720  761  879  1041  1169  1228  1237  1220  1185  1126  1033  910  787  709  684  692  718  762  829  908  964  965  928  902  906  916  904  878  871  911  988  1056  1119  1211  1298  1295  1166  971  789  636  526  535  709  994  1279  1462  1528  1534  1534  1547  1565  1577  1592  1622  1668  1729  1816  1915  1977  1970  1920  1880  1874  1884  1899  1906  1849  1670  1370  1035  789  696  742  897  1095  1240  1271  1184  994  728  449  312  449  788  1182  1630  2173  2851  3765  4858  5737  5927  5214  3711  1757  -217  -1791  -2641  -2689  -2152  -1398  -746  -329  -91  55  128  171  291  496  670  739  725  678  641  625  623  621  617  615  623  640  659  672  694  738  784  810  813  803  789  780  771  763  777  889  1172  1565  1883  2015  1994  1907  1854  1925  2129  2375  2526  2541  2504  2486  2470  2414  2273  2001  1587  1072  581  263  153  152  154  99  -24  -176  -299  -394  -498  -615  -716  -793  -884  -1066  -1352  -1644  -1833  -1883  -1766  -1466  -1092  -831  -749  -765  -791  -800  -791  -774  -763  -782  -851  -953  -1048  -1117  -1157  -1154  -1097  -1001  -921  -929  -1046  -1227  -1403  -1523  -1586  -1615  -1569  -1377  -1091  -893  -914  -1129  -1398  -1578  -1632  -1608  -1568  -1567  -1628  -1709  -1761  -1778  -1767  -1705  -1560  -1369  -1228  -1176  -1185  -1234  -1318  -1413  -1470  -1467  -1415  -1352  -1310  -1297  -1297  -1298  -1287  -1243  -1150  -1021  -885  -784  -737  -723  -693  -613  -505  -433  -411  -375  -266  -106  28  110  163  193  197  173  116  -30  -340  -741  -1036  -1139  -1129  -1104  -1090  -1076  -1057  -1053  -1078  -1114  -1138  -1132  -1076  -950  -769  -615  -599  -684  -602  -98  847  2129  3522  4568  4801  4106  2668  738  -1328  -3034  -4004  -4179  -3689  -2787  -1881  -1331  -1156  -1133  -1086  -958  -772  -591  -461  -370  -276  -150  -14  81  130  162  180  176  163  159  154  135  119  166  331  562  737  812  828  828  823  816  827  909  1107  1422  1787  2116  2376  2581  2717  2759  2754  2775  2822  2864  2895  2908  2855  2686  2433  2181  1962  1773  1641  1565  1483  1338  1135  942  818  751  664  480  192  -103  -287  -343  -339  -358  -439  -554  -637  -640  -563  -452  -369  -341  -349  -363  -365  -350  -314  -267  -234  -235  -273  -329  -381  -419  -458  -514  -577  -617  -627  -631  -657  -700  -723  -701  -668  -660  -670  -671  -647  -607  -564  -511  -439  -351  -265  -211  -232  -367  -604  -860  -1058  -1203  -1322  -1384  -1334  -1171  -973  -842  -802  -800  -796  -797  -809  -806  -765  -699  -625  -549  -479  -438  -432  -453  -485  -523  -566  -598  -582  -507  -393  -276  -213  -310  -643  -1107  -1484  -1698  -1817  -1874  -1855  -1765  -1653  -1568  -1507  -1426  -1322  -1249  -1265  -1419  -1720  -2013  -2092  -1985  -1809  -1473  -797  254  1522  2674  3265  2903  1561  -311  -2095  -3398  -4185  -4636  -4861  -4774  -4341  -3739  -3183  -2786  -2560  -2464  -2439  -2417  -2342  -2204  -2046  -1925  -1869  -1868  -1890  -1887  -1812  -1656  -1479  -1363  -1330  -1340  -1356  -1364  -1351  -1304  -1228  -1154  -1108  -1103  -1126  -1098  -892  -482  -13  336  515  587  617  628  630  639  679  762  874  976  1039  1071  1089  1069  980  850  743  644  454  151  -156  -381  -540  -676  -789  -872  -944  -1031  -1118  -1187  -1248  -1316  -1383  -1427  -1437  -1420  -1399  -1404  -1451  -1512  -1555  -1580  -1622  -1707  -1833  -1954  -1977  -1831  -1563  -1323  -1214  -1196  -1173  -1098  -992  -901  -843  -810  -798  -824  -908  -1025  -1113  -1120  -1027  -860  -696  -602  -585  -621  -678  -693  -596  -389  -160  -19  3  -52  -139  -222  -263  -238  -142  18  224  418  550  614  629  620  634  723  896  1097  1268  1383  1437  1447  1439  1431  1426  1431  1461  1532  1664  1872  2128  2317  2315  2158  2014  1996  2075  2155  2192  2195  2147  2050  1945  1825  1696  1615  1602  1605  1531  1383  1368  1620  1950  2157  2392  2998  4050  5294  6428  7120  7054  6253  5025  3605  2122  769  -243  -830  -976  -701  -190  303  705  1074  1412  1643  1743  1773  1798  1828  1848  1856  1860  1873  1900  1942  1999  2069  2136  2175  2182  2182  2208  2272  2347  2408  2449  2460  2458  2485  2552  2668  2866  3140  3403  3559  3597  3578  3555  3559  3615  3722  3834  3901  3909  3877  3832  3803  3795  3764  3646  3430  3185  2977  2784  2523  2163  1790  1501  1306  1122  874  592  368  236  162  104  21  -114  -281  -428  -524  -569  -577  -560  -545  -548  -567  -601  -668  -778  -904  -994  -1031  -1041  -1044  -1036  -1013  -982  -955  -934  -926  -969  -1111  -1323  -1497  -1524  -1370  -1124  -938  -874  -880  -899  -919  -945  -967  -971  -957  -945  -970  -1052  -1155  -1221  -1231  -1215  -1221  -1275  -1375  -1493  -1597  -1658  -1662  -1608  -1502  -1354  -1189  -1042  -961  -963  -985  -953  -898  -883  -883  -844  -743  -584  -394  -233  -167  -242  -442  -697  -914  -1036  -1082  -1118  -1196  -1314  -1429  -1512  -1567  -1602  -1610  -1602  -1595  -1604  -1649  -1745  -1869  -1984  -2066  -2099  -2068  -1940  -1621  -1010  -113  961  2100  3100  3569  3220  2126  579  -1082  -2577  -3745  -4483  -4717  -4490  -3996  -3436  -2879  -2356  -1957  -1743  -1666  -1621  -1536  -1418  -1322  -1279  -1275  -1274  -1249  -1197  -1139  -1097  -1069  -1049  -1028  -986  -895  -758  -604  -468  -378  -341  -341  -355  -315  -122  219  550  732  771  750  740  793  955  1228  1545  1818  2026  2192  2292  2260  2131  2018  1964  1940  1904  1791  1551  1210  862  577  355  180  39  -76  -171  -249  -310  -337  -329  -313  -338  -443  -601  -744  -861  -976  -1087  -1173  -1220  -1235  -1236  -1231  -1204  -1139  -1050  -975  -929  -899  -874  -855  -851  -859  -870  -882  -899  -917  -931  -935  -934  -935  -940  -948  -947  -949  -985  -1059  -1118  -1098  -973  -783  -609  -500  -451  -438  -472  -578  -735  -861  -905  -898  -891  -883  -837  -731  -599  -498  -465  -496  -530  -506  -434  -338  -207  -42  122  236  269  231  176  165  225  347  493  610  667  662  592  459  308  198  152  150  143  71  -70  -225  -342  -420  -487  -563  -634  -678  -691  -661  -568  -428  -296  -241  -317  -458  -481  -249  287  1151  2310  3569  4579  5026  4691  3451  1473  -702  -2442  -3367  -3451  -2953  -2289  -1801  -1562  -1441  -1300  -1095  -804  -432  -80  113  120  32  -38  -47  -29  -19  -14  -3  12  25  30  22  4  7  122  417  798  1070  1158  1128  1050  972  959  1092  1386  1765  2117  2364  2468  2398  2146  1803  1538  1426  1422  1462  1516  1570  1626  1680  1708  1710  1733  1794  1838  1799  1651  1392  1045  693  421  224  72  -9  -5  34  33  -43  -178  -332  -465  -542  -565  -573  -595  -625  -657  -697  -730  -714  -621  -478  -351  -289  -299  -351  -410  -467  -522  -562  -580  -581  -564  -520  -457  -404  -371  -356  -354  -367  -422  -530  -645  -710  -727  -727  -722  -693  -613  -505  -426  -400  -405  -411  -406  -388  -366  -371  -451  -631  -846  -995  -1051  -1057  -1046  -985  -822  -581  -368  -256  -234  -246  -243  -226  -241  -295  -339  -332  -280  -213  -135  -34  74  156  200  228  251  263  244  144  -95  -461  -821  -1047  -1137  -1156  -1163  -1171  -1169  -1152  -1131  -1105  -1058  -977  -882  -837  -937  -1187  -1408  -1369  -932  -60  1089  2213  3104  3661  3729  3136  1912  307  -1347  -2712  -3570  -3897  -3773  -3290  -2548  -1783  -1272  -1067  -1025  -1025  -1044  -1101  -1190  -1270  -1301  -1244  -1064  -803  -582  -466  -392  -272  -113  12  79  122  168  216  253  278  301  319  326  322  337  457  766  1206  1599  1858  2028  2168  2291  2389  2472  2555  2642  2728  2768  2723  2614  2487  2371  2268  2145  1985  1820  1685  1601  1574  1584  1587  1527  1367  1121  848  610  413  227  60  -37  -37  44  155  232  243  199  139  94  72  60  67  133  281  441  497  437  344  322  467  730  895  844  673  535  495  506  493  438  364  293  250  242  258  280  296  306  332  406  536  683  793  867  937  998  1026  1035  1052  1080  1104  1114  1115  1107  1075  1004  912  853  861  918  1008  1141  1290  1389  1410  1399  1426  1512  1615  1683  1707  1713  1718  1713  1676  1595  1509  1486  1534  1599  1668  1812  2120  2555  2958  3226  3367  3413  3352  3139  2797  2442  2167  1922  1581  1127  702  405  182  -58  -333  -579  -728  -765  -768  -896  -1280  -1861  -2434  -2888  -3237  -3438  -3416  -3129  -2481  -1519  -520  322  939  1189  881  -115  -1745  -3659  -5381  -6590  -7117  -6933  -6256  -5398  -4604  -4002  -3567  -3232  -3003  -2877  -2817  -2789  -2764  -2714  -2633  -2543  -2479  -2441  -2391  -2303  -2169  -1995  -1826  -1727  -1707  -1719  -1700  -1621  -1511  -1425  -1362  -1264  -1110  -937  -788  -646  -426  -98  239  456  531  543  600  758  975  1153  1244  1285  1333  1404  1474  1521  1543  1554  1563  1560  1505  1361  1123  834  567  390  305  228  76  -127  -293  -402  -493  -580  -656  -724  -761  -710  -559  -374  -225  -132  -91  -90  -122  -176  -226  -232  -195  -157  -140  -138  -136  -125  -104  -81  -77  -109  -176  -247  -289  -289  -254  -198  -136  -76  -30  -10  -21  -55  -85  -88  -77  -72  -56  14  144  241  217  100  -46  -186  -282  -313  -315  -350  -448  -540  -520  -394  -278  -238  -237  -198  -99  -14  -20  -67  -68  -27  7  26  29  -14  -137  -304  -429  -481  -494  -478  -375  -143  141  343  416  414  399  393  399  411  421  418  379  277  133  11  -58  -94  -115  -113  -103  -156  -327  -575  -818  -993  -1084  -1110  -1104  -1078  -1039  -1011  -1021  -1060  -1083  -1050  -931  -742  -525  -249  204  925  1949  3230  4496  5204  4910  3579  1493  -805  -2593  -3456  -3544  -3198  -2694  -2280  -2018  -1753  -1416  -1107  -885  -697  -489  -280  -112  -6  45  64  76  83  81  74  72  100  196  373  573  707  742  703  619  529  466  440  437  475  601  831  1144  1516  1882  2135  2232  2242  2264  2345  2454  2534  2579  2627  2708  2810  2875  2863  2788  2670  2503  2293  2086  1909  1727  1509  1287  1121  1033  967  837  640  440  252  28  -214  -386  -448  -435  -381  -289  -175  -71  -3  14  -14  -62  -94  -99  -91  -80  -61  -38  -30  -61  -135  -215  -257  -243  -200  -191  -263  -385  -482  -505  -450  -342  -217  -115  -63  -63  -87  -107  -119  -128  -127  -84  24  162  258  287  280  265  233  177  123  102  112  140  170  188  195  199  202  197  164  89  -10  -76  -59  8  22  -51  -143  -209  -265  -323  -368  -388  -382  -327  -202  -43  68  81  8  -96  -178  -224  -251  -241  -141  40  199  232  143  2  -158  -349  -564  -764  -932  -1071  -1181  -1256  -1297  -1322  -1365  -1451  -1575  -1703  -1809  -1897  -1981  -2064  -2135  -2145  -1994  -1574  -873  0]
