reading_id,reading_time,wire_id,result_classification,heart_rate,heart_rate_alert,firmware_version,device_app_version,hardware_version,waveform_samples
63777800-d948-11ed-8080-808080808080,Wed Apr 12 15:40:44 UTC 2023,6119e4d89339,NSR,66,NONE,20001.188.58,2.13.0,Charge 5,[1950  2034  2105  2106  1999  1853  1742  1674  1695  1877  2314  3134  4282  5406  6096  6061  5169  3606  1904  515  -492  -1195  -1636  -1912  -2036  -1800  -1134  -378  110  311  353  308  190  39  -71  -106  -89  -67  -72  -102  -123  -124  -121  -123  -113  -67  -23  -73  -221  -285  -56  418  825  920  814  745  758  775  782  840  1003  1250  1545  1922  2402  2865  3157  3265  3287  3294  3278  3202  3067  2932  2856  2839  2827  2752  2568  2248  1794  1300  897  609  343  66  -125  -175  -162  -163  -170  -157  -138  -179  -352  -623  -849  -931  -909  -878  -874  -888  -912  -933  -930  -884  -803  -727  -678  -659  -681  -735  -784  -811  -828  -845  -872  -910  -972  -1089  -1242  -1364  -1412  -1385  -1295  -1177  -1086  -1049  -1062  -1130  -1253  -1379  -1434  -1412  -1390  -1422  -1470  -1490  -1500  -1533  -1582  -1623  -1644  -1649  -1650  -1653  -1658  -1661  -1653  -1608  -1495  -1323  -1176  -1144  -1215  -1326  -1449  -1563  -1610  -1550  -1421  -1296  -1219  -1185  -1172  -1158  -1133  -1103  -1086  -1096  -1136  -1204  -1291  -1361  -1393  -1398  -1399  -1413  -1442  -1465  -1451  -1384  -1289  -1214  -1180  -1178  -1187  -1188  -1176  -1165  -1174  -1202  -1223  -1197  -1103  -957  -813  -736  -744  -813  -910  -1012  -1098  -1150  -1169  -1177  -1190  -1205  -1210  -1193  -1145  -1049  -889  -685  -492  -360  -297  -285  -299  -316  -312  -265  -170  -42  74  125  76  -64  -278  -511  -681  -752  -755  -735  -714  -690  -641  -563  -492  -453  -430  -415  -449  -579  -790  -1036  -1283  -1395  -1108  -328  700  1662  2457  3099  3504  3525  3033  1898  179  -1620  -2805  -3076  -2666  -2001  -1450  -1176  -1061  -964  -882  -806  -690  -546  -426  -357  -330  -313  -279  -228  -185  -159  -146  -141  -124  -62  60  226  383  478  499  476  451  481  632  895  1148  1279  1317  1391  1583  1843  2069  2217  2313  2393  2466  2512  2518  2513  2554  2685  2850  2895  2714  2385  2088  1891  1694  1382  994  662  421  217  46  -53  -110  -199  -338  -470  -549  -587  -642  -762  -912  -1006  -1008  -961  -918  -901  -900  -888  -842  -776  -725  -706  -707  -705  -687  -651  -622  -639  -735  -875  -973  -983  -934  -896  -892  -885  -866  -874  -937  -1045  -1139  -1145  -1084  -1047  -1051  -1021  -915  -787  -744  -833  -978  -1076  -1110  -1115  -1108  -1070  -973  -837  -734  -698  -696  -692  -688  -690  -699  -710  -721  -727  -722  -707  -713  -762  -829  -866  -862  -844  -836  -839  -842  -823  -763  -671  -576  -492  -438  -446  -502  -547  -552  -550  -566  -561  -486  -375  -303  -293  -312  -317  -303  -293  -292  -267  -186  -75  14  74  114  120  108  136  252  468  728  940  1082  1197  1302  1359  1326  1231  1143  1098  1094  1117  1160  1237  1340  1433  1495  1535  1573  1634  1729  1824  1869  1849  1794  1764  1797  1868  1958  2083  2225  2330  2350  2278  2164  2072  2012  1932  1776  1539  1301  1163  1133  1145  1148  1120  1043  912  744  576  425  303  223  168  105  37  -15  -61  -106  -118  -17  228  551  936  1467  2207  3106  3892  4156  3712  2640  1058  -764  -2315  -3190  -3295  -2781  -2069  -1600  -1390  -1191  -941  -743  -662  -656  -626  -546  -460  -372  -268  -183  -150  -152  -154  -139  -112  -88  -75  -59  1  146  333  470  534  584  646  694  712  713  723  764  855  1021  1287  1617  1889  2021  2058  2094  2168  2227  2212  2160  2147  2164  2137  2006  1757  1431  1111  854  675  551  422  216  -58  -324  -555  -774  -966  -1071  -1051  -975  -969  -1047  -1146  -1241  -1315  -1344  -1332  -1298  -1260  -1223  -1192  -1203  -1284  -1384  -1420  -1381  -1311  -1249  -1205  -1181  -1175  -1192  -1241  -1309  -1357  -1354  -1293  -1204  -1127  -1083  -1087  -1147  -1243  -1325  -1357  -1355  -1378  -1442  -1505  -1544  -1578  -1609  -1595  -1503  -1374  -1286  -1269  -1293  -1322  -1349  -1396  -1469  -1539  -1558  -1511  -1431  -1358  -1311  -1287  -1280  -1293  -1338  -1413  -1490  -1538  -1538  -1465  -1305  -1109  -975  -939  -966  -1008  -1045  -1071  -1091  -1116  -1147  -1165  -1141  -1072  -987  -897  -787  -685  -638  -655  -711  -754  -722  -624  -547  -533  -513  -430  -325  -278  -301  -328  -304  -256  -231  -225  -203  -135  -28  79  160  205  216  209  204  210  209  181  126  77  72  103  124  116  96  76  69  72  65  37  3  -16  -17  -23  -78  -160  -192  -161  -93  5  111  198  284  396  505  542  457  275  91  -27  -100  -181  -288  -401  -480  -494  -430  -277  -14  359  752  1013  1090  1035  891  684  477  381  462  618  648  496  419  830  1916  3404  4737  5482  5435  4557  3136  1671  477  -371  -903  -1230  -1419  -1358  -1002  -554  -204  30  234  465  659  717  676  648  663  678  635  532  448  458  566  722  857  925  943  955  987  1028  1060  1092  1152  1235  1304  1349  1394  1474  1615  1782  1890  1925  1964  2090  2290  2473  2565  2571  2525  2440  2339  2262  2225  2217  2233  2270  2276  2133  1744  1205  746  482  358  278  159  -35  -241  -368  -401  -387  -360  -336  -351  -469  -683  -885  -993  -1027  -1042  -1051  -1037  -968  -828  -659  -539  -495  -492  -499  -526  -599  -703  -781  -801  -773  -705  -598  -463  -331  -237  -198  -200  -231  -285  -357  -437  -508  -551  -564  -563  -560  -553  -531  -496  -460  -431  -407  -386  -370  -362  -353  -337  -336  -406  -548  -626  -542  -409  -375  -433  -496  -527  -546  -575  -617  -657  -678  -682  -675  -660  -630  -588  -557  -555  -576  -570  -480  -327  -199  -140  -124  -121  -120  -115  -108  -117  -167  -250  -310  -320  -314  -312  -280  -192  -60  67  137  118  7  -143  -254  -293  -295  -320  -400  -510  -584  -600  -586  -565  -533  -495  -474  -484  -520  -561  -582  -577  -561  -551  -549  -554  -559  -554  -514  -428  -330  -274  -290  -329  -290  -188  -152  -198  -224  -178  -91  -32  -34  -55  -31  42  98  79  22  -12  -18  -16  -26  -40  -29  18  45  0  -77  -109  -66  13  37  -33  -121  -199  -312  -411  -424  -382  -347  -301  -121  344  1105  2024  3005  3875  4273  4046  3309  2083  493  -1047  -2235  -2944  -3002  -2472  -1846  -1541  -1498  -1430  -1224  -973  -802  -730  -704  -680  -649  -607  -526  -380  -207  -91  -79  -154  -262  -351  -401  -410  -385  -344  -315  -295  -230  -58  188  432  658  880  1069  1200  1279  1321  1342  1377  1489  1717  2003  2227  2342  2404  2460  2514  2520  2407  2178  1935  1737  1555  1360  1161  952  693  412  206  91  -23  -197  -410  -609  -754  -847  -918  -981  -1032  -1061  -1031  -893  -661  -434  -292  -233  -222  -226  -241  -288  -366  -444  -492  -507  -506  -494  -463  -409  -351  -320  -325  -352  -383  -417  -471  -550  -630  -696  -766  -821  -832  -818  -806  -789  -727  -586  -394  -238  -162  -147  -156  -181  -229  -292  -336  -324  -248  -141  -63  -38  -47  -74  -103  -120  -115  -92  -62  -36  -14  9  37  72  110  136  139  131  125  127  131  123  82  7  -82  -162  -196  -165  -89  -6  39  18  -29  -55  -71  -111  -199  -341  -494  -597  -634  -608  -491  -282  -62  67  74  -10  -126  -207  -233  -225  -217  -240  -320  -436  -534  -578  -564  -495  -372  -234  -142  -117  -124  -119  -80  -23  16  24  22  46  111  174  188  182  217  286  340  356  334  258  113  -74  -222  -272  -276  -308  -356  -383  -397  -429  -489  -563  -631  -678  -705  -728  -735  -688  -558  -368  -206  -215  -418  -560  -322  440  1631  2898  3805  4037  3454  2119  340  -1354  -2505  -3010  -2998  -2649  -2193  -1742  -1268  -822  -517  -349  -194  27  252  388  444  474  505  542  582  618  646  662  665  661  655  648  641  643  674  758  882  997  1092  1200  1307  1374  1418  1486  1603  1774  2012  2300  2570  2764  2871  2918  2946  2996  3070  3136  3170  3171  3124  2966  2644  2250  1976  1880  1826  1623  1182  637  242  93  94  132  162  175  163  122  63  6  -28  -40  -34  -16  11  43  69  82  88  91  89  70  28  -14  0  113  298  492  682  849  933  931  916  932  958  951  877  722  536  408  374  410  478  568  681  795  878  940  1020  1106  1148  1148  1119  1043  949  904  917  948  964  966  983  1025  1061  1063  1035  1002  968  920  868  860  933  1061  1190  1308  1417  1493  1522  1522  1515  1515  1537  1579  1604  1563  1440  1269  1111  1016  994  1013  1045  1098  1196  1319  1409  1436  1426  1415  1430  1486  1566  1628  1651  1636  1585  1513  1452  1423  1425  1440  1452  1469  1525  1644  1791  1895  1925  1914  1904  1927  2003  2131  2263  2341  2346  2292  2188  2058  1905  1687  1408  1146  943  797  717  690  675  638  570  489  426  380  330  299  318  313  171  -63  -152  155  892  1862  2831  3594  3890  3540  2525  961  -733  -2032  -2785  -3141  -3249  -3217  -3110  -2889  -2529  -2165  -1941  -1867  -1884  -1946  -2014  -2054  -2064  -2081  -2140  -2231  -2326  -2417  -2494  -2533  -2530  -2513  -2509  -2544  -2650  -2834  -3051  -3221  -3309  -3349  -3389  -3442  -3481  -3475  -3418  -3335  -3241  -3108  -2932  -2796  -2770  -2824  -2892  -2945  -3024  -3197  -3442  -3665  -3852  -4060  -4287  -4479  -4614  -4744  -4987  -5460  -6137  -6798  -7241  -7496  -7738  -8065  -8413  -8671  -8851  -9091  -9501  -10063  -10624  -11000  -11159  -11233  -11360  -11624  -12051  -12540  -12924  -13169  -13346  -13499  -13649  -13826  -14034  -14254  -14493  -14795  -15177  -15566  -15849  -16025  -16194  -16412  -16621  -16737  -16715  -16552  -16300  -16052  -15842  -15627  -15348  -14946  -14434  -13949  -13601  -13353  -13104  -12823  -12550  -12305  -12066  -11817  -11549  -11225  -10799  -10282  -9779  -9397  -9081  -8677  -8157  -7670  -7329  -7086  -6854  -6652  -6503  -6264  -5700  -4768  -3702  -2753  -2004  -1359  -581  468  1736  3182  4728  6185  7444  8558  9606  10599  11497  12216  12671  12939  13236  13656  14079  14353  14490  14618  14808  15015  15149  15185  15165  15132  15101  15071  15023  14939  14838  14762  14714  14651  14569  14540  14599  14653  14566  14319  14013  13768  13639  13591  13543  13432  13283  13179  13137  13092  13002  12881  12762  12661  12567  12431  12217  11977  11797  11677  11539  11364  11200  11042  10822  10520  10174  9791  9350  8905  8579  8393  8203  7871  7525  7486  7889  8565  9274  9888  10370  10632  10471  9699  8302  6529  4824  3564  2854  2618  2771  3154  3539  3825  4059  4233  4271  4158  3965  3766  3610  3521  3489  3482  3476  3454  3386  3223  2978  2736  2567  2481  2451  2435  2412  2406  2433  2446  2381  2247  2115  2035  1995  1980  1996  2056  2169  2314  2440  2518  2535  2486  2402  2325  2275  2243  2168  1961  1620  1287  1090  982  823  583  336  79  -265  -661  -964  -1107  -1144  -1156  -1213  -1362  -1580  -1782  -1912  -1989  -2060  -2153  -2245  -2286  -2255  -2191  -2149  -2142  -2139  -2095  -2002  -1914  -1907  -1988  -2094  -2167  -2205  -2248  -2310  -2369  -2413  -2446  -2438  -2319  -2038  -1650  -1316  -1150  -1124  -1138  -1125  -1099  -1107  -1085  -888  -579  -351  -298  -468  -778  -967  -900  -698  -612  -812  -1211  -1526  -1547  -1245  -792  -500  -503  -611  -617  -531  -435  -326  -198  -116  -147  -315  -596  -953  -1362  -1792  -2170  -2398  -2421  -2248  -1933  -1561  -1194  -886  -695  -598  -499  -361  -217  -66  106  253  283  136  -137  -416  -643  -842  -1025  -1180  -1325  -1467  -1564  -1595  -1598  -1607  -1621  -1619  -1605  -1590  -1569  -1540  -1524  -1582  -1767  -2025  -2222  -2288  -2241  -2108  -1945  -1825  -1756  -1687  -1617  -1585  -1585  -1601  -1650  -1724  -1810  -1952  -2184  -2480  -2775  -3005  -3146  -3209  -3213  -3186  -3153  -3127  -3116  -3130  -3188  -3292  -3413  -3511  -3535  -3485  -3476  -3575  -3633  -3485  -3066  -2283  -1135  94  1090  1673  1644  874  -446  -1983  -3474  -4677  -5406  -5672  -5677  -5601  -5423  -5029  -4408  -3730  -3244  -3057  -3104  -3293  -3532  -3717  -3794  -3757  -3575  -3244  -2876  -2623  -2524  -2520  -2543  -2534  -2463  -2373  -2339  -2370  -2411  -2430  -2445  -2473  -2466  -2324  -2013  -1655  -1412  -1315  -1261  -1094  -704  -187  201  350  350  315  295  295  289  240  149  53  -42  -159  -290  -417  -548  -696  -871  -1116  -1483  -1908  -2235  -2384  -2402  -2366  -2311  -2256  -2220  -2202  -2174  -2133  -2127  -2193  -2316  -2483  -2672  -2822  -2889  -2875  -2768  -2533  -2209  -1906  -1665  -1401  -1053  -708  -486  -390  -330  -217  -32  164  349  580  857  1076  1172  1182  1146  1067  955  865  848  887  930  952  965  977  984  976  955  954  1037  1267  1627  1980  2164  2135  1981  1816  1705  1627  1541  1464  1427  1422  1419  1407  1400  1434  1544  1696  1812  1857  1841  1771  1642  1471  1310  1215  1189  1189  1196  1227  1325  1503  1690  1772  1728  1629  1542  1467  1350  1151  914  714  600  557  521  462  419  406  357  199  -40  -250  -365  -417  -466  -537  -613  -680  -719  -689  -586  -480  -445  -493  -586  -691  -811  -940  -1032  -1064  -1064  -1052  -1021  -973  -939  -940  -947  -909  -812  -705  -629  -555  -422  -174  194  571  808  902  969  1081  1206  1299  1359  1401  1414  1361  1226  1083  1019  1137  1651  2569  3565  4471  5274  5827  5985  5587  4475  2849  1182  -117  -766  -708  -209  376  817  1038  1145  1353  1710  2055  2237  2225  2062  1842  1669  1581  1566  1613  1709  1821  1910  1960  1989  2026  2079  2118  2063  1845  1540  1318  1242  1246  1263  1296  1392  1584  1874  2227  2545  2741  2848  2954  3090  3224  3317  3361  3379  3375  3322  3182  2946  2691  2525  2448  2336  2102  1774  1419  1066  746  516  390  310  193  -7  -235  -382  -408  -361  -304  -259  -214  -180  -182  -225  -294  -372  -478  -649  -856  -1001  -1033  -985  -905  -819  -727  -638  -577  -556  -567  -620  -744  -940  -1163  -1375  -1564  -1717  -1814  -1863  -1873  -1865  -1859  -1844  -1816  -1800  -1814  -1851  -1899  -1939  -1959  -1963  -1959  -1944  -1912  -1868  -1830  -1817  -1850  -1963  -2164  -2408  -2631  -2781  -2823  -2736  -2566  -2395  -2268  -2185  -2138  -2121  -2119  -2139  -2208  -2327  -2474  -2626  -2761  -2856  -2924  -2999  -3099  -3203  -3261  -3250  -3203  -3141  -3041  -2916  -2830  -2813  -2824  -2790  -2658  -2462  -2281  -2137  -2013  -1912  -1828  -1758  -1704  -1624  -1458  -1235  -1064  -987  -951  -906  -847  -794  -754  -706  -645  -603  -631  -760  -946  -1101  -1179  -1191  -1138  -994  -764  -514  -320  -226  -214  -205  -107  103  360  579  724  789  801  814  892  1091  1400  1699  1870  1932  1982  2068  2185  2343  2522  2633  2625  2561  2530  2561  2619  2621  2501  2298  2132  2103  2187  2272  2307  2344  2447  2593  2701  2740  2751  2776  2784  2699  2556  2532  2785  3378  4259  5260  6257  7227  7957  8023  7212  5662  3685  1726  308  -260  -48  624  1319  1716  1855  1964  2134  2301  2396  2422  2420  2414  2385  2306  2198  2119  2091  2088  2085  2095  2158  2297  2472  2628  2760  2885  2975  2975  2895  2803  2760  2857  3151  3503  3720  3782  3787  3799  3825  3862  3896  3890  3819  3715  3634  3585  3529  3455  3356  3140  2709  2156  1702  1424  1220  960  586  156  -234  -589  -948  -1268  -1497  -1648  -1738  -1782  -1829  -1957  -2226  -2587  -2887  -3038  -3086  -3084  -3042  -2963  -2870  -2795  -2755  -2743  -2745  -2767  -2824  -2901  -2958  -2976  -2968  -2959  -2976  -3042  -3135  -3204  -3229  -3229  -3227  -3226  -3211  -3167  -3109  -3072  -3073  -3082  -3035  -2881  -2668  -2509  -2455  -2463  -2483  -2498  -2515  -2563  -2674  -2830  -2971  -3051  -3047  -2905  -2600  -2260  -2099  -2152  -2262  -2323  -2370  -2454  -2553  -2620  -2626  -2563  -2514  -2575  -2707  -2858  -3052  -3277  -3520  -3790  -4005  -4060  -3957  -3789  -3663  -3623  -3634  -3650  -3660  -3697  -3797  -3936  -4024  -4016  -3973  -3983  -4081  -4211  -4294  -4327  -4342  -4319  -4247  -4203  -4252  -4363  -4449  -4476  -4469  -4467  -4477  -4473  -4414  -4305  -4185  -4044  -3833  -3586  -3397  -3287  -3171  -2946  -2538  -1971  -1419  -1059  -862  -664  -385  -65  256  560  823  1036  1181  1239  1225  1183  1154  1162  1215  1316  1442  1535  1555  1490  1354  1201  1098  1068  1115  1250  1427  1547  1538  1411  1301  1400  1703  1999  2296  2888  3932  5277  6505  7061  6629  5342  3593  1776  249  -682  -933  -720  -374  -105  78  299  651  1057  1341  1464  1541  1647  1717  1667  1524  1400  1346  1344  1382  1475  1612  1747  1846  1903  1923  1920  1907  1891  1875  1858  1854  1915  2136  2552  3039  3410  3607  3690  3709  3690  3662  3662  3728  3889  4132  4386  4543  4524  4313  4000  3746  3615  3483  3199  2776  2357  2002  1635  1234  902  692  537  370  188  39  -51  -141  -296  -499  -692  -858  -996  -1090  -1148  -1196  -1234  -1243  -1206  -1138  -1105  -1139  -1190  -1232  -1294  -1358  -1363  -1292  -1195  -1137  -1127  -1130  -1140  -1206  -1369  -1589  -1766  -1863  -1907  -1922  -1928  -1928  -1910  -1881  -1880  -1959  -2133  -2334  -2461  -2492  -2482  -2520  -2672  -2912  -3144  -3296  -3364  -3382  -3385  -3368  -3290  -3152  -3018  -2967  -3023  -3135  -3216  -3200  -3089  -2945  -2872  -2910  -2962  -2919  -2797  -2652  -2413  -1902  -1087  -202  481  914  1249  1610  1957  2224  2470  2777  3087  3278  3325  3295  3248  3222  3260  3403  3622  3823  3941  3987  3988  3934  3790  3570  3361  3244  3224  3253  3283  3307  3336  3345  3236  2921  2494  2172  2043  2026  2004  1938  1917  1996  2063  2028  1951  1902  1876  1841  1797  1761  1744  1738  1747  1802  1934  2115  2270  2370  2438  2476  2439  2269  1941  1539  1214  1021  879  711  528  370  255  166  57  -106  -313  -490  -578  -575  -511  -423  -343  -278  -227  -188  -167  -143  -28  201  479  810  1231  1707  2287  3099  4003  4554  4311  3076  1114  -854  -2183  -2654  -2400  -1800  -1222  -779  -439  -171  103  422  697  827  825  769  715  665  612  563  529  509  498  485  462  436  433  474  553  632  679  697  731  838  1033  1247  1388  1445  1470  1490  1508  1565  1730  2008  2293  2459  2486  2446  2407  2389  2377  2351  2305  2238  2124  1927  1614  1186  751  435  218  -7  -317  -735  -1180  -1506  -1663  -1727  -1788  -1862  -1926  -2005  -2168  -2393  -2562  -2581  -2436  -2173  -1870  -1613  -1467  -1454  -1551  -1701  -1827  -1885  -1892  -1885  -1876  -1853  -1798  -1717  -1668  -1733  -1891  -2035  -2115  -2152  -2168  -2159  -2119  -2058  -2005  -1976  -1959  -1921  -1821  -1676  -1577  -1564  -1606  -1673  -1732  -1754  -1743  -1726  -1727  -1740  -1754  -1787  -1838  -1873  -1865  -1799  -1658  -1437  -1196  -1024  -924  -833  -741  -678  -609  -435  -136  174  364  419  413  401  391  383  380  383  385  382  383  400  439  466  439  367  307  291  295  274  209  141  117  117  94  44  3  -22  -60  -132  -230  -323  -378  -397  -414  -464  -534  -544  -439  -275  -154  -104  -104  -135  -174  -176  -79  160  466  679  735  706  687  698  699  695  742  841  910  891  813  737  677  595  482  369  272  157  -8  -242  -558  -919  -1210  -1348  -1373  -1367  -1363  -1330  -1255  -1182  -1174  -1229  -1289  -1312  -1298  -1260  -1187  -1059  -925  -757  -315  566  1789  3055  3859  3731  2675  1085  -622  -2051  -2968  -3510  -3802  -3745  -3354  -2793  -2145  -1515  -1105  -980  -1017  -1103  -1217  -1366  -1512  -1595  -1596  -1554  -1521  -1507  -1454  -1297  -1076  -910  -844  -815  -766  -701  -657  -646  -654  -652  -610  -496  -299  -71  109  229  342  479  626  768  913  1096  1312  1505  1628  1678  1685  1686  1680  1621  1461  1238  1057  953  880  793  675  507  240  -135  -502  -721  -784  -789  -811  -853  -857  -783  -656  -526  -399  -277  -199  -183  -210  -270  -373  -502  -611  -670  -682  -638  -520  -366  -251  -187  -125  -51  -1  3  -17  -23  32  184  424  671  818  811  667  470  331  291  314  358  407  448  471  471  458  455  495  579  660  697  689  655  610  547  449  301  119  -42  -111  -66  30  74  17  -99  -212  -294  -352  -391  -415  -428  -442  -466  -502  -549  -610  -692  -771  -787  -689  -490  -267  -97  -17  -11  -37  -72  -119  -174  -215  -236  -244  -241  -219  -185  -160  -159  -161  -119  10  203  386  536  682  827  924  947  919  872  826  793  785  801  805  771  733  734  760  778  781  785  804  835  861  874  886  904  921  912  873  842  830  778  618  394  245  222  233  197  107  -12  -124  -168  -91  109  367  624  834  953  1098  1517  2330  3440  4583  5337  5255  4206  2486  558  -1087  -2054  -2312  -2095  -1616  -1091  -711  -483  -277  -48  130  232  316  412  485  500  456  402  424  531  606  585  510  441  441  511  580  609  646  748  901  1036  1139  1261  1418  1556  1635  1669  1705  1792  1953  2179  2425  2624  2748  2813  2844  2853  2851  2845  2841  2852  2873  2842  2641  2210  1690  1291  1027  763  440  92  -258  -582  -829  -973  -1035  -1047  -1034  -1014  -1008  -1045  -1138  -1261  -1356  -1414  -1472  -1535  -1567  -1577  -1611  -1673  -1751  -1834  -1884  -1823  -1595  -1273  -1014  -892  -874  -909  -954  -975  -939  -827  -673  -555  -512  -533  -599  -661  -688  -697  -674  -599  -545  -590  -705  -835  -967  -1081  -1144  -1139  -1029  -774  -432  -165  -50  -32  -41  -52  -60  -66  -75  -110  -187  -302  -434  -559  -660  -722  -737  -717  -668  -575  -426  -255  -129  -67  -40  -38  -88  -203  -355  -495  -590  -642  -676  -724  -796  -876  -907  -853  -753  -666  -609  -577  -561  -561  -606  -720  -854  -910  -868  -790  -722  -675  -655  -663  -684  -687  -651  -590  -544  -524  -496  -412  -250  -60  65  95  60  -31  -204  -413  -554  -588  -558  -501  -437  -371  -293  -195  -98  -47  -80  -191  -370  -593  -793  -916  -997  -1112  -1265  -1388  -1451  -1484  -1508  -1513  -1494  -1457  -1420  -1405  -1460  -1655  -1995  -2306  -2300  -1803  -889  170  1148  1979  2669  3278  3738  3720  3000  1652  -43  -1626  -2656  -2944  -2615  -1962  -1236  -635  -294  -129  61  327  556  664  677  658  640  629  641  698  789  878  954  1030  1103  1162  1191  1168  1079  950  848  821  902  1097  1325  1447  1412  1296  1196  1133  1081  1051  1084  1230  1518  1889  2191  2331  2360  2373  2397  2378  2270  2117  2020  2016  2038  1973  1737  1374  1040  836  710  544  283  -25  -285  -430  -476  -488  -512  -555  -621  -696  -750  -770  -769  -754  -718  -667  -614  -563  -524  -503  -465  -377  -261  -168  -119  -100  -88  -76  -99  -199  -368  -525  -600  -582  -486  -347  -193  -38  90  171  211  228  210  109  -95  -353  -567  -673  -692  -688  -698  -716  -709  -655  -571  -500  -471  -489  -557  -667  -795  -917  -1011  -1070  -1103  -1118  -1093  -1001  -863  -752  -712  -730  -780  -840  -902  -964  -994  -969  -924  -893  -864  -802  -705  -609  -563  -618  -809  -1084  -1333  -1512  -1648  -1749  -1796  -1775  -1684  -1528  -1349  -1208  -1085  -912  -738  -672  -713  -785  -839  -866  -872  -879  -893  -899  -882  -869  -893  -949  -1008  -1052  -1071  -1049  -965  -827  -688  -606  -584  -588  -597  -624  -715  -897  -1131  -1358  -1577  -1835  -2165  -2520  -2800  -2950  -3003  -3024  -3092  -3277  -3559  -3834  -4018  -4079  -4013  -3852  -3640  -3449  -3404  -3596  -3914  -3987  -3496  -2516  -1316  -94  951  1593  1626  934  -373  -1985  -3473  -4442  -4796  -4736  -4482  -4179  -3824  -3296  -2664  -2203  -2006  -1896  -1697  -1415  -1175  -1058  -1019  -985  -933  -878  -814  -710  -545  -345  -168  -45  31  68  90  156  337  696  1262  1946  2544  2927  3112  3182  3254  3489  3961  4507  4873  4993  5003  5039  5141  5310  5529  5753  5917  5976  5918  5765  5563  5356  5189  5081  4988  4838  4637  4462  4346  4261  4194  4147  4107  4054  3981  3871  3705  3482  3234  3018  2889  2850  2855  2873  2903  2946  2973  2952  2878  2777  2684  2638  2669  2794  2971  3110  3153  3070  2848  2549  2297  2159  2119  2109  2054  1958  1875  1794  1645  1437  1268  1193  1186  1200  1211  1214  1213  1213  1216  1221  1226  1229  1228  1215  1173  1099  1003  887  742  614  567  590  633  693  823  1059  1336  1542  1649  1693  1695  1637  1508  1383  1379  1488  1571  1530  1404  1282  1190  1084  944  799  683  611  590  625  694  734  707  653  624  624  637  645  627  555  435  288  129  -27  -155  -234  -258  -228  -173  -124  -109  -154  -227  -268  -292  -358  -511  -783  -1158  -1555  -1878  -2084  -2204  -2298  -2399  -2503  -2617  -2785  -3010  -3203  -3285  -3262  -3204  -3169  -3169  -3214  -3336  -3507  -3575  -3353  -2834  -2174  -1442  -610  409  1571  2411  2369  1340  -328  -2095  -3378  -3956  -4100  -4026  -3724  -3250  -2696  -2096  -1512  -1050  -781  -687  -676  -654  -587  -495  -377  -189  45  236  359  468  558  580  567  643  893  1260  1579  1737  1757  1724  1697  1703  1765  1917  2161  2421  2616  2752  2876  2987  3077  3175  3294  3407  3485  3527  3531  3486  3393  3258  3051  2717  2277  1829  1459  1221  1121  1064  913  588  152  -230  -457  -552  -605  -694  -822  -948  -1049  -1134  -1218  -1303  -1371  -1392  -1354  -1287  -1231  -1197  -1174  -1144  -1105  -1092  -1135  -1209  -1281  -1342  -1400  -1501  -1704  -1973  -2195  -2316  -2355  -2347  -2335  -2377  -2506  -2686  -2868  -3062  -3266  -3427  -3509  -3552  -3664  -3945  -4361  -4756  -5034  -5212  -5351  -5515  -5703  -5844  -5917  -5979  -6061  -6124  -6121  -6060  -5991  -5979  -6052  -6152  -6194  -6140  -5980  -5735  -5437  -5105  -4793  -4584  -4497  -4474  -4446  -4370  -4249  -4129  -4039  -3975  -3957  -3971  -3949  -3840  -3615  -3287  -2939  -2652  -2419  -2180  -1904  -1634  -1408  -1156  -766  -254  240  638  951  1192  1363  1498  1661  1885  2179  2575  3018  3378  3626  3826  3984  4071  4111  4202  4453  4876  5267  5345  5117  4847  4694  4642  4630  4603  4519  4344  4072  3760  3515  3404  3404  3468  3574  3681  3726  3691  3600  3481  3340  3146  2984  3125  3580  3912  3950  4089  4623  5511  6602  7472  7457  6291  4365  2290  525  -548  -728  -259  476  1310  2022  2330  2255  2032  1825  1711  1695  1720  1723  1648  1486  1325  1249  1217  1177  1153  1181  1260  1338  1372  1373  1380  1415  1472  1519  1537  1533  1533  1577  1694  1856  2004  2134  2267  2379  2430  2415  2382  2383  2410  2418  2386  2316  2208  2046  1830  1577  1304  1044  853  741  590  177  -568  -1363  -1850  -1979  -1928  -1835  -1750  -1714  -1775  -1948  -2186  -2397  -2530  -2620  -2735  -2858  -2916  -2896  -2836  -2761  -2694  -2672  -2718  -2828  -2944  -3008  -3029  -3045  -3067  -3081  -3074  -3075  -3136  -3277  -3495  -3766  -4019  -4180  -4236  -4245  -4325  -4551  -4854  -5094  -5209  -5272  -5377  -5509  -5589  -5586  -5528  -5465  -5427  -5414  -5426  -5494  -5652  -5859  -6020  -6086  -6087  -6071  -6079  -6115  -6129  -6060  -5903  -5707  -5497  -5260  -4998  -4750  -4561  -4430  -4297  -4113  -3897  -3677  -3434  -3148  -2847  -2591  -2434  -2371  -2354  -2344  -2307  -2221  -2112  -2021  -1963  -1910  -1823  -1676  -1478  -1248  -990  -721  -502  -358  -237  -51  244  645  1120  1586  1938  2168  2356  2554  2793  3093  3417  3700  3889  3936  3812  3563  3267  2952  2627  2337  2111  1942  1827  1762  1726  1712  1743  1839  1969  2068  2124  2165  2180  2164  2229  2464  2764  3085  3616  4435  5333  6106  6624  6643  5960  4679  3070  1386  -95  -1209  -1944  -2191  -1948  -1587  -1388  -1251  -1094  -973  -889  -816  -763  -735  -726  -741  -798  -902  -1030  -1158  -1275  -1362  -1360  -1200  -850  -336  293  982  1635  2160  2539  2828  3087  3333  3592  3898  4215  4469  4652  4834  5060  5292  5489  5668  5851  6009  6122  6213  6323  6449  6529  6483  6319  6135  5994  5857  5696  5546  5415  5256  5019  4733  4485  4320  4212  4106  3946  3725  3516  3397  3372  3386  3378  3306  3176  3040  2927  2802  2627  2435  2282  2160  2037  1885  1680  1450  1259  1106  954  794  651  525  383  212  33  -130  -264  -378  -510  -668  -805  -887  -917  -913  -883  -828  -734  -589  -423  -295  -234  -238  -343  -595  -927  -1181  -1295  -1330  -1376  -1526  -1833  -2213  -2509  -2664  -2738  -2797  -2830  -2801  -2707  -2548  -2331  -2107  -1927  -1793  -1687  -1605  -1543  -1493  -1432  -1339  -1229  -1156  -1155  -1226  -1331  -1420  -1473  -1500  -1515  -1515  -1500  -1474  -1418  -1296  -1133  -1006  -942  -897  -836  -809  -922  -1210  -1536  -1675  -1557  -1337  -1176  -1062  -889  -649  -451  -365  -372  -415  -447  -459  -477  -550  -709  -902  -1036  -1079  -1072  -1055  -1049  -1087  -1203  -1374  -1533  -1657  -1792  -1946  -2036  -2039  -1983  -1795  -1475  -1094  -595  111  1022  1928  2362  1983  774  -1038  -2876  -4093  -4503  -4300  -3783  -3226  -2770  -2416  -2057  -1609  -1186  -947  -885  -892  -906  -932  -951  -858  -554  -129  196  336  391  457  543  647  823  1098  1381  1557  1634  1695  1756  1777  1781  1817  1863  1846  1751  1677  1757  1983  2197  2300  2351  2463  2660  2873  3031  3119  3178  3260  3390  3506  3503  3383  3251  3182  3166  3170  3178  3193  3219  3247  3247  3175  3020  2846  2730  2694  2707  2747  2813  2918  3052  3140  3119  3038  2970  2934  2924  2931  2950  2978  3014  3053  3076  3033  2878  2639  2403  2220  2060  1853  1601  1407  1329  1304  1248  1078  716  194  -348  -794  -1158  -1561  -2048  -2508  -2837  -3043  -3168  -3245  -3316  -3417  -3573  -3805  -4112  -4426  -4647  -4739  -4750  -4739  -4730  -4722  -4720  -4750  -4834  -4934  -4941  -4772  -4487  -4217  -4012  -3853  -3750  -3704  -3679  -3606  -3397  -3050  -2706  -2508  -2448  -2412  -2318  -2171  -2030  -1940  -1901  -1889  -1884  -1872  -1851  -1820  -1776  -1721  -1668  -1642  -1643  -1654  -1661  -1663  -1643  -1578  -1473  -1363  -1269  -1194  -1150  -1165  -1255  -1386  -1482  -1499  -1446  -1336  -1193  -1055  -954  -913  -930  -963  -1002  -1064  -1138  -1202  -1239  -1264  -1340  -1523  -1771  -1987  -2118  -2178  -2202  -2241  -2343  -2496  -2634  -2717  -2736  -2678  -2546  -2454  -2544  -2674  -2448  -1688  -553  679  1752  2541  2916  2648  1680  205  -1446  -2882  -3924  -4599  -4806  -4507  -3903  -3127  -2316  -1755  -1555  -1552  -1564  -1493  -1158  -292  1122  2800  4450  5796  6571  6770  6665  6515  6388  6166  5708  5049  4411  3994  3811  3732  3653  3566  3507  3494  3501  3484  3402  3233  3032  2907  2882  2892  2887  2875  2883  2893  2841  2664  2384  2108  1915  1755  1471  976  413  14  -181  -354  -688  -1140  -1496  -1692  -1913  -2344  -2906  -3342  -3540  -3620  -3724  -3876  -4032  -4192  -4392  -4614  -4781  -4875  -4925  -4947  -4944  -4933  -4938  -4974  -5038  -5138  -5321  -5612  -5933  -6151  -6219  -6160  -5961  -5564  -4992  -4411  -3948  -3517  -3004  -2521  -2249  -2185  -2165  -2048  -1803  -1487  -1160  -823  -435  3  413  708  900  1063  1253  1493  1820  2223  2613  2913  3098  3183  3239  3346  3510  3673  3814  3997  4270  4584  4859  5083  5290  5470  5570  5582  5551  5506  5441  5368  5321  5307  5310  5314  5314  5311  5311  5326  5363  5408  5419  5349  5176  4895  4513  4095  3774  3630  3614  3603  3502  3311  3097  2909  2709  2404  1992  1597  1337  1237  1252  1294  1278  1224  1235  1332  1426  1460  1457  1459  1491  1545  1594  1608  1537  1330  1037  787  643  574  535  507  475  413  301  119  -167  -538  -919  -1261  -1562  -1857  -2205  -2630  -3036  -3234  -3095  -2642  -1978  -1239  -561  -21  249  -20  -1025  -2611  -4410  -6100  -7377  -8052  -8223  -8021  -7463  -6793  -6389  -6311  -6360  -6400  -6412  -6418  -6430  -6423  -6346  -6191  -5997  -5803  -5628  -5430  -5103  -4629  -4162  -3853  -3700  -3597  -3463  -3291  -3126  -2990  -2875  -2746  -2533  -2102  -1362  -452  312  748  928  1070  1458  2251  3213  3899  4154  4181  4207  4303  4433  4586  4758  4871  4811  4548  4155  3725  3294  2884  2536  2232  1937  1678  1477  1315  1194  1138  1133  1114  1019  857  705  629  629  672  729  792  873  959  1018  1048  1072  1118  1208  1349  1554  1793  1958  2003  2008  2013  1970  1840  1620  1362  1166  1072  1047  1054  1080  1140  1261  1437  1607  1678  1622  1533  1501  1521  1558  1605  1645  1638  1544  1373  1184  1021  858  656  437  268  201  235  339  515  778  1016  1019  746  364  53  -109  -146  -125  -83  -22  37  47  -30  -202  -413  -567  -618  -597  -556  -527  -509  -475  -414  -316  -110  252  675  1003  1250  1557  1975  2399  2687  2798  2806  2799  2808  2824  2839  2859  2868  2804  2609  2333  2115  2013  1963  1876  1692  1420  1121  851  657  556  488  361  91  -385  -1022  -1599  -1934  -2051  -2055  -2007  -1947  -1894  -1836  -1772  -1713  -1629  -1451  -1138  -771  -517  -414  -303  -59  367  1118  2305  3765  5150  6108  6304  5564  4059  2209  450  -835  -1429  -1356  -840  -285  50  308  588  749  737  626  430  111  -264  -523  -603  -584  -564  -586  -649  -727  -797  -849  -878  -888  -892  -896  -893  -871  -831  -780  -727  -679  -643  -622  -611  -594  -566  -529  -495  -477  -479  -491  -507  -523  -549  -611  -745  -993  -1365  -1800  -2225  -2598  -2878  -3035  -3088  -3097  -3121  -3181  -3231  -3209  -3081  -2823  -2454  -2085  -1809  -1580  -1278  -850  -332  235  798  1289  1769  2361  2970  3298  3214  2911  2652  2490  2324  2130  1997  1961  1936  1811  1558  1232  863  418  -71  -470  -699  -824  -932  -1051  -1211  -1453  -1747  -1980  -2074  -2058  -2017  -1995  -1980  -1966  -1954  -1942  -1927  -1913  -1932  -2058  -2368  -2832  -3323  -3758  -4126  -4435  -4749  -5125  -5524  -5862  -6085  -6182  -6173  -6110  -6043  -5979  -5897  -5785  -5643  -5472  -5254  -4969  -4661  -4427  -4284  -4145  -3933  -3660  -3373  -3069  -2722  -2334  -1916  -1468  -1051  -747  -550  -393  -234  -49  223  651  1178  1629  1909  2073  2184  2258  2305  2352  2446  2611  2804  2937  2987  3002  3020  3035  3037  3035  3044  3050  2959  2661  2204  1789  1536  1417  1373  1372  1368  1278  1018  574  58  -351  -557  -616  -646  -702  -786  -906  -1043  -1144  -1181  -1179  -1174  -1192  -1256  -1377  -1543  -1720  -1856  -1896  -1847  -1759  -1658  -1505  -1226  -802  -255  474  1452  2594  3739  4702  5185  4892  3867  2495  1150  60  -552  -583  -156  552  1310  1831  2085  2303  2586  2822  2932  2951  2941  2927  2908  2872  2795  2625  2330  1985  1735  1621  1569  1524  1490  1471  1461  1468  1532  1680  1868  2012  2089  2167  2322  2536  2734  2903  3096  3321  3531  3711  3884  4061  4213  4291  4293  4263  4229  4206  4192  4161  4073  3908  3631  3200  2698  2309  2103  1999  1922  1840  1718  1520  1255  980  725  469  212  14  -93  -166  -264  -390  -510  -620  -732  -829  -902  -973  -1052  -1134  -1215  -1282  -1330  -1361  -1375  -1378  -1362  -1299  -1189  -1057  -916  -796  -731  -714  -710  -685  -642  -631  -651  -621  -513  -405  -343  -294  -237  -193  -186  -211  -249  -279  -292  -294  -292  -299  -327  -378  -419  -416  -390  -380  -386  -356  -250  -139  -156  -305  -448  -503  -508  -523  -559  -568  -546  -568  -674  -822  -967  -1086  -1157  -1170  -1148  -1162  -1306  -1610  -1991  -2333  -2568  -2693  -2755  -2805  -2847  -2869  -2904  -3012  -3199  -3427  -3667  -3879  -4003  -4030  -4018  -4029  -4088  -4179  -4260  -4320  -4365  -4383  -4354  -4301  -4270  -4310  -4451  -4639  -4770  -4811  -4813  -4823  -4846  -4870  -4888  -4895  -4879  -4858  -4902  -5093  -5392  -5650  -5776  -5785  -5701  -5532  -5309  -5074  -4851  -4650  -4559  -4650  -4788  -4791  -4523  -3839  -2777  -1464  2  1194  1533  844  -678  -2603  -4313  -5379  -5861  -6021  -5904  -5440  -4735  -3987  -3329  -2847  -2547  -2345  -2166  -2009  -1904  -1818  -1613  -1148  -465  205  676  942  1095  1267  1618  2207  2865  3369  3701  4019  4438  4920  5363  5724  6061  6463  6912  7259  7413  7442  7491  7701  8116  8612  8987  9125  9048  8833  8531  8165  7776  7395  7053  6791  6611  6481  6354  6146  5825  5482  5207  4984  4761  4552  4429  4385  4325  4224  4163  4221  4424  4703  4935  5058  5090  5057  4967  4846  4733  4626  4495  4360  4269  4222  4154  3991  3714  3400  3166  3044  2965  2878  2807  2820  2991  3321  3673  3895  3955  3902  3780  3629  3505  3438  3409  3387  3355  3325  3343  3459  3679  3921  4087  4141  4123  4091  4078  4087  4096  4043  3865  3585  3305  3080  2881  2649  2341  1960  1543  1114  691  210  -501  -1455  -2373  -3015  -3398  -3679  -3958  -4219  -4429  -4609  -4838  -5212  -5758  -6337  -6744  -6954  -7121  -7372  -7756  -8303  -8936  -9438  -9630  -9471  -9018  -8416  -7852  -7471  -7315  -7354  -7540  -7787  -7975  -8055  -8069  -8053  -7947  -7565  -6719  -5476  -4168  -3089  -2313  -1713  -1108  -421  287  918  1455  1969  2495  2968  3319  3607  3918  4213  4409  4507  4517  4314  3724  2836  2030  1568  1380  1299  1274  1317  1403  1508  1646  1802  1822  1351  123  -1547  -2954  -3722  -3967  -3946  -3814  -3595  -3269  -2890  -2581  -2402  -2291  -2176  -2057  -1956  -1823  -1579  -1224  -822  -418  -60  186  316  396  491  635  843  1122  1452  1798  2180  2620  3037  3306  3407  3407  3368  3324  3272  3180  3063  2993  3034  3211  3534  4012  4674  5484  6265  6901  7489  8053  8376  8324  7996  7532  7037  6558  6048  5422  4645  3792  3004  2334  1717  1083  429  -185  -658  -879  -863  -710  -471  -153  216  587  921  1224  1486  1653  1721  1734  1685  1532  1285  1031  823  613  339  32  -195  -249  -154  -26  57  98  118  94  -53  -422  -1015  -1690  -2271  -2683  -2931  -3071  -3194  -3341  -3479  -3584  -3677  -3780  -3873  -3935  -4044  -4392  -5085  -5926  -6602  -7066  -7499  -7941  -8238  -8291  -8177  -8034  -7915  -7708  -7229  -6448  -5498  -4517  -3644  -3032  -2691  -2457  -2178  -1883  -1686  -1630  -1696  -1867  -2085  -2278  -2467  -2732  -3055  -3340  -3562  -3774  -4001  -4219  -4416  -4628  -4910  -5231  -5470  -5570  -5597  -5643  -5757  -5932  -6120  -6279  -6454  -6729  -7051  -7212  -7089  -6780  -6430  -6036  -5535  -4932  -4310  -3790  -3438  -3230  -3116  -3061  -3051  -3122  -3327  -3618  -3836  -3880  -3789  -3648  -3421  -2908  -1991  -875  107  823  1296  1578  1758  1900  2005  2098  2199  2304  2515  2962  3751  5001  6548  7795  8134  7359  5692  3679  1931  787  211  6  61  337  728  1115  1482  1839  2074  2000  1628  1216  949  673  71  -890  -1841  -2429  -2664  -2801  -3071  -3500  -3907  -4127  -4156  -4092  -4016  -3971  -3960  -3966  -3971  -3958  -3912  -3837  -3755  -3675  -3611  -3559  -3443  -3139  -2616  -2000  -1484  -1147  -892  -579  -163  309  734  1044  1274  1484  1678  1806  1840  1811  1761  1703  1645  1614  1631  1684  1747  1796  1817  1818  1832  1895  2013  2192  2460  2797  3108  3336  3503  3632  3731  3870  4136  4453  4589  4384  3949  3598  3497  3550  3663  3837  4056  4303  4562  4809  5028  5216  5394  5592  5789  5957  6119  6306  6546  6833  7058  7138  7114  7032  6907  6786  6707  6650  6580  6484  6381  6293  6226  6185  6177  6216  6326  6515  6715  6802  6708  6508  6337  6260  6262  6338  6510  6780  7080  7299  7399  7432  7418  7279  6932  6464  6097  5945  5950  6006  6046  6050  6022  5980  5941  5907  5853  5724  5408  4812  4050  3428  3123  3043  3016  2968  2924  2910  2918  2933  2937  2865  2646  2294  1919  1627  1463  1411  1429  1479  1538  1583  1594  1545  1410  1194  943  675  342  -94  -574  -974  -1249  -1511  -1905  -2406  -2835  -3103  -3351  -3774  -4370  -4876  -5053  -4916  -4438  -3489  -2246  -1079  -272  -247  -1323  -3261  -5471  -7327  -8393  -8641  -8330  -7688  -6839  -5930  -5106  -4434  -3944  -3624  -3412  -3254  -3141  -3085  -3076  -3080  -3070  -3047  -3027  -3012  -2997  -2991  -3034  -3159  -3332  -3468  -3536  -3561  -3530  -3360  -3015  -2597  -2254  -2023  -1821  -1575  -1296  -1057  -909  -835  -788  -746  -691  -598  -461  -278  -26  300  654  992  1319  1652  1954  2157  2243  2253  2176  1955  1612  1239  873  497  130  -257  -778  -1450  -2107  -2578  -2855  -3045  -3233  -3434  -3636  -3861  -4144  -4517  -4958  -5352  -5585  -5642  -5566  -5395  -5193  -5039  -4962  -4923  -4866  -4770  -4654  -4542  -4446  -4376  -4335  -4322  -4312  -4263  -4149  -4000  -3871  -3753  -3564  -3299  -3073  -2954  -2898  -2876  -2887  -2919  -2939  -2902  -2780  -2575  -2314  -2033  -1778  -1588  -1478  -1438  -1425  -1362  -1187  -941  -732  -602  -536  -528  -585  -690  -763  -730  -620  -523  -482  -486  -540  -661  -820  -939  -985  -985  -965  -929  -883  -846  -815  -770  -714  -675  -662  -657  -653  -675  -763  -932  -1149  -1344  -1439  -1406  -1290  -1149  -1003  -856  -732  -665  -669  -732  -820  -891  -938  -970  -987  -987  -985  -1018  -1121  -1272  -1392  -1416  -1318  -1105  -840  -618  -497  -479  -535  -631  -737  -819  -810  -635  -278  247  990  1994  3201  4416  5310  5542  4961  3742  2282  942  -19  -438  -341  107  724  1284  1652  1918  2228  2568  2813  2916  2931  2922  2924  2934  2912  2803  2609  2417  2311  2291  2305  2325  2344  2348  2279  2082  1767  1416  1116  931  898  1002  1161  1276  1312  1305  1284  1247  1193  1150  1146  1180  1215  1197  1069  789  392  17  -199  -253  -237  -266  -448  -817  -1265  -1659  -1991  -2315  -2621  -2854  -3029  -3181  -3294  -3360  -3397  -3411  -3401  -3381  -3372  -3379  -3367  -3281  -3108  -2917  -2802  -2782  -2806  -2831  -2847  -2857  -2841  -2757  -2589  -2377  -2181  -2071  -2095  -2195  -2255  -2230  -2143  -2036  -1942  -1870  -1821  -1789  -1744  -1622  -1383  -1061  -757  -553  -409  -141  408  1141  1784  2218  2551  2895  3242  3515  3687  3819  3969  4127  4241  4286  4282  4270  4293  4408  4666  5008  5250  5252  5021  4675  4364  4141  3943  3736  3547  3391  3282  3233  3236  3250  3204  3046  2770  2380  1925  1532  1315  1257  1249  1206  1107  994  925  913  922  941  1001  1125  1273  1380  1439  1529  1724  1997  2233  2380  2499  2631  2736  2784  2813  2880  2990  3084  3109  3071  3001  2914  2793  2591  2273  1842  1380  1014  781  618  479  382  331  256  70  -243  -642  -1046  -1356  -1521  -1571  -1524  -1380  -1247  -1243  -1356  -1552  -1762  -1759  -1330  -490  549  1452  1780  1223  -121  -1858  -3523  -4707  -5225  -5208  -4892  -4401  -3854  -3438  -3201  -3038  -2867  -2662  -2417  -2189  -2054  -2020  -2035  -2060  -2082  -2092  -2079  -2042  -1991  -1928  -1849  -1766  -1683  -1589  -1469  -1310  -1139  -1002  -898  -784  -606  -325  -11  208  313  385  495  650  827  1008  1156  1240  1291  1399  1624  1905  2121  2228  2273  2305  2329  2315  2227  2055  1829  1607  1421  1250  1082  967  951  1017  1110  1176  1193  1176  1140  1071  937  747  564  445  392  379  384  389  389  385  367  310  200  48  -112  -264  -424  -597  -742  -822  -845  -849  -860  -875  -880  -889  -938  -1054  -1208  -1336  -1425  -1536  -1726  -1951  -2098  -2121  -2087  -2059  -2044  -2022  -1988  -1959  -1952  -1979  -2035  -2090  -2133  -2189  -2290  -2444  -2601  -2648  -2523  -2261  -1979  -1793  -1728  -1719  -1708  -1668  -1588  -1468  -1332  -1218  -1148  -1074  -918  -683  -455  -302  -225  -180  -124  -48  27  80  99  93  71  50  38  33  22  10  31  138  319  491  610  696  749  784  863  1027  1261  1501  1656  1681  1616  1559  1572  1621  1651  1668  1707  1783  1878  1962  2013  2035  2045  2049  2024  1929  1749  1525  1332  1226  1205  1230  1262  1276  1282  1309  1360  1406  1443  1481  1477  1296  881  541  698  1223  1643  1853  2086  2598  3609  5087  6524  7189  6715  5270  3275  1272  -174  -802  -723  -158  659  1396  1797  1929  2033  2250  2552  2814  2942  2931  2841  2752  2725  2734  2726  2689  2614  2460  2222  1979  1818  1755  1745  1742  1721  1680  1642  1638  1664  1701  1757  1872  2098  2457  2865  3163  3284  3262  3147  3012  2930  2903  2882  2827  2727  2564  2321  2057  1857  1701  1500  1229  929  620  296  -64  -466  -853  -1151  -1349  -1486  -1590  -1664  -1713  -1764  -1842  -1925  -1967  -1964  -1947  -1945  -1963  -2007  -2096  -2218  -2335  -2435  -2511  -2535  -2511  -2465  -2409  -2353  -2315  -2307  -2348  -2465  -2684  -2972  -3222  -3367  -3444  -3501  -3536  -3550  -3610  -3799  -4107  -4407  -4618  -4778  -4910  -4990  -5040  -5101  -5154  -5156  -5089  -4978  -4874  -4811  -4796  -4852  -5012  -5234  -5390  -5364  -5135  -4813  -4559  -4401  -4246  -4064  -3918  -3830  -3756  -3678  -3603  -3519  -3417  -3294  -3172  -3095  -3061  -3024  -2959  -2854  -2713  -2567  -2451  -2351  -2189  -1912  -1578  -1304  -1158  -1118  -1104  -1021  -787  -398  39  426  770  1088  1321  1434  1491  1603  1820  2110  2419  2706  2948  3153  3318  3410  3430  3423  3432  3470  3493  3437  3274  3045  2835  2724  2703  2663  2492  2214  1975  1864  1837  1850  1925  2037  2030  1817  1561  1417  1397  1667  2428  3577  4851  5918  6272  5527  3831  1772  -36  -1323  -2114  -2479  -2523  -2335  -1855  -1106  -366  83  235  250  254  288  334  372  418  491  553  558  486  346  196  105  60  -11  -157  -355  -537  -645  -677  -677  -666  -617  -500  -332  -145  79  386  734  1010  1167  1261  1343  1416  1469  1497  1506  1499  1466  1400  1305  1181  1020  831  599  203  -443  -1181  -1728  -1996  -2106  -2192  -2317  -2485  -2665  -2823  -2982  -3228  -3592  -3982  -4305  -4549  -4715  -4794  -4814  -4845  -4936  -5056  -5139  -5170  -5177  -5176  -5153  -5087  -4994  -4930  -4955  -5104  -5342  -5587  -5790  -5948  -6034  -5932  -5532  -4948  -4468  -4203  -4012  -3774  -3493  -3199  -2924  -2730  -2649  -2644  -2649  -2627  -2568  -2438  -2181  -1832  -1529  -1359  -1314  -1355  -1442  -1529  -1585  -1617  -1651  -1692  -1757  -1872  -2004  -2072  -2048  -1977  -1918  -1874  -1802  -1677  -1543  -1461  -1437  -1425  -1398  -1379  -1402  -1464  -1536  -1595  -1645  -1703  -1754  -1803  -1915  -2133  -2380  -2538  -2576  -2552  -2531  -2564  -2685  -2854  -2976  -3000  -2948  -2867  -2794  -2716  -2583  -2366  -2092  -1819  -1585  -1393  -1239  -1123  -1070  -1064  -1033  -959  -917  -958  -1025  -1029  -978  -957  -1010  -1123  -1286  -1468  -1621  -1782  -2045  -2426  -2850  -3224  -3490  -3649  -3761  -3896  -4093  -4417  -4877  -5294  -5454  -5208  -4517  -3545  -2514  -1642  -1239  -1565  -2681  -4440  -6416  -8081  -9175  -9724  -9808  -9468  -8797  -8009  -7365  -7026  -6951  -7001  -7082  -7162  -7219  -7261  -7309  -7369  -7428  -7465  -7426  -7223  -6838  -6372  -5900  -5385  -4845  -4411  -4161  -4055  -3990  -3820  -3423  -2846  -2291  -1875  -1512  -1094  -618  -115  400  857  1147  1288  1422  1693  2178  2813  3399  3771  3919  3941  3939  3976  4111  4356  4622  4791  4841  4817  4734  4593  4419  4236  4045  3874  3782  3860  4180  4686  5241  5804  6353  6779  7038  7256  7596  8096  8684  9296  9870  10337  10697  11009  11340  11771  12349  12996  13531  13814  13831  13683  13496  13347  13265  13239  13242  13266  13320  13398  13452  13430  13317  13118  12831  12446  11940  11264  10413  9457  8432  7389  6511  5917  5507  5128  4742  4391  4101  3862  3676  3569  3529  3472  3249  2735  1974]
