reading_id,reading_time,wire_id,result_classification,heart_rate,heart_rate_alert,firmware_version,device_app_version,hardware_version,waveform_samples
77d05000-50a5-11ed-8080-808080808080,Thu Oct 20 18:31:52 UTC 2022,e100e35f1c39,NSR,58,NONE,20001.171.50,2.10.0,Charge 5,[0  -94  -497  -1290  -2280  -3184  -3840  -4290  -4754  -5387  -6069  -6596  -6979  -7337  -7697  -7987  -8081  -7851  -7316  -6719  -6331  -6205  -6222  -6288  -6394  -6533  -6658  -6731  -6765  -6800  -6869  -6968  -7068  -7141  -7182  -7203  -7220  -7245  -7320  -7520  -7853  -8196  -8425  -8547  -8660  -8831  -9057  -9302  -9569  -9931  -10468  -11140  -11792  -12307  -12666  -12881  -12976  -13004  -13030  -13138  -13385  -13695  -13882  -13853  -13689  -13536  -13429  -13165  -12334  -10676  -8473  -6356  -4747  -3721  -3198  -3012  -2963  -2916  -2820  -2687  -2545  -2413  -2359  -2458  -2689  -2934  -3092  -3190  -3337  -3609  -3956  -4134  -3813  -2892  -1613  -437  184  13  -778  -1620  -1960  -1617  -737  384  1233  1283  651  -54  -486  -686  -797  -916  -1060  -1194  -1288  -1356  -1421  -1453  -1392  -1241  -1060  -902  -771  -683  -714  -901  -1179  -1462  -1688  -1820  -1855  -1848  -1891  -1996  -2089  -2138  -2146  -2133  -2142  -2185  -2207  -2130  -1915  -1628  -1386  -1261  -1267  -1384  -1565  -1756  -1907  -1983  -1973  -1894  -1795  -1722  -1694  -1698  -1708  -1714  -1723  -1766  -1884  -2079  -2283  -2380  -2325  -2201  -2085  -1908  -1423  -319  1432  3327  4673  5223  5269  5170  5009  4615  3871  2994  2372  2160  2292  2719  3356  3960  4294  4286  3974  3470  2914  2363  1838  1419  1159  1031  1002  1093  1342  1694  2012  2214  2313  2347  2339  2279  2154  2006  1907  1884  1891  1837  1664  1415  1213  1140  1182  1280  1374  1432  1456  1457  1411  1289  1126  1006  960  949  938  925  913  905  908  938  1007  1090  1165  1354  2003  3494  5787  8120  9551  9832  9401  8786  8319  8092  8033  7999  7852  7550  7178  6825  6508  6192  5825  5385  4889  4358  3790  3171  2565  2131  1946  1908  1858  1700  1441  1169  992  947  991  1049  1026  821  442  58  -157  -159  -6  199  340  340  198  -14  -198  -304  -347  -351  -317  -245  -164  -110  -83  -65  -51  -52  -78  -138  -235  -362  -492  -571  -537  -365  -26  565  1409  2256  2802  3007  3048  3061  3068  3062  3054  3053  3040  2952  2716  2370  2062  1899  1863  1908  2026  2192  2322  2301  2050  1638  1253  1005  877  827  804  749  626  449  281  197  215  279  340  392  428  423  359  235  63  -128  -290  -376  -394  -386  -387  -409  -446  -480  -504  -520  -529  -529  -516  -496  -489  -520  -605  -724  -804  -796  -731  -664  -608  -568  -556  -576  -621  -656  -660  -653  -665  -692  -707  -705  -711  -740  -772  -791  -795  -788  -768  -716  -618  -500  -418  -385  -372  -357  -332  -265  -96  167  427  597  660  638  539  310  -93  -618  -1126  -1476  -1606  -1567  -1461  -1374  -1342  -1356  -1384  -1406  -1447  -1532  -1637  -1702  -1714  -1756  -1899  -1950  -1577  -798  46  802  1506  2038  2141  1673  588  -1035  -2799  -4194  -4943  -5000  -4510  -3770  -3082  -2655  -2501  -2443  -2332  -2163  -1985  -1819  -1658  -1497  -1347  -1237  -1196  -1223  -1278  -1324  -1332  -1230  -949  -569  -288  -191  -201  -234  -257  -269  -286  -343  -440  -494  -425  -258  -63  182  562  1041  1438  1639  1707  1752  1822  1925  2072  2279  2557  2902  3284  3657  3951  4116  4170  4173  4148  4063  3894  3656  3395  3165  3010  2929  2876  2800  2685  2528  2270  1849  1310  775  350  83  -56  -128  -175  -210  -256  -348  -490  -637  -750  -839  -934  -1050  -1170  -1254  -1291  -1294  -1278  -1249  -1207  -1169  -1154  -1171  -1212  -1256  -1297  -1347  -1397  -1428  -1456  -1506  -1554  -1529  -1407  -1246  -1086  -836  -371  232  709  932  1019  1098  1166  1167  1091  993  934  927  935  905  805  672  570  481  329  125  -18  -43  11  78  111  106  86  68  53  38  10  -41  -101  -140  -151  -150  -147  -148  -159  -188  -222  -237  -223  -204  -208  -249  -337  -452  -549  -597  -591  -538  -473  -448  -472  -493  -477  -459  -482  -515  -521  -524  -573  -650  -690  -669  -637  -651  -710  -798  -892  -960  -984  -959  -865  -685  -456  -263  -168  -175  -242  -308  -346  -383  -454  -561  -673  -756  -795  -798  -802  -847  -936  -1027  -1069  -1060  -1036  -1019  -997  -1001  -1095  -1262  -1399  -1441  -1405  -1346  -1314  -1315  -1327  -1335  -1336  -1329  -1315  -1300  -1288  -1256  -1178  -1057  -910  -742  -578  -473  -451  -496  -586  -667  -598  -180  599  1413  1901  2030  1981  1838  1550  1124  723  477  350  271  234  220  180  71  -102  -274  -371  -397  -377  -315  -309  -450  -565  -318  446  1564  2685  3366  3193  2151  678  -794  -2041  -2937  -3479  -3752  -3780  -3458  -2791  -2107  -1708  -1543  -1424  -1292  -1196  -1166  -1179  -1207  -1223  -1175  -1011  -769  -569  -484  -494  -544  -586  -585  -545  -509  -507  -532  -546  -507  -411  -295  -215  -191  -207  -210  -59  444  1320  2318  3139  3633  3830  3868  3897  4002  4188  4424  4691  4975  5295  5681  6078  6356  6454  6408  6258  6034  5798  5586  5329  4948  4492  4102  3859  3705  3502  3172  2764  2404  2165  2002  1825  1562  1189  804  552  457  426  372  276  173  83  -1  -77  -134  -177  -216  -249  -273  -285  -289  -287  -285  -281  -278  -281  -303  -347  -397  -425  -422  -416  -457  -550  -627  -621  -535  -436  -429  -545  -663  -681  -637  -625  -692  -784  -825  -829  -837  -866  -923  -992  -1036  -1034  -993  -945  -914  -903  -907  -935  -994  -1069  -1118  -1109  -1027  -897  -783  -730  -740  -795  -864  -913  -929  -924  -907  -878  -844  -820  -812  -818  -828  -837  -843  -849  -865  -890  -919  -949  -983  -1024  -1077  -1135  -1168  -1166  -1168  -1186  -1194  -1169  -1088  -960  -841  -774  -749  -744  -745  -751  -764  -785  -818  -877  -961  -1036  -1073  -1078  -1070  -1066  -1084  -1132  -1185  -1205  -1185  -1157  -1144  -1144  -1144  -1137  -1126  -1136  -1204  -1320  -1411  -1413  -1329  -1230  -1188  -1199  -1210  -1200  -1201  -1230  -1269  -1289  -1253  -1133  -948  -779  -708  -727  -761  -780  -840  -941  -990  -927  -800  -693  -655  -676  -740  -863  -1052  -1252  -1382  -1419  -1404  -1382  -1389  -1456  -1587  -1727  -1810  -1816  -1772  -1705  -1617  -1490  -1331  -1164  -1007  -868  -727  -576  -461  -401  -318  -56  488  1194  1771  1942  1562  692  -467  -1685  -2780  -3557  -3726  -3189  -2255  -1401  -919  -754  -664  -523  -354  -201  -84  -23  -26  -81  -158  -215  -237  -234  -225  -223  -222  -213  -218  -268  -336  -381  -388  -348  -261  -134  0  95  160  232  282  229  82  -42  -37  137  456  827  1145  1353  1462  1519  1555  1587  1613  1621  1710  2166  3210  4638  5880  6530  6633  6421  6030  5569  5191  4946  4692  4288  3781  3328  2983  2680  2347  1967  1554  1134  757  469  256  77  -69  -154  -177  -171  -172  -198  -248  -318  -409  -515  -633  -784  -961  -1104  -1171  -1185  -1181  -1172  -1176  -1215  -1254  -1070  -288  1151  2662  3558  3739  3557  3322  3143  2963  2686  2310  1942  1686  1560  1522  1511  1482  1408  1308  1269  1339  1436  1462  1409  1327  1265  1226  1178  1092  961  816  718  680  664  643  616  582  531  472  427  403  395  396  402  408  405  392  379  361  305  184  28  -109  -216  -280  -289  -250  -195  -151  -137  -167  -253  -368  -452  -479  -475  -467  -463  -464  -466  -467  -463  -451  -435  -423  -418  -410  -398  -396  -420  -470  -523  -545  -524  -491  -480  -499  -526  -541  -555  -612  -740  -895  -1000  -1023  -1006  -1001  -1029  -1066  -1058  -980  -871  -792  -760  -753  -749  -745  -761  -817  -909  -1018  -1125  -1182  -1159  -1092  -1003  -885  -759  -676  -646  -649  -674  -745  -877  -1024  -1105  -1086  -1008  -922  -840  -740  -618  -506  -433  -395  -368  -317  -214  -83  -13  -89  -316  -623  -927  -1197  -1435  -1612  -1700  -1724  -1746  -1798  -1854  -1858  -1798  -1733  -1717  -1780  -1895  -1954  -1874  -1714  -1554  -1393  -1163  -725  73  1185  2250  2731  2244  849  -1022  -2880  -4316  -5123  -5398  -5275  -4762  -3981  -3213  -2641  -2255  -1995  -1824  -1732  -1703  -1672  -1586  -1492  -1451  -1467  -1520  -1582  -1625  -1636  -1630  -1622  -1627  -1649  -1673  -1658  -1595  -1537  -1503  -1395  -1094  -668  -326  -139  89  631  1528  2537  3351  3810  3969  3985  3962  3943  3954  3988  4009  4005  4017  4063  4111  4132  4133  4132  4134  4129  4090  3995  3859  3705  3502  3223  2930  2709  2544  2325  1968  1486  961  467  55  -229  -389  -503  -656  -851  -1036  -1209  -1422  -1676  -1925  -2129  -2267  -2320  -2274  -2130  -1877  -1469  -894  -299  98  252  294  332  362  348  301  242  150  2  -160  -275  -329  -363  -401  -429  -436  -429  -420  -413  -406  -397  -387  -378  -386  -439  -561  -719  -849  -925  -937  -783  -260  751  1994  2930  3299  3251  2978  2589  2233  2033  1954  1875  1761  1668  1633  1625  1603  1553  1476  1367  1252  1175  1150  1155  1163  1154  1088  930  722  560  473  407  328  266  251  266  284  307  357  445  545  612  583  394  63  -270  -471  -516  -428  -211  63  257  299  220  87  -50  -171  -248  -257  -212  -164  -143  -141  -139  -129  -115  -99  -83  -74  -75  -88  -105  -118  -123  -123  -117  -103  -81  -66  -109  -259  -481  -669  -768  -810  -833  -838  -794  -674  -514  -399  -359  -363  -384  -420  -467  -506  -499  -396  -187  44  195  245  255  262  251  205  154  108  19  -148  -352  -521  -648  -769  -872  -895  -834  -753  -698  -675  -673  -663  -616  -545  -508  -542  -617  -723  -864  -997  -1084  -1015  -561  352  1558  2797  3651  3620  2605  954  -945  -2684  -3875  -4453  -4520  -4172  -3612  -3020  -2423  -1800  -1203  -744  -496  -428  -433  -429  -416  -450  -562  -681  -719  -691  -668  -663  -622  -494  -316  -181  -120  -88  -51  -15  28  106  214  320  427  547  650  703  714  704  679  642  638  740  974  1286  1602  1869  2088  2298  2528  2752  2923  3025  3052  3007  2948  2939  2981  3039  3070  3058  3012  2934  2804  2592  2274  1856  1418  1043  708  373  63  -185  -353  -437  -463  -472  -484  -507  -563  -682  -843  -968  -1016  -1014  -986  -916  -778  -611  -500  -471  -473  -468  -464  -483  -529  -599  -679  -749  -813  -886  -954  -1002  -1028  -1043  -1062  -1095  -1131  -1144  -1122  -1074  -1024  -982  -943  -913  -902  -877  -791  -647  -510  -443  -466  -543  -623  -684  -731  -763  -785  -802  -807  -796  -785  -793  -811  -810  -791  -793  -841  -893  -852  -675  -437  -263  -197  -215  -297  -449  -633  -765  -783  -661  -393  -21  340  566  628  578  452  284  127  20  -16  12  66  100  103  98  103  111  98  47  -40  -146  -241  -301  -326  -329  -327  -322  -301  -247  -172  -117  -113  -160  -226  -277  -304  -331  -367  -377  -311  -187  -82  -31  -3  11  -11  -77  -152  -200  -219  -233  -256  -271  -248  -183  -98  -42  -42  -66  -59  7  159  392  621  729  664  463  195  -59  -225  -303  -368  -466  -571  -637  -656  -643  -593  -500  -389  -304  -266  -246  -202  -124  -16  112  203  135  -106  -277  -5  854  2069  3237  3994  4042  3262  1851  177  -1456  -2829  -3783  -4256  -4196  -3636  -2816  -1989  -1254  -660  -287  -130  -73  -26  21  62  102  137  159  164  158  148  134  124  164  301  494  649  739  810  891  962  1000  1007  1001  994  996  1017  1062  1134  1231  1358  1537  1774  2011  2171  2257  2331  2415  2490  2567  2684  2828  2949  3026  3068  3095  3131  3188  3247  3276  3275  3264  3251  3199  3054  2820  2536  2188  1751  1305  970  750  549  291  -13  -283  -439  -485  -484  -478  -482  -518  -607  -725  -810  -819  -768  -707  -690  -728  -807  -910  -1001  -1035  -985  -858  -716  -638  -655  -756  -888  -981  -1007  -993  -973  -943  -869  -754  -707  -811  -981  -1087  -1109  -1093  -1071  -1045  -1014  -981  -940  -874  -778  -689  -650  -647  -669  -768  -943  -1082  -1088  -961  -795  -693  -675  -690  -701  -704  -707  -718  -734  -744  -747  -752  -773  -811  -847  -855  -829  -790  -766  -768  -781  -766  -675  -472  -188  71  209  233  220  198  141  46  -70  -215  -382  -519  -593  -628  -664  -710  -734  -670  -525  -428  -477  -627  -768  -838  -844  -835  -837  -847  -863  -888  -920  -943  -939  -905  -856  -822  -818  -840  -873  -896  -904  -904  -897  -880  -856  -840  -839  -849  -860  -852  -800  -701  -609  -602  -702  -819  -852  -832  -848  -903  -972  -1092  -1301  -1548  -1722  -1782  -1771  -1728  -1658  -1577  -1510  -1449  -1363  -1271  -1206  -1185  -1220  -1300  -1436  -1604  -1608  -1208  -351  808  1973  2843  3195  2866  1857  413  -1124  -2469  -3409  -3846  -3895  -3776  -3560  -3208  -2739  -2197  -1665  -1265  -1042  -910  -689  -245  331  794  1018  1091  1133  1176  1213  1245  1274  1298  1312  1310  1304  1312  1331  1343  1322  1264  1192  1144  1145  1191  1259  1313  1344  1374  1427  1524  1670  1826  1925  1960  2006  2135  2331  2519  2673  2839  3034  3213  3362  3525  3737  4010  4375  4804  5151  5316  5335  5266  5104  4798  4332  3791  3293  2875  2527  2267  2100  1973  1853  1740  1607  1416  1192  1000  856  717  553  372  209  108  86  127  200  249  236  199  194  222  249  261  261  259  258  257  256  257  256  234  173  86  1  -65  -106  -124  -134  -142  -144  -142  -156  -209  -306  -407  -470  -489  -486  -465  -420  -360  -319  -319  -353  -383  -372  -321  -269  -250  -281  -387  -589  -838  -1031  -1118  -1137  -1101  -987  -830  -693  -589  -520  -508  -547  -594  -631  -677  -741  -805  -850  -868  -862  -844  -811  -754  -685  -632  -639  -748  -938  -1123  -1225  -1237  -1205  -1162  -1106  -1043  -1001  -992  -1001  -1010  -1024  -1056  -1103  -1137  -1127  -1064  -988  -976  -1067  -1233  -1408  -1527  -1569  -1543  -1429  -1196  -907  -709  -708  -902  -1176  -1382  -1461  -1462  -1439  -1385  -1274  -1143  -1097  -1202  -1382  -1478  -1401  -1210  -1019  -879  -786  -735  -717  -714  -717  -733  -782  -878  -1023  -1203  -1375  -1487  -1554  -1635  -1740  -1822  -1863  -1894  -1931  -1961  -1972  -1970  -1962  -1951  -1951  -1988  -2070  -2124  -2047  -1842  -1581  -1231  -677  124  1106  2063  2600  2290  996  -954  -2899  -4253  -4835  -4795  -4422  -3955  -3489  -3070  -2760  -2558  -2407  -2286  -2212  -2189  -2195  -2209  -2166  -1862  -1006  447  2016  3076  3524  3672  3732  3755  3759  3741  3663  3512  3341  3209  3112  3029  2974  2959  2961  2951  2919  2889  2902  2967  3040  3084  3123  3204  3316  3408  3456  3493  3573  3726  3914  4050  4098  4097  4087  4078  4055  4006  3938  3876  3834  3768  3562  3154  2660  2286  2081  1892  1578  1171  793  475  148  -208  -499  -647  -692  -720  -788  -902  -1020  -1097  -1134  -1152  -1160  -1162  -1164  -1169  -1172  -1169  -1154  -1125  -1085  -1052  -1047  -1073  -1115  -1167  -1223  -1274  -1340  -1431  -1484  -1446  -1368  -1314  -1287  -1289  -1368  -1577  -1859  -2063  -2107  -2029  -1914  -1832  -1805  -1818  -1862  -1940  -2041  -2132  -2163  -2106  -2017  -2039  -2220  -2398  -2411  -2131  -1355  -76  1348  2489  3128  3258  2983  2517  2087  1794  1706  1873  2089  2040  1750  1493  1383  1353  1339  1327  1320  1307  1247  1105  907  733  649  667  739  776  709  575  465  422  421  426  425  423  429  452  494  522  473  316  106  -58  -128  -133  -131  -147  -170  -182  -181  -184  -218  -294  -404  -503  -525  -444  -314  -200  -146  -176  -238  -262  -259  -280  -344  -427  -493  -532  -557  -574  -576  -562  -540  -521  -507  -504  -513  -528  -533  -506  -434  -337  -269  -280  -388  -554  -697  -758  -719  -584  -408  -274  -210  -189  -213  -280  -319  -253  -95  45  71  -3  -96  -156  -192  -236  -301  -372  -430  -494  -609  -767  -913  -1017  -1088  -1136  -1165  -1174  -1164  -1155  -1161  -1170  -1171  -1172  -1199  -1234  -1140  -762  -45  991  2222  3264  3630  3065  1696  -66  -1719  -2903  -3512  -3688  -3635  -3397  -2942  -2371  -1836  -1393  -1054  -850  -756  -695  -641  -616  -606  -586  -546  -486  -414  -343  -266  -188  -137  -122  -108  -58  23  105  168  208  224  222  232  280  370  487  627  784  920  1020  1112  1233  1376  1527  1698  1880  2029  2155  2323  2567  2832  3023  3118  3165  3187  3184  3177  3178  3176  3159  3123  3046  2892  2681  2488  2331  2159  1946  1709  1429  1043  549  64  -286  -472  -565  -644  -728  -792  -826  -843  -849  -828  -766  -685  -629  -613  -623  -649  -689  -724  -721  -679  -637  -635  -676  -722  -735  -726  -735  -762  -758  -681  -573  -514  -523  -546  -539  -516  -502  -494  -500  -534  -578  -616  -662  -720  -766  -786  -792  -791  -777  -738  -681  -633  -612  -612  -600  -534  -407  -281  -237  -275  -332  -362  -366  -395  -511  -691  -837  -885  -846  -770  -713  -696  -691  -666  -606  -518  -430  -374  -359  -362  -361  -351  -355  -406  -498  -576  -599  -572  -523  -490  -483  -484  -496  -539  -587  -571  -462  -328  -282  -336  -406  -439  -457  -495  -540  -523  -391  -202  -92  -112  -177  -190  -159  -170  -261  -334  -282  -142  -41  -36  -79  -108  -113  -120  -137  -160  -189  -219  -236  -240  -238  -240  -251  -265  -274  -275  -272  -269  -270  -277  -279  -241  -138  -18  43  63  110  183  240  273  285  280  265  249  235  212  160  87  18  -56  -158  -275  -389  -531  -709  -860  -921  -901  -849  -805  -773  -741  -729  -794  -960  -1113  -1102  -904  -548  -49  515  1189  2141  3209  3854  3625  2446  648  -1199  -2633  -3459  -3747  -3703  -3404  -2835  -2107  -1415  -925  -690  -607  -519  -368  -208  -106  -71  -70  -72  -74  -81  -88  -84  -71  -56  -35  4  51  79  100  174  338  544  706  796  840  859  862  859  867  905  1021  1239  1484  1645  1714  1790  1990  2328  2674  2888  2982  3079  3247  3430  3541  3557  3525  3503  3507  3499  3457  3390  3299  3177  3024  2807  2481  2073  1671  1345  1105  909  726  569  426  233  -61  -399  -647  -754  -757  -702  -636  -600  -606  -653  -729  -812  -882  -917  -906  -864  -819  -787  -757  -727  -708  -707  -710  -693  -663  -644  -639  -637  -640  -655  -674  -688  -687  -688  -696  -669  -594  -520  -484  -480  -507  -572  -658  -721  -742  -732  -708  -679  -651  -622  -589  -559  -550  -570  -602  -615  -590  -540  -515  -553  -615  -640  -617  -595  -612  -658  -696  -708  -705  -707  -723  -740  -718  -648  -578  -569  -652  -792  -887  -848  -676  -460  -307  -251  -252  -264  -284  -337  -445  -593  -716  -747  -684  -589  -524  -503  -499  -481  -456  -446  -443  -420  -369  -311  -285  -301  -334  -355  -365  -371  -365  -340  -303  -273  -256  -243  -231  -229  -252  -294  -342  -390  -437  -482  -518  -491  -369  -204  -62  56  168  257  309  333  339  298  167  -40  -254  -439  -621  -797  -931  -1008  -1047  -1064  -1067  -1046  -986  -901  -818  -747  -696  -672  -662  -705  -848  -952  -772  -160  950  2404  3697  4323  4077  3010  1342  -532  -2138  -3189  -3661  -3659  -3388  -3002  -2503  -1912  -1328  -816  -402  -115  32  46  -65  -241  -375  -381  -233  -6  177  265  292  311  342  393  472  571  648  681  699  752  873  1037  1187  1298  1379  1435  1468  1500  1577  1726  1902  2022  2058  2069  2103  2149  2185  2208  2253  2386  2668  3062  3421  3626  3695  3713  3719  3682  3556  3343  3107  2936  2874  2853  2714  2350  1859  1418  1044  669  341  155  93  50  -23  -104  -187  -347  -638  -977  -1208  -1271  -1204  -1052  -881  -770  -742  -757  -765  -727  -633  -514  -424  -389  -402  -443  -513  -611  -698  -732  -701  -617  -521  -455  -425  -421  -451  -528  -631  -713  -762  -795  -812  -790  -720  -641  -600  -572  -525  -494  -509  -567  -659  -758  -822  -857  -891  -932  -967  -983  -974  -933  -865  -790  -726  -650  -534  -397  -301  -269  -282  -318  -366  -430  -530  -651  -744  -787  -799  -805  -817  -835  -852  -860  -846  -815  -782  -769  -785  -785  -740  -718  -769  -829  -805  -677  -517  -402  -334  -291  -275  -283  -305  -327  -345  -365  -381  -388  -393  -405  -424  -435  -418  -368  -302  -240  -173  -94  -51  -78  -136  -166  -151  -116  -101  -124  -169  -241  -380  -583  -801  -975  -1070  -1082  -1034  -953  -880  -852  -880  -938  -997  -1052  -1072  -990  -805  -579  -341  -42  461  1233  2149  2982  3435  3249  2396  1048  -534  -2010  -3060  -3543  -3483  -3010  -2361  -1792  -1415  -1165  -968  -826  -736  -662  -592  -538  -513  -508  -484  -403  -270  -140  -46  21  79  126  163  189  208  254  364  502  549  430  215  39  -47  -75  -21  215  662  1144  1438  1515  1515  1576  1758  2037  2317  2505  2569  2544  2500  2497  2577  2763  3004  3180  3240  3221  3175  3132  3101  3054  2923  2670  2364  2126  1980  1803  1473  1023  592  266  22  -192  -389  -530  -614  -680  -738  -772  -785  -801  -854  -955  -1066  -1133  -1143  -1132  -1125  -1121  -1107  -1076  -1023  -963  -924  -912  -911  -913  -919  -924  -922  -938  -1004  -1080  -1069  -984  -935  -949  -961  -928  -869  -833  -812  -793  -839  -965  -1109  -1206  -1194  -1075  -950  -892  -890  -901  -904  -897  -890  -884  -878  -858  -804  -673  -419  -68  256  461  571  661  753  814  821  793  771  772  780  754  669  555  474  447  449  460  475  498  526  548  552  532  484  415  349  307  275  235  199  185  188  193  198  202  204  191  148  83  20  -36  -92  -132  -118  -9  178  351  408  327  173  20  -113  -222  -267  -241  -177  -98  -17  36  54  51  44  37  33  36  50  69  76  69  63  68  74  68  55  36  -22  -159  -356  -534  -642  -689  -704  -715  -737  -761  -760  -729  -690  -659  -635  -619  -639  -754  -987  -1225  -1253  -975  -518  16  643  1333  2057  2759  3130  2775  1618  -50  -1745  -2976  -3519  -3426  -2954  -2493  -2225  -2028  -1810  -1580  -1292  -895  -457  -142  -40  -112  -268  -414  -489  -466  -354  -204  -89  -36  -20  -14  -2  13  39  94  173  244  287  311  341  389  442  485  523  568  629  710  814  951  1116  1288  1456  1634  1818  1965  2039  2091  2214  2420  2613  2724  2774  2828  2893  2882  2729  2518  2387  2354  2299  2090  1734  1367  1108  952  763  393  -93  -479  -690  -823  -944  -1050  -1131  -1189  -1222  -1220  -1208  -1226  -1280  -1376  -1539  -1728  -1851  -1879  -1850  -1796  -1702  -1528  -1308  -1145  -1082  -1090  -1151  -1272  -1427  -1551  -1605  -1594  -1513  -1346  -1119  -901  -741  -655  -646  -688  -734  -754  -768  -854  -1071  -1348  -1535  -1580  -1556  -1541  -1545  -1524  -1404  -1111  -589  126  834  1295  1481  1542  1579  1592  1579  1567  1569  1571  1546  1472  1366  1254  1137  1026  951  919  902  885  874  868  836  750  633  543  512  520  534  522  463  365  272  219  201  196  188  184  191  203  205  192  176  176  199  234  257  229  138  6  -136  -270  -388  -474  -510  -496  -455  -402  -328  -243  -183  -165  -170  -179  -179  -157  -111  -56  -17  -28  -134  -305  -440  -480  -446  -376  -277  -147  -38  -36  -134  -241  -301  -315  -262  -111  86  211  208  134  73  47  30  -4  -63  -140  -216  -268  -299  -336  -396  -467  -532  -591  -643  -676  -673  -633  -572  -520  -500  -544  -698  -939  -1111  -1084  -891  -585  -202  236  835  1655  2517  3084  3034  2270  930  -728  -2312  -3430  -3943  -3870  -3278  -2426  -1700  -1274  -1062  -957  -921  -913  -855  -679  -417  -180  -42  0  -4  -18  -26  -29  -22  3  47  89  108  106  111  165  297  486  662  765  795  790  782  779  776  764  754  789  933  1194  1495  1741  1889  1961  1996  2039  2146  2369  2700  3044  3282  3384  3413  3418  3415  3420  3420  3372  3251  3030  2698  2333  2044  1850  1664  1392  1061  791  608  438  258  104  -41  -239  -487  -722  -902  -1008  -1027  -988  -946  -930  -931  -933  -926  -907  -883  -856  -811  -728  -610  -489  -408  -380  -380  -389  -404  -433  -474  -525  -594  -676  -751  -805  -846  -880  -907  -927  -947  -952  -892  -719  -493  -344  -317  -347  -366  -362  -356  -384  -477  -608  -703  -712  -642  -539  -468  -475  -567  -699  -801  -824  -752  -587  -394  -264  -242  -327  -484  -643  -726  -723  -679  -642  -629  -638  -665  -705  -746  -775  -774  -711  -575  -407  -279  -235  -282  -397  -531  -635  -697  -732  -754  -763  -741  -662  -542  -440  -391  -370  -353  -347  -363  -394  -409  -389  -345  -303  -285  -301  -334  -367  -406  -453  -508  -569  -627  -668  -690  -689  -661  -608  -552  -519  -522  -553  -592  -607  -576  -490  -375  -293  -267  -269  -268  -254  -235  -214  -185  -141  -73  19  111  172  198  201  183  143  94  47  -6  -84  -180  -277  -375  -472  -559  -641  -722  -762  -715  -615  -528  -486  -480  -493  -518  -555  -571  -527  -423  -277  -113  74  442  1162  2127  3020  3557  3554  2926  1768  321  -1148  -2411  -3283  -3638  -3465  -2913  -2179  -1430  -831  -474  -282  -146  -42  21  65  105  130  104  -2  -162  -277  -237  0  321  538  573  486  373  296  263  257  289  393  567  735  826  848  860  898  956  1024  1112  1238  1410  1637  1890  2111  2274  2400  2528  2681  2839  2959  3034  3100  3171  3238  3282  3300  3304  3306  3299  3254  3144  2954  2696  2426  2191  1968  1699  1365  1008  671  387  182  38  -113  -328  -580  -799  -947  -1035  -1083  -1104  -1108  -1086  -1017  -894  -759  -671  -635  -605  -556  -530  -591  -721  -827  -855  -828  -790  -758  -710  -643  -584  -536  -481  -424  -402  -456  -581  -690  -698  -639  -594  -579  -569  -554  -539  -536  -550  -582  -629  -673  -691  -682  -677  -691  -688  -630  -545  -493  -507  -575  -654  -714  -769  -832  -885  -900  -874  -814  -740  -671  -594  -482  -361  -281  -254  -247  -246  -274  -360  -474  -557  -597  -650  -756  -862  -864  -755  -630  -549  -496  -422  -290  -133  -40  -54  -138  -228  -302  -369  -427  -459  -455  -433  -413  -402  -392  -382  -374  -365  -355  -342  -330  -334  -352  -369  -376  -387  -409  -416  -358  -219  -58  54  132  227  323  372  371  354  323  230  32  -231  -474  -653  -769  -822  -827  -807  -777  -748  -724  -708  -714  -748  -774  -759  -704  -639  -587  -575  -629  -663  -504  5  906  1980  2863  3326  3258  2578  1368  -88  -1517  -2737  -3529  -3638  -3104  -2304  -1559  -1009  -723  -639  -606  -533  -416  -295  -225  -231  -276  -299  -261  -168  -56  60  174  250  271  255  227  200  181  185  248  383  538  646  703  748  822  944  1082  1190  1262  1314  1371  1454  1562  1680  1824  2003  2200  2408  2640  2884  3076  3169  3183  3162  3129  3096  3077  3082  3099  3088  2986  2773  2527  2337  2176  1959  1656  1294  899  533  290  190  171  172  152  77  -69  -285  -540  -771  -920  -979  -989  -992  -990  -950  -842  -703  -613  -603  -630  -655  -663  -635  -552  -443  -399  -506  -753  -1018  -1178  -1218  -1180  -1084  -915  -666  -404  -250  -250  -330  -405  -469  -550  -621  -632  -599  -573  -566  -568  -571  -574  -575  -574  -573  -581  -604  -635  -660  -674  -682  -686  -679  -653  -618  -593  -589  -602  -621  -634  -634  -621  -600  -569  -517  -449  -405  -410  -441  -472  -509  -552  -585  -598  -599  -596  -588  -570  -544  -519  -493  -467  -450  -436  -412  -378  -347  -335  -356  -424  -526  -616  -664  -671  -665  -669  -681  -689  -694  -692  -664  -590  -490  -405  -354  -325  -303  -280  -264  -255  -243  -226  -212  -200  -198  -221  -277  -345  -386  -395  -396  -401  -394  -347  -247  -125  -41  -15  -21  -32  -41  -49  -50  -27  40  154  260  283  224  158  125  98  37  -63  -173  -278  -393  -537  -698  -839  -921  -942  -934  -919  -903  -884  -856  -827  -811  -818  -844  -847  -750  -543  -340  -128  337  1162  2153  3012  3413  3116  2125  639  -1048  -2592  -3693  -4092  -3680  -2779  -1931  -1381  -1050  -821  -652  -537  -453  -375  -311  -285  -306  -350  -381  -368  -284  -120  71  220  319  398  464  511  532  524  500  461  392  302  239  268  425  674  921  1105  1241  1384  1570  1777  1952  2050  2075  2089  2166  2330  2529  2691  2818  2949  3083  3191  3249  3264  3259  3252  3251  3262  3280  3276  3185  2952  2603  2235  1902  1567  1215  905  691  578  531  498  446  346  147  -156  -469  -685  -802  -861  -880  -872  -853  -836  -817  -790  -768  -758  -771  -821  -884  -912  -876  -790  -724  -704  -657  -570  -536  -567  -586  -563  -515  -483  -501  -549  -583  -594  -593  -580  -549  -508  -478  -466  -464  -465  -474  -503  -555  -619  -677  -719  -756  -801  -851  -882  -861  -781  -683  -598  -512  -427  -351  -287  -245  -231  -241  -271  -324  -405  -494  -552  -568  -566  -560  -534  -453  -313  -163  -111  -242  -495  -701  -780  -776  -735  -662  -572  -503  -469  -451  -441  -444  -456  -463  -450  -413  -365  -332  -320  -308  -276  -235  -227  -287  -395  -487  -520  -508  -483  -453  -421  -396  -384  -379  -367  -343  -310  -282  -280  -315  -369  -409  -423  -422  -420  -417  -399  -354  -292  -239  -206  -182  -166  -158  -157  -172  -213  -272  -324  -369  -423  -486  -535  -548  -511  -414  -290  -201  -174  -185  -202  -196  -135  -12  129  247  327  355  332  304  300  308  305  251  128  -16  -142  -254  -385  -528  -629  -663  -658  -647  -647  -662  -693  -748  -833  -914  -942  -918  -867  -799  -720  -618  -470  -296  -68  369  1126  2069  2896  3302  3023  1987  485  -1014  -2195  -2948  -3288  -3317  -3120  -2699  -2056  -1295  -626  -246  -160  -215  -285  -325  -336  -308  -223  -95  19  91  143  188  211  212  204  197  193  201  236  289  324  325  332  379  475  637  856  1075  1240  1331  1357  1368  1437  1596  1822  2058  2241  2359  2470  2628  2812  2960  3049  3101  3122  3114  3096  3088  3092  3093  3071  3010  2928  2865  2844  2848  2814  2635  2244  1727  1237  811  427  127  -56  -160  -223  -276  -340  -413  -479  -527  -552  -554  -544  -534  -527  -521  -525  -566  -651  -739  -785  -785  -760  -732  -694  -617  -511  -443  -440  -464  -477  -478  -489  -525  -581  -634  -674  -703  -720  -716  -681  -626  -573  -539  -551  -611  -689  -733  -676  -528  -392  -330  -323  -357  -456  -619  -779  -868  -879  -848  -810  -785  -780  -788  -799  -795  -742  -626  -490  -403  -393  -437  -489  -507  -486  -439  -375  -315  -281  -283  -332  -410  -475  -512  -526  -521  -492  -445  -398  -368  -357  -369  -421  -518  -624  -695  -708  -646  -492  -293  -152  -120  -171  -245  -298  -324  -350  -394  -443  -501  -590  -680  -701  -622  -485  -365  -291  -260  -277  -331  -378  -398  -405  -412  -406  -345  -209  -82  -91  -234  -374  -428  -416  -387  -360  -336  -317  -316  -334  -361  -385  -395  -375  -323  -260  -213  -197  -206  -219  -222  -208  -176  -148  -128  -72  34  136  202  254  312  373  429  473  469  363  162  -45  -182  -247  -273  -284  -287  -286  -278  -266  -268  -334  -502  -727  -876  -886  -834  -809  -812  -767  -613  -446  -421  -515  -544  -307  381  1562  2891  3705  3550  2493  912  -718  -1970  -2751  -3262  -3553  -3516  -3171  -2590  -1830  -1081  -564  -323  -264  -276  -286  -266  -217  -149  -62  37  126  188  225  253  277  288  278  255  245  271  343  441  539  644  768  886  954  971  962  946  931  945  1036  1225  1457  1637  1746  1865  2072  2333  2542  2657  2713  2750  2782  2813  2841  2865  2915  3042  3223  3367  3417  3373  3249  3086  2916  2683  2327  1899  1520  1259  1086  903  639  311  -16  -306  -529  -652  -686  -678  -665  -662  -682  -723  -738  -691  -618  -579  -597  -656  -718  -760  -776  -751  -685  -626  -607  -617  -633  -653  -683  -714  -711  -642  -518  -400  -337  -337  -388  -474  -572  -667  -768  -868  -937  -960  -950  -915  -856  -782  -709  -652  -603  -555  -521  -506  -503  -501  -494  -486  -487  -514  -563  -592  -573  -536  -511  -494  -473  -441  -397  -353  -327  -328  -374  -454  -543  -630  -708  -759  -782  -786  -767  -728  -677  -622  -567  -519  -469  -402  -323  -267  -261  -303  -363  -409  -429  -433  -430  -411  -370  -329  -338  -412  -492  -513  -485  -460  -454  -455  -449  -425  -387  -350  -321  -294  -264  -242  -234  -237  -245  -252  -249  -228  -195  -161  -126  -86  -60  -79  -155  -268  -370  -414  -396  -356  -316  -258  -172  -64  71  225  350  411  422  414  398  367  316  239  102  -122  -386  -589  -685  -701  -658  -553  -417  -320  -310  -379  -484  -570  -612  -616  -597  -572  -562  -617  -764  -919  -919  -621  73  1066  2033  2780  3274  3388  3003  2135  788  -895  -2489  -3580  -4008  -3790  -3096  -2227  -1461  -937  -634  -454  -332  -240  -170  -116  -82  -73  -93  -148  -205  -189  -40  183  360  439  469  507  587  716  848  900  833  704  604  567  573  608  679  803  984  1197  1402  1551  1618  1630  1652  1730  1850  1971  2125  2380  2692  2914  3001  3029  3058  3087  3122  3203  3358  3534  3599  3472  3217  2937  2641  2316  2014  1747  1432  1076  802  636  477  264  31  -163  -291  -360  -409  -488  -613  -756  -892  -1005  -1077  -1097  -1066  -976  -846  -742  -722  -788  -891  -987  -1045  -1048  -991  -882  -754  -651  -615  -651  -709  -734  -698  -599  -458  -319  -217  -156  -135  -165  -254  -397  -563  -700  -779  -816  -843  -873  -890  -843  -673  -406  -167  -51  -61  -165  -329  -494  -597  -609  -559  -505  -476  -471  -482  -505  -531  -544  -534  -514  -500  -493  -489  -486  -480  -472  -479  -533  -650  -784  -847  -799  -693  -610  -577  -558  -512  -426  -324  -250  -224  -237  -264  -296  -338  -394  -457  -523  -595  -657  -672  -619  -523  -439  -392  -366  -348  -346  -360  -361  -338  -310  -293  -288  -297  -314  -335  -365  -397  -417  -418  -405  -382  -355  -344  -398  -516  -591  -527  -360  -181  -73  -101  -217  -309  -345  -354  -342  -304  -251  -213  -201  -210  -233  -245  -181  17  305  555  699  701  516  215  -24  -132  -184  -265  -395  -540  -671  -787  -884  -938  -920  -824  -690  -576  -499  -457  -484  -622  -850  -1073  -1188  -1185  -1065  -730  -73  885  2021  3097  3774  3751  2918  1442  -303  -1909  -3014  -3477  -3463  -3224  -2918  -2559  -2063  -1461  -949  -664  -562  -528  -515  -516  -499  -414  -248  -47  116  187  171  122  97  111  152  216  294  362  419  494  609  740  836  870  861  853  892  1005  1157  1285  1385  1497  1629  1747  1838  1936  2060  2199  2334  2456  2582  2744  2930  3095  3267  3512  3799  3993  3983  3766  3463  3230  3087  2917  2677  2435  2220  1989  1727  1463  1215  986  781  607  459  296  43  -324  -731  -1038  -1176  -1178  -1105  -997  -881  -777  -684  -574  -443  -331  -268  -243  -262  -366  -573  -817  -1007  -1089  -1042  -871  -650  -479  -402  -394  -420  -464  -516  -570  -624  -664  -686  -698  -716  -740  -757  -734  -655  -562  -504  -487  -487  -493  -522  -581  -632  -634  -621  -651  -704  -734  -738  -737  -741  -739  -716  -678  -644  -614  -570  -503  -433  -400  -418  -457  -482  -492  -493  -480  -443  -391  -346  -322  -324  -367  -450  -541  -598  -617  -617  -609  -576  -515  -463  -453  -473  -505  -542  -567  -577  -585  -597  -603  -593  -564  -517  -467  -432  -419  -413  -404  -399  -405  -415  -419  -417  -419  -440  -491  -570  -652  -706  -720  -714  -707  -710  -725  -733  -683  -532  -320  -155  -83  -82  -153  -320  -524  -636  -596  -457  -311  -210  -162  -167  -191  -194  -175  -152  -133  -131  -144  -161  -174  -181  -171  -108  43  263  464  571  578  520  438  355  270  186  122  81  49  -6  -120  -286  -437  -519  -536  -532  -546  -585  -614  -591  -540  -508  -484  -418  -322  -305  -448  -695  -851  -652  31  1118  2372  3425  3896  3561  2421  715  -1097  -2568  -3518  -3921  -3754  -3086  -2141  -1282  -797  -646  -632  -637  -605  -491  -267  2  195  260  254  245  254  264  234  141  9  -100  -140  -70  138  415  615  673  647  618  665  838  1085  1279  1365  1390  1412  1442  1473  1509  1570  1671  1814  1991  2195  2429  2656  2820  2922  2997  3055  3094  3130  3181  3251  3319  3365  3365  3305  3169  2961  2708  2454  2228  2020  1792  1541  1300  1091  878  618  322  52  -148  -303  -450  -569  -625  -634  -650  -709  -801  -884  -930  -942  -922  -855  -737  -586  -441  -344  -313  -345  -422  -502  -559  -599  -633  -657  -659  -631  -580  -531  -504  -497  -499  -500  -499  -497  -501  -514  -525  -524  -513  -498  -478  -465  -502  -657  -940  -1230  -1353  -1242  -987  -751  -639  -652  -751  -877  -962  -965  -892  -784  -686  -607  -529  -457  -431  -470  -527  -536  -492  -447  -434  -442  -448  -438  -402  -349  -302  -286  -314  -404  -569  -755  -846  -809  -713  -612  -516  -432  -375  -359  -384  -430  -466  -482  -485  -485  -482  -469  -439  -386  -315  -247  -215  -233  -284  -334  -382  -454  -535  -591  -622  -636  -641  -645  -652  -659  -660  -650  -627  -600  -574  -550  -539  -540  -535  -520  -482  -401  -296  -219  -186  -161  -97  9  114  173  190  196  219  269  336  399  434  427  355  197  -8  -190  -329  -473  -641  -783  -860  -887  -893  -878  -838  -792  -762  -749  -738  -728  -728  -747  -795  -856  -859  -756  -496  63  972  2010  2903  3390  3168  2194  797  -719  -2169  -3279  -3803  -3727  -3243  -2573  -1905  -1391  -1059  -815  -598  -434  -335  -264  -196  -137  -102  -90  -85  -64  -13  50  95  111  113  119  146  195  242  282  354  489  678  887  1076  1194  1206  1141  1057  974  899  908  1122  1561  2048  2367  2474  2473  2464  2494  2594  2801  3072  3281  3367  3404  3464  3534  3552  3494  3411  3348  3276  3134  2889  2607  2406  2280  2095  1763  1327  894  556  328  145  -65  -302  -527  -704  -800  -797  -715  -603  -523  -508  -551  -630  -712  -766  -773  -734  -680  -649  -645  -653  -658  -660  -661  -666  -669  -663  -641  -607  -572  -539  -516  -514  -524  -528  -524  -519  -509  -480  -437  -400  -377  -367  -374  -410  -475  -538  -571  -579  -604  -691  -824  -927  -943  -878  -781  -695  -621  -547  -487  -467  -473  -464  -433  -410  -409  -409  -396  -365  -324  -288  -286  -353  -503  -690  -818  -832  -744  -618  -524  -487  -491  -508  -528  -546  -554  -546  -521  -487  -451  -422  -397  -379  -386  -430  -502  -588  -668  -722  -739  -734  -728  -721  -687  -613  -530  -477  -478  -514  -551  -570  -581  -576  -520  -379  -176  13  126  161  158  149  143  130  96  27  -65  -147  -197  -231  -270  -313  -354  -389  -415  -436  -466  -522  -614  -725  -824  -899  -968  -1040  -1103  -1132  -1102  -1013  -883  -691  -358  227  1109  2161  3126  3689  3528  2517  897  -837  -2228  -3066  -3392  -3408  -3298  -3066  -2606  -1906  -1122  -507  -210  -155  -175  -161  -82  30  110  123  88  49  32  33  36  51  100  192  307  415  484  505  505  527  578  647  740  856  960  1029  1097  1207  1354  1485  1564  1618  1691  1781  1857  1939  2104  2394  2740  3016  3166  3231  3270  3299  3295  3261  3228  3216  3210  3189  3144  3075  2984  2862  2670  2358  1912  1383  892  521  247  30  -132  -266  -421  -579  -683  -718  -716  -701  -655  -558  -448  -403  -460  -591  -737  -850  -923  -971  -992  -987  -972  -958  -924  -840  -723  -627  -571  -537  -516  -504  -498  -497  -509  -542  -588  -634  -678  -714  -742  -767  -777  -751  -702  -660  -635  -625  -633  -665  -710  -743  -753  -747  -737  -736  -771  -849  -902  -851  -736  -648  -590  -540  -508  -498  -503  -506  -496  -488  -497  -505  -497  -489  -496  -523  -570  -617  -648  -668  -681  -683  -678  -665  -637  -589  -516  -422  -314  -215  -148  -119  -136  -214  -344  -475  -568  -631  -683  -727  -761  -785  -801  -804  -771  -663  -470  -249  -91  -25  -26  -61  -97  -113  -105  -69  -1  94  211  323  403  442  430  321  85  -216  -459  -579  -608  -617  -651  -716  -785  -832  -856  -864  -839  -763  -660  -589  -571  -572  -564  -578  -634  -681  -662  -504  -85  647  1592  2549  3248  3374  2707  1296  -475  -2088  -3176  -3654  -3635  -3310  -2865  -2385  -1860  -1331  -874  -525  -312  -236  -241  -264  -271  -241  -176  -98  -30  26  81  120  131  117  99  122  252  501  770  941  988  960  906  857  832  863  978  1150  1303  1396  1449  1491  1532  1575  1622  1696  1855  2162  2568  2911  3088  3142  3157  3160  3161  3198  3313  3479  3606  3622  3504  3285  3057  2896  2763  2537  2149  1654  1197  904  772  700  597  434  219  -7  -185  -288  -357  -428  -510  -615  -731  -810  -834  -829  -829  -848  -882  -904  -865  -731  -546  -410  -364  -370  -390  -411  -427  -431  -431  -464  -546  -649  -741  -804  -823  -768  -639  -489  -394  -395  -479  -596  -678  -686  -631  -548  -481  -458  -503  -633  -801  -907  -904  -841  -791  -775  -771  -742  -668  -574  -508  -488  -493  -497  -487  -462  -429  -414  -477  -675  -956  -1173  -1230  -1100  -799  -442  -192  -111  -141  -214  -296  -366  -406  -416  -422  -446  -488  -528  -552  -561  -566  -571  -568  -547  -514  -492  -487  -494  -502  -505  -502  -488  -463  -433  -411  -407  -414  -416  -399  -361  -337  -355  -394  -426  -449  -458  -450  -419  -356  -276  -219  -200  -204  -215  -227  -217  -136  41  258  414  467  456  440  433  393  293  150  -3  -138  -217  -243  -278  -383  -551  -707  -794  -810  -788  -758  -740  -737  -736  -726  -710  -707  -713  -677  -542  -342  -259  -420  -610  -449  244  1391  2693  3668  3803  2883  1196  -709  -2346  -3367  -3693  -3559  -3216  -2731  -2168  -1647  -1207  -841  -566  -386  -297  -309  -390  -462  -472  -420  -346  -287  -237  -157  -28  133  299  452  572  642  674  689  695  700  708  715  730  768  827  886  929  964  1027  1151  1319  1464  1549  1632  1809  2086  2355  2525  2598  2646  2757  2974  3253  3487  3593  3566  3463  3352  3275  3224  3149  3020  2844  2647  2439  2224  2007  1755  1396  937  488  169  23  -6  -18  -83  -230  -439  -630  -738  -775  -788  -796  -783  -733  -670  -632  -610  -568  -507  -461  -444  -427  -390  -359  -394  -515  -667  -779  -830  -840  -841  -849  -861  -855  -812  -720  -611  -531  -489  -460  -416  -359  -329  -355  -414  -482  -575  -706  -860  -1002  -1090  -1093  -1004  -849  -672  -514  -403  -352  -360  -441  -598  -777  -894  -909  -833  -710  -611  -578  -595  -616  -618  -607  -596  -590  -587  -586  -585  -580  -572  -560  -538  -491  -427  -367  -328  -316  -334  -362  -387  -408  -430  -443  -446  -457  -502  -586  -683  -765  -808  -780  -671  -504  -323  -183  -112  -95  -103  -142  -234  -354  -443  -478  -480  -463  -411  -307  -169  -36  51  98  141  194  249  297  329  348  354  323  224  63  -119  -296  -441  -519  -536  -539  -567  -619  -669  -704  -724  -733  -736  -738  -738  -723  -667  -535  -359  -299  -477  -826  -1152  -1102  -267  1317  3035  4199  4422  3642  2122  283  -1454  -2776  -3570  -3809  -3457  -2647  -1768  -1196  -973  -903  -839  -736  -590  -423  -255  -99  26  108  157  196  239  294  359  409  435  446  449  427  365  286  232  215  233  299  429  598  745  818  829  854  971  1184  1410  1569  1681  1817  2000  2207  2402  2546  2615  2635  2659  2726  2861  3051  3236  3369  3447  3485  3481  3407  3273  3132  3023  2899  2649  2214  1720  1366  1188  1038  769  397  73  -107  -180  -210  -235  -279  -365  -497  -664  -820  -897  -863  -774  -706  -685  -686  -681  -663  -637  -613  -599  -595  -601  -615  -632  -647  -666  -698  -729  -739  -738  -749  -778  -812  -835  -836  -808  -763  -724  -709  -717  -739  -759  -766  -743  -676  -573  -477  -438  -484  -589  -691  -746  -756  -749  -744  -743  -747  -749  -733  -687  -624  -577  -562  -572  -598  -643  -690  -677  -554  -376  -262  -267  -354  -428  -442  -436  -444  -455  -451  -436  -427  -438  -466  -497  -522  -548  -581  -599  -570  -495  -406  -331  -286  -271  -284  -331  -412  -495  -540  -537  -508  -494  -517  -556  -580  -585  -583  -576  -546  -475  -371  -252  -132  -11  114  243  343  380  340  240  120  11  -91  -200  -327  -487  -674  -845  -964  -1021  -1035  -1032  -1022  -986  -896  -744  -563  -404  -325  -384  -582  -795  -863  -732  -432  56  828  1883  2966  3639  3483  2374  671  -1014  -2283  -3060  -3410  -3409  -3138  -2663  -2022  -1346  -877  -689  -605  -457  -259  -120  -70  -35  45  132  148  102  47  17  62  191  335  436  482  485  469  470  533  674  842  953  979  968  982  1052  1154  1240  1294  1336  1377  1412  1453  1563  1815  2171  2482  2661  2750  2844  3030  3341  3697  3963  4078  4077  4000  3861  3685  3525  3413  3300  3114  2833  2496  2132  1731  1312  957  720  565  418  235  36  -123  -229  -316  -403  -462  -471  -439  -392  -357  -337  -325  -326  -346  -369  -375  -365  -357  -380  -455  -563  -647  -673  -655  -613  -552  -465  -389  -392  -471  -550  -582  -579  -567  -557  -547  -538  -532  -530  -526  -514  -479  -404  -291  -161  -46  16  -6  -126  -293  -403  -403  -332  -257  -217  -215  -241  -287  -340  -375  -370  -320  -251  -198  -177  -176  -183  -184  -156  -78  35  134  170  87  -159  -488  -694  -655  -433  -193  -60  -48  -101  -163  -201  -208  -203  -201  -195  -171  -136  -126  -167  -242  -307  -339  -347  -346  -343  -341  -343  -346  -350  -355  -365  -389  -433  -501  -574  -624  -641  -643  -643  -631  -589  -530  -510  -561  -633  -636  -532  -360  -191  -103  -126  -228  -360  -500  -631  -727  -762  -728  -638  -521  -408  -332  -302  -286  -208  -28  188  334  361  289  157  0]
