reading_id,reading_time,wire_id,result_classification,heart_rate,heart_rate_alert,firmware_version,device_app_version,hardware_version,waveform_samples
b6ef2d40-4f1c-11ed-8080-808080808080,Tue Oct 18 19:40:26 UTC 2022,e100e35f1c39,NSR,63,NONE,20001.171.50,2.10.0,Charge 5,[-12230  -12397  -12367  -11877  -10946  -9886  -8780  -7555  -6488  -5874  -5522  -5143  -4829  -4943  -5871  -7716  -10051  -12124  -13449  -14124  -14519  -14878  -15055  -14672  -13594  -11972  -10109  -8452  -7238  -6250  -5126  -3667  -1828  241  2193  3778  4999  5937  6730  7554  8359  8894  9073  9031  8927  8860  8906  9184  9833  10851  11985  12925  13596  14083  14440  14726  15019  15308  15491  15552  15622  15841  16192  16567  16963  17451  18042  18644  19120  19431  19688  20031  20508  21049  21529  21851  21962  21822  21421  20791  19952  18964  18012  17277  16792  16486  16278  16139  16124  16284  16552  16802  16989  17142  17295  17474  17653  17752  17834  18198  19127  20547  21972  22839  22935  22370  21322  19995  18444  16532  14362  12381  11095  10776  11291  12195  13020  13497  13582  13381  13115  12937  12793  12559  12234  11877  11507  11172  10942  10800  10604  10203  9640  9145  8865  8756  8676  8513  8272  8031  7781  7457  7114  6891  6822  6825  6834  6835  6834  6831  6829  6828  6811  6756  6667  6551  6385  6163  5950  5820  5788  5817  5853  5857  5814  5719  5586  5459  5374  5321  5224  4990  4630  4256  3934  3605  3213  2817  2480  2150  1796  1497  1306  1168  993  732  389  28  -252  -413  -523  -691  -969  -1296  -1541  -1658  -1711  -1778  -1905  -2103  -2321  -2476  -2555  -2614  -2683  -2711  -2659  -2576  -2524  -2506  -2498  -2495  -2517  -2589  -2705  -2822  -2893  -2867  -2709  -2473  -2281  -2195  -2175  -2160  -2135  -2109  -2086  -2080  -2093  -2110  -2107  -2053  -1910  -1649  -1331  -1086  -965  -914  -888  -894  -963  -1122  -1348  -1564  -1703  -1749  -1726  -1691  -1675  -1668  -1661  -1656  -1664  -1700  -1775  -1898  -2054  -2178  -2223  -2188  -2090  -1977  -1904  -1884  -1897  -1932  -1989  -2057  -2123  -2201  -2305  -2415  -2466  -2365  -2144  -1972  -1907  -1858  -1778  -1677  -1552  -1419  -1298  -1207  -1154  -1138  -1154  -1197  -1263  -1342  -1421  -1475  -1466  -1362  -1173  -971  -851  -837  -868  -889  -915  -997  -1134  -1243  -1269  -1242  -1202  -1153  -1108  -1076  -1054  -1033  -1009  -999  -1022  -1075  -1117  -1090  -959  -765  -576  -357  -25  367  675  853  954  1007  996  915  800  710  646  549  384  176  -34  -207  -303  -332  -323  -290  -245  -225  -257  -334  -413  -474  -567  -761  -987  -1043  -884  -692  -594  -481  -118  630  1695  2816  3566  3463  2298  394  -1664  -3408  -4441  -4509  -3881  -3181  -2746  -2523  -2373  -2165  -1841  -1501  -1276  -1168  -1109  -1067  -1040  -1009  -945  -856  -782  -756  -764  -779  -777  -749  -700  -665  -675  -698  -690  -666  -664  -675  -645  -505  -255  2  149  166  113  80  198  563  1060  1433  1572  1559  1478  1356  1248  1224  1298  1433  1615  1816  1966  2034  2059  2072  2029  1861  1572  1249  961  721  516  324  114  -125  -368  -560  -681  -761  -849  -960  -1055  -1094  -1094  -1101  -1143  -1194  -1235  -1297  -1386  -1452  -1450  -1390  -1320  -1253  -1174  -1111  -1127  -1230  -1327  -1298  -1143  -975  -872  -830  -825  -869  -989  -1159  -1300  -1351  -1295  -1137  -938  -797  -757  -796  -875  -951  -1016  -1089  -1143  -1150  -1124  -1085  -1051  -1024  -998  -976  -965  -961  -957  -961  -993  -1074  -1193  -1254  -1134  -870  -652  -604  -704  -855  -965  -1003  -981  -907  -786  -640  -503  -403  -343  -316  -311  -308  -279  -211  -128  -71  -61  -83  -82  -1  144  289  394  461  504  523  521  493  431  357  305  281  268  268  312  429  575  660  651  539  314  52  -130  -209  -229  -227  -243  -306  -398  -455  -405  -219  37  236  318  321  286  209  82  -42  -100  -112  -137  -162  -152  -125  -122  -150  -181  -178  -147  -126  -132  -145  -145  -127  -105  -93  -86  -76  -63  -41  -7  27  14  -139  -476  -871  -1129  -1203  -1193  -1195  -1226  -1261  -1280  -1281  -1276  -1275  -1284  -1310  -1352  -1412  -1481  -1508  -1417  -1208  -982  -803  -509  123  1097  2218  3108  3232  2311  629  -1253  -2928  -4143  -4753  -4785  -4354  -3592  -2758  -2143  -1813  -1622  -1413  -1118  -788  -529  -373  -271  -154  -5  142  250  343  474  636  753  786  769  756  773  810  836  853  899  992  1093  1177  1264  1361  1486  1657  1837  1973  2062  2139  2232  2337  2450  2607  2805  2978  3077  3105  3081  3026  2952  2892  2889  2937  2991  3023  3043  3049  3008  2878  2675  2483  2340  2167  1881  1529  1222  987  784  604  456  310  154  23  -61  -110  -134  -155  -208  -295  -341  -298  -217  -168  -154  -149  -147  -165  -211  -271  -313  -328  -330  -342  -377  -425  -458  -469  -468  -468  -477  -524  -633  -769  -859  -889  -910  -974  -1072  -1153  -1178  -1123  -986  -820  -687  -625  -677  -822  -954  -1014  -1036  -1056  -1074  -1084  -1091  -1094  -1075  -1010  -910  -822  -776  -767  -791  -858  -964  -1081  -1167  -1149  -1010  -864  -837  -952  -1132  -1259  -1256  -1114  -902  -719  -613  -568  -561  -612  -752  -951  -1130  -1243  -1274  -1219  -1117  -1015  -943  -926  -955  -979  -965  -923  -882  -852  -807  -710  -578  -474  -435  -441  -450  -448  -459  -502  -581  -679  -762  -793  -747  -626  -482  -384  -351  -358  -393  -465  -571  -654  -643  -555  -501  -558  -684  -775  -781  -746  -726  -724  -688  -575  -413  -290  -252  -286  -356  -406  -410  -374  -273  -88  113  247  285  253  215  217  244  258  254  254  297  390  454  377  181  9  -64  -75  -44  64  268  500  657  699  637  511  425  505  732  932  1049  1281  1862  2852  4080  5081  5282  4435  2752  716  -1080  -2247  -2857  -3140  -3133  -2774  -2090  -1234  -451  28  197  239  275  301  298  283  274  272  259  225  182  161  169  183  192  203  219  235  250  289  376  500  611  650  613  578  620  738  881  1024  1160  1288  1426  1588  1764  1928  2057  2152  2230  2331  2509  2740  2904  2895  2704  2436  2244  2185  2209  2254  2294  2303  2226  2005  1671  1331  1060  857  697  566  430  230  -35  -273  -400  -425  -406  -394  -407  -446  -511  -588  -639  -643  -605  -552  -511  -487  -464  -433  -411  -407  -418  -455  -507  -523  -486  -418  -333  -257  -222  -231  -274  -330  -367  -377  -382  -406  -455  -507  -548  -576  -595  -607  -622  -650  -697  -752  -795  -809  -802  -787  -772  -757  -744  -739  -741  -743  -729  -676  -573  -449  -359  -321  -308  -298  -291  -292  -311  -353  -406  -440  -436  -405  -385  -404  -449  -487  -505  -508  -507  -505  -493  -460  -403  -340  -293  -259  -208  -128  -61  -73  -173  -293  -372  -406  -422  -426  -408  -364  -304  -243  -195  -163  -141  -135  -154  -192  -229  -253  -266  -268  -255  -219  -172  -140  -141  -172  -214  -242  -256  -277  -332  -435  -562  -627  -580  -487  -427  -403  -395  -395  -404  -416  -404  -328  -192  -66  -12  -15  -31  -40  -42  -44  -50  -54  -49  -5  105  256  368  409  393  323  184  3  -153  -247  -286  -300  -320  -368  -441  -510  -556  -573  -569  -556  -563  -632  -779  -931  -937  -782  -678  -724  -732  -413  484  1910  3384  4343  4382  3335  1500  -561  -2357  -3554  -4082  -4130  -3916  -3516  -2937  -2248  -1545  -954  -605  -479  -436  -397  -382  -406  -432  -425  -402  -387  -368  -320  -248  -168  -72  32  95  91  76  119  232  366  469  516  506  471  507  679  923  1114  1239  1372  1526  1647  1716  1779  1897  2066  2224  2326  2389  2423  2411  2354  2321  2409  2602  2771  2842  2840  2769  2559  2193  1803  1526  1326  1091  832  611  430  272  136  -7  -173  -338  -490  -620  -715  -770  -798  -816  -828  -832  -832  -833  -834  -830  -816  -807  -831  -922  -1095  -1311  -1460  -1464  -1336  -1120  -879  -704  -623  -608  -650  -763  -950  -1174  -1364  -1464  -1470  -1414  -1335  -1268  -1232  -1217  -1191  -1125  -1035  -983  -999  -1055  -1106  -1137  -1152  -1143  -1097  -1033  -984  -963  -954  -946  -937  -919  -896  -882  -916  -1032  -1204  -1324  -1254  -926  -466  -138  -56  -108  -164  -190  -201  -204  -189  -135  -46  48  132  202  247  267  274  285  312  361  419  477  533  568  542  455  393  464  635  725  661  553  505  518  547  546  480  354  219  132  107  133  208  326  506  792  1143  1409  1500  1459  1379  1309  1239  1152  1068  1018  1002  993  971  911  791  639  525  474  446  409  378  395  498  665  819  917  967  954  879  797  740  674  554  342  30  -303  -540  -641  -660  -661  -672  -693  -705  -693  -684  -712  -769  -833  -891  -912  -887  -867  -865  -826  -652  -157  753  1913  2993  3575  3307  2237  750  -764  -2026  -2920  -3482  -3747  -3673  -3239  -2558  -1805  -1099  -541  -233  -163  -188  -179  -107  -23  45  129  205  216  169  112  77  65  65  75  111  186  286  381  459  523  575  617  657  690  701  705  768  927  1118  1238  1255  1227  1257  1438  1758  2077  2283  2413  2542  2644  2670  2630  2565  2517  2508  2520  2509  2434  2281  2061  1804  1569  1412  1314  1201  1008  730  421  147  -65  -220  -327  -415  -526  -657  -752  -770  -721  -637  -566  -541  -567  -626  -685  -726  -757  -775  -766  -731  -677  -616  -558  -500  -440  -403  -424  -505  -584  -559  -409  -227  -112  -77  -90  -150  -271  -432  -575  -655  -688  -710  -732  -721  -617  -383  -108  52  66  0  -92  -164  -186  -178  -175  -194  -230  -263  -285  -296  -297  -287  -257  -193  -102  -20  24  43  34  -24  -123  -227  -308  -348  -333  -258  -153  -81  -112  -274  -497  -658  -705  -677  -624  -559  -468  -364  -296  -287  -312  -333  -331  -313  -308  -382  -582  -845  -1044  -1126  -1121  -1027  -814  -535  -333  -284  -357  -485  -606  -692  -748  -772  -764  -742  -730  -730  -739  -753  -757  -726  -629  -445  -203  29  212  343  426  436  305  2  -392  -729  -915  -970  -960  -914  -831  -732  -677  -702  -792  -928  -1082  -1196  -1218  -1168  -1103  -1018  -908  -823  -761  -645  -345  343  1464  2702  3571  3624  2632  880  -1024  -2621  -3628  -3981  -3921  -3700  -3360  -2903  -2373  -1853  -1464  -1261  -1168  -1075  -949  -817  -686  -548  -416  -286  -147  -17  79  129  144  147  133  92  59  72  120  200  343  521  650  698  709  723  753  811  894  985  1086  1219  1406  1658  1962  2285  2570  2761  2866  2921  2948  2972  3036  3136  3209  3190  3087  2956  2825  2705  2613  2534  2413  2203  1892  1512  1113  764  519  379  300  246  212  190  159  112  67  40  10  -70  -234  -469  -716  -887  -935  -826  -528  -135  147  215  119  -46  -213  -357  -468  -511  -460  -339  -204  -96  -34  -42  -174  -448  -749  -884  -769  -519  -309  -217  -222  -288  -381  -460  -497  -490  -447  -373  -292  -239  -228  -244  -268  -293  -332  -398  -485  -568  -620  -639  -648  -661  -667  -656  -631  -603  -566  -499  -402  -291  -173  -85  -100  -229  -395  -519  -585  -621  -647  -661  -654  -610  -515  -364  -161  32  101  -19  -249  -437  -511  -507  -475  -401  -243  -42  63  -6  -187  -350  -425  -441  -468  -563  -731  -867  -822  -609  -387  -241  -148  -99  -124  -236  -390  -505  -546  -528  -467  -373  -277  -221  -222  -226  -141  71  364  632  772  747  589  367  166  35  -43  -105  -173  -273  -406  -532  -621  -675  -719  -767  -808  -834  -849  -856  -830  -741  -598  -468  -465  -657  -832  -584  224  1347  2399  3067  3239  2943  2272  1323  53  -1446  -2826  -3849  -4309  -3972  -3044  -2079  -1357  -865  -579  -463  -434  -435  -428  -378  -290  -191  -101  -29  39  132  221  264  265  255  247  250  276  326  385  434  474  515  541  521  466  460  618  965  1361  1617  1689  1661  1628  1659  1797  2012  2231  2410  2539  2619  2660  2673  2681  2713  2747  2709  2583  2439  2336  2230  2025  1736  1494  1361  1251  1050  738  400  144  24  8  9  -61  -249  -545  -844  -1010  -1021  -963  -898  -855  -839  -839  -838  -830  -822  -818  -816  -815  -819  -826  -818  -763  -650  -515  -416  -372  -365  -372  -382  -395  -413  -433  -444  -443  -436  -434  -444  -464  -489  -511  -527  -540  -554  -568  -584  -604  -621  -605  -542  -457  -398  -380  -363  -309  -231  -171  -145  -145  -184  -285  -426  -525  -511  -367  -164  -19  1  -85  -217  -325  -380  -400  -418  -442  -459  -466  -477  -503  -543  -573  -566  -524  -454  -351  -237  -155  -115  -94  -74  -53  -37  -38  -62  -89  -106  -110  -87  -18  84  187  268  296  247  131  -33  -206  -322  -351  -314  -237  -151  -76  10  150  314  433  484  492  456  348  172  -9  -135  -192  -190  -159  -133  -116  -84  -13  105  258  388  436  410  367  343  338  351  397  480  574  649  683  649  518  315  108  -74  -252  -463  -728  -932  -879  -593  -324  -229  -266  -346  -426  -524  -688  -875  -901  -726  -582  -612  -701  -649  -255  622  1900  3167  3886  3721  2684  1108  -502  -1746  -2571  -3133  -3464  -3525  -3263  -2632  -1794  -1096  -729  -608  -568  -544  -533  -521  -488  -424  -332  -229  -140  -77  -25  37  96  116  91  22  -67  -97  -31  102  292  496  635  695  756  901  1104  1267  1351  1377  1372  1358  1366  1435  1585  1807  2051  2264  2434  2584  2748  2950  3120  3126  2973  2779  2595  2430  2305  2228  2185  2175  2193  2196  2076  1735  1214  679  272  37  -56  -66  -51  -69  -162  -309  -438  -499  -507  -495  -487  -502  -546  -583  -572  -535  -550  -649  -773  -853  -883  -880  -835  -723  -573  -452  -393  -393  -439  -495  -523  -529  -542  -579  -622  -644  -640  -611  -550  -472  -403  -331  -230  -116  -38  -43  -160  -397  -722  -979  -957  -676  -394  -267  -259  -290  -315  -326  -328  -311  -261  -189  -140  -163  -281  -443  -561  -601  -596  -579  -552  -504  -437  -374  -327  -284  -224  -171  -185  -275  -391  -477  -510  -503  -484  -470  -467  -487  -542  -611  -633  -564  -431  -297  -204  -156  -142  -167  -255  -398  -525  -560  -495  -395  -302  -221  -186  -240  -345  -407  -390  -337  -280  -200  -97  -17  11  20  36  22  -60  -203  -368  -510  -591  -610  -575  -499  -413  -354  -313  -247  -147  -31  101  239  338  381  392  381  342  293  261  254  258  258  247  226  205  196  198  190  136  11  -157  -312  -419  -478  -519  -570  -632  -673  -654  -550  -370  -168  -39  -96  -361  -658  -800  -720  -278  588  1635  2634  3519  4040  3817  2814  1350  -253  -1679  -2627  -3065  -3179  -3098  -2811  -2301  -1716  -1288  -1044  -797  -481  -230  -140  -169  -220  -227  -166  -63  29  87  145  227  279  265  228  188  137  122  175  291  471  657  802  951  1135  1304  1399  1396  1327  1260  1249  1320  1474  1678  1877  2051  2234  2428  2586  2703  2836  2990  3091  3045  2827  2548  2379  2362  2402  2416  2371  2253  2055  1803  1544  1276  984  718  544  441  332  203  104  41  -36  -165  -316  -435  -495  -527  -594  -706  -804  -822  -742  -592  -435  -327  -285  -313  -425  -596  -751  -833  -829  -712  -453  -133  85  142  110  44  -63  -199  -304  -346  -350  -372  -457  -607  -738  -736  -609  -472  -394  -364  -373  -427  -504  -564  -585  -571  -525  -461  -406  -381  -385  -415  -468  -528  -569  -575  -551  -513  -475  -446  -429  -424  -419  -400  -371  -356  -382  -470  -597  -704  -760  -770  -720  -583  -391  -237  -176  -176  -180  -151  -94  -33  12  51  98  139  137  80  -4  -78  -121  -148  -189  -238  -266  -264  -252  -250  -259  -253  -198  -85  45  119  93  -17  -190  -390  -545  -608  -601  -548  -433  -253  -90  -51  -131  -225  -266  -265  -246  -193  -76  82  209  262  225  74  -190  -506  -783  -955  -1032  -1067  -1084  -1082  -1075  -1081  -1102  -1110  -1080  -1033  -1021  -1065  -1158  -1333  -1603  -1864  -1955  -1752  -1142  -160  924  1916  2776  3313  3212  2347  885  -803  -2290  -3287  -3774  -3921  -3829  -3468  -2877  -2240  -1753  -1469  -1286  -1117  -983  -912  -883  -871  -868  -873  -888  -907  -902  -836  -702  -555  -463  -439  -452  -474  -495  -511  -524  -526  -481  -349  -159  12  114  148  148  186  348  661  1066  1437  1651  1694  1664  1683  1833  2101  2387  2587  2680  2710  2738  2779  2781  2704  2593  2526  2512  2504  2457  2357  2185  1904  1562  1273  1073  910  740  574  444  349  259  166  87  27  -22  -65  -92  -98  -89  -91  -161  -339  -585  -791  -879  -869  -837  -829  -839  -853  -864  -870  -872  -871  -866  -857  -855  -893  -1000  -1143  -1247  -1283  -1279  -1263  -1238  -1206  -1180  -1164  -1159  -1178  -1245  -1367  -1497  -1576  -1590  -1547  -1439  -1207  -793  -266  180  443  593  763  1033  1367  1644  1798  1888  2001  2130  2172  2063  1873  1739  1713  1747  1780  1794  1801  1809  1820  1825  1808  1755  1666  1556  1433  1303  1187  1115  1093  1094  1086  1063  1037  1019  1011  1012  1022  1029  1007  947  878  824  739  551  294  98  24  26  56  101  158  207  226  194  107  0  -69  -85  -77  -70  -68  -70  -78  -82  -35  104  296  440  495  498  470  396  290  224  252  331  339  219  75  7  -17  -109  -335  -638  -902  -1036  -1008  -862  -702  -599  -536  -465  -407  -455  -658  -919  -1022  -824  -496  -309  -201  100  773  1864  3172  4144  4167  2995  910  -1413  -3238  -4156  -4193  -3622  -2877  -2368  -2106  -1822  -1446  -1149  -1024  -1005  -1006  -992  -956  -894  -826  -782  -764  -727  -614  -427  -223  -60  34  75  88  81  50  7  -35  -67  -87  -84  -16  150  379  592  763  891  958  979  1028  1181  1434  1710  1920  2031  2083  2161  2323  2555  2780  2906  2882  2705  2454  2260  2187  2179  2148  2042  1846  1577  1290  1019  744  439  138  -100  -275  -432  -581  -691  -743  -753  -746  -737  -731  -735  -769  -839  -921  -980  -1011  -1031  -1048  -1060  -1060  -1033  -961  -857  -770  -741  -756  -787  -828  -873  -899  -886  -835  -776  -741  -732  -738  -748  -767  -816  -899  -968  -970  -897  -796  -718  -665  -608  -565  -572  -602  -605  -575  -535  -502  -481  -474  -483  -503  -535  -588  -642  -668  -669  -667  -671  -674  -656  -599  -522  -467  -449  -442  -417  -362  -281  -198  -143  -125  -124  -128  -145  -188  -246  -285  -287  -272  -261  -257  -251  -242  -235  -228  -219  -207  -192  -174  -172  -217  -318  -445  -555  -632  -667  -638  -539  -417  -330  -284  -256  -239  -257  -339  -463  -555  -550  -437  -271  -142  -92  -112  -181  -275  -351  -385  -383  -358  -289  -150  19  139  177  170  158  151  150  154  165  177  166  123  62  -9  -81  -134  -159  -168  -176  -202  -271  -375  -472  -532  -567  -596  -601  -561  -511  -505  -567  -646  -672  -691  -733  -636  -266  414  1421  2502  3238  3434  3060  2187  1066  -85  -1232  -2303  -3093  -3473  -3470  -3123  -2515  -1802  -1135  -640  -385  -320  -342  -388  -427  -444  -433  -387  -314  -232  -168  -146  -144  -99  14  166  341  509  605  602  525  418  353  365  419  488  595  743  879  954  980  1016  1153  1467  1880  2203  2362  2449  2550  2653  2714  2729  2728  2721  2698  2660  2617  2581  2562  2560  2544  2449  2212  1864  1526  1293  1167  1085  967  765  481  152  -147  -349  -457  -523  -563  -572  -558  -537  -522  -512  -506  -515  -566  -666  -788  -878  -889  -825  -724  -606  -497  -424  -390  -387  -402  -415  -412  -390  -353  -312  -274  -239  -214  -227  -306  -440  -571  -657  -695  -705  -697  -667  -604  -523  -462  -435  -428  -430  -440  -453  -455  -440  -429  -430  -434  -447  -498  -616  -781  -918  -975  -955  -862  -704  -529  -410  -374  -388  -407  -407  -390  -364  -332  -306  -290  -277  -275  -298  -350  -399  -409  -384  -362  -357  -356  -351  -347  -352  -364  -373  -383  -412  -458  -480  -446  -392  -376  -388  -372  -311  -245  -212  -209  -188  -109  -22  4  -36  -122  -228  -328  -417  -514  -616  -693  -701  -631  -530  -455  -415  -382  -346  -315  -286  -243  -196  -186  -239  -325  -386  -381  -289  -131  22  110  130  114  91  72  64  82  151  285  448  577  649  683  681  644  590  531  459  355  228  108  9  -90  -225  -378  -485  -520  -514  -501  -489  -475  -456  -432  -416  -421  -389  -249  -37  245  714  1423  2335  3282  3887  3813  3019  1714  195  -1289  -2536  -3349  -3631  -3406  -2796  -2049  -1409  -951  -650  -460  -335  -257  -220  -220  -263  -361  -490  -581  -552  -388  -201  -112  -98  -73  -13  50  91  108  124  178  304  489  662  770  817  838  862  895  926  977  1101  1304  1502  1618  1697  1841  2056  2250  2366  2423  2452  2469  2488  2524  2561  2578  2588  2608  2598  2499  2324  2143  1984  1785  1466  1079  785  646  565  446  265  37  -184  -330  -391  -416  -440  -493  -608  -768  -908  -977  -968  -901  -786  -628  -464  -348  -301  -319  -377  -431  -438  -395  -348  -335  -358  -445  -648  -921  -1124  -1185  -1124  -989  -823  -670  -560  -506  -493  -489  -467  -414  -348  -332  -400  -500  -571  -622  -672  -716  -744  -760  -777  -799  -834  -888  -924  -870  -734  -613  -561  -558  -575  -618  -688  -761  -804  -794  -700  -503  -261  -88  -26  -39  -98  -208  -353  -483  -560  -593  -609  -617  -619  -618  -617  -616  -619  -621  -604  -543  -435  -336  -290  -291  -343  -423  -470  -477  -498  -546  -596  -640  -687  -734  -757  -743  -668  -504  -295  -135  -58  -53  -120  -254  -407  -517  -558  -516  -363  -122  97  197  194  158  126  102  82  74  106  207  354  480  512  370  13  -430  -736  -829  -805  -771  -778  -837  -926  -1000  -1017  -943  -771  -600  -569  -677  -777  -688  -328  221  838  1508  2347  3302  3947  3836  2840  1145  -765  -2342  -3331  -3756  -3703  -3305  -2740  -2136  -1584  -1181  -961  -852  -760  -646  -526  -428  -337  -230  -127  -69  -58  -68  -81  -99  -131  -156  -114  5  128  188  195  190  213  294  418  551  692  841  962  1032  1054  1044  1056  1176  1437  1771  2075  2284  2395  2468  2597  2824  3111  3389  3600  3715  3741  3660  3432  3106  2813  2621  2472  2283  2064  1883  1727  1534  1311  1092  859  618  441  364  337  271  114  -93  -255  -328  -355  -407  -515  -659  -768  -760  -645  -513  -409  -331  -280  -250  -215  -177  -156  -159  -171  -178  -198  -259  -359  -456  -519  -550  -565  -572  -562  -526  -482  -446  -409  -389  -413  -461  -510  -564  -622  -670  -684  -618  -481  -355  -299  -290  -297  -326  -412  -556  -706  -803  -837  -831  -803  -758  -699  -652  -635  -623  -575  -497  -454  -496  -582  -656  -714  -756  -764  -725  -650  -575  -532  -508  -471  -436  -444  -477  -463  -383  -305  -315  -419  -539  -597  -595  -576  -562  -556  -572  -630  -729  -841  -915  -884  -701  -441  -259  -226  -290  -378  -452  -489  -453  -319  -130  22  94  105  82  34  -34  -106  -152  -164  -153  -144  -176  -291  -481  -694  -863  -930  -896  -819  -750  -709  -706  -765  -907  -1094  -1233  -1283  -1260  -1171  -1012  -820  -613  -289  304  1235  2366  3287  3554  3001  1687  -182  -2135  -3650  -4474  -4550  -4016  -3270  -2666  -2302  -2116  -2005  -1876  -1674  -1389  -1043  -718  -539  -553  -678  -805  -882  -913  -924  -942  -971  -978  -897  -677  -359  -57  164  327  451  517  532  531  556  645  817  1028  1213  1349  1468  1600  1731  1835  1958  2186  2518  2851  3092  3206  3223  3213  3236  3313  3423  3518  3556  3525  3435  3289  3077  2807  2519  2287  2158  2066  1852  1449  978  608  406  335  331  340  316  220  72  -55  -107  -92  -49  5  97  242  426  617  770  836  811  737  656  570  485  435  436  463  489  504  508  488  432  356  299  279  288  316  357  392  387  299  128  -41  -150  -195  -181  -182  -288  -442  -539  -558  -518  -450  -370  -270  -178  -125  -99  -85  -91  -126  -180  -241  -311  -387  -441  -459  -457  -448  -433  -416  -404  -400  -396  -391  -398  -434  -491  -531  -525  -478  -428  -421  -457  -494  -511  -529  -574  -647  -727  -784  -785  -720  -612  -502  -419  -364  -324  -309  -318  -322  -314  -361  -532  -769  -902  -834  -640  -456  -353  -333  -389  -504  -629  -703  -687  -580  -431  -316  -268  -276  -322  -374  -377  -299  -165  -40  41  96  139  168  183  190  190  170  107  -3  -157  -344  -523  -641  -688  -702  -718  -749  -784  -808  -828  -862  -898  -921  -941  -955  -915  -802  -742  -857  -1073  -1192  -1022  -448  480  1601  2624  3131  2897  2053  849  -511  -1832  -2923  -3684  -4059  -3967  -3438  -2726  -2120  -1697  -1376  -1101  -894  -786  -752  -735  -697  -648  -615  -599  -564  -463  -258  -4  161  184  138  93  64  55  106  261  499  720  873  1012  1183  1353  1471  1523  1531  1543  1615  1761  1928  2045  2104  2169  2299  2478  2657  2834  3030  3221  3365  3448  3460  3395  3301  3209  3072  2844  2540  2227  1985  1819  1661  1473  1273  1083  889  636  317  35  -126  -210  -289  -373  -439  -472  -482  -501  -545  -580  -552  -465  -381  -341  -337  -355  -394  -442  -479  -496  -499  -494  -483  -477  -505  -600  -741  -835  -806  -683  -545  -458  -435  -469  -553  -665  -764  -839  -903  -955  -976  -976  -984  -1004  -1007  -992  -985  -978  -947  -892  -876  -965  -1125  -1256  -1319  -1349  -1358  -1296  -1118  -864  -651  -550  -562  -673  -860  -1050  -1163  -1198  -1195  -1166  -1085  -940  -770  -637  -570  -547  -517  -435  -289  -126  -9  62  140  230  279  265  224  192  178  182  214  274  344  416  505  588  623  605  552  499  456  406  337  254  168  102  68  51  33  20  29  69  122  161  187  226  284  346  401  436  420  301  31  -316  -575  -666  -631  -505  -322  -154  -68  -61  -94  -127  -148  -184  -269  -384  -459  -463  -426  -394  -388  -401  -421  -430  -393  -277  -111  33  131  195  216  154  0  -152  -192  -136  -85  -124  -290  -526  -715  -809  -858  -923  -1009  -1072  -1085  -1059  -1017  -981  -956  -948  -960  -982  -1003  -996  -896  -689  -442  -103  484  1325  2272  3128  3654  3639  3010  1849  301  -1390  -2824  -3658  -3814  -3384  -2564  -1690  -1058  -735  -591  -473  -336  -215  -130  -77  -68  -114  -196  -273  -315  -283  -110  209  547  746  761  645  488  384  378  458  570  650  691  749  871  1035  1185  1286  1346  1393  1475  1633  1841  2011  2102  2158  2227  2346  2547  2791  2969  3034  3031  3007  2967  2906  2835  2764  2687  2590  2461  2297  2112  1932  1780  1665  1552  1368  1091  792  568  459  400  293  127  -24  -112  -143  -146  -144  -144  -143  -145  -179  -280  -429  -564  -646  -681  -677  -636  -558  -440  -286  -141  -72  -82  -109  -115  -106  -90  -75  -93  -190  -349  -505  -614  -648  -589  -465  -341  -280  -299  -346  -377  -404  -460  -542  -612  -620  -562  -501  -481  -476  -473  -490  -520  -546  -584  -660  -759  -832  -855  -840  -808  -775  -758  -759  -756  -713  -624  -558  -574  -633  -670  -676  -682  -709  -734  -688  -559  -434  -399  -467  -594  -691  -702  -660  -613  -591  -614  -656  -677  -664  -627  -594  -583  -593  -628  -692  -758  -783  -732  -600  -450  -355  -329  -352  -403  -474  -544  -589  -603  -598  -586  -561  -524  -505  -540  -633  -742  -785  -704  -552  -446  -416  -418  -412  -380  -312  -201  -79  -20  -51  -117  -167  -186  -172  -134  -77  -4  75  151  188  157  68  -52  -183  -299  -408  -522  -620  -682  -690  -639  -575  -566  -661  -859  -1091  -1259  -1305  -1224  -1050  -845  -665  -510  -330  -53  452  1297  2349  3197  3443  2964  1817  160  -1610  -3007  -3800  -3951  -3522  -2793  -2111  -1621  -1321  -1134  -964  -789  -641  -538  -467  -381  -251  -104  9  69  87  95  111  130  138  127  102  84  93  130  181  232  279  335  427  574  772  971  1090  1120  1143  1247  1478  1821  2178  2425  2540  2621  2753  2930  3082  3159  3143  3058  2960  2894  2875  2883  2884  2868  2840  2773  2630  2444  2288  2153  1938  1624  1323  1134  1044  980  865  633  274  -118  -407  -549  -582  -543  -456  -315  -147  -59  -119  -274  -417  -478  -491  -520  -537  -465  -299  -124  -22  1  -21  -76  -166  -266  -342  -388  -402  -393  -396  -401  -367  -314  -290  -298  -310  -313  -309  -313  -323  -317  -274  -206  -150  -128  -151  -232  -358  -492  -596  -657  -672  -634  -527  -386  -283  -254  -283  -340  -400  -462  -548  -651  -737  -789  -818  -832  -835  -828  -793  -708  -567  -409  -312  -335  -471  -618  -646  -552  -454  -432  -462  -494  -508  -512  -512  -497  -452  -387  -331  -303  -303  -316  -318  -309  -313  -352  -452  -614  -780  -875  -863  -746  -567  -396  -269  -184  -149  -186  -298  -469  -648  -771  -820  -825  -816  -805  -784  -738  -644  -480  -256  -34  106  144  119  66  10  -26  -38  -39  -39  -34  -4  64  159  249  311  339  346  344  332  291  203  56  -149  -378  -557  -640  -652  -653  -686  -758  -846  -904  -907  -858  -787  -729  -707  -733  -828  -971  -1077  -1014  -618  188  1275  2425  3430  3976  3744  2730  1226  -449  -1981  -3085  -3609  -3509  -2945  -2242  -1651  -1251  -1006  -852  -750  -679  -611  -527  -414  -250  -64  63  98  83  78  129  241  360  412  371  282  209  181  201  272  383  503  620  747  867  941  965  990  1067  1217  1414  1608  1767  1881  1963  2042  2173  2391  2644  2821  2889  2902  2902  2894  2873  2817  2715  2604  2529  2487  2424  2280  2030  1704  1393  1173  1015  835  622  437  290  150  5  -148  -296  -398  -443  -466  -488  -498  -480  -442  -418  -433  -471  -515  -563  -612  -647  -654  -626  -581  -545  -518  -487  -468  -505  -622  -742  -730  -568  -378  -290  -340  -456  -541  -581  -622  -685  -765  -838  -878  -888  -890  -901  -916  -930  -946  -964  -983  -999  -994  -958  -914  -885  -875  -875  -872  -870  -893  -966  -1074  -1156  -1159  -1057  -880  -707  -610  -593  -638  -746  -920  -1115  -1251  -1294  -1265  -1183  -1069  -970  -918  -907  -912  -926  -954  -989  -974  -861  -711  -645  -675  -720  -745  -779  -848  -929  -963  -915  -815  -715  -643  -592  -557  -526  -485  -431  -352  -237  -116  -67  -134  -242  -294  -290  -248  -178  -113  -55  44  199  327  324  205  101  117  246  379  424  391  317  189  27  -93  -110  -10  173  360  477  518  515  462  336  166  24  -52  -88  -128  -226  -433  -747  -1073  -1284  -1337  -1274  -1137  -980  -864  -806  -791  -833  -954  -1082  -1144  -1171  -1115  -790  -106  859  1933  2778  3028  2573  1514  69  -1403  -2613  -3481  -3977  -4056  -3691  -2979  -2221  -1696  -1419  -1233  -979  -616  -240  26  154  195  205  207  212  245  327  454  578  629  588  539  545  580  642  759  883  941  935  906  879  869  901  998  1134  1244  1306  1353  1398  1425  1476  1648  1974  2345  2600  2685  2662  2635  2688  2848  3052  3202  3271  3277  3177  2900  2510  2200  2076  2084  2098  1998  1731  1381  1085  890  776  733  736  751  778  832  896  926  898  837  782  749  738  749  778  802  808  798  780  751  706  664  627  556  428  281  182  150  153  158  161  180  236  314  368  348  245  110  13  -31  -55  -76  -122  -230  -377  -489  -528  -508  -451  -385  -352  -377  -440  -493  -507  -505  -534  -631  -786  -940  -1026  -1035  -1008  -957  -852  -706  -585  -527  -519  -535  -573  -649  -742  -805  -825  -823  -811  -786  -743  -693  -654  -635  -622  -603  -563  -491  -411  -364  -357  -370  -382  -384  -384  -401  -451  -521  -574  -581  -561  -562  -581  -568  -504  -435  -411  -430  -454  -465  -474  -488  -502  -506  -509  -510  -494  -441  -345  -221  -98  -7  39  54  69  84  46  -111  -375  -653  -840  -888  -834  -763  -715  -688  -677  -684  -711  -741  -764  -802  -895  -1031  -1106  -1052  -952  -922  -935  -752  -122  957  2270  3432  3915  3430  2125  345  -1490  -2917  -3704  -3942  -3788  -3353  -2765  -2182  -1731  -1405  -1136  -916  -766  -673  -612  -566  -536  -521  -505  -462  -377  -281  -224  -215  -222  -213  -184  -137  -56  70  214  336  431  512  579  632  679  726  782  849  924  999  1092  1253  1512  1814  2041  2145  2199  2294  2430  2552  2643  2717  2770  2800  2818  2831  2820  2747  2586  2363  2101  1800  1513  1331  1243  1147  984  780  583  405  213  -41  -324  -537  -637  -662  -662  -656  -619  -523  -394  -300  -276  -317  -425  -611  -831  -979  -973  -796  -525  -283  -143  -103  -145  -259  -433  -614  -728  -758  -753  -757  -772  -772  -734  -651  -543  -448  -383  -337  -298  -264  -236  -234  -263  -303  -337  -367  -397  -419  -431  -433  -429  -424  -422  -422  -418  -408  -403  -412  -427  -441  -453  -464  -466  -440  -365  -236  -93  -15  -61  -231  -470  -683  -790  -773  -684  -596  -559  -568  -597  -627  -648  -659  -659  -632  -562  -460  -372  -337  -357  -396  -425  -442  -456  -478  -510  -535  -529  -499  -467  -452  -445  -425  -377  -277  -134  -17  26  26  28  59  116  172  211  231  230  209  179  144  117  107  109  96  27  -135  -377  -617  -762  -808  -830  -883  -921  -862  -699  -518  -377  -274  -208  -241  -464  -844  -1192  -1258  -841  54  1236  2458  3419  3768  3331  2218  640  -1076  -2474  -3303  -3536  -3241  -2679  -2124  -1647  -1257  -988  -822  -685  -544  -424  -344  -296  -243  -146  -23  67  102  103  99  117  177  266  347  393  395  370  368  408  456  490  529  592  657  691  727  859  1136  1462  1697  1814  1896  2017  2174  2301  2356  2358  2364  2419  2527  2658  2766  2821  2825  2810  2798  2792  2776  2709  2552  2324  2109  1951  1815  1617  1292  884  516  242  42  -90  -156  -171  -162  -165  -217  -338  -492  -610  -666  -691  -712  -710  -661  -577  -496  -439  -408  -405  -427  -457  -477  -480  -477  -476  -482  -492  -500  -503  -504  -505  -505  -504  -497  -475  -442  -432  -493  -629  -759  -785  -702  -596  -524  -474  -426  -388  -368  -370  -412  -498  -564  -501  -297  -89  -39  -200  -485  -746  -903  -965  -949  -857  -702  -535  -408  -333  -308  -335  -424  -572  -736  -842  -831  -686  -457  -250  -140  -128  -168  -209  -235  -251  -269  -302  -364  -441  -504  -553  -607  -655  -672  -673  -685  -689  -643  -546  -451  -422  -466  -521  -525  -465  -379  -321  -301  -294  -284  -282  -298  -325  -348  -359  -360  -349  -320  -281  -235  -154  20  313  642  875  950  899  779  635  467  250  21  -140  -218  -258  -315  -432  -599  -741  -803  -791  -745  -690  -623  -547  -491  -474  -477  -476  -484  -521  -559  -534  -371  -7  534  1210  2025  2846  3394  3397  2654  1158  -705  -2363  -3464  -3904  -3746  -3220  -2553  -1842  -1206  -807  -657  -616  -590  -576  -575  -552  -478  -362  -251  -169  -105  -46  -11  -24  -82  -126  -91  16  123  186  215  220  214  234  331  516  731  912  1062  1224  1374  1466  1521  1563  1590  1620  1692  1844  2085  2339  2504  2560  2575  2611  2682  2764  2822  2840  2819  2763  2691  2625  2530  2322  1966  1531  1150  930  846  764  581  314  51  -145  -276  -366  -445  -517  -578  -638  -678  -678  -653  -626  -593  -554  -517  -484  -455  -440  -446  -477  -519  -552  -570  -581  -579  -561  -556  -602  -702  -806  -850  -806  -699  -590  -524  -502  -505  -544  -646  -785  -890  -927  -918  -897  -880  -885  -942  -1070  -1211  -1264  -1208  -1106  -1000  -911  -859  -844  -848  -862  -892  -937  -984  -996  -937  -833  -747  -676  -548  -353  -178  -91  -75  -85  -96  -101  -103  -104  -95  -40  90  262  394  444  430  374  293  210  148  125  140  168  185  191  191  179  135  62  -8  -63  -115  -160  -175  -161  -135  -114  -101  -92  -88  -86  -84  -75  -60  -52  -53  -46  -21  9  45  92  154  228  286  282  222  160  133  123  66  -87  -296  -449  -498  -498  -524  -599  -688  -771  -864  -949  -1000  -1024  -1037  -1022  -981  -975  -1039  -1078  -951  -516  264  1238  2243  3136  3622  3426  2496  978  -771  -2281  -3219  -3548  -3442  -3099  -2672  -2272  -1963  -1739  -1566  -1402  -1216  -1014  -825  -649  -490  -379  -329  -320  -326  -334  -340  -329  -282  -199  -92  32  155  238  267  263  236  182  115  83  142  308  520  699  839  990  1176  1372  1553  1711  1842  1952  2082  2252  2416  2531  2624  2741  2873  2961  2979  2949  2892  2814  2715  2615  2545  2506  2442  2293  2061  1795  1544  1333  1144  946  740  566  463  439  466  508  516  431  238  8  -153  -214  -219  -215  -212  -203  -186  -172  -184  -225  -265  -295  -330  -377  -415  -421  -385  -334  -318  -371  -491  -626  -685  -639  -532  -400  -276  -205  -195  -230  -309  -418  -518  -580  -607  -611  -609  -601  -579  -543  -508  -488  -481  -477  -484  -523  -594  -649  -637  -580  -549  -571  -600  -575  -489  -392  -314  -256  -228  -255  -356  -492  -591  -624  -619  -604  -589  -586  -618  -703  -798  -838  -815  -757  -683  -615  -565  -512  -453  -420  -446  -542  -675  -793  -882  -951  -1004  -1014  -897  -592  -210  8  -51  -266  -448  -521  -504  -395  -191  36  185  222  175  76  -31  -101  -120  -110  -100  -111  -167  -275  -410  -526  -602  -638  -648  -671  -746  -860  -953  -991  -998  -1003  -992  -916  -740  -527  -455  -601  -736  -481  315  1444  2555  3357  3623  3271  2412  1149  -427  -2020  -3259  -3930  -3939  -3361  -2519  -1841  -1513  -1359  -1142  -844  -590  -446  -366  -286  -195  -115  -65  -60  -107  -176  -226  -248  -248  -210  -111  32  169  278  363  414  424  405  391  431  561  735  858  902  931  1035  1256  1535  1766  1948  2179  2474  2723  2844  2869  2860  2830  2764  2675  2610  2591  2604  2617  2602  2552  2474  2342  2091  1719  1341  1083  950  861  735  536  308  149  98  111  146  177  146  -37  -384  -710  -800  -664  -499  -422  -417  -440  -469  -498  -517  -521  -504  -462  -408  -366  -346  -340  -338  -334  -328  -326  -353  -436  -547  -622  -633  -607  -581  -571  -570  -570  -560  -536  -490  -429  -383  -378  -416  -472  -517  -545  -564  -575  -581  -592  -608  -594  -501  -350  -241  -235  -291  -342  -361  -360  -355  -350  -342  -338  -359  -417  -487  -552  -616  -662  -671  -658  -641  -626  -620  -622  -627  -622  -598  -563  -536  -521  -510  -496  -482  -473  -471  -475  -478  -469  -440  -395  -351  -334  -383  -532  -737  -898  -968  -954  -842  -615  -346  -159  -119  -217  -382  -488  -470  -388  -324  -292  -274  -248  -193  -100  9  124  254  412  575  681  691  610  477  348  273  258  232  135  13  -49  -49  -48  -102  -208  -312  -372  -392  -414  -492  -612  -676  -614  -453  -268  -157  -146  -168  -250  -369  -175  647  1929  3212  4048  4098  3293  1876  168  -1516  -2856  -3643  -3812  -3452  -2814  -2140  -1549  -1115  -871  -772  -730  -688  -642  -618  -617  -599  -494  -275  -13  178  245  213  150  102  71  61  114  268  477  631  684  677  657  644  657  722  839  960  1044  1138  1336  1655  1990  2241  2407  2523  2596  2629  2637  2638  2651  2687  2748  2819  2882  2930  2965  2981  2943  2811  2603  2391  2233  2123  1969  1671  1249  845  581  451  359  240  71  -169  -438  -625  -688  -679  -645  -591  -531  -513  -573  -685  -784  -841  -862  -843  -792  -744  -720  -707  -687  -662  -645  -638  -637  -638  -635  -603  -523  -417  -343  -331  -344  -347  -345  -389  -523  -709  -852  -919  -951  -980  -984  -924  -794  -626  -467  -362  -321  -323  -360  -449  -587  -716  -784  -785  -745  -694  -655  -637  -629  -619  -616  -652  -761  -908  -1011  -1020  -945  -818  -661  -459  -219  -43  -43  -233  -505  -695  -715  -599  -456  -381  -391  -449  -525  -600  -666  -719  -755  -766  -747  -710  -677  -654  -630  -597  -550  -476  -389  -325  -294  -278  -273  -279  -282  -273  -260  -252  -263  -283  -285  -247  -169  -57  62  157  228  294  345  352  307  221  112  -13  -171  -351  -506  -613  -689  -743  -757  -723  -674  -641  -622  -600  -570  -540  -537  -622  -829  -1032  -1039  -865  -656  -392  86  841  1752  2650  3293  3349  2682  1465  -31  -1526  -2712  -3378  -3489  -3118  -2438  -1741  -1285  -1094  -1015  -907  -731  -539  -396  -302  -240  -209  -206  -211  -197  -168  -139  -95  9  170  315  393  409  398  381  373  384  408  435  461  521  675  926  1198  1444  1671  1878  2049  2158  2205  2220  2236  2285  2389  2538  2700  2843  2915  2908  2895  2910  2936  2990  3055  3036  2827  2404  1919  1604  1525  1562  1573  1467  1219  874  522  267  150  120  106  79  24  -79  -231  -406  -575  -721  -823  -843  -767  -642  -528  -439  -371  -334  -329  -346  -372  -398  -417  -424  -422  -424  -449  -499  -523  -456  -331  -255  -278  -344  -381  -371  -350  -357  -392  -445  -506  -578  -679  -802  -886  -866  -725  -529  -386  -336  -339  -356  -386  -445  -522  -584  -608  -582  -491  -351  -233  -202  -284  -467  -684  -836  -884  -857  -786  -697  -626  -589  -579  -581  -584  -586  -586  -588  -596  -610  -620  -618  -604  -567  -499  -429  -400  -444  -567  -714  -808  -823  -781  -711  -639  -589  -566  -548  -490  -379  -259  -190  -173  -162  -128  -85  -60  -53  -30  51  175  271  282  202  68  -66  -189  -312  -437  -546  -619  -662  -693  -717  -732  -731  -717  -699  -680  -658  -637  -643  -726  -895  -1015  -911  -606  -225  276  1011  1932  2837  3389  3212  2221  728  -861  -2311  -3518  -4297  -4410  -3771  -2626  -1585  -1131  -1152  -1243  -1173  -943  -642  -372  -207  -145  -137  -154  -188  -227  -252  -255  -243  -201  -102  38  174  307  448  563  619  644  689  791  959  1165  1358  1505  1609  1701  1799  1894  1962  1991  1990  1981  2021  2170  2423  2709  2968  3159  3259  3288  3285  3258  3178  3042  2902  2796  2701  2559  2312  1954  1575  1300  1157  1071  973  871  793  694  474  147  -150  -343  -483  -583  -570  -440  -288  -189  -153  -183  -287  -427  -523  -532  -482  -427  -397  -390  -385  -371  -347  -318  -292  -277  -289  -332  -391  -443  -490  -538  -541  -440  -247  -60  -16  -187  -470  -662  -671  -577  -496  -470  -473  -480  -490  -515  -550  -574  -574  -556  -537  -529  -542  -588  -670  -762  -815  -803  -738  -642  -548  -523  -582  -646  -637  -541  -404  -298  -261  -301  -420  -576  -686  -691  -598  -466  -370  -333  -330  -350  -402  -477  -537  -559  -550  -537  -540  -565  -605  -632  -624  -609  -625  -654  -666  -665  -651  -602  -493  -343  -206  -107  -52  -57  -126  -226  -320  -385  -418  -414  -341  -177  22  156  191  175  159  152  140  118  114  156  238  331  377  302  129  -40  -184  -352  -541  -685  -740  -724  -683  -652  -638  -631  -642  -698  -792  -809  -637  -400  -307  -236  157  982  2065  3095  3598  3218  2066  540  -1011  -2363  -3347  -3843  -3836  -3402  -2659  -1813  -1155  -827  -747  -757  -751  -700  -609  -484  -340  -203  -75  39  115  149  174  213  261  298  303  276  244  244  313  456  607  685  700  727  822  952  1042  1061  1057  1117  1320  1647  1970  2184  2300  2383  2497  2676  2888  3059  3136  3088  2910  2672  2503  2468  2539  2648  2728  2736  2640  2432  2153  1882  1640  1355  998  672  461  329  214  105  0  -120  -240  -316  -324  -278  -210  -153  -117  -90  -76  -136  -346  -655  -896  -969  -887  -696  -478  -332  -287  -295  -316  -346  -382  -414  -434  -430  -380  -271  -170  -180  -305  -451  -564  -672  -790  -882  -890  -796  -661  -573  -549  -540  -497  -420  -342  -287  -256  -246  -268  -350  -493  -648  -752  -777  -762  -766  -795  -813  -787  -717  -640  -592  -579  -584  -589  -594  -597  -600  -604  -612  -619  -614  -600  -603  -612  -555  -422  -293  -234  -244  -297  -369  -433  -472  -484  -481  -474  -461  -446  -455  -508  -594  -675  -711  -686  -613  -509  -381  -251  -153  -102  -96  -135  -225  -345  -437  -457  -408  -316  -224  -167  -141  -122  -96  -59  -14  41  117  204  265  279  252  194  88  -96  -321  -485  -545  -542  -524  -514  -509  -504  -490  -475  -482  -546  -682  -845  -946  -920  -772  -612  -572  -609  -490  -18  820  1843  2725  3218  3237  2756  1770  342  -1342  -2926  -3970  -4270  -3975  -3325  -2529  -1844  -1432  -1225  -1053  -826  -565  -337  -186  -111  -88  -105  -159  -241  -313  -339  -303  -208  -100  -29  -2  10  44  117  197  249  279  313  375  483  634  790  894  940  986  1074  1188  1313  1474  1671  1842  1976  2152  2401  2630  2745  2761  2765  2835  2951  2969  2813  2615  2524  2546  2607  2642  2627  2580  2520  2430  2248  1932  1514  1067  675  415  290  239  219  219  232  249  261  256  223  165  94  12  -69  -126  -126  -54  54  131  127  18  -171  -359  -459  -439  -307  -125  18  81  73  11  -94  -226  -345  -436  -523  -595  -621  -592  -539  -505  -464  -369  -259  -203  -198  -224  -297  -450  -653  -809  -858  -829  -787  -758  -741  -736  -748  -775  -803  -826  -861  -912  -938  -885  -756  -617  -529  -502  -502  -507  -506  -483  -422  -326  -224  -146  -119  -147  -206  -267  -325  -382  -421  -413  -333  -185  -12  102  85  -52  -212  -315  -365  -391  -379  -305  -195  -109  -80  -85  -92  -68  2  85  121  94  19  -85  -161  -154  -85  0]
