reading_id,reading_time,wire_id,result_classification,heart_rate,heart_rate_alert,firmware_version,device_app_version,hardware_version,waveform_samples
27acd350-66a8-11ed-8080-808080808080,Thu Nov 17 18:46:32 UTC 2022,e100e35f1c39,NSR,67,NONE,20001.171.50,2.10.0,Charge 5,[11109  11994  12543  12744  12835  12999  13206  13297  13167  12690  11558  9608  7348  5637  4808  4584  4646  4928  5510  6372  7273  7967  8457  8842  9108  9249  9341  9474  9717  10048  10338  10502  10576  10603  10569  10484  10431  10472  10595  10747  10874  10967  11027  10993  10799  10514  10297  10183  10037  9760  9370  8849  7991  6626  4998  3595  2641  2057  1626  1079  323  -436  -951  -1182  -1240  -1229  -1212  -1268  -1508  -2014  -2737  -3450  -3944  -4290  -4753  -5439  -6218  -7041  -8134  -9676  -11497  -13227  -14601  -15553  -16177  -16681  -17231  -17786  -18216  -18486  -18655  -18818  -19056  -19357  -19634  -19806  -19858  -19800  -19600  -19240  -18819  -18495  -18327  -18219  -17985  -17476  -16752  -16082  -15676  -15488  -15326  -15070  -14721  -14289  -13725  -13050  -12459  -12109  -11934  -11786  -11606  -11412  -11239  -11123  -11060  -11004  -10913  -10793  -10672  -10546  -10381  -10169  -9935  -9683  -9384  -9052  -8772  -8610  -8540  -8481  -8367  -8207  -8063  -7964  -7888  -7839  -7809  -7718  -7470  -7065  -6630  -6275  -5997  -5765  -5566  -5373  -5187  -5066  -5043  -5081  -5107  -5009  -4696  -4267  -3953  -3859  -3907  -3988  -4044  -4046  -3970  -3788  -3493  -3136  -2815  -2594  -2459  -2373  -2318  -2276  -2222  -2138  -2014  -1857  -1694  -1535  -1355  -1153  -965  -819  -699  -561  -349  -38  293  519  599  590  568  591  701  928  1273  1655  1944  2119  2260  2420  2574  2672  2696  2669  2609  2517  2421  2423  2577  2814  3081  3449  4058  5003  6201  7313  7913  7705  6621  4946  3175  1675  618  75  34  442  1230  2190  2980  3426  3640  3789  3956  4165  4407  4619  4739  4772  4761  4748  4777  4884  5058  5241  5404  5559  5702  5797  5826  5810  5801  5895  6172  6586  6971  7222  7390  7559  7719  7838  7956  8131  8348  8539  8666  8771  8961  9325  9833  10324  10656  10858  11040  11228  11379  11494  11626  11773  11853  11820  11727  11660  11641  11613  11499  11241  10809  10265  9771  9431  9168  8837  8440  8052  7553  6713  5626  4688  4097  3721  3424  3163  2854  2426  1951  1558  1296  1154  1111  1129  1118  935  423  -417  -1339  -2083  -2602  -2946  -3157  -3380  -3861  -4677  -5551  -6131  -6350  -6376  -6363  -6383  -6468  -6624  -6808  -6941  -6997  -7017  -7045  -7086  -7127  -7169  -7201  -7205  -7186  -7162  -7150  -7158  -7186  -7225  -7249  -7222  -7147  -7069  -7023  -7003  -6988  -6974  -6956  -6903  -6782  -6611  -6456  -6353  -6293  -6266  -6268  -6280  -6260  -6161  -5988  -5813  -5700  -5637  -5558  -5433  -5294  -5190  -5112  -5015  -4883  -4742  -4638  -4572  -4455  -4234  -3972  -3765  -3652  -3618  -3617  -3606  -3578  -3541  -3485  -3359  -3115  -2802  -2556  -2455  -2439  -2401  -2282  -2120  -2003  -1960  -1955  -1953  -1942  -1908  -1856  -1811  -1789  -1783  -1782  -1786  -1797  -1805  -1776  -1672  -1508  -1354  -1261  -1201  -1083  -873  -667  -521  -314  101  830  1900  3080  3893  3856  2770  906  -1114  -2678  -3503  -3661  -3331  -2645  -1713  -766  -107  222  441  673  882  1034  1139  1217  1297  1398  1495  1555  1585  1610  1636  1660  1693  1758  1854  1980  2178  2476  2786  2977  3033  3072  3200  3401  3569  3656  3699  3744  3792  3837  3927  4131  4416  4643  4733  4736  4751  4886  5204  5616  5921  6030  6022  5992  5980  5981  5985  5977  5950  5914  5884  5848  5787  5716  5664  5602  5470  5271  5061  4845  4627  4470  4400  4339  4207  4037  3931  3932  4002  4070  4097  4122  4198  4328  4477  4625  4754  4841  4916  5054  5284  5536  5712  5775  5763  5746  5800  5977  6253  6526  6708  6795  6822  6792  6705  6592  6501  6449  6420  6381  6310  6223  6163  6150  6171  6196  6190  6116  5937  5622  5202  4756  4304  3782  3152  2436  1690  944  225  -391  -883  -1355  -1881  -2394  -2794  -3041  -3165  -3255  -3376  -3526  -3699  -3954  -4331  -4736  -5011  -5113  -5128  -5171  -5320  -5570  -5815  -5953  -5980  -5951  -5904  -5855  -5818  -5813  -5839  -5875  -5878  -5799  -5646  -5482  -5344  -5224  -5126  -5073  -5054  -5008  -4885  -4703  -4525  -4369  -4198  -3979  -3730  -3507  -3358  -3300  -3310  -3353  -3392  -3412  -3414  -3395  -3354  -3301  -3241  -3220  -3373  -3832  -4504  -5071  -5338  -5382  -5357  -5337  -5339  -5384  -5496  -5629  -5667  -5578  -5425  -5247  -5114  -5176  -5417  -5589  -5433  -4786  -3739  -2593  -1588  -956  -914  -1508  -2697  -4305  -5942  -7250  -7999  -8063  -7576  -6852  -6095  -5389  -4775  -4272  -3899  -3617  -3351  -3092  -2894  -2780  -2707  -2610  -2476  -2341  -2223  -2106  -1994  -1913  -1876  -1866  -1826  -1685  -1441  -1185  -1006  -911  -839  -722  -519  -235  52  242  307  315  360  506  749  1047  1392  1784  2155  2423  2607  2781  2970  3167  3397  3644  3823  3902  3940  3980  4015  4047  4099  4154  4128  3935  3601  3219  2836  2471  2171  1966  1818  1678  1537  1422  1358  1343  1354  1359  1323  1231  1128  1064  1023  984  962  981  1044  1124  1185  1237  1312  1405  1465  1456  1396  1329  1289  1278  1281  1292  1317  1356  1402  1446  1471  1455  1393  1287  1164  1077  1043  1038  1052  1119  1269  1457  1587  1597  1478  1271  1075  964  930  923  908  874  826  779  735  691  654  630  617  615  605  564  503  429  347  270  201  123  40  -13  -23  -13  -1  19  66  128  168  164  134  104  92  112  175  266  332  321  211  28  -164  -340  -520  -694  -802  -796  -691  -566  -507  -503  -491  -444  -362  -253  -155  -103  -92  -93  -87  -81  -93  -123  -156  -175  -175  -167  -166  -158  -114  -28  67  142  182  193  195  211  256  314  365  415  497  605  682  683  613  503  379  242  76  -97  -223  -279  -281  -239  -157  -64  -16  -32  -73  -104  -117  -113  -72  52  257  407  385  317  457  961  1869  3060  4167  4742  4476  3262  1341  -675  -2153  -2836  -2835  -2393  -1776  -1219  -765  -280  227  570  683  671  611  494  316  140  45  40  75  98  92  83  107  172  266  372  457  506  539  591  665  723  753  778  821  880  943  1004  1066  1136  1235  1405  1628  1827  1981  2162  2397  2632  2815  2929  2986  3029  3120  3294  3512  3686  3764  3758  3692  3531  3245  2912  2650  2465  2283  2049  1766  1481  1225  991  794  663  549  362  119  -58  -116  -103  -88  -103  -147  -223  -343  -480  -576  -608  -605  -587  -547  -455  -291  -97  38  57  -51  -254  -453  -536  -465  -306  -164  -90  -80  -139  -295  -526  -737  -850  -875  -869  -879  -935  -1041  -1164  -1277  -1390  -1506  -1593  -1630  -1635  -1647  -1694  -1771  -1853  -1932  -2008  -2068  -2108  -2138  -2161  -2167  -2149  -2109  -2056  -2012  -1983  -1955  -1916  -1871  -1836  -1832  -1897  -2053  -2251  -2389  -2408  -2314  -2147  -1967  -1828  -1751  -1723  -1720  -1723  -1702  -1650  -1597  -1572  -1560  -1516  -1404  -1249  -1126  -1072  -1078  -1120  -1160  -1130  -983  -764  -585  -500  -490  -541  -656  -803  -920  -974  -971  -939  -898  -851  -801  -753  -700  -639  -581  -543  -526  -518  -504  -475  -431  -373  -324  -303  -304  -313  -320  -311  -279  -237  -215  -215  -211  -160  -32  134  252  251  126  -59  -212  -282  -289  -275  -265  -261  -257  -249  -257  -305  -394  -485  -557  -626  -706  -785  -873  -945  -897  -688  -395  -16  557  1318  2144  2943  3604  3953  3787  2925  1392  -516  -2392  -3806  -4479  -4420  -3835  -3010  -2240  -1708  -1429  -1309  -1217  -1097  -1023  -1057  -1140  -1195  -1213  -1213  -1173  -1067  -951  -913  -945  -962  -930  -858  -757  -633  -486  -321  -170  -75  -40  -17  41  142  248  316  348  383  462  581  704  812  910  1032  1229  1507  1793  2009  2132  2200  2294  2474  2700  2883  2994  3075  3170  3281  3374  3412  3374  3250  3058  2822  2542  2213  1847  1472  1117  811  583  432  315  208  148  181  297  441  549  599  604  585  548  504  481  488  500  450  278  26  -149  -90  254  734  1089  1217  1209  1175  1164  1175  1181  1166  1132  1092  1062  1046  1033  1033  1074  1155  1228  1274  1326  1411  1493  1516  1478  1411  1312  1151  941  740  603  546  542  568  622  692  754  802  840  857  850  850  906  1014  1106  1116  1034  907  807  763  765  820  952  1144  1322  1425  1452  1446  1456  1523  1636  1741  1805  1833  1836  1811  1744  1652  1577  1539  1537  1571  1637  1709  1742  1714  1654  1577  1461  1320  1215  1164  1140  1136  1141  1114  1037  968  979  1074  1154  1109  971  861  807  765  726  701  701  735  816  962  1160  1346  1458  1502  1512  1494  1437  1343  1206  983  636  224  -122  -372  -599  -840  -1049  -1201  -1336  -1492  -1669  -1853  -2058  -2307  -2591  -2882  -3172  -3450  -3660  -3746  -3718  -3611  -3372  -2817  -1816  -549  527  894  183  -1472  -3441  -5134  -6295  -6920  -7138  -7071  -6770  -6286  -5731  -5167  -4601  -4112  -3816  -3728  -3766  -3840  -3896  -3912  -3865  -3700  -3395  -3057  -2835  -2763  -2774  -2795  -2785  -2730  -2649  -2583  -2542  -2497  -2437  -2380  -2344  -2318  -2270  -2160  -1981  -1790  -1652  -1563  -1474  -1364  -1236  -1090  -914  -707  -482  -252  -19  215  465  743  1016  1230  1395  1540  1656  1724  1754  1766  1765  1729  1626  1458  1269  1113  1004  924  854  776  684  600  552  524  470  373  260  176  170  257  376  444  449  436  429  421  392  341  287  245  228  237  276  343  423  479  495  487  472  443  383  291  194  119  74  50  29  9  0  1  9  15  7  -28  -96  -195  -316  -425  -470  -406  -232  -8  191  333  400  382  286  113  -130  -368  -479  -447  -392  -417  -507  -604  -681  -732  -762  -785  -802  -791  -737  -655  -566  -473  -388  -335  -325  -348  -397  -460  -515  -510  -417  -294  -217  -197  -199  -197  -179  -133  -49  48  114  133  130  128  132  143  157  168  171  166  161  175  225  305  386  460  530  564  547  531  555  607  672  729  758  772  793  820  839  862  928  1074  1281  1466  1548  1491  1293  996  692  484  415  449  520  583  635  700  797  908  993  1030  1034  1044  1110  1249  1399  1452  1387  1352  1523  1955  2638  3553  4600  5540  6062  5885  4879  3198  1317  -167  -951  -1159  -1017  -700  -415  -222  -9  271  525  679  757  813  854  835  741  622  514  406  275  135  22  -81  -233  -413  -528  -518  -392  -222  -102  -62  -67  -85  -108  -131  -124  -47  111  312  510  690  844  968  1083  1226  1411  1617  1808  1976  2162  2389  2607  2746  2797  2799  2789  2785  2785  2786  2786  2786  2788  2787  2782  2778  2774  2757  2691  2552  2365  2199  2059  1833  1435  964  621  485  474  489  495  501  523  573  658  757  830  854  823  738  628  555  548  587  639  683  710  725  735  717  625  426  119  -261  -648  -968  -1198  -1367  -1521  -1660  -1757  -1820  -1882  -1953  -2021  -2066  -2080  -2066  -2018  -1940  -1861  -1818  -1830  -1902  -2040  -2217  -2369  -2460  -2507  -2532  -2544  -2538  -2495  -2408  -2299  -2204  -2127  -2065  -2028  -2018  -2026  -2032  -2025  -2009  -1982  -1935  -1868  -1803  -1757  -1736  -1755  -1850  -2040  -2253  -2374  -2345  -2209  -2059  -1957  -1875  -1755  -1610  -1505  -1465  -1464  -1474  -1491  -1521  -1560  -1588  -1575  -1500  -1382  -1278  -1227  -1212  -1188  -1136  -1064  -999  -960  -935  -893  -809  -673  -487  -278  -75  90  182  195  184  225  360  522  582  504  365  249  189  167  135  60  -32  -91  -108  -132  -207  -317  -406  -457  -504  -563  -613  -647  -689  -775  -883  -891  -720  -406  72  792  1707  2675  3506  3974  3899  3196  1907  321  -1123  -2159  -2753  -2953  -2879  -2650  -2274  -1746  -1163  -703  -482  -455  -521  -628  -763  -919  -1100  -1295  -1468  -1574  -1613  -1630  -1649  -1667  -1674  -1678  -1684  -1683  -1655  -1592  -1483  -1301  -1069  -861  -710  -592  -502  -432  -359  -296  -293  -354  -391  -265  107  646  1179  1627  2011  2335  2589  2795  2995  3213  3423  3579  3670  3700  3667  3576  3450  3299  3109  2895  2711  2544  2314  2011  1702  1431  1195  990  838  763  722  638  501  358  197  -11  -225  -367  -412  -372  -283  -202  -157  -127  -89  -44  -6  22  58  104  138  140  106  62  42  73  165  281  352  331  211  50  -66  -123  -168  -223  -270  -307  -363  -432  -454  -387  -257  -132  -54  -18  24  128  295  464  571  609  598  528  385  200  49  -11  0  16  -8  -62  -104  -122  -119  -83  8  133  226  238  165  34  -99  -195  -258  -319  -397  -460  -461  -388  -255  -109  3  94  188  264  278  222  134  70  48  53  65  77  84  76  40  -14  -50  -6  159  389  566  655  714  776  791  713  604  554  573  611  640  657  633  514  260  -134  -624  -1072  -1331  -1396  -1348  -1230  -1065  -915  -837  -827  -845  -866  -878  -860  -765  -604  -507  -551  -629  -615  -452  -8  873  2082  3206  3875  3858  3007  1450  -365  -1965  -3061  -3526  -3406  -2993  -2577  -2182  -1760  -1335  -938  -602  -364  -237  -193  -186  -198  -225  -254  -261  -239  -209  -203  -228  -261  -277  -295  -352  -449  -553  -625  -650  -637  -581  -471  -326  -185  -74  6  64  112  163  223  301  432  648  914  1138  1258  1291  1289  1307  1418  1669  1983  2213  2292  2258  2173  2069  1951  1821  1695  1598  1519  1430  1327  1226  1113  931  623  207  -217  -533  -683  -694  -633  -557  -505  -486  -481  -477  -492  -554  -635  -655  -572  -414  -241  -109  -38  -16  -26  -53  -77  -80  -55  -5  54  105  145  184  218  243  268  298  314  299  260  197  101  -13  -107  -165  -195  -207  -205  -195  -187  -186  -181  -162  -129  -101  -102  -126  -150  -183  -254  -342  -375  -292  -128  -7  10  -22  -48  -52  -45  -41  -60  -118  -196  -256  -285  -300  -315  -328  -341  -359  -373  -354  -282  -176  -62  78  267  453  565  593  546  425  267  156  146  228  343  424  448  438  435  480  616  835  1054  1178  1162  1005  748  470  244  109  74  137  278  425  544  663  752  725  537  238  -9  -68  35  222  550  1113  1868  2733  3619  4220  4159  3327  1868  62  -1655  -2898  -3565  -3728  -3505  -3063  -2535  -2005  -1550  -1202  -960  -834  -811  -836  -863  -878  -882  -884  -882  -872  -845  -796  -736  -668  -580  -477  -397  -367  -373  -386  -362  -259  -103  27  104  170  253  355  486  638  766  853  950  1137  1448  1808  2113  2342  2528  2707  2942  3266  3592  3793  3823  3747  3654  3567  3465  3326  3148  2970  2829  2673  2418  2086  1753  1402  1029  730  558  456  348  209  72  -17  -74  -159  -272  -352  -359  -305  -237  -197  -196  -225  -284  -385  -537  -713  -864  -970  -1048  -1122  -1204  -1285  -1330  -1315  -1256  -1183  -1101  -989  -809  -551  -273  -66  11  -35  -188  -423  -670  -830  -863  -802  -702  -614  -562  -544  -556  -637  -882  -1374  -2068  -2754  -3206  -3397  -3455  -3476  -3500  -3601  -3859  -4263  -4706  -5069  -5273  -5304  -5189  -4967  -4714  -4506  -4377  -4319  -4311  -4326  -4343  -4348  -4327  -4280  -4211  -4137  -4065  -3988  -3905  -3827  -3733  -3580  -3383  -3196  -2994  -2677  -2271  -1956  -1816  -1717  -1499  -1190  -917  -698  -457  -158  173  472  661  733  738  715  658  544  374  191  56  -12  -42  -62  -64  1  180  462  771  981  986  824  630  480  406  458  613  851  1341  2234  3324  4262  4882  5065  4669  3763  2522  1055  -334  -1218  -1451  -1108  -422  180  503  740  1067  1452  1822  2143  2388  2521  2541  2506  2454  2303  1900  1243  550  29  -291  -481  -599  -680  -735  -751  -686  -513  -295  -149  -112  -124  -113  -39  85  201  257  263  282  394  617  889  1126  1292  1398  1478  1545  1583  1595  1629  1732  1885  2016  2077  2087  2085  2089  2102  2126  2136  2057  1809  1446  1144  1003  955  911  842  727  533  284  53  -97  -157  -157  -146  -172  -267  -399  -496  -529  -526  -517  -517  -527  -541  -544  -527  -502  -490  -486  -464  -417  -373  -356  -362  -377  -386  -363  -284  -170  -76  -29  -4  21  24  -25  -99  -135  -88  16  75  4  -147  -266  -269  -136  57  198  257  292  354  447  550  630  683  728  766  779  775  784  828  902  954  896  658  304  3  -147  -184  -179  -185  -237  -332  -431  -483  -455  -340  -187  -79  -44  -50  -48  -13  47  110  173  241  288  278  185  25  -135  -239  -269  -238  -160  -42  103  264  428  572  669  711  715  708  726  796  926  1099  1269  1385  1438  1454  1442  1373  1216  1008  833  713  630  591  596  617  629  631  624  606  595  621  689  752  784  809  845  849  821  902  1174  1546  2020  2696  3580  4557  5334  5476  4694  3089  1085  -781  -2062  -2640  -2677  -2307  -1665  -1056  -718  -571  -377  -24  376  642  754  823  897  935  900  813  730  676  622  526  391  264  180  125  41  -115  -324  -515  -619  -612  -514  -382  -280  -218  -160  -102  -61  -40  -29  0  91  244  406  547  692  851  973  1025  1034  1062  1172  1384  1616  1756  1785  1766  1739  1695  1598  1429  1213  1001  815  637  437  200  -72  -342  -553  -684  -792  -959  -1211  -1507  -1754  -1885  -1915  -1906  -1884  -1849  -1809  -1792  -1815  -1859  -1892  -1901  -1902  -1908  -1921  -1916  -1851  -1720  -1580  -1497  -1486  -1535  -1631  -1783  -1992  -2200  -2320  -2363  -2454  -2712  -3097  -3417  -3508  -3364  -3125  -2951  -2896  -2906  -2926  -2938  -2941  -2933  -2907  -2849  -2745  -2573  -2303  -1955  -1638  -1464  -1426  -1444  -1459  -1457  -1453  -1472  -1534  -1618  -1681  -1710  -1713  -1666  -1535  -1352  -1202  -1125  -1086  -1050  -989  -875  -703  -506  -313  -132  12  89  104  100  111  140  179  256  423  672  911  1062  1127  1133  1081  988  908  871  870  896  951  1025  1101  1186  1305  1455  1591  1683  1749  1832  1927  1944  1762  1350  817  328  -63  -452  -900  -1326  -1644  -1857  -2007  -2098  -2110  -2064  -2007  -1940  -1840  -1708  -1576  -1468  -1383  -1321  -1307  -1294  -1138  -745  -123  674  1516  2236  2709  2806  2350  1257  -305  -1995  -3398  -4108  -3948  -3114  -2019  -1090  -624  -574  -572  -358  20  392  621  687  667  643  669  782  959  1115  1209  1273  1331  1367  1376  1396  1470  1613  1806  2013  2198  2332  2396  2348  2155  1870  1604  1411  1265  1110  917  727  640  700  842  997  1178  1410  1645  1823  1980  2211  2530  2831  3007  3051  3027  2990  2952  2908  2867  2837  2806  2759  2637  2358  1978  1673  1532  1502  1498  1465  1405  1349  1317  1307  1310  1326  1349  1374  1394  1406  1402  1367  1285  1176  1089  1040  1002  943  869  811  777  738  665  564  476  433  425  419  391  348  317  310  313  298  253  195  157  143  139  137  135  134  133  103  -37  -351  -794  -1249  -1630  -1908  -2078  -2168  -2236  -2314  -2387  -2433  -2446  -2432  -2404  -2380  -2366  -2365  -2387  -2444  -2520  -2577  -2601  -2599  -2573  -2515  -2431  -2330  -2225  -2144  -2116  -2138  -2177  -2195  -2132  -1939  -1653  -1386  -1199  -1079  -1009  -979  -970  -935  -829  -663  -494  -321  -87  192  413  519  553  582  646  749  871  977  1027  1003  930  849  775  703  621  536  470  424  378  333  285  199  68  -68  -174  -251  -349  -535  -840  -1123  -1117  -709  20  976  2049  3023  3573  3359  2200  268  -1950  -3953  -5401  -6161  -6370  -6289  -6003  -5530  -5020  -4561  -4152  -3822  -3547  -3245  -2925  -2640  -2370  -2091  -1823  -1546  -1230  -931  -734  -630  -520  -334  -109  67  183  280  389  531  779  1178  1622  1942  2086  2129  2178  2326  2612  2962  3274  3548  3841  4136  4360  4473  4526  4605  4735  4909  5146  5415  5615  5699  5701  5646  5553  5452  5353  5217  4991  4694  4427  4247  4100  3915  3712  3579  3546  3548  3491  3321  3052  2765  2549  2439  2400  2386  2377  2401  2510  2692  2870  2985  3043  3042  2927  2686  2423  2285  2367  2639  2917  2931  2414  1255  -357  -1997  -3236  -3910  -4161  -4280  -4514  -4873  -5193  -5373  -5451  -5489  -5526  -5578  -5630  -5671  -5706  -5728  -5734  -5736  -5741  -5727  -5656  -5512  -5327  -5162  -5054  -4978  -4852  -4605  -4264  -3950  -3719  -3466  -3076  -2614  -2265  -2118  -2094  -2079  -1995  -1813  -1579  -1382  -1251  -1141  -1010  -846  -647  -435  -261  -154  -95  -64  -51  -53  -60  -55  -9  85  196  272  296  281  228  143  38  -80  -211  -333  -413  -436  -402  -308  -182  -84  -43  -36  -33  -15  23  71  108  119  86  -11  -186  -418  -642  -799  -885  -937  -972  -970  -920  -832  -737  -682  -713  -841  -1014  -1162  -1265  -1299  -1148  -685  68  916  1703  2437  3003  3041  2388  1220  -189  -1500  -2423  -2970  -3253  -3245  -2933  -2365  -1656  -1054  -726  -604  -540  -460  -371  -281  -168  -57  20  90  166  230  279  346  445  547  611  636  650  698  819  983  1110  1162  1162  1149  1140  1144  1178  1278  1453  1636  1741  1753  1729  1761  1923  2211  2551  2890  3174  3333  3350  3269  3158  3085  3100  3214  3377  3501  3516  3394  3156  2889  2674  2510  2347  2147  1901  1622  1339  1099  921  746  523  291  109  -4  -54  -73  -109  -197  -322  -434  -494  -511  -534  -603  -694  -726  -657  -553  -511  -535  -554  -537  -512  -506  -526  -560  -602  -665  -741  -814  -862  -839  -727  -573  -433  -350  -328  -333  -322  -277  -204  -134  -81  -28  36  113  189  235  225  166  108  114  178  246  306  394  514  627  706  744  740  702  647  570  464  360  317  365  464  535  540  511  492  491  498  493  466  430  412  442  524  618  663  638  581  547  563  599  615  608  607  650  757  897  1027  1140  1234  1289  1301  1293  1290  1296  1301  1287  1243  1176  1078  896  583  154  -339  -844  -1321  -1734  -2055  -2276  -2442  -2605  -2776  -2961  -3185  -3436  -3653  -3795  -3863  -3886  -3886  -3849  -3732  -3528  -3295  -3115  -3034  -3017  -2951  -2729  -2376  -2013  -1745  -1686  -1865  -2040  -1929  -1466  -691  280  1191  1792  1944  1527  501  -929  -2363  -3406  -3769  -3406  -2654  -1947  -1473  -1207  -1015  -768  -462  -180  10  99  140  235  445  700  880  951  962  956  946  943  955  979  999  994  954  894  868  936  1098  1288  1424  1493  1564  1719  1990  2331  2630  2806  2880  2934  3030  3171  3320  3448  3585  3754  3910  3995  4052  4208  4534  4924  5197  5296  5289  5216  5069  4861  4647  4464  4313  4175  4003  3726  3319  2846  2417  2127  2000  1961  1865  1596  1194  846  679  660  688  708  708  693  668  634  605  593  594  565  458  275  69  -138  -317  -309  -30  293  411  349  232  153  154  117  -185  -857  -1795  -2823  -3781  -4497  -4899  -5072  -5075  -4962  -4872  -4885  -4955  -5047  -5164  -5269  -5298  -5261  -5218  -5182  -5094  -4892  -4608  -4369  -4275  -4362  -4622  -4972  -5289  -5511  -5649  -5720  -5743  -5730  -5678  -5576  -5432  -5266  -5095  -4944  -4837  -4778  -4743  -4690  -4568  -4323  -3896  -3289  -2653  -2152  -1782  -1445  -1076  -664  -288  -61  16  65  205  450  692  818  825  794  781  799  865  1008  1198  1349  1426  1463  1504  1564  1639  1712  1762  1787  1794  1799  1811  1833  1879  1972  2097  2204  2263  2289  2308  2316  2286  2205  2101  2016  1954  1874  1752  1598  1426  1258  1134  1046  938  764  485  53  -493  -1021  -1438  -1701  -1726  -1467  -960  -206  794  1913  2927  3511  3300  2162  332  -1700  -3394  -4386  -4643  -4398  -3941  -3426  -2885  -2342  -1841  -1465  -1269  -1193  -1126  -1022  -893  -750  -601  -484  -421  -390  -361  -322  -268  -209  -169  -143  -103  -24  96  254  438  609  709  732  726  747  821  933  1053  1196  1406  1681  1967  2192  2342  2462  2612  2815  3044  3264  3493  3771  4046  4152  3985  3643  3312  3045  2786  2519  2294  2134  1973  1746  1507  1343  1255  1177  1060  895  691  495  360  296  264  221  160  108  82  65  38  16  7  -4  -52  -155  -295  -424  -500  -517  -479  -396  -300  -221  -154  -92  -54  -51  -59  -33  63  207  328  393  433  476  524  576  644  735  821  890  968  1052  1130  1239  1407  1596  1750  1856  1934  2001  2050  2093  2166  2281  2400  2474  2489  2476  2451  2412  2368  2347  2361  2399  2452  2532  2629  2702  2734  2730  2655  2461  2195  1973  1830  1708  1555  1379  1184  937  641  373  200  125  112  115  119  154  256  400  504  530  510  491  504  555  626  681  715  752  810  883  926  879  747  607  508  445  393  344  303  271  211  71  -155  -484  -975  -1579  -2108  -2477  -2754  -2997  -3183  -3209  -3030  -2741  -2351  -1714  -827  98  814  1046  494  -925  -2864  -4741  -6098  -6774  -6884  -6656  -6229  -5663  -5082  -4595  -4158  -3697  -3283  -3023  -2890  -2781  -2665  -2582  -2555  -2565  -2586  -2608  -2625  -2636  -2637  -2606  -2519  -2385  -2249  -2126  -1972  -1765  -1551  -1357  -1167  -966  -781  -653  -580  -517  -438  -355  -274  -200  -152  -139  -150  -169  -167  -92  95  366  612  752  830  958  1177  1421  1604  1694  1713  1711  1708  1678  1566  1361  1130  956  846  744  602  426  252  97  -45  -200  -373  -533  -631  -651  -605  -519  -445  -418  -431  -467  -493  -481  -455  -447  -449  -447  -438  -421  -394  -355  -295  -199  -79  17  85  164  270  367  439  499  545  570  577  599  683  845  1033  1168  1223  1234  1249  1287  1336  1376  1400  1415  1441  1479  1453  1209  657  -88  -812  -1376  -1748  -1976  -2129  -2218  -2213  -2058  -1748  -1393  -1131  -974  -847  -722  -624  -554  -459  -293  -143  -130  -132  56  368  619  815  1032  1192  1133  758  75  -744  -1366  -1551  -1408  -1229  -1168  -1210  -1255  -1181  -1017  -897  -857  -836  -780  -670  -502  -296  -85  125  359  598  780  877  913  935  1000  1153  1358  1504  1544  1531  1524  1518  1477  1405  1369  1428  1538  1625  1666  1669  1638  1597  1635  1826  2141  2491  2841  3298  4011  4979  6008  6694  6593  5608  4022  2256  734  -287  -773  -785  -420  229  1016  1676  2049  2190  2209  2219  2334  2592  2886  3069  3106  3074  3040  3017  3010  3062  3221  3451  3637  3711  3704  3672  3651  3662  3717  3799  3854  3857  3839  3722  3218  2055  343  -1420  -2784  -3612  -4018  -4189  -4254  -4275  -4275  -4267  -4275  -4304  -4339  -4382  -4456  -4571  -4695  -4781  -4825  -4881  -5002  -5205  -5455  -5693  -5876  -5992  -6071  -6169  -6360  -6729  -7279  -7848  -8239  -8418  -8467  -8440  -8368  -8305  -8284  -8303  -8340  -8335  -8167  -7728  -7047  -6281  -5559  -4934  -4454  -4171  -4054  -4006  -3945  -3772  -3383  -2835  -2339  -1992  -1715  -1442  -1198  -1026  -919  -835  -772  -788  -919  -1117  -1278  -1302  -1154  -860  -499  -175  58  256  503  805  1072  1239  1317  1358  1399  1444  1495  1545  1591  1645  1697  1721  1713  1715  1782  1878  1899  1837  1775  1754  1754  1736  1691  1663  1716  1837  1959  2062  2171  2288  2390  2459  2502  2536  2561  2580  2607  2669  2822  3142  3632  4201  4743  5191  5525  5782  5978  6086  6102  6053  5969  5875  5799  5765  5773  5809  5872  5969  6100  6243  6341  6267  5884  5190  4354  3600  3081  2798  2652  2574  2545  2542  2535  2508  2469  2417  2345  2254  2155  2063  1994  1936  1858  1760  1671  1609  1558  1493  1414  1357  1337  1337  1338  1342  1366  1422  1477  1478  1424  1357  1305  1275  1344  1682  2386  3329  4231  4839  4982  4515  3457  2095  773  -302  -1047  -1409  -1379  -1063  -599  -100  246  251  -141  -781  -1364  -1708  -1881  -2005  -2125  -2227  -2284  -2281  -2222  -2119  -1987  -1850  -1753  -1724  -1749  -1804  -1869  -1916  -1930  -1922  -1912  -1910  -1901  -1846  -1713  -1519  -1316  -1147  -1036  -974  -902  -748  -507  -252  -50  72  120  126  121  117  99  46  -40  -131  -200  -238  -251  -250  -244  -240  -242  -265  -331  -453  -642  -920  -1275  -1640  -1950  -2176  -2324  -2411  -2459  -2492  -2536  -2586  -2625  -2656  -2695  -2739  -2770  -2782  -2774  -2741  -2680  -2602  -2510  -2403  -2296  -2211  -2125  -1978  -1749  -1493  -1277  -1123  -1010  -904  -781  -641  -509  -424  -402  -408  -391  -326  -226  -121  -44  7  57  95  77  -30  -211  -391  -493  -515  -503  -492  -496  -517  -548  -572  -580  -570  -539  -498  -465  -440  -408  -366  -327  -292  -250  -205  -173  -152  -137  -127  -131  -148  -158  -105  65  314  525  631  662  676  703  757  826  888  922  930  928  925  904  839  724  573  375  93  -281  -694  -1061  -1325  -1473  -1548  -1620  -1685  -1675  -1573  -1443  -1331  -1243  -1179  -1122  -1046  -959  -893  -838  -739  -580  -420  -316  -261  -202  -100  24  106  95  -6  -166  -352  -564  -792  -1000  -1167  -1304  -1414  -1480  -1488  -1458  -1426  -1407  -1394  -1390  -1421  -1487  -1516  -1441  -1289  -1115  -906  -538  180  1282  2498  3390  3591  2969  1663  58  -1402  -2489  -3171  -3384  -3052  -2262  -1285  -462  25  259  385  460  490  491  477  447  387  300  230  242  385  630  861  976  977  921  849  779  728  706  703  692  651  588  531  498  487  505  572  697  858  1014  1146  1279  1430  1594  1775  1974  2152  2270  2354  2463  2600  2711  2772  2800  2806  2781  2726  2660  2604  2555  2486  2371  2210  2019  1776  1447  1083  784  571  375  155  -39  -154  -217  -308  -451  -602  -710  -770  -798  -801  -780  -764  -781  -828  -872  -894  -897  -891  -881  -872  -872  -892  -943  -1025  -1109  -1161  -1179  -1172  -1128  -1020  -840  -626  -433  -297  -218  -183  -165  -146  -136  -156  -195  -238  -281  -318  -372  -475  -607  -719  -796  -847  -888  -937  -984  -1007  -1010  -1008  -1006  -1010  -1020  -1027  -995  -888  -736  -621  -581  -589  -600  -589  -572  -570  -572  -527  -385  -174  45  251  401  432  382  341  339  357  377  384  351  242  83  -42  -93  -108  -150  -248  -386  -522  -616  -654  -621  -488  -269  -45  111  196  231  234  227  242  294  366  412  399  337  252  175  122  70  -21  -149  -290  -461  -693  -934  -1082  -1091  -987  -839  -703  -554  -357  -172  -28  222  747  1606  2793  4079  4955  4982  4095  2530  693  -960  -2169  -2873  -2988  -2556  -1893  -1295  -838  -504  -283  -160  -92  -35  24  70  83  64  31  4  -2  5  13  8  -6  -11  -5  5  23  63  134  221  287  326  371  454  574  697  801  893  974  1033  1077  1132  1191  1251  1334  1437  1540  1656  1791  1917  1988  1979  1897  1784  1689  1620  1566  1531  1521  1520  1500  1433  1309  1151  993  800  481  47  -354  -629  -866  -1204  -1661  -2123  -2466  -2638  -2684  -2687  -2697  -2740  -2836  -2961  -3054  -3075  -3022  -2902  -2715  -2470  -2191  -1910  -1658  -1486  -1416  -1404  -1378  -1313  -1238  -1179  -1116  -1003  -825  -618  -440  -324  -277  -297  -364  -418  -394  -299  -206  -159  -147  -151  -167  -192  -194  -86  193  554  812  889  832  691  506  340  253  236  226  170  67  -35  -95  -86  -5  120  259  374  449  502  561  648  754  833  835  746  612  515  496  537  596  640  669  705  758  812  847  870  899  916  893  850  818  795  761  706  646  591  530  473  454  496  598  728  836  908  972  1058  1165  1283  1408  1525  1601  1630  1629  1608  1557  1462  1324  1172  1028  896  813  850  1029  1267  1444  1544  1631  1709  1723  1689  1698  1816  1950  1891  1696  1684  1901  2176  2542  3115  3904  4849  5638  5748  5002  3706  2243  927  -7  -597  -1000  -1119  -805  -171  591  1308  1786  1978  2008  2001  2010  2026  1953  1647  1061  322  -431  -1122  -1640  -1908  -1992  -2008  -2013  -2018  -2006  -1936  -1783  -1580  -1374  -1166  -964  -803  -697  -635  -615  -633  -685  -752  -806  -835  -824  -731  -537  -308  -150  -105  -174  -356  -607  -843  -1007  -1090  -1109  -1091  -1047  -975  -876  -767  -689  -668  -707  -797  -910  -1038  -1226  -1500  -1775  -1951  -2026  -2052  -2053  -2026  -1980  -1940  -1908  -1869  -1823  -1786  -1743  -1651  -1500  -1328  -1157  -962  -734  -523  -378  -298  -246  -201  -156  -129  -139  -155  -136  -76  37  225  438  576  602  547  463  403  419  560  810  1062  1202  1180  1009  760  536  388  276  126  -84  -305  -468  -547  -548  -486  -379  -264  -165  -66  37  119  177  242  320  400  497  631  771  846  828  757  690  653  639  631  622  624  679  829  1050  1251  1393  1515  1639  1733  1787  1824  1856  1878  1884  1873  1859  1862  1890  1936  1981  2015  2052  2116  2219  2360  2506  2612  2653  2518  1938  733  -895  -2419  -3368  -3701  -3729  -3719  -3731  -3724  -3668  -3563  -3441  -3353  -3312  -3276  -3200  -3091  -2989  -2909  -2830  -2751  -2699  -2684  -2683  -2673  -2655  -2670  -2759  -2885  -2959  -2955  -2953  -3039  -3200  -3354  -3449  -3513  -3636  -3862  -4102  -4261  -4314  -4268  -4153  -3850  -3111  -1919  -566  519  908  379  -920  -2538  -3986  -4994  -5531  -5669  -5501  -5111  -4551  -3929  -3408  -3023  -2682  -2366  -2150  -2053  -2001  -1896  -1694  -1446  -1249  -1147  -1107  -1058  -948  -806  -676  -565  -484  -433  -363  -224  -18  237  565  978  1417  1789  2038  2204  2382  2600  2799  2932  3021  3112  3206  3254  3226  3166  3130  3138  3189  3263  3333  3391  3439  3477  3505  3517  3474  3335  3102  2816  2511  2162  1755  1342  939  481  -20  -424  -646  -745  -808  -866  -928  -992  -1012  -889  -528  23  552  872  974  966  968  1042  1167  1276  1329  1325  1275  1188  1073  945  785  564  323  156  101  122  181  269  407  627  956  1361  1726  1940  2003  1990  1964  1953  1982  2089  2303  2611  2927  3125  3122  2918  2609  2351  2231  2214  2227  2226  2213  2169  2003  1618  1064  517  120  -101  -204  -244  -257  -263  -268  -271  -267  -259  -252  -249  -250  -254  -253  -231  -184  -133  -95  -78  -107  -183  -254  -286  -287  -270  -230  -170  -111  -74  -60  -61  -51  12  142  290  390  419  377  253  57  -145  -287  -342  -324  -240  -82  138  355  495  560  592  621  660  721  816  955  1100  1139  998  716  415  213  136  131  145  161  170  153  94  1  -95  -172  -218  -239  -255  -282  -312  -321  -309  -285  -209  -36  189  459  929  1746  2861  3984  4629  4358  3101  1210  -714  -2119  -2791  -2846  -2529  -2051  -1507  -938  -435  -68  150  238  244  217  164  65  -72  -206  -306  -382  -449  -524  -634  -810  -1076  -1437  -1820  -2108  -2255  -2309  -2298  -2183  -1957  -1702  -1524  -1439  -1403  -1384  -1375  -1365  -1323  -1192  -951  -649  -361  -152  -43  -1  25  76  177  371  703  1114  1463  1680  1792  1846  1879  1910  1941  1968  1972  1906  1707  1377  986  624  337  86  -193  -467  -623  -622  -540  -475  -451  -440  -401  -317  -205  -108  -53  -28  -14  -12  -42  -100  -118  -12  190  380  503  582  631  635  564  402  201  46  -37  -93  -157  -234  -323  -421  -509  -576  -627  -667  -690  -668  -573  -415  -240  -89  35  163  297  391  429  449  513  661  863  1029  1105  1106  1065  1004  931  848  761  684  624  549  411  226  71  -8  -34  -39  -40  -35  -15  19  25  -54  -215  -385  -503  -550  -539  -497  -450  -395  -323  -258  -240  -303  -442  -607  -762  -871  -883  -848  -883  -978  -1067  -1145  -1218  -1261  -1246  -1162  -1031  -908  -832  -808  -832  -915  -1068  -1301  -1595  -1884  -2100  -2229  -2281  -2254  -2154  -2049  -2034  -2104  -2155  -2111  -2006  -1919  -1874  -1837  -1784  -1748  -1789  -1885  -1938  -1853  -1510  -764  364  1505  2150  1954  829  -949  -2823  -4341  -5314  -5726  -5669  -5285  -4705  -4111  -3685  -3438  -3217  -2922  -2615  -2411  -2339  -2336  -2352  -2371  -2390  -2406  -2407  -2374  -2269  -2010  -1539  -961  -480  -158  83  297  473  599  671  715  767  830  895  967  1045  1117  1173  1230  1334  1522  1764  2008  2243  2471  2657  2759  2780  2753  2723  2721  2746  2789  2861  2971  3099  3212  3276  3272  3218  3140  3036  2900  2703  2363  1883  1422  1140  1042  1020  969  849  668  440  190  -21  -147  -190  -180  -138  -67  23  105  140  115  66  22  -26  -80  -114  -121  -113  -100  -88  -79  -77  -78  -78  -75  -62  -30  27  99  160  196  215  233  295  445  649  810  888  935  1009  1115  1216  1299  1373  1448  1525  1598  1654  1698  1746  1805  1871  1937  1999  2072  2173  2276  2302  2198  2015  1863  1796  1784  1779  1764  1733  1681  1611  1547  1502  1478  1497  1598  1789  2001  2147  2201  2206  2206  2216  2227  2243  2271  2294  2219  1934  1473  1040  785  672  610  572  551  527  495  484  506  546  588  642  725  828  911  941  903  797  668  579  553  563  585  609  624  588  449  226  15  -133  -285  -507  -764  -998  -1252  -1590  -1951  -2217  -2382  -2537  -2714  -2853  -2910  -2914  -2914  -2939  -2997  -3061  -3009  -2688  -2160  -1676  -1342  -1010  -473  394  1506  2435  2577  1612  -160  -2062  -3570  -4451  -4678  -4458  -4059  -3518  -2846  -2256  -1927  -1807  -1740  -1611  -1386  -1119  -904  -787  -732  -677  -577  -449  -353  -313  -293  -246  -158  -57  15  56  88  130  189  283  442  669  915  1113  1239  1322  1408  1541  1749  2000  2220  2356  2419  2450  2484  2548  2659  2805  2954  3077  3143  3141  3105  3068  3046  3040  3025  2959  2812  2609  2400  2201  1989  1743  1448  1129  814  480  127  -161  -337  -431  -480  -507  -584  -799  -1119  -1402  -1568  -1645  -1689  -1724  -1754  -1771  -1771  -1748  -1697  -1624  -1550  -1493  -1458  -1441  -1421  -1385  -1347  -1308  -1249  -1171  -1111  -1101  -1152  -1263  -1426  -1607  -1750  -1830  -1881  -1935  -1994  -2064  -2162  -2272  -2348  -2355  -2290  -2188  -2093  -2012  -1915  -1802  -1709  -1640  -1558  -1450  -1350  -1272  -1170  -1015  -852  -766  -861  -1199  -1672  -2051  -2240  -2322  -2387  -2445  -2476  -2486  -2510  -2556  -2579  -2541  -2480  -2453  -2474  -2520  -2559  -2572  -2570  -2580  -2631  -2746  -2913  -3049  -3052  -2933  -2799  -2701  -2609  -2509  -2399  -2245  -2035  -1815  -1622  -1441  -1254  -1073  -919  -766  -546  -233  80  270  313  284  271  320  409  488  547  625  745  903  1080  1265  1461  1641  1750  1771  1734  1672  1583  1440  1268  1143  1094  1085  1074  1057  1050  1061  1086  1108  1117  1124  1136  1151  1160  1161  1181  1285  1523  1872  2332  2975  3814  4794  5793  6504  6513  5648  4165  2532  1153  236  -219  -313  -147  246  856  1551  2146  2531  2709  2783  2853  2956  3112  3335  3602  3848  4003  4055  4049  4041  4088  4219  4400  4553  4627  4633  4592  4439  4073  3556  3099  2813  2642  2510  2404  2338  2303  2265  2216  2190  2228  2345  2562  2898  3315  3732  4084  4323  4452  4533  4618  4719  4812  4877  4949  5091  5314  5559  5716  5680  5466  5208  4941  4479  3609  2330  875  -439  -1415  -2027  -2335  -2438  -2432  -2357  -2226  -2087  -2001  -2007  -2108  -2274  -2453  -2604  -2720  -2820  -2942  -3137  -3439  -3827  -4244  -4671  -5098  -5463  -5690  -5780  -5800  -5784  -5709  -5561  -5374  -5195  -5031  -4885  -4796  -4819  -4970  -5184  -5340  -5353  -5209  -4971  -4754  -4639  -4613  -4620  -4604  -4531  -4421  -4325  -4277  -4262  -4241  -4175  -4061  -3934  -3827  -3757  -3728  -3720  -3687  -3588  -3437  -3283  -3138  -2964  -2740  -2491  -2264  -2074  -1889  -1666  -1434  -1275  -1208  -1178  -1152  -1127  -1108  -1110  -1134  -1151  -1151  -1187  -1330  -1577  -1819  -1950  -1957  -1886  -1784  -1673  -1554  -1460  -1451  -1512  -1571  -1571  -1510  -1421  -1315  -1157  -940  -714  -548  -472  -447  -377  -182  87  289  347  289  174  57  -26  -97  -184  -286  -411  -592  -818  -1039  -1218  -1339  -1390  -1386  -1356  -1320  -1285  -1255  -1226  -1183  -1117  -1041  -975  -927  -902  -896  -866  -800  -814  -981  -1070  -740  96  1266  2453  3244  3290  2520  1120  -569  -2116  -3182  -3653  -3553  -3006  -2217  -1377  -639  -82  336  696  1022  1292  1494  1635  1691  1581  1234  707  182  -172  -318  -342  -364  -456  -597  -728  -822  -876  -901  -908  -898  -858  -766  -582  -237  294  874  1293  1530  1748  2057  2416  2725  2922  3015  3066  3153  3327  3552  3765  3995  4286  4568  4730  4766  4750  4740  4747  4755  4743  4712  4672  4616  4532  4427  4304  4144  3962  3817  3741  3687  3593  3457  3332  3250  3192  3123  3039  2980  2963  2970  2974  2966  2963  3006  3125  3284  3405  3448  3410  3295  3138  2989  2856  2722  2620  2597  2642  2698  2705  2642  2542  2451  2387  2356  2346  2327  2262  2135  1966  1802  1679  1614  1590  1556  1445  1201  818  339  -136  -494  -705  -824  -898  -982  -1125  -1305  -1437  -1487  -1485  -1465  -1433  -1395  -1364  -1357  -1391  -1470  -1557  -1612  -1642  -1669  -1702  -1725  -1716  -1688  -1689  -1726  -1768  -1790  -1785  -1761  -1729  -1690  -1648  -1611  -1584  -1571  -1586  -1646  -1734  -1806  -1844  -1870  -1902  -1928  -1925  -1876  -1781  -1660  -1522  -1386  -1291  -1277  -1367  -1529  -1624  -1541  -1300  -966  -638  -455  -452  -571  -698  -730  -825  -1360  -2490  -3983  -5444  -6531  -7098  -7279  -7306  -7221  -6985  -6636  -6163  -5530  -4810  -4111  -3472  -2861  -2280  -1805  -1466  -1151  -646  233  1479  2806  3798  4252  4289  4075  3614  2875  2043  1450  1214  1238  1526  2181  3109  3994  4627  5034  5311  5512  5655  5741  5783  5806  5831  5866  5890  5831  5615  5287  4987  4794  4666  4534  4402  4320  4296  4294  4284  4267  4248  4183  4003  3729  3479  3315  3171  2975  2748  2538  2368  2254  2204  2205  2248  2337  2458  2572  2644  2671  2663  2623  2573  2533  2509  2479  2384  2213  2057  1926  1658  1131  498  55  -114  -198  -421  -820  -1229  -1482  -1577  -1609  -1644  -1707  -1803  -1925  -2049  -2144  -2244  -2473  -2888  -3348  -3657  -3767  -3766  -3746  -3751  -3807  -3933  -4118  -4299  -4383  -4330  -4206  -4109  -4077  -4089  -4119  -4133  -4066  -3836  -3434  -2958  -2549  -2319  -2297  -2406  -2520  -2576  -2588  -2592  -2608  -2638  -2671  -2701  -2725  -2752  -2785  -2825  -2881  -2960  -3043  -3092  -3068  -2953  -2785  -2640  -2556  -2513  -2486  -2485  -2518  -2526  -2430  -2236  -2032  -1888  -1797  -1694  -1547  -1390  -1244  -1093  -936  -809  -739  -724  -736  -751  -754  -725  -636  -467  -253  -75  14  41  50  56  62  76  112  166  214  238  237  222  200  178  159  137  108  88  104  157  221  282  331  360  365  360  356  356  357  368  407  485  593  696  750  721  614  458  297  163  48  -61  -173  -303  -453  -588  -688  -771  -862  -970  -1105  -1297  -1561  -1834  -2019  -2093  -2112  -2127  -2138  -2126  -2153  -2292  -2428  -2362  -2016  -1360  -393  739  1791  2482  2514  1715  254  -1432  -2909  -3895  -4271  -4086  -3571  -2981  -2459  -2046  -1725  -1463  -1224  -985  -767  -594  -431  -234  -31  126  237  310  329  300  261  249  280  372  541  775  1011  1193  1319  1421  1523  1636  1750  1853  1950  2066  2224  2428  2689  3005  3324  3594  3835  4111  4462  4861  5241  5545  5757  5898  5995  6052  6060  6010  5904  5739  5490  5178  4879  4592  4197  3603  2869  2128  1441  792  170  -416  -904  -1231  -1421  -1562  -1733  -1978  -2280  -2548  -2684  -2665  -2530  -2324  -2111  -1973  -1922  -1907  -1883  -1849  -1829  -1865  -2002  -2215  -2403  -2493  -2505  -2491  -2476  -2445  -2377  -2261  -2092  -1883  -1672  -1487  -1322  -1160  -998  -853  -737  -661  -632  -652  -712  -781  -824  -838  -835  -793  -673  -495  -341  -264  -258  -313  -450  -676  -936  -1147  -1257  -1281  -1274  -1265  -1241  -1174  -1064  -930  -775  -610  -453  -292  -125  12  110  201  294  373  463  623  866  1115  1291  1412  1512  1556  1503  1376  1237  1127  1054  984  894  799  718  631  506  308  -11  -422  -782  -955  -891  -606  -227  47  145  138  104  74  55  63  135  309  580  883  1130  1312  1512  1803  2156  2455  2602  2590  2461  2278  2075  1821  1519  1259  1093  983  876  775  713  703  725  756  784  814  855  898  925  954  1040  1180  1262  1250  1270  1327  1290  1249  1499  2189  3200  4215  4743  4329  2933  982  -960  -2474  -3383  -3739  -3661  -3244  -2539  -1647  -845  -400  -292  -366  -575  -913  -1274  -1515  -1604  -1610  -1608  -1625  -1643  -1639  -1620  -1580  -1491  -1337  -1137  -919  -698  -502  -373  -309  -260  -206  -195  -277  -418  -529  -569  -557  -523  -478  -417  -326  -211  -86  45  165  241  266  281  342  469  665  915  1156  1312  1373  1382  1338  1190  937  680  516  431  363  290  219  149  54  -93  -273  -420  -497  -525  -526  -496  -438  -371  -292  -154  82  400  713  919  992  991  974  904  651  109  -633  -1298  -1661  -1738  -1675  -1584  -1508  -1455  -1422  -1399  -1359  -1288  -1216  -1199  -1241  -1311  -1364  -1326  -1159  -899  -591  -277  -32  93  129  122  64  -79  -282  -454  -538  -532  -459  -345  -222  -127  -83  -84  -112  -160  -238  -371  -541  -693  -805  -889  -950  -982  -991  -990  -982  -957  -912  -861  -818  -785  -751  -709  -685  -757  -984  -1292  -1520  -1605  -1606  -1581  -1539  -1480  -1427  -1400  -1399  -1405  -1412  -1434  -1490  -1563  -1601  -1566  -1460  -1322  -1195  -1087  -938  -673  -305  71  356  497  513  481  452  412  331  230  158  117  48  -120  -404  -730  -984  -1110  -1142  -1140  -1141  -1130  -1054  -869  -601  -321  -78  160  465  794  992  1025  1066  1320  1898  2749  3646  4251  4259  3585  2380  884  -586  -1687  -2290  -2452  -2283  -1976  -1646  -1261  -822  -386  27  420  752  961  1046  1063  1042  986  909  835  791  787  816  862  909  949  984  1028  1092  1173  1267  1362  1430  1456  1451  1430  1416  1430  1483  1571  1696  1870  2069  2251  2452  2762  3157  3491  3666  3704  3668  3602  3532  3476  3445  3442  3467  3523  3595  3651  3665  3615  3487  3283  2997  2613  2158  1736  1441  1259  1124  1011  935  883  814  710  595  512  477  481  494  473  382  236  85  -24  -79  -92  -102  -131  -163  -161  -120  -72  -37  -9  26  77  144  216  270  274  207  74  -91  -267  -469  -709  -967  -1217  -1448  -1638  -1749  -1777  -1752  -1696  -1620  -1539  -1471  -1435  -1433  -1440  -1447  -1476  -1562  -1701  -1845  -1970  -2117  -2312  -2494  -2569  -2505  -2360  -2226  -2165  -2205  -2357  -2569  -2739  -2823  -2851  -2832  -2697  -2376  -1952  -1620  -1441]
