reading_id,reading_time,wire_id,result_classification,heart_rate,heart_rate_alert,firmware_version,device_app_version,hardware_version,waveform_samples
6b7b6750-5879-11ed-8080-808080808080,Sun Oct 30 17:36:43 UTC 2022,e100e35f1c39,NSR,63,NONE,20001.171.50,2.10.0,Charge 5,[0  514  838  941  926  899  887  841  697  463  226  71  10  3  2  -31  -123  -270  -447  -619  -749  -828  -875  -907  -925  -921  -897  -882  -902  -946  -971  -935  -844  -766  -738  -739  -743  -766  -844  -976  -1111  -1209  -1279  -1338  -1383  -1410  -1427  -1434  -1418  -1362  -1260  -1126  -1015  -983  -1010  -1061  -1162  -1316  -1465  -1546  -1517  -1410  -1323  -1302  -1305  -1273  -1169  -982  -689  -251  333  928  1328  1454  1382  1207  995  812  709  680  683  678  640  548  391  186  -24  -191  -277  -270  -169  0  164  256  258  177  34  -126  -273  -418  -596  -814  -1032  -1199  -1288  -1312  -1311  -1312  -1324  -1358  -1418  -1504  -1606  -1709  -1809  -1905  -1921  -1740  -1410  -1088  -758  -261  474  1415  2478  3384  3661  3058  1704  -58  -1776  -3035  -3669  -3747  -3418  -2882  -2397  -2122  -2008  -1904  -1694  -1375  -1065  -893  -888  -1002  -1155  -1271  -1318  -1300  -1203  -1036  -878  -828  -881  -952  -986  -989  -960  -841  -558  -151  220  451  554  598  639  687  733  807  986  1298  1647  1886  1972  1980  2003  2076  2186  2303  2392  2433  2439  2434  2427  2412  2386  2358  2331  2288  2207  2101  2000  1916  1800  1564  1179  746  376  115  -20  -52  -34  -12  -3  -18  -62  -116  -143  -121  -53  36  124  229  370  505  583  598  572  521  467  447  490  583  658  682  702  764  843  882  858  796  737  706  698  699  701  712  739  776  805  814  811  812  835  885  947  1003  1067  1155  1258  1348  1406  1430  1425  1368  1246  1140  1172  1331  1479  1541  1553  1566  1584  1589  1579  1565  1533  1459  1360  1288  1268  1274  1272  1238  1171  1079  967  858  789  759  733  685  627  579  531  459  353  229  133  101  122  144  136  107  77  50  24  4  -14  -44  -84  -112  -124  -134  -157  -196  -237  -266  -281  -305  -349  -412  -486  -553  -601  -627  -629  -609  -578  -569  -612  -686  -739  -764  -812  -936  -1126  -1322  -1486  -1632  -1783  -1920  -2002  -2014  -1971  -1891  -1793  -1714  -1684  -1686  -1680  -1646  -1585  -1511  -1461  -1476  -1571  -1708  -1836  -1949  -2073  -2220  -2365  -2463  -2490  -2477  -2468  -2476  -2489  -2496  -2494  -2489  -2488  -2501  -2533  -2571  -2612  -2661  -2710  -2753  -2680  -2262  -1397  -140  1394  2753  3215  2470  833  -1144  -2879  -3971  -4491  -4791  -5036  -5107  -4871  -4411  -3940  -3608  -3443  -3399  -3428  -3512  -3615  -3688  -3718  -3730  -3731  -3684  -3556  -3384  -3257  -3210  -3209  -3212  -3211  -3237  -3324  -3447  -3541  -3578  -3572  -3530  -3449  -3352  -3288  -3276  -3283  -3238  -3089  -2870  -2662  -2478  -2291  -2127  -2032  -1993  -1956  -1909  -1870  -1820  -1701  -1509  -1307  -1177  -1202  -1435  -1781  -2052  -2166  -2191  -2218  -2268  -2313  -2305  -2206  -2012  -1763  -1508  -1285  -1102  -924  -731  -562  -463  -396  -258  1  309  526  611  634  654  696  801  1013  1286  1496  1581  1585  1564  1551  1576  1692  1939  2241  2457  2563  2655  2773  2872  2938  3030  3201  3439  3674  3824  3874  3868  3854  3834  3778  3656  3485  3291  3078  2856  2662  2513  2372  2186  1982  1838  1772  1725  1635  1512  1410  1324  1189  980  767  638  598  599  610  618  558  335  -37  -389  -551  -511  -373  -246  -176  -149  -145  -180  -286  -441  -560  -597  -572  -524  -494  -518  -606  -741  -878  -961  -963  -892  -782  -684  -641  -688  -856  -1122  -1414  -1663  -1834  -1941  -2034  -2153  -2311  -2509  -2753  -3047  -3368  -3667  -3902  -4076  -4213  -4309  -4363  -4416  -4535  -4778  -5142  -5522  -5784  -5908  -5972  -6037  -6121  -6200  -6225  -6188  -6110  -5933  -5527  -4864  -4150  -3692  -3624  -3899  -4381  -4881  -5245  -5390  -5167  -4395  -3248  -2281  -1824  -1707  -1641  -1547  -1472  -1402  -1258  -1034  -824  -707  -678  -693  -718  -745  -764  -715  -451  185  1155  2183  3007  3589  4059  4539  5038  5469  5750  5908  6096  6500  7196  8165  9389  10658  11499  11522  10613  8896  6826  4997  3790  3324  3514  4092  4689  5020  5062  4974  4867  4742  4607  4509  4471  4463  4452  4424  4383  4343  4306  4268  4220  4129  3982  3832  3727  3655  3595  3542  3486  3429  3361  3269  3169  3104  3078  3068  3084  3196  3471  3828  4082  4163  4146  4115  4101  4128  4224  4391  4590  4799  5000  5149  5229  5273  5313  5345  5344  5280  5142  4966  4775  4537  4207  3811  3420  3077  2771  2504  2304  2143  1928  1626  1317  1086  944  869  845  851  862  882  929  992  1022  983  889  792  731  715  756  875  1048  1205  1308  1357  1359  1353  1382  1434  1471  1483  1486  1488  1483  1447  1358  1244  1168  1167  1230  1326  1415  1461  1462  1457  1511  1668  1884  2059  2156  2213  2268  2328  2393  2475  2591  2747  2912  3043  3134  3204  3266  3332  3400  3455  3523  3657  3857  4080  4310  4522  4648  4676  4700  4837  5131  5489  5764  5901  5962  5999  6012  6016  6100  6357  6729  7032  7161  7161  7123  7104  7140  7264  7473  7690  7856  8009  8227  8488  8697  8833  8948  8937  8406  6953  4649  2053  -270  -2045  -3225  -3973  -4607  -5366  -6183  -6818  -7229  -7614  -8079  -8516  -8819  -9019  -9221  -9481  -9741  -9901  -9953  -9972  -10014  -10074  -10107  -10094  -10065  -10053  -10061  -10074  -10058  -9973  -9820  -9653  -9516  -9423  -9381  -9382  -9386  -9368  -9317  -9214  -9059  -8901  -8791  -8735  -8710  -8694  -8684  -8681  -8698  -8764  -8899  -9061  -9181  -9237  -9252  -9249  -9236  -9214  -9164  -9055  -8892  -8731  -8603  -8453  -8291  -8271  -8392  -8383  -8048  -7314  -6088  -4503  -2956  -1803  -1328  -1776  -3125  -4981  -6802  -8151  -8756  -8625  -8064  -7370  -6710  -6194  -5824  -5507  -5180  -4878  -4668  -4539  -4401  -4218  -4036  -3884  -3745  -3613  -3507  -3424  -3319  -3176  -3024  -2871  -2680  -2454  -2205  -1892  -1533  -1252  -1113  -1071  -1067  -1073  -1066  -1001  -847  -603  -292  80  529  1025  1475  1825  2108  2370  2634  2924  3231  3494  3709  3945  4221  4460  4595  4657  4704  4750  4788  4833  4884  4869  4677  4269  3795  3493  3427  3432  3340  3076  2545  1718  806  76  -364  -403  131  1224  2718  4503  6318  7704  8425  8702  8865  9021  9098  9031  8839  8557  8162  7625  7039  6578  6312  6183  6120  6090  6081  6085  6102  6142  6210  6286  6337  6353  6350  6337  6312  6269  6188  5998  5623  5073  4422  3776  3279  3026  2969  2978  2975  2947  2901  2852  2821  2810  2808  2813  2830  2872  2935  2979  2968  2888  2706  2366  1850  1249  716  314  -17  -361  -741  -1096  -1367  -1611  -1894  -2163  -2371  -2614  -3007  -3509  -3934  -4154  -4214  -4222  -4238  -4296  -4421  -4580  -4695  -4739  -4737  -4687  -4568  -4404  -4261  -4165  -4098  -4041  -3975  -3899  -3840  -3818  -3818  -3808  -3756  -3656  -3520  -3357  -3201  -3098  -3048  -3002  -2929  -2844  -2768  -2680  -2546  -2395  -2277  -2196  -2134  -2091  -2075  -2079  -2099  -2127  -2146  -2121  -2023  -1873  -1737  -1645  -1577  -1516  -1465  -1419  -1356  -1265  -1177  -1133  -1131  -1118  -1004  -746  -432  -213  -144  -166  -206  -226  -229  -240  -282  -348  -415  -479  -551  -620  -654  -636  -582  -512  -431  -342  -260  -186  -102  0  112  218  268  260  348  769  1686  3053  4604  5952  6695  6529  5425  3725  1933  408  -655  -1141  -1117  -788  -259  370  899  1212  1348  1386  1383  1366  1356  1402  1537  1711  1827  1853  1834  1800  1740  1643  1527  1383  1167  876  595  405  314  282  253  183  65  -75  -211  -321  -381  -352  -214  -35  93  184  300  439  545  605  667  760  887  1052  1246  1425  1568  1676  1759  1825  1852  1820  1757  1695  1625  1520  1355  1112  792  417  0  -455  -892  -1193  -1317  -1361  -1461  -1666  -1897  -2040  -2047  -1930  -1737  -1535  -1378  -1297  -1280  -1293  -1310  -1323  -1328  -1309  -1246  -1149  -1057  -1000  -973  -950  -920  -875  -797  -691  -592  -528  -501  -497  -502  -507  -511  -511  -490  -431  -330  -203  -88  -23  -14  -24  -25  -19  -21  -35  -75  -158  -275  -387  -471  -526  -539  -492  -400  -291  -194  -160  -204  -256  -236  -162  -104  -96  -121  -166  -253  -388  -530  -624  -659  -651  -610  -541  -457  -385  -337  -310  -276  -214  -144  -80  -10  54  93  117  138  155  164  165  164  171  189  189  141  60  -12  -70  -134  -203  -244  -243  -217  -189  -166  -131  -78  -50  -87  -152  -197  -222  -241  -251  -248  -227  -189  -142  -99  -72  -61  -60  -76  -123  -195  -270  -325  -339  -323  -337  -402  -422  -330  -202  -136  -135  -164  -210  -276  -346  -388  -391  -375  -355  -317  -238  -134  -44  12  27  -7  -90  -204  -294  -280  -153  4  124  190  233  298  383  436  422  357  267  161  40  -90  -244  -430  -606  -714  -742  -699  -586  -439  -319  -234  -146  -49  16  17  -10  -5  -11  -47  116  805  2114  3780  5204  5712  4990  3264  1121  -768  -1989  -2559  -2686  -2528  -2211  -1842  -1474  -1142  -892  -728  -609  -515  -461  -446  -448  -450  -445  -421  -357  -260  -156  -60  22  82  109  104  82  57  39  57  163  365  588  741  819  896  1034  1226  1434  1643  1859  2081  2290  2450  2556  2655  2817  3086  3431  3776  4046  4197  4244  4275  4392  4611  4830  4925  4855  4667  4438  4196  3928  3661  3439  3225  2937  2537  2078  1680  1433  1304  1197  1051  884  736  608  497  416  369  318  222  69  -107  -251  -332  -357  -346  -311  -263  -220  -196  -191  -197  -207  -212  -197  -156  -100  -62  -61  -109  -226  -423  -638  -781  -823  -811  -796  -785  -747  -657  -537  -440  -388  -378  -439  -613  -857  -1051  -1148  -1219  -1339  -1493  -1620  -1677  -1641  -1502  -1306  -1136  -1029  -965  -928  -924  -961  -1035  -1115  -1181  -1250  -1318  -1382  -1465  -1553  -1578  -1496  -1354  -1243  -1204  -1228  -1296  -1381  -1444  -1466  -1450  -1393  -1302  -1205  -1144  -1149  -1207  -1262  -1269  -1210  -1093  -949  -821  -746  -729  -746  -770  -789  -799  -792  -752  -675  -591  -539  -513  -466  -370  -267  -221  -236  -274  -304  -316  -309  -294  -278  -252  -212  -172  -142  -126  -108  -78  -43  -8  34  69  56  -26  -144  -231  -262  -261  -254  -242  -217  -177  -114  -12  112  215  287  356  456  604  776  908  967  976  969  963  949  899  790  663  584  559  554  543  515  467  410  359  313  226  45  -229  -537  -817  -1037  -1200  -1331  -1434  -1492  -1522  -1582  -1722  -1932  -2156  -2379  -2591  -2662  -2521  -2376  -2425  -2516  -2325  -1652  -515  765  1619  1609  741  -677  -2286  -3711  -4644  -4984  -4819  -4261  -3463  -2715  -2295  -2213  -2277  -2330  -2297  -2134  -1858  -1579  -1405  -1349  -1347  -1332  -1276  -1191  -1104  -1023  -931  -793  -604  -428  -332  -298  -257  -169  -50  78  208  336  481  686  953  1202  1366  1470  1606  1859  2225  2605  2895  3056  3126  3193  3310  3475  3666  3859  4012  4100  4147  4185  4227  4268  4289  4232  4041  3749  3444  3140  2813  2440  1975  1454  1020  753  605  503  415  337  278  239  208  173  137  102  61  29  23  32  12  -80  -250  -444  -604  -699  -728  -686  -562  -396  -264  -201  -181  -185  -217  -265  -308  -335  -343  -323  -247  -113  23  81  24  -104  -225  -293  -321  -325  -309  -277  -235  -182  -121  -67  -36  -25  -26  -45  -96  -171  -243  -294  -311  -296  -270  -256  -258  -258  -236  -177  -99  -37  -12  -17  -27  -27  -28  -49  -93  -144  -178  -189  -191  -214  -288  -401  -506  -572  -595  -586  -559  -551  -639  -884  -1207  -1436  -1478  -1373  -1219  -1106  -1062  -1050  -1024  -959  -864  -787  -782  -862  -985  -1095  -1163  -1212  -1295  -1414  -1517  -1568  -1563  -1487  -1319  -1103  -945  -888  -879  -852  -790  -710  -618  -522  -446  -399  -376  -362  -349  -351  -382  -415  -398  -298  -88  215  515  700  769  790  789  773  787  865  1012  1224  1456  1604  1619  1549  1471  1445  1528  1753  2049  2270  2337  2262  2052  1726  1382  1153  1068  1050  1001  857  622  364  138  -50  -214  -347  -433  -483  -514  -525  -513  -509  -583  -771  -955  -930  -708  -481  -229  279  1171  2380  3664  4619  4801  3978  2359  417  -1421  -2826  -3561  -3592  -3102  -2422  -1874  -1566  -1410  -1292  -1176  -1083  -1033  -1017  -1019  -1025  -1030  -1031  -1012  -928  -759  -600  -591  -718  -828  -832  -748  -637  -550  -482  -375  -202  0  173  279  317  310  304  346  463  635  797  914  1052  1294  1591  1811  1949  2135  2424  2741  2990  3130  3197  3258  3331  3375  3354  3271  3171  3085  2953  2680  2308  1978  1751  1578  1373  1047  606  215  24  11  53  66  36  -26  -101  -151  -144  -76  18  88  112  95  49  -4  -28  1  65  118  138  135  127  120  103  55  -20  -95  -155  -237  -398  -622  -807  -899  -942  -996  -1071  -1149  -1224  -1290  -1327  -1331  -1337  -1387  -1498  -1642  -1760  -1820  -1829  -1818  -1811  -1817  -1840  -1879  -1922  -1955  -1961  -1924  -1844  -1742  -1646  -1579  -1546  -1536  -1534  -1538  -1566  -1631  -1696  -1688  -1593  -1467  -1373  -1324  -1308  -1318  -1359  -1415  -1425  -1322  -1133  -963  -871  -836  -820  -802  -770  -714  -638  -562  -493  -438  -405  -376  -305  -170  -1  145  234  261  260  284  367  481  577  666  784  887  907  867  838  853  908  977  1031  1053  1021  900  711  540  443  368  233  40  -168  -400  -644  -838  -969  -1088  -1202  -1283  -1315  -1308  -1274  -1226  -1176  -1133  -1111  -1119  -1155  -1202  -1215  -1096  -764  -317  20  167  228  312  405  411  312  191  93  -13  -152  -297  -394  -410  -339  -196  -17  150  267  347  440  551  653  744  804  768  595  407  416  699  1261  2126  3244  4531  5864  6930  7281  6636  5096  3094  1189  -160  -829  -1014  -935  -725  -521  -405  -324  -193  -21  110  157  122  11  -148  -296  -390  -424  -422  -415  -402  -370  -352  -423  -603  -813  -950  -975  -903  -755  -560  -364  -212  -125  -101  -116  -117  -42  97  223  317  473  789  1243  1681  1967  2090  2135  2174  2231  2311  2441  2652  2942  3234  3414  3434  3320  3132  2940  2795  2717  2672  2551  2188  1511  707  84  -228  -317  -318  -318  -398  -644  -1028  -1387  -1591  -1633  -1530  -1285  -984  -770  -699  -715  -757  -812  -900  -1042  -1210  -1335  -1400  -1442  -1473  -1444  -1305  -1101  -945  -881  -848  -779  -680  -604  -568  -545  -518  -509  -554  -663  -791  -879  -907  -880  -792  -663  -550  -495  -488  -498  -508  -508  -487  -436  -379  -353  -376  -426  -463  -475  -477  -486  -515  -571  -657  -752  -825  -855  -859  -861  -867  -858  -811  -726  -601  -408  -177  -14  19  -47  -148  -222  -250  -247  -226  -191  -153  -129  -121  -118  -110  -101  -100  -97  -70  -14  62  144  209  248  264  251  185  65  -60  -137  -161  -161  -158  -142  -91  0  99  156  135  26  -126  -254  -338  -398  -441  -452  -420  -361  -331  -366  -429  -469  -486  -503  -527  -548  -554  -537  -499  -464  -466  -517  -590  -637  -666  -780  -1056  -1406  -1653  -1742  -1760  -1795  -1859  -1924  -1981  -2051  -2148  -2239  -2266  -2226  -2173  -2144  -2126  -2086  -2000  -1838  -1595  -1402  -1444  -1665  -1694  -1142  120  1892  3673  4841  4923  3833  1956  -79  -1766  -2861  -3336  -3264  -2778  -2110  -1481  -976  -628  -445  -367  -314  -244  -148  -40  49  101  142  228  370  510  592  616  630  682  773  838  839  845  911  997  1060  1109  1154  1203  1277  1392  1542  1714  1881  2010  2088  2131  2155  2167  2191  2286  2498  2789  3087  3360  3598  3783  3915  4012  4083  4130  4155  4151  4070  3858  3542  3226  2984  2824  2710  2518  2121  1574  1066  684  384  137  -29  -100  -107  -98  -97  -102  -112  -145  -228  -344  -454  -546  -620  -663  -679  -694  -729  -781  -835  -879  -903  -911  -911  -911  -912  -913  -913  -907  -893  -883  -908  -1003  -1141  -1241  -1247  -1161  -1042  -957  -929  -934  -944  -955  -963  -967  -961  -943  -909  -858  -786  -687  -563  -424  -276  -119  39  160  189  115  -46  -264  -447  -492  -379  -192  -51  1  12  28  66  117  163  195  214  229  258  293  319  335  338  339  332  272  151  30  -36  -43  -26  -15  -10  6  45  73  61  31  26  61  117  165  198  219  173  -62  -531  -1057  -1386  -1435  -1293  -1096  -961  -942  -1041  -1222  -1419  -1577  -1688  -1779  -1863  -1943  -2021  -2088  -2120  -2125  -2131  -2146  -2158  -2159  -2157  -2158  -2163  -2173  -2200  -2237  -2239  -2192  -2117  -1964  -1607  -900  233  1704  3226  4335  4573  3781  2171  141  -1823  -3256  -3983  -4126  -3884  -3497  -3156  -2883  -2620  -2355  -2074  -1747  -1409  -1163  -1043  -992  -960  -933  -912  -878  -809  -716  -625  -538  -425  -264  -70  106  244  378  566  824  1094  1268  1317  1305  1303  1370  1570  1918  2331  2686  2904  3034  3189  3441  3817  4278  4683  4910  4991  5026  5055  5076  5095  5131  5162  5117  4930  4636  4343  4110  3893  3620  3280  2867  2318  1631  931  382  86  -3  -47  -154  -312  -465  -606  -746  -861  -927  -971  -1035  -1121  -1198  -1240  -1247  -1226  -1180  -1107  -1018  -923  -843  -803  -811  -835  -817  -747  -681  -659  -666  -675  -678  -679  -682  -682  -656  -560  -404  -275  -232  -261  -331  -425  -530  -627  -699  -749  -803  -876  -957  -1030  -1096  -1144  -1157  -1165  -1213  -1283  -1333  -1333  -1262  -1142  -1040  -987  -964  -954  -951  -948  -938  -912  -871  -824  -784  -761  -758  -773  -790  -790  -743  -618  -437  -254  -78  117  297  396  425  480  634  851  1022  1079  1082  1158  1347  1551  1678  1705  1604  1337  988  737  657  676  706  694  619  506  414  378  383  394  374  299  193  99  20  -66  -164  -246  -278  -240  -169  -128  -151  -212  -277  -359  -500  -708  -932  -1088  -1153  -1167  -1163  -1125  -1028  -892  -778  -716  -704  -747  -847  -972  -1066  -1068  -918  -605  -280  -205  -416  -507  -4  1193  2802  4256  4929  4509  3085  1064  -943  -2459  -3322  -3636  -3661  -3582  -3405  -3085  -2591  -1992  -1502  -1273  -1273  -1422  -1654  -1873  -1964  -1879  -1663  -1416  -1220  -1096  -1013  -912  -759  -576  -413  -308  -267  -271  -301  -342  -360  -303  -149  64  263  384  438  491  591  758  1024  1394  1794  2120  2350  2549  2800  3128  3466  3731  3918  4071  4200  4277  4299  4294  4284  4269  4218  4072  3734  3130  2338  1622  1217  1102  1069  902  505  10  -333  -430  -374  -275  -196  -165  -183  -243  -334  -424  -467  -447  -397  -355  -300  -184  -26  93  143  153  147  100  -16  -173  -291  -343  -363  -371  -375  -398  -488  -673  -904  -1061  -1067  -936  -753  -621  -573  -575  -600  -646  -703  -741  -742  -716  -680  -649  -631  -632  -654  -674  -676  -682  -685  -647  -578  -513  -477  -481  -515  -546  -557  -563  -586  -628  -668  -687  -689  -700  -719  -722  -685  -600  -496  -415  -382  -378  -360  -292  -190  -101  -51  -55  -129  -246  -344  -397  -423  -441  -456  -481  -527  -584  -625  -631  -611  -589  -596  -667  -806  -959  -1051  -1038  -913  -718  -535  -409  -322  -257  -217  -181  -88  96  274  277  115  -24  -10  167  442  704  891  1023  1113  1075  797  334  -89  -307  -344  -283  -159  -9  90  77  -53  -230  -368  -482  -654  -887  -1114  -1294  -1434  -1542  -1621  -1672  -1711  -1751  -1789  -1805  -1771  -1664  -1519  -1422  -1430  -1529  -1663  -1786  -1877  -1884  -1749  -1445  -927  -182  786  1985  3250  4153  4233  3306  1581  -429  -2150  -3216  -3567  -3350  -2841  -2321  -1924  -1603  -1303  -1092  -1066  -1173  -1271  -1303  -1301  -1293  -1284  -1273  -1264  -1259  -1262  -1271  -1278  -1261  -1185  -1042  -857  -660  -480  -329  -210  -112  -57  -88  -172  -196  -72  215  616  1009  1279  1411  1496  1667  1981  2370  2736  3038  3287  3532  3869  4325  4809  5194  5405  5457  5440  5443  5503  5585  5619  5554  5341  4892  4185  3416  2886  2682  2633  2535  2272  1836  1345  946  653  377  110  -79  -176  -239  -326  -435  -533  -618  -712  -795  -839  -849  -849  -855  -869  -882  -891  -898  -907  -918  -929  -936  -939  -932  -897  -828  -742  -652  -562  -469  -371  -260  -132  -15  56  78  75  67  63  67  99  200  381  573  690  725  725  721  721  723  717  698  675  662  672  697  722  719  667  561  415  262  142  65  21  4  8  19  26  27  28  21  5  -8  -19  -36  -61  -85  -100  -122  -203  -375  -586  -735  -788  -784  -771  -784  -846  -956  -1074  -1163  -1213  -1228  -1225  -1221  -1219  -1219  -1236  -1297  -1416  -1574  -1722  -1814  -1840  -1835  -1857  -1922  -2002  -2083  -2157  -2178  -2094  -1917  -1734  -1631  -1626  -1687  -1768  -1826  -1844  -1841  -1839  -1841  -1830  -1788  -1729  -1685  -1659  -1632  -1595  -1567  -1558  -1563  -1567  -1557  -1520  -1468  -1425  -1387  -1335  -1274  -1235  -1216  -1165  -1026  -791  -522  -309  -200  -163  -138  -92  -28  32  79  107  118  119  112  101  89  80  76  75  79  87  94  99  105  118  130  120  112  169  314  565  997  1708  2731  3939  5048  5676  5470  4310  2498  632  -855  -1915  -2649  -3126  -3304  -3067  -2500  -1956  -1701  -1758  -2044  -2413  -2668  -2688  -2479  -2153  -1881  -1760  -1770  -1851  -1950  -2017  -2024  -1966  -1858  -1729  -1602  -1488  -1400  -1337  -1270  -1153  -975  -790  -633  -466  -245  25  296  521  700  874  1062  1246  1426  1656  1977  2369  2782  3168  3498  3760  3991  4272  4621  4957  5212  5378  5471  5496  5449  5334  5170  4952  4626  4163  3661  3257  2987  2766  2473  2064  1629  1275  1035  897  841  833  842  863  905  955  986  1013  1092  1247  1420  1530  1564  1566  1563  1542  1478  1383  1308  1275  1265  1268  1291  1331  1361  1360  1348  1363  1414  1482  1521  1506  1472  1448  1409  1313  1163  1007  884  805  778  824  951  1123  1269  1343  1355  1338  1309  1273  1230  1169  1095  1037  995  922  786  608  421  241  73  -115  -382  -704  -969  -1114  -1178  -1215  -1245  -1308  -1448  -1657  -1891  -2106  -2270  -2367  -2411  -2419  -2403  -2374  -2338  -2293  -2250  -2239  -2277  -2344  -2400  -2437  -2468  -2501  -2538  -2584  -2639  -2693  -2739  -2774  -2796  -2803  -2793  -2777  -2765  -2752  -2725  -2667  -2577  -2505  -2520  -2605  -2665  -2645  -2570  -2462  -2286  -2040  -1807  -1662  -1598  -1576  -1574  -1591  -1631  -1679  -1714  -1727  -1731  -1736  -1743  -1734  -1674  -1552  -1413  -1329  -1359  -1515  -1729  -1882  -1922  -1884  -1814  -1724  -1611  -1460  -1190  -583  562  2210  4000  5290  5487  4419  2397  149  -1579  -2541  -2855  -2710  -2384  -2050  -1653  -1185  -756  -375  -30  199  276  263  224  184  149  127  126  152  194  229  235  203  151  104  84  114  225  402  564  653  690  728  797  918  1115  1365  1613  1847  2074  2272  2450  2657  2910  3171  3407  3642  3940  4302  4631  4851  5006  5163  5309  5403  5432  5357  5125  4771  4406  4054  3665  3205  2682  2158  1715  1351  1006  656  313  -31  -370  -645  -798  -845  -870  -956  -1102  -1241  -1336  -1413  -1503  -1595  -1656  -1678  -1676  -1655  -1603  -1532  -1480  -1467  -1453  -1382  -1251  -1105  -985  -913  -872  -814  -723  -628  -556  -514  -490  -465  -428  -393  -386  -412  -440  -438  -406  -366  -356  -388  -429  -437  -397  -321  -225  -114  13  130  186  154  63  -25  -74  -91  -101  -125  -157  -179  -179  -167  -164  -173  -177  -179  -199  -247  -318  -394  -442  -457  -476  -531  -611  -684  -766  -895  -1054  -1176  -1233  -1248  -1253  -1261  -1294  -1373  -1472  -1546  -1589  -1632  -1679  -1710  -1721  -1698  -1592  -1381  -1145  -994  -949  -954  -970  -1009  -1102  -1255  -1445  -1630  -1764  -1832  -1864  -1878  -1854  -1792  -1724  -1675  -1632  -1573  -1488  -1367  -1214  -1056  -935  -890  -902  -858  -641  -182  555  1568  2771  3993  4954  5212  4409  2683  581  -1350  -2757  -3525  -3753  -3586  -3139  -2508  -1834  -1327  -1088  -1025  -1006  -980  -960  -954  -926  -823  -649  -479  -373  -320  -293  -284  -270  -202  -53  138  301  401  456  502  549  583  607  655  780  1000  1238  1389  1439  1464  1535  1652  1772  1884  2014  2155  2272  2377  2534  2792  3104  3374  3543  3614  3625  3610  3577  3516  3428  3298  3054  2619  2056  1548  1180  889  593  243  -194  -662  -1015  -1196  -1272  -1328  -1404  -1496  -1559  -1548  -1439  -1257  -1069  -933  -860  -820  -752  -596  -374  -182  -87  -75  -107  -172  -250  -314  -360  -402  -436  -454  -463  -472  -472  -423  -290  -99  66  152  166  125  31  -76  -109  -11  165  315  399  444  453  420  385  388  414  431  434  439  452  450  416  373  355  366  393  424  480  601  765  892  941  938  920  907  891  854  792  724  685  689  718  715  577  242  -187  -505  -611  -560  -457  -370  -319  -295  -282  -274  -288  -353  -472  -598  -679  -704  -702  -698  -685  -640  -557  -454  -345  -241  -137  -18  116  229  278  244  120  -56  -227  -398  -644  -1002  -1389  -1675  -1832  -1930  -2016  -2090  -2154  -2209  -2230  -2184  -2084  -1991  -1934  -1883  -1838  -1862  -1982  -2103  -2073  -1743  -1023  104  1548  3047  4163  4436  3660  2019  -24  -1910  -3193  -3731  -3675  -3283  -2784  -2304  -1841  -1403  -1099  -984  -977  -970  -911  -820  -767  -809  -951  -1151  -1341  -1448  -1421  -1257  -1032  -854  -769  -747  -753  -763  -760  -739  -706  -648  -527  -340  -151  -33  8  41  179  532  1077  1617  1955  2093  2168  2277  2454  2717  3048  3392  3699  3950  4175  4421  4664  4822  4853  4785  4664  4515  4301  3967  3564  3212  2934  2605  2101  1518  1105  948  924  912  898  906  930  946  947  944  955  985  1027  1069  1090  1062  989  913  858  833  837  854  867  872  869  846  785  697  623  589  583  589  610  654  692  679  606  499  377  249  135  45  -24  -101  -221  -402  -633  -884  -1087  -1189  -1205  -1185  -1164  -1165  -1219  -1345  -1500  -1606  -1614  -1525  -1379  -1242  -1147  -1058  -931  -759  -582  -459  -393  -328  -232  -143  -110  -135  -174  -167  -103  -40  -83  -274  -516  -674  -721  -714  -693  -667  -635  -604  -585  -599  -667  -791  -948  -1110  -1245  -1320  -1337  -1331  -1329  -1338  -1348  -1346  -1335  -1338  -1402  -1554  -1751  -1896  -1929  -1884  -1825  -1760  -1665  -1552  -1482  -1539  -1766  -2077  -2304  -2374  -2338  -2265  -2201  -2169  -2160  -2126  -2022  -1856  -1675  -1504  -1360  -1268  -1227  -1215  -1202  -1153  -1056  -948  -884  -913  -1056  -1253  -1395  -1452  -1493  -1588  -1748  -1916  -2018  -2022  -1948  -1850  -1774  -1715  -1626  -1485  -1317  -1180  -1127  -1125  -1095  -1009  -899  -783  -606  -297  151  736  1511  2508  3689  5001  6258  7013  6811  5516  3397  1062  -804  -1768  -1796  -1218  -464  169  532  618  595  612  663  703  731  763  813  892  994  1106  1223  1328  1389  1405  1399  1392  1394  1407  1426  1441  1451  1467  1521  1651  1836  1997  2083  2111  2117  2134  2174  2245  2340  2436  2509  2544  2529  2456  2355  2285  2301  2416  2576  2694  2745  2769  2811  2888  2973  3016  2979  2862  2683  2418  2011  1460  859  321  -84  -357  -581  -885  -1307  -1719  -1983  -2118  -2208  -2283  -2350  -2419  -2478  -2500  -2431  -2227  -1949  -1746  -1692  -1748  -1841  -1901  -1847  -1615  -1267  -975  -841  -826  -851  -856  -790  -630  -428  -277  -226  -260  -335  -407  -452  -455  -397  -256  -65  97  189  219  216  208  206  190  127  14  -102  -174  -196  -201  -226  -296  -391  -453  -444  -366  -266  -192  -133  -25  149  344  506  604  651  694  767  862  949  1008  1052  1114  1189  1196  1047  771  509  371  346  363  375  366  335  269  162  47  -24  -28  14  59  82  85  63  -1  -99  -197  -268  -304  -299  -256  -192  -132  -78  -26  10  21  -4  -77  -196  -326  -417  -460  -486  -515  -541  -562  -593  -660  -772  -886  -955  -975  -975  -969  -960  -947  -932  -929  -972  -1084  -1236  -1344  -1329  -1141  -824  -532  -414  -497  -689  -868  -965  -951  -774  -420  -16  240  241  -7  -404  -790  -1054  -1188  -1234  -1236  -1225  -1215  -1204  -1183  -1146  -1101  -1069  -1057  -1048  -1028  -1000  -974  -956  -946  -944  -944  -938  -931  -934  -956  -987  -1012  -1028  -1048  -1088  -1160  -1254  -1348  -1433  -1504  -1547  -1563  -1571  -1612  -1718  -1858  -1961  -2001  -2020  -2063  -2124  -2149  -2087  -1904  -1562  -1014  -184  966  2330  3622  4395  4218  3007  1143  -756  -2256  -3232  -3646  -3490  -2921  -2221  -1654  -1321  -1106  -855  -566  -342  -238  -208  -175  -91  49  211  330  384  410  445  508  583  634  653  673  734  846  980  1091  1150  1191  1292  1481  1711  1923  2091  2214  2300  2391  2544  2754  2952  3129  3376  3749  4154  4439  4565  4615  4667  4729  4776  4795  4796  4786  4762  4718  4632  4456  4133  3676  3178  2730  2380  2133  1924  1642  1230  775  425  185  -20  -202  -362  -540  -745  -916  -1010  -1040  -1048  -1048  -1025  -948  -814  -647  -488  -373  -315  -294  -293  -306  -319  -292  -170  37  239  349  372  361  351  359  407  500  590  616  610  651  742  829  875  882  878  893  941  1027  1144  1267  1345  1325  1196  1012  854  750  674  624  635  733  872  960  949  832  613  324  46  -133  -211  -264  -376  -586  -886  -1197  -1402  -1456  -1397  -1271  -1125  -1001  -919  -884  -893  -920  -934  -926  -907  -903  -923  -975  -1088  -1265  -1442  -1543  -1550  -1493  -1407  -1323  -1264  -1237  -1242  -1266  -1283  -1260  -1191  -1101  -1017  -950  -898  -871  -897  -1000  -1186  -1410  -1582  -1656  -1668  -1685  -1751  -1840  -1892  -1920  -1973  -2033  -2040  -1977  -1880  -1792  -1700  -1570  -1425  -1315  -1260  -1243  -1202  -1069  -859  -673  -571  -543  -597  -790  -1125  -1480  -1718  -1805  -1799  -1756  -1701  -1650  -1621  -1621  -1645  -1680  -1707  -1717  -1697  -1634  -1545  -1469  -1421  -1376  -1286  -1118  -846  -397  359  1485  2859  4199  5087  5027  3789  1728  -480  -2282  -3296  -3479  -3220  -2894  -2598  -2300  -1997  -1757  -1638  -1607  -1607  -1618  -1641  -1676  -1719  -1768  -1801  -1784  -1720  -1646  -1604  -1603  -1617  -1596  -1503  -1346  -1187  -1084  -1036  -996  -922  -809  -661  -471  -222  97  457  787  1069  1342  1601  1798  1910  1957  1992  2108  2387  2809  3231  3496  3577  3566  3559  3600  3677  3746  3783  3792  3784  3748  3624  3360  2976  2548  2133  1733  1318  888  503  193  -54  -236  -355  -433  -469  -453  -394  -327  -301  -330  -363  -334  -227  -63  107  208  138  -152  -554  -847  -916  -807  -622  -462  -384  -373  -373  -329  -232  -110  0  73  101  101  94  84  64  38  19  17  29  42  46  45  48  57  70  82  91  97  104  129  186  259  311  330  339  355  367  354  311  251  190  137  106  145  277  444  568  617  599  533  448  388  384  439  529  587  514  239  -147  -423  -423  -150  230  508  633  714  851  1042  1213  1317  1382  1456  1549  1622  1635  1596  1550  1521  1502  1480  1436  1353  1253  1196  1229  1349  1489  1567  1574  1555  1537  1524  1533  1604  1755  1933  2063  2141  2218  2288  2290  2215  2111  1986  1796  1500  1101  684  368  179  48  -72  -172  -233  -274  -357  -537  -774  -962  -1063  -1155  -1333  -1602  -1918  -2225  -2419  -2376  -1978  -1106  235  1756  2952  3348  2708  1108  -1049  -3117  -4539  -5156  -5106  -4663  -4179  -3900  -3809  -3715  -3505  -3253  -3095  -3072  -3117  -3174  -3261  -3403  -3541  -3590  -3557  -3502  -3455  -3382  -3224  -2982  -2758  -2627  -2550  -2450  -2328  -2225  -2119  -1951  -1729  -1532  -1395  -1282  -1140  -930  -645  -316  10  328  631  880  1040  1145  1321  1707  2300  2943  3452  3726  3808  3863  4049  4404  4794  5047  5127  5083  4923  4628  4207  3707  3238  2887  2616  2335  2008  1643  1271  931  630  353  110  -121  -398  -705  -943  -1044  -1046  -1024  -1013  -1007  -1001  -995  -987  -979  -987  -1030  -1112  -1218  -1317  -1383  -1394  -1333  -1187  -987  -789  -631  -508  -393  -267  -154  -85  -64  -73  -92  -100  -79  -32  19  61  92  103  86  61  61  100  168  243  305  360  404  395  290  121  -26  -109  -137  -134  -118  -113  -113  -100  -65  -23  10  32  52  91  161  244  300  319  316  303  282  263  268  311  364  395  402  417  488  647  853  1026  1121  1159  1170  1172  1152  1071  908  715  586  567  633  725  787  803  788  757  699  587  440  323  268  235  167  44  -113  -272  -398  -483  -556  -639  -702  -679  -541  -352  -215  -186  -231  -281  -302  -310  -337  -394  -495  -676  -929  -1182  -1375  -1487  -1525  -1522  -1511  -1515  -1542  -1581  -1615  -1636  -1645  -1631  -1579  -1492  -1401  -1345  -1353  -1465  -1648  -1648  -1110  72  1667  3238  4292  4459  3657  2128  285  -1484  -2909  -3869  -4331  -4286  -3850  -3272  -2760  -2403  -2212  -2126  -2056  -1964  -1874  -1819  -1787  -1741  -1679  -1637  -1625  -1602  -1508  -1309  -1056  -851  -714  -556  -313  -33  201  383  581  837  1105  1300  1425  1554  1707  1831  1939  2119  2404  2723  2971  3089  3078  2977  2884  2934  3171  3485  3730  3860  3911  3925  3918  3897  3863  3790  3635  3395  3138  2903  2625  2217  1690  1137  673  371  225  131  -32  -289  -534  -677  -738  -790  -866  -946  -1001  -1030  -1061  -1122  -1210  -1299  -1358  -1380  -1380  -1380  -1389  -1397  -1353  -1214  -1025  -890  -850  -851  -823  -736  -608  -472  -342  -206  -77  14  79  160  274  382  440  448  443  471  551  647  708  758  825  869  856  821  803  805  815  813  774  670  466  167  -134  -325  -384  -375  -349  -306  -226  -123  -47  -23  -29  -37  -35  -31  -57  -144  -271  -381  -445  -474  -478  -448  -381  -308  -262  -234  -186  -92  20  99  118  98  70  55  54  42  -4  -93  -217  -365  -513  -639  -770  -948  -1169  -1414  -1676  -1927  -2111  -2251  -2420  -2623  -2792  -2877  -2897  -2904  -2924  -2946  -2945  -2910  -2850  -2783  -2711  -2637  -2581  -2532  -2450  -2314  -2136  -1939  -1731  -1514  -1300  -1110  -944  -766  -550  -326  -140  -5  95  177  231  231  189  150  141  143  127  87  48  31  28  7  -54  -135  -197  -240  -297  -376  -449  -504  -572  -693  -910  -1227  -1530  -1656  -1626  -1602  -1537  -1139  -243  1103  2746  4213  4769  4007  2133  -210  -2225  -3357  -3611  -3361  -2972  -2592  -2161  -1638  -1134  -778  -600  -538  -497  -429  -351  -263  -139  6  147  292  446  580  669  702  682  632  620  726  940  1147  1252  1264  1238  1208  1184  1169  1177  1232  1342  1477  1594  1677  1776  1959  2223  2488  2718  2984  3359  3776  4087  4246  4321  4380  4453  4534  4589  4587  4521  4413  4301  4203  4098  3952  3731  3405  2998  2612  2309  2003  1576  1058  579  232  37  -56  -123  -185  -225  -244  -257  -273  -291  -291  -250  -147  18  204  349  418  432  426  421  410  385  354  327  322  360  442  555  649  629  468  254  85  1  -16  -9  -1  9  37  79  116  134  140  148  162  178  192  201  189  126  -1  -177  -349  -463  -531  -611  -728  -861  -991  -1104  -1170  -1194  -1247  -1400  -1623  -1810  -1902  -1924  -1923  -1923  -1934  -1966  -2063  -2289  -2642  -2997  -3205  -3222  -3100  -2920  -2760  -2660  -2626  -2642  -2680  -2701  -2662  -2545  -2388  -2261  -2195  -2183  -2219  -2317  -2457  -2568  -2604  -2570  -2469  -2277  -1976  -1629  -1368  -1252  -1216  -1148  -971  -719  -505  -390  -326  -244  -158  -139  -193  -248  -263  -252  -264  -343  -496  -659  -758  -784  -789  -834  -957  -1167  -1453  -1795  -2130  -2379  -2557  -2737  -2886  -2901  -2789  -2671  -2604  -2535  -2396  -2175  -1914  -1661  -1413  -1138  -855  -620  -487  -537  -711  -624  139  1584  3370  5088  6299  6624  5972  4554  2690  750  -842  -1784  -2042  -1791  -1311  -886  -638  -418  -14  524  961  1218  1387  1527  1630  1689  1726  1787  1901  2031  2120  2165  2224  2325  2438  2514  2523  2473  2414  2403  2450  2531  2633  2740  2809  2821  2805  2821  2926  3118  3311  3439  3561  3785  4080  4300  4390  4460  4627  4873  5089  5222  5294  5306  5246  5135  4993  4791  4527  4259  4010  3749  3473  3196  2898  2590  2296  2001  1712  1493  1348  1216  1062  896  743  627  556  522  521  540  548  535  535  582  682  774  777  697  615  546  416  185  -87  -335  -570  -848  -1201  -1609  -1997  -2259  -2355  -2343  -2304  -2315  -2467  -2834  -3363  -3855  -4137  -4224  -4233  -4224  -4177  -4075  -3948  -3844  -3764  -3671  -3546  -3395  -3248  -3142  -3086  -3063  -3055  -3041  -2999  -2921  -2814  -2670  -2475  -2239  -1989  -1744  -1531  -1374  -1264  -1175  -1111  -1083  -1091  -1132  -1183  -1218  -1232  -1237  -1240  -1224  -1158  -1025  -841  -655  -525  -487  -564  -784  -1110  -1436  -1670  -1788  -1814  -1778  -1693  -1556  -1375  -1184  -1023  -915  -883  -953  -1109  -1278  -1379  -1400  -1376  -1343  -1320  -1307  -1303  -1323  -1392  -1505  -1620  -1695  -1724  -1722  -1705  -1675  -1623  -1536  -1416  -1291  -1202  -1167  -1163  -1140  -1035  -814  -527  -273  -100  3  61  111  196  287  320  395  759  1596  2962  4663  6125  6649  5846  3871  1352  -926  -2436  -3072  -3038  -2665  -2223  -1801  -1387  -995  -653  -377  -155  48  252  433  564  643  696  756  844  960  1085  1210  1362  1561  1771  1922  1989  1987  1932  1825  1687  1567  1521  1565  1665  1766  1854  1961  2134  2387  2709  3096  3518  3905  4195  4360  4438  4497  4555  4560  4481  4327  4127  3946  3846  3831  3854  3847  3720  3399  2922  2457  2117  1787  1243  454  -381  -1078  -1541  -1750  -1802  -1868  -2057  -2323  -2515  -2532  -2380  -2146  -1940  -1822  -1794  -1825  -1867  -1882  -1881  -1867  -1810  -1711  -1620  -1548  -1445  -1293  -1143  -1049  -999  -941  -818  -568  -174  248  532  652  736  868  1004  1070  1067  1047  1038  1026  982  899  796  710  681  723  792  819  785  731  683  563  250  -274  -927  -1654  -2399  -3008  -3349  -3458  -3473  -3513  -3592  -3660  -3688  -3697  -3706  -3689  -3563  -3271  -2896  -2599  -2443  -2375  -2317  -2206  -2013  -1774  -1556  -1402  -1326  -1303  -1302  -1307  -1314  -1303  -1220  -1036  -813  -650  -575  -547  -525  -482  -376  -176  60  215  253  258  338  530  760  922  994  1022  1046  1058  1042  1010  978  941  891  830  762  683  606  567  548  429  73  -481  -1002  -1307  -1419  -1445  -1447  -1444  -1442  -1454  -1477  -1487  -1467  -1435  -1411  -1390  -1353  -1302  -1282  -1313  -1275  -924  -47  1373  3138  4914  6302  6871  6380  4998  3192  1483  272  -278  -255  97  538  906  1109  1162  1161  1184  1240  1304  1370  1460  1577  1682  1731  1708  1611  1448  1256  1093  995  955  949  951  933  836  589  182  -279  -639  -814  -827  -736  -580  -414  -299  -241  -195  -107  44  232  418  634  953  1341  1657  1816  1832  1752  1622  1494  1414  1395  1405  1412  1391  1328  1227  1106  982  852  711  552  367  153  -67  -259  -422  -601  -836  -1075  -1181  -1052  -734  -381  -117  40  137  213  270  300  306  301  294  288  283  267  206  30  -305  -770  -1225  -1514  -1602  -1568  -1472  -1334  -1176  -1002  -773  -476  -151  202  600  994  1332  1564  1656  1669  1754  2053  2567  3046  3135  2611  1428  -113  -1439  -2183  -2366  -2205  -2053  -2177  -2439  -2543  -2469  -2382  -2349  -2337  -2293  -2183  -2020  -1872  -1790  -1753  -1709  -1628  -1499  -1315  -1089  -836  -539  -234  -17  101  205  338  504  710  926  1089  1187  1230  1195  1075  906  706  468  198  -73  -316  -513  -658  -757  -825  -880  -921  -936  -912  -831  -688  -515  -346  -195  -42  152  365  514  563  530  436  311  210  154  89  -56  -271  -459  -558  -594  -612  -625  -635  -662  -743  -888  -1040  -1131  -1150  -1133  -1118  -1137  -1218  -1350  -1491  -1639  -1830  -2064  -2303  -2539  -2790  -3055  -3330  -3608  -3852  -4020  -4110  -4153  -4188  -4234  -4286  -4336  -4377  -4405  -4407  -4359  -4245  -4100  -3962  -3782  -3457  -2991  -2524  -2126  -1689  -1019  86  1730  3800  5933  7568  8217  7816  6682  5237  3864  2731  1850  1335  1277  1546  1946  2344  2646  2836  2947  2975  2881  2673  2443  2283  2194  2126  2038  1903  1692  1366  869  151  -721  -1517  -2016  -2204  -2216  -2141  -1959  -1639  -1227  -814  -472  -232  -81  37  212  532  1022  1547  1913  2072  2122  2185  2310  2459  2556  2570  2519  2448  2406  2417  2461  2489  2472  2428  2386  2349  2309  2254  2181  2059  1786  1269  563  -136  -685  -1079  -1364  -1554  -1667  -1745  -1789  -1755  -1642  -1504  -1373  -1250  -1139  -991  -687  -188  335  686  856  977  1128  1317  1577  1956  2416  2811  3018  3059  3029  2984  2926  2848  2768  2718  2714  2723  2680  2551  2366  2176  1996  1825  1693  1616  1576  1544  1477  1334  1143  994  933  917  865  762  728  822  880  747  463  149  -77  -205  -440  -1031  -2009  -3136  -4040  -4452  -4386  -4046  -3642  -3303  -3015  -2649  -2153  -1585  -988  -437  -77  70  152  295  488  650  740  766  744  675  542  323  35  -283  -622  -940  -1142  -1187  -1132  -1054  -1005  -1001  -1029  -1062  -1088  -1139  -1254  -1397  -1480  -1482  -1467  -1484  -1500  -1437  -1262  -1045  -896  -875  -981  -1181  -1392  -1516  -1459  -1155  -652  -117  325  646  851  954  1001  1064  1190  1350  1480  1537  1497  1353  1153  987  892  846  823  809  795  780  760  722  675  645  632  616  580  525  461  402  365  356  353  303  145  -167  -605  -1057  -1435  -1730  -1961  -2139  -2263  -2315  -2300  -2184  -1881  -1400  -884  -393  213  1122  2372  3789  4966  5327  4482  2588  239  -1928  -3488  -4295  -4438  -4127  -3563  -2915  -2367  -2041  -1864  -1662  -1380  -1123  -975  -901  -807  -649  -483  -382  -355  -356  -358  -379  -458  -591  -705  -720  -630  -483  -329  -211  -150  -129  -120  -123  -189  -366  -622  -858  -1013  -1076  -989  -668  -164  319  647  880  1130  1380  1538  1612  1725  1978  2329  2639  2815  2853  2789  2682  2593  2535  2458  2269  1914  1459  1044  748  551  378  128  -246  -690  -1099  -1410  -1619  -1746  -1803  -1789  -1724  -1646  -1578  -1496  -1374  -1242  -1156  -1127  -1124  -1134  -1181  -1288  -1426  -1526  -1563  -1568  -1574  -1608  -1686  -1809  -1939  -2024  -2050  -2045  -2041  -2048  -2052  -2021  -1916  -1751  -1598  -1504  -1440  -1366  -1282  -1205  -1152  -1137  -1141  -1134  -1117  -1096  -1048  -949  -831  -755  -761  -835  -908  -896  -781  -622  -489  -419  -402  -393  -359  -320  -310  -311  -271  -162  -17  112  215  307  391  453  490  506  513  523  537  550  578  648  757  877  994  1105  1211  1341  1529  1732  1821  1698  1391  1033  764  637  605  570  472  316  148  5  -95  -175  -281  -433  -590  -695  -758  -836  -932  -971  -895  -730  -543  -378  -252  -159  -69  29  99  72  -101  -387  -663  -822  -861  -827  -745  -625  -487  -337  -153  56  230  324  339  281  181  84  -47  -212  -166  364  1395  2738  4134  5263  5769  5445  4293  2461  320  -1624  -3035  -3790  -3899  -3530  -2955  -2392  -1868  -1296  -677  -141  207  382  453  479  509  573  661  730  755  729  649  543  465  450  491  557  631  719  810  863  887  1005  1362  1907  2390  2652  2762  2851  2975  3130  3300  3459  3577  3650  3701  3741  3762  3792  3931  4271  4718  5043  5138  5082  4988  4903  4818  4723  4624  4485  4204  3739  3218  2802  2501  2246  2022  1855  1751  1694  1661  1623  1539  1383  1198  1065  1038  1112  1254  1421  1562  1638  1648  1626  1604  1590  1570  1516  1425  1347  1307  1248  1103  909  757  622  381  0  -445  -879  -1244  -1529  -1802  -2113  -2432  -2717  -2942  -3086  -3163  -3212  -3271  -3376  -3535  -3717  -3874  -4008  -4158  -4342  -4532  -4688  -4785  -4826  -4810  -4694  -4443  -4129  -3893  -3786  -3738  -3671  -3581  -3496  -3400  -3260  -3109  -3012  -3011  -3116  -3310  -3542  -3745  -3871  -3907  -3850  -3685  -3454  -3241  -3089  -2987  -2920  -2887  -2886  -2881  -2788  -2552  -2252  -2041  -1973  -1972  -1955  -1900  -1836  -1783  -1733  -1663  -1570  -1469  -1383  -1320  -1267  -1216  -1174  -1140  -1085  -977  -817  -638  -464  -281  -91  44  96  150  342  716  1180  1582  1828  1942  1999  2032  2041  2026  1989  1946  1905  1822  1626  1318  993  746  593  512  488  545  724  989  1212  1304  1275  1204  1209  1331  1482  1548  1556  1759  2448  3639  5083  6356  6912  6428  5020  3031  912  -812  -1831  -2219  -2194  -1881  -1375  -806  -285  93  287  349  364  387  434  474  368  -66  -813  -1569  -2036  -2190  -2179  -2121  -2043  -1949  -1854  -1761  -1664  -1574  -1497  -1418  -1305  -1105  -781  -393  -60  186  396  604  802  1012  1314  1747  2238  2692  3110  3566  4109  4708  5270  5702  6015  6305  6588  6786  6868  6855  6718  6405  5962  5534  5205  4919  4526  3935  3228  2619  2246  2048  1884  1674  1398  1077  766  525  384  335  316  216  -69  -544  -1127  -1721  -2222  -2574  -2824  -3018  -3149  -3236  -3328  -3448  -3576  -3672  -3715  -3720  -3708  -3696  -3696  -3751  -3933  -4258  -4601  -4817  -4889  -4879  -4821  -4725  -4601  -4476  -4385  -4348  -4349  -4357  -4339  -4277  -4197  -4139  -4100  -4029  -3909  -3777  -3664  -3536  -3333  -3078  -2870  -2771  -2761  -2782  -2748  -2580  -2292  -2013  -1861  -1855  -1976  -2194  -2445  -2668  -2834  -2939  -3005  -3066  -3136  -3228  -3330  -3404  -3435  -3438  -3433  -3439  -3459  -3483  -3527  -3620  -3761  -3894  -3967  -3985  -3978  -3961  -3929  -3881  -3817  -3681  -3409  -3049  -2752  -2602  -2553  -2502  -2360  -2100  -1773  -1458  -1185  -895  -539  -171  105  241  267  238  184  145  246  646  1320  2024  2538  2829  2997  3153  3313  3423  3477  3539  3665  3854  4052  4194  4261  4296  4346  4415  4506  4693  5053  5505  5839  5934  5786  5424  4940  4504  4230  4069  3881  3628  3409  3293  3239  3180  3099  2985  2766  2361  1814  1315  1025  930  924  939  990  1189  1594  2080  2461  2645  2692  2857  3411  4216  4700  4319  2923  899  -1053  -2407  -3017  -3071  -2881  -2605  -2314  -2102  -1990  -1914  -1830  -1752  -1703  -1682  -1680  -1705  -1774  -1872  -1960  -2008  -2000  -1938  -1863  -1835  -1853  -1835  -1742  -1633  -1558  -1494  -1422  -1337  -1216  -1051  -875  -704  -549  -439  -362  -226  89  595  1105  1444  1690  2037  2490  2867  3047  3086  3094  3104  3089  3067  3135  3411  3879  4344  4620  4697  4673  4615  4524  4325  3897  3202  2351]
