reading_id,reading_time,wire_id,result_classification,heart_rate,heart_rate_alert,firmware_version,device_app_version,hardware_version,waveform_samples
d4a0d190-cf3c-11ed-8080-808080808080,Thu Mar 30 20:52:49 UTC 2023,6119e4d89339,UNREADABLE,0,NONE,20001.188.58,2.13.0,Charge 5,[0  1314  2345  2934  3140  3048  2662  2110  1675  1664  2344  3692  5181  6214  6651  6618  6125  5171  3942  2754  1898  1517  1575  1943  2413  2752  2862  2779  2495  1943  1195  518  218  663  2117  4113  5622  6211  6318  6359  6200  5568  4681  4058  3853  3756  3456  3005  2704  2715  2885  2757  1709  -620  -3986  -7558  -10465  -12517  -14134  -15687  -17021  -17216  -15452  -13519  -16416  -27248  -32768  -32768  -32768  -7285  28980  32767  32767  32767  26851  14967  10945  11471  10476  6438  2350  408  67  -46  -494  -1081  -1539  -1813  -1842  -1395  -440  436  458  -467  -1693  -2579  -2934  -2825  -2353  -1713  -1202  -953  -863  -823  -849  -997  -1254  -1529  -1755  -1921  -2022  -2100  -2242  -2442  -2566  -2461  -2118  -1837  -2085  -2945  -3936  -4562  -4738  -4600  -4222  -3644  -2953  -2257  -1651  -1204  -914  -730  -637  -625  -645  -621  -390  216  1040  1644  1801  1620  1286  891  459  46  -259  -390  -249  276  1083  1800  2098  1837  1011  -162  -1288  -2063  -2435  -2546  -2575  -2602  -2627  -2604  -2468  -2186  -1801  -1436  -1275  -1491  -2126  -3005  -3855  -4526  -5065  -5589  -6103  -6460  -6527  -6240  -5603  -4771  -3976  -3337  -2878  -2630  -2554  -2485  -2178  -1442  -285  1015  2034  2546  2703  2779  2986  3494  4272  5020  5498  5752  5980  6366  6950  7568  7959  8000  7828  7690  7646  7492  6933  5892  4693  3815  3417  3281  3204  3214  3404  3711  3953  4056  4134  4315  4537  4602  4412  4040  3634  3309  3021  2610  2056  1557  1295  1284  1447  1697  1932  2096  2228  2387  2578  2731  2812  2953  3275  3660  3920  3977  3764  3114  1930  542  -390  -473  188  1129  1817  2020  1777  1163  330  -474  -1087  -1480  -1678  -1748  -1782  -1805  -1710  -1314  -599  195  784  1061  1107  1081  1116  1246  1343  1132  429  -573  -1476  -2122  -2654  -3222  -3759  -4038  -3916  -3419  -2759  -2242  -2012  -2007  -2128  -2288  -2407  -2458  -2465  -2459  -2459  -2472  -2482  -2445  -2314  -2063  -1605  -908  -210  208  344  358  404  620  1046  1547  1971  2359  2801  3215  3453  3410  2974  2130  1071  34  -918  -1765  -2400  -2769  -2952  -3029  -2903  -2270  -981  506  1454  1524  878  -23  -660  -759  -341  404  1181  1713  1887  1766  1497  1186  905  788  944  1298  1678  1970  2119  2058  1712  1111  340  -598  -1580  -2271  -2519  -2507  -2441  -2382  -2286  -2101  -1864  -1670  -1530  -1391  -1265  -1161  -1019  -779  -490  -297  -343  -667  -1130  -1494  -1634  -1550  -1264  -867  -485  -129  215  474  615  724  893  1048  948  433  -330  -978  -1296  -1341  -1244  -1055  -830  -666  -600  -597  -619  -604  -455  -72  561  1277  1777  1894  1626  1034  278  -461  -1086  -1512  -1658  -1490  -1039  -464  -8  191  194  138  164  373  790  1380  2060  2637  2944  3024  3024  2970  2775  2435  2070  1740  1420  1103  822  672  792  1264  1998  2750  3310  3637  3817  3934  3967  3682  2629  600  -1741  -3295  -3612  -2989  -1918  -849  -90  258  275  193  215  340  428  374  184  -140  -794  -2003  -3494  -4578  -4903  -4569  -3757  -2774  -2035  -1720  -1718  -1859  -2010  -2101  -2138  -2151  -2103  -1904  -1537  -1106  -685  -254  139  377  443  423  371  280  154  77  214  708  1470  2118  2281  1982  1646  1607  1776  2031  2533  3421  4544  5507  5872  5499  4741  4063  3544  2943  2080  900  -498  -1741  -2450  -2632  -2497  -2138  -1661  -1296  -1188  -1318  -1541  -1582  -1310  -978  -966  -1411  -2093  -2629  -2808  -2583  -1929  -1046  -441  -622  -1739  -3287  -4416  -4777  -4630  -4265  -3797  -3355  -3198  -3600  -4577  -5715  -6501  -6777  -6673  -6356  -5977  -5635  -5311  -4985  -4706  -4495  -4298  -4090  -3900  -3735  -3604  -3508  -3299  -2772  -2020  -1398  -1016  -657  -236  88  252  411  772  1374  2014  2525  3104  4116  5616  7164  8105  7959  6587  4404  2244  737  55  87  600  1277  1761  1788  1240  233  -777  -1344  -1454  -1415  -1586  -2382  -4040  -6059  -7384  -7269  -5708  -3542  -1961  -1437  -1679  -2368  -3260  -4074  -4611  -4653  -3967  -2690  -1230  260  1811  3214  3992  3564  1582  -1322  -3711  -4796  -4903  -4498  -3720  -2809  -2180  -1966  -1959  -1970  -1976  -1997  -1968  -1700  -1015  -2  937  1453  1567  1552  1618  1810  2116  2524  2836  2762  2375  2063  1992  2015  1954  1791  1699  1812  2043  2257  2462  2788  3441  4518  5801  6861  7420  7554  7502  7369  7134  6847  6606  6350  5870  5062  4140  3425  2917  2372  1696  1042  625  487  501  588  816  1333  2237  3491  4899  6140  6924  7149  6954  6609  6349  6316  6703  7826  9690  11719  13298  14217  14487  14182  13439  12412  11317  10445  9914  9513  8853  7706  6391  5459  4802  3685  1800  -290  -1659  -1424  862  4599  8564  12533  17451  23298  28150  29688  26185  16917  3838  -8265  -15541  -17713  -16454  -13784  -11657  -10742  -10380  -10131  -10108  -10345  -10732  -11140  -11321  -10764  -9023  -6535  -4430  -3312  -3052  -3639  -5248  -7391  -8989  -9569  -9572  -9643  -10192  -11215  -12322  -13150  -13622  -13815  -13835  -13651  -12786  -10712  -7895  -5544  -4166  -3413  -2974  -2729  -2622  -2764  -3209  -3823  -4643  -5876  -7305  -8291  -8497  -8107  -7476  -6868  -6353  -5878  -5386  -4918  -4572  -4338  -4121  -3891  -3678  -3457  -3146  -2766  -2494  -2489  -2780  -3238  -3597  -3532  -2741  -1275  269  1290  1809  2234  2730  3156  3453  3727  4049  4373  4595  4612  4295  3516  2303  1027  212  52  337  745  1007  965  602  98  -266  -343  -168  143  440  592  506  147  -356  -736  -770  -367  384  1171  1723  2090  2481  2927  3252  3356  3333  3312  3314  3229  2892  2304  1652  1080  623  247  -169  -730  -1335  -1752  -1899  -1884  -1816  -1734  -1679  -1797  -2284  -3190  -4400  -5733  -6940  -7837  -8423  -8724  -8723  -8519  -8299  -8142  -8021  -7870  -7606  -7170  -6537  -5664  -4541  -3385  -2506  -1970  -1796  -2048  -2422  -2475  -2213  -1904  -1635  -1216  -399  667  1466  1756  1754  1709  1654  1448  959  302  -241  -612  -1060  -1784  -2655  -3398  -3946  -4419  -4831  -5015  -4810  -4231  -3445  -2654  -2002  -1519  -1142  -834  -632  -550  -559  -678  -959  -1330  -1572  -1550  -1366  -1261  -1368  -1570  -1674  -1666  -1539  -832  1019  3560  5485  6193  6098  5630  4884  3982  3198  2666  2221  1730  1296  998  784  757  1432  3326  5989  8125  9008  8919  8336  7571  6912  6545  6514  6921  7860  9039  9906  10221  10164  9933  9474  8619  7387  6036  4889  4240  4248  4884  5880  6757  7201  7241  6999  6551  6078  5852  5952  6065  5457  3458  360  -2615  -4528  -5351  -5437  -4781  -3155  -1031  520  1091  1175  1300  1580  1885  2122  2279  2277  2038  1640  1227  879  610  410  296  308  474  742  953  989  971  1319  2442  4157  5745  6686  6913  6566  5904  5211  4642  4269  4364  5506  7958  10902  12846  12485  9115  3521  -1880  -5177  -6484  -6868  -6923  -6667  -6006  -4973  -3869  -3104  -2766  -2643  -2647  -2895  -3520  -4486  -5502  -6211  -6519  -6586  -6553  -6421  -6155  -5834  -5618  -5576  -5651  -5733  -5706  -5445  -4844  -3904  -2877  -2265  -2660  -4349  -6698  -8525  -9380  -9566  -9067  -7550  -5356  -3453  -2098  -656  1036  2326  2829  2785  2513  2181  1880  1652  1502  1402  1210  613  -673  -2436  -3958  -4729  -4859  -4629  -3933  -2037  1670  6194  9411  10444  10063  9228  8479  8075  8043  8287  8675  8977  8762  7544  5196  2051  -1269  -4023  -5766  -6586  -6829  -6842  -6855  -6946  -6975  -6542  -5098  -2399  762  2887  3153  1899  142  -1110  -1586  -1669  -1691  -1630  -1347  -885  -357  259  910  1369  1550  1592  1638  1737  1862  1948  1980  2007  2088  2251  2510  2985  3963  5498  6897  7448  7591  8107  9117  10868  13617  16690  19169  20693  20934  19205  15027  8776  1743  -4266  -7996  -9639  -10141  -10079  -9575  -8588  -7348  -6463  -6212  -6280  -6192  -5684  -4921  -4311  -4031  -3923  -3757  -3360  -2629  -1582  -481  224  193  -633  -1908  -3011  -3581  -3712  -3616  -3431  -3266  -3193  -3241  -3445  -3822  -4267  -4582  -4661  -4509  -4164  -3732  -3410  -3335  -3435  -3536  -3540  -3509  -3591  -3706  -3600  -3259  -2831  -2395  -2124  -2140  -2300  -2438  -2550  -2647  -2521  -1735  -62  2095  4099  5510  5894  4831  2538  124  -1272  -1369  -572  479  1204  1422  1292  965  547  227  175  354  614  907  1218  1350  890  -416  -2117  -3298  -3460  -2771  -1776  -1058  -794  -665  -317  216  637  809  829  753  486  -57  -782  -1419  -1726  -1665  -1346  -957  -682  -558  -469  -283  0  136  -186  -1017  -2104  -3107  -3783  -4086  -4141  -4112  -4072  -3974  -3752  -3475  -3288  -3178  -2933  -2378  -1546  -617  271  1120  1893  2472  2929  3555  4476  5501  6325  6762  6825  6601  6068  5034  3422  1708  612  291  352  456  510  516  399  35  -530  -1034  -1242  -1132  -814  -397  122  797  1487  1827  1563  768  -301  -1335  -1979  -1913  -929  772  2481  3591  4114  4371  4526  4535  4312  3800  3002  2056  1189  547  150  -22  -40  -23  -36  -54  -20  76  129  55  -30  21  111  -162  -1205  -2844  -4356  -5222  -5321  -4451  -2500  -153  1384  1417  87  -1777  -3173  -3828  -4206  -4615  -4948  -5126  -5245  -5319  -5244  -4990  -4535  -3640  -2154  -505  663  1195  1332  1307  1266  1354  1670  2099  2295  1945  1073  65  -675  -1038  -1142  -1134  -1101  -1065  -1028  -1039  -1164  -1372  -1532  -1515  -1281  -905  -539  -292  -181  -170  -194  -198  -145  -13  188  401  553  622  621  551  435  341  292  193  -70  -453  -764  -900  -907  -855  -779  -732  -837  -1234  -1880  -2511  -2810  -2425  -1122  685  2109  2744  2811  2538  2003  1485  1384  1732  2245  2718  3012  2995  2652  2147  1668  1215  687  11  -872  -1854  -2625  -3007  -3094  -3052  -2929  -2705  -2403  -2097  -1879  -1914  -2377  -3210  -4074  -4654  -4874  -4801  -4517  -4150  -3863  -3716  -3652  -3628  -3699  -3962  -4471  -5220  -6045  -6626  -6774  -6468  -5604  -4189  -2580  -1170  -50  805  1260  1241  943  592  306  132  -11  -334  -974  -1782  -2402  -2570  -2119  -963  630  2112  2997  3003  2139  651  -1083  -2549  -3326  -3283  -2362  -679  1232  2801  3810  4263  4298  4158  3946  3511  2823  2364  2760  4124  5642  5950  4939  4696  7466  13098  18926  21679  19557  13289  5912  862  -620  361  2102  3125  2880  2419  2871  3770  4210  4174  3867  3070  1552  -455  -2374  -3745  -4526  -4924  -5001  -4596  -3671  -2602  -1901  -1697  -1789  -2013  -2292  -2565  -2768  -2835  -2765  -2690  -2717  -2786  -2730  -2415  -1850  -1116  -276  521  1073  1339  1402  1322  1144  1095  1781  3759  6603  9088  10565  11331  11755  11734  11057  9973  9043  8478  8065  7686  7475  7573  8207  9680  11704  13170  12836  10076  5758  2040  256  -230  -852  -2392  -4555  -6574  -8034  -8936  -9394  -9544  -9450  -9049  -8353  -7505  -6591  -5656  -4833  -4248  -3900  -3746  -3779  -3948  -4143  -4300  -4417  -4455  -4248  -3630  -2839  -2659  -3842  -6353  -9336  -11761  -13026  -13107  -12249  -10746  -9037  -7639  -6799  -6348  -6084  -6084  -6445  -7040  -7642  -8210  -8967  -9906  -10221  -8521  -4194  1235  5191  6693  6678  6211  5535  4254  2051  -468  -2177  -2698  -2424  -1691  -702  200  736  926  941  880  799  883  1553  3063  4908  6194  6621  6540  6343  6201  6132  6008  5561  4631  3481  2612  2242  2150  2009  1782  1835  2840  5293  8634  11342  12361  11666  9716  7179  4638  2350  593  -349  -493  126  1685  3978  5895  6448  6004  5615  5791  6620  7970  8918  8222  5455  1182  -3252  -6383  -7491  -6843  -5426  -4051  -2656  -869  1567  4871  8474  11003  11814  11440  10663  9992  9564  9146  8517  7836  7394  7086  6430  5187  3726  2638  2189  2350  3022  3931  4534  4258  2898  1043  -314  -906  -1222  -1540  -1705  -1708  -1800  -1921  -1229  1304  5362  9091  10983  10743  8476  4664  585  -2431  -3975  -4525  -4695  -4765  -4801  -4818  -4761  -4527  -4089  -3504  -2841  -2307  -2195  -2481  -2831  -3076  -3325  -3711  -4218  -4694  -5005  -5125  -5098  -4975  -4815  -4685  -4605  -4592  -4745  -5178  -5803  -6329  -6421  -5692  -3711  -411  3274  5721  5830  3510  -234  -3555  -5235  -5594  -5518  -5466  -5490  -5518  -5425  -5096  -4601  -4181  -3986  -3966  -4044  -4212  -4453  -4713  -5014  -5423  -5765  -5682  -5146  -4524  -4061  -3709  -3434  -3357  -3579  -4005  -4404  -4638  -4699  -4536  -4067  -3427  -2941  -2771  -2820  -2885  -2672  -1946  -1019  -689  -1464  -3186  -5168  -6633  -7346  -7593  -7661  -7636  -7456  -7048  -6492  -5890  -5217  -4558  -4237  -4432  -4914  -5316  -5473  -5386  -5036  -4428  -3684  -3015  -2616  -2496  -2456  -2163  -1312  -9  1252  2249  3239  4532  6069  7371  7931  7525  6169  4189  2322  1232  938  1095  1657  2796  4268  5437  5952  5953  5767  5792  6351  7330  8228  8739  8928  8809  8074  6550  4772  3612  3434  4023  4938  5704  6065  6077  5858  5435  4802  4071  3483  3192  3161  3275  3428  3562  3690  3783  3565  2618  831  -1399  -3384  -4593  -5145  -5459  -5492  -5051  -4511  -4468  -4978  -5465  -5310  -4613  -4017  -3663  -3275  -3969  -8874  -19449  -31443  -32768  -32768  -32768  -32768  -32768  -32768  10215  32767  32767  32767  32767  32767  1990  -12889  -12117  -6660  -5413  -7940  -9487  -8452  -6202  -3879  -1923  -724  -521  -983  -1337  -1151  -734  -521  -436  -159  318  810  1275  1714  2044  2248  2385  2436  2298  1917  1400  956  720  688  737  661  392  258  719  1804  2999  3726  3870  3735  3617  3578  3513  3318  3045  2841  2739  2637  2473  2266  2093  2128  2515  3128  3677  4001  4108  4072  3925  3645  3307  3075  3001  3010  3033  3066  3120  3151  3074  2807  2168  882  -1037  -3030  -4400  -4941  -4966  -4831  -4659  -4455  -4267  -4157  -4120  -4115  -4120  -4119  -4074  -3941  -3692  -3329  -2894  -2449  -1968  -1349  -656  -181  -79  -192  -314  -376  -473  -772  -1276  -1696  -1755  -1590  -1566  -1757  -1912  -1881  -1756  -1664  -1644  -1693  -1801  -1843  -1461  -1312  -5328  -18219  -32768  -32768  -32768  -27515  15647  32767  32767  32767  32767  17980  -1295  -5093  1043  6455  5898  1769  -1875  -3564  -4009  -4137  -4079  -3402  -1788  333  2042  2898  3157  3228  3276  3132  2420  999  -744  -2301  -3607  -4921  -6267  -7268  -7509  -6762  -4942  -2347  207  1943  2675  2723  2495  2204  1919  1693  1503  1118  269  -979  -2237  -3190  -3775  -4021  -4001  -3909  -4040  -4615  -5476  -6177  -6476  -6515  -6530  -6578  -6610  -6641  -6781  -7142  -7631  -7874  -7468  -6346  -4814  -3243  -1943  -1154  -856  -863  -1195  -1971  -3041  -4104  -5136  -6339  -7675  -8762  -9252  -8989  -7951  -6471  -5039  -3726  -2426  -1381  -871  -788  -822  -806  -819  -1037  -1340  -1319  -859  -215  492  1250  1863  2105  1964  1589  1131  658  179  -258  -492  -227  732  2059  3100  3595  3747  3770  3696  3481  3226  3116  3108  2997  2720  2429  2363  2643  3118  3490  3630  3626  3592  3572  3572  3603  3661  3672  3449  2731  1377  -314  -1669  -2289  -2369  -2238  -1945  -1391  -687  -124  196  432  698  1036  1548  2238  2871  3252  3471  3665  3735  3578  3393  3461  3810  4218  4408  4292  4070  3935  3814  3354  2192  538  -829  -1397  -1330  -1060  -867  -811  -822  -843  -886  -991  -1168  -1385  -1609  -1864  -2254  -2844  -3475  -3821  -3606  -2691  -1118  748  2416  3683  4571  5067  5222  5150  4852  4290  3572  2910  2463  2267  2205  2060  1670  1075  485  23  -373  -747  -987  -912  -428  324  1023  1428  1488  1281  820  17  -1018  -1987  -2762  -3378  -3790  -3905  -3577  -2614  -1082  571  1934  2947  3704  4233  4427  3922  2402  372  -1068  -1517  -1557  -1871  -2616  -3586  -4616  -5562  -6218  -6597  -6885  -7072  -6934  -6193  -4733  -2947  -1551  -850  -585  -386  -122  93  106  -143  -601  -1140  -1638  -2039  -2341  -2466  -2325  -1971  -1479  -883  -310  55  57  -489  -1691  -3318  -4821  -5738  -6044  -6046  -6002  -5967  -5903  -5762  -5459  -4961  -4476  -4298  -4439  -4653  -4785  -4844  -4790  -4446  -3725  -2866  -2239  -1976  -2018  -2337  -3006  -4165  -5816  -7504  -8625  -9066  -9148  -9141  -9170  -9336  -9641  -9804  -9184  -7176  -4066  -1095  747  1544  1866  2048  2233  2531  2893  3107  3032  2725  2283  1696  963  249  -264  -564  -688  -362  1171  4376  8403  11577  12993  13001  12364  11658  11218  11090  11128  11236  11420  11661  11833  11818  11661  11475  11294  11095  10774  10163  9245  8284  7593  7255  7132  7101  7126  7043  6441  4994  2980  1192  193  -54  181  771  1656  2613  3309  3610  3620  3394  2914  2347  2067  2274  2778  3276  3680  4038  4305  4442  4543  4725  4926  4864  4237  3060  1811  1040  833  909  1048  1166  1134  792  203  -371  -840  -1420  -2357  -3497  -4271  -4120  -2883  -1072  436  1213  1453  1500  1551  1657  1844  2121  2475  2934  3488  3996  4307  4336  3965  3134  2085  1089  4  -1313  -2505  -3113  -3024  -2385  -1534  -841  -384  -54  144  181  124  62  -57  -423  -1095  -1847  -2392  -2717  -3032  -3449  -3985  -4702  -5504  -6115  -6379  -6176  -5189  -3363  -1343  108  823  1057  1059  988  955  989  994  727  -3  -993  -1741  -1978  -1736  -1118  -365  144  179  -253  -969  -1690  -2222  -2575  -2901  -3272  -3591  -3763  -3800  -3743  -3527  -3014  -2234  -1393  -609  96  593  685  439  175  -190  -1116  -2618  -4317  -5828  -6627  -6333  -5244  -4160  -3914  -5372  -9032  -13606  -16404  -16044  -13046  -8608  -4479  -2103  -1139  -206  1227  2625  3475  3763  3622  3142  2494  1918  1517  1293  1222  1211  1219  1271  1313  1270  1101  796  439  66  -370  -739  -725  -102  1017  2161  2915  3100  2363  334  -2367  -4324  -4782  -4037  -2778  -1687  -1116  -924  -853  -922  -1436  -2696  -4650  -6803  -8568  -9684  -10255  -10458  -10094  -8554  -5722  -2634  -562  249  430  622  1128  1861  2515  2945  3201  3322  3360  3470  3787  4210  4413  4135  3398  2371  1231  240  -357  -539  -388  75  740  1353  1729  1835  1726  1511  1268  1036  875  811  803  820  876  993  1170  1488  2167  3277  4570  5720  6535  6980  7145  7040  6432  5124  3392  1775  517  -402  -956  -1107  -981  -843  -894  -1172  -1589  -1984  -2251  -2385  -2281  -1632  -317  1170  2130  2368  2105  1483  571  -440  -1309  -1915  -2296  -2522  -2540  -2131  -1153  117  1173  1765  1965  1993  2155  2676  3439  4085  4402  4249  3299  1465  -559  -1802  -1902  -1135  -60  813  1389  1824  2117  2139  1816  1151  173  -997  -2023  -2589  -2724  -2687  -2663  -2680  -2693  -2655  -2565  -2463  -2335  -2090  -1705  -1302  -1009  -825  -676  -510  -269  67  434  735  884  795  429  -72  -431  -465  -198  203  538  710  746  680  470  57  -542  -1318  -2090  -2297  -1669  -715  8  214  -393  -1470  -1945  -1483  -1050  -1760  -3956  -7106  -9788  -10085  -7398  -3488  -305  1803  3119  3872  4459  5074  5528  5651  5415  4846  4094  3401  2877  2495  2210  1977  1808  1794  1933  2098  2188  2148  1855  1195  329  -354  -665  -710  -567  -163  485  1154  1658  2020  2297  2458  2396  1929  939  -274  -1144  -1459  -1425  -1168  -619  187  982  1486  1633  1531  1327  1094  846  627  461  211  -303  -990  -1490  -1543  -1138  -450  264  809  1140  1387  1638  1710  1443  992  494  -133  -843  -1374  -1622  -1719  -1713  -1478  -962  -272  414  977  1483  2088  2717  3089  3012  2533  1917  1439  1116  815  532  398  509  841  1327  1924  2533  2922  2754  1767  182  -1266  -1983  -1840  -931  398  1534  2088  2206  2324  2762  3428  3923  3953  3508  2845  2326  2109  2086  2126  2189  2313  2550  2857  3105  3215  3163  2930  2570  2217  1983  1892  1883  1871  1848  1937  2316  3034  3940  4769  5303  5479  5185  4168  2461  549  -1053  -2096  -2587  -2693  -2639  -2579  -2554  -2541  -2536  -2590  -2793  -3221  -3775  -4051  -3715  -2932  -2131  -1582  -1315  -1304  -1712  -2793  -4411  -5870  -6429  -5959  -5041  -4443  -4466  -4844  -5211  -5498  -5842  -6235  -6412  -6088  -5279  -4389  -3860  -3762  -3833  -3741  -3267  -2488  -1754  -1355  -1328  -1543  -1855  -2203  -2664  -3422  -4611  -6185  -7789  -8854  -8956  -7905  -5895  -3781  -2520  -2342  -2867  -3616  -4226  -4546  -4549  -4152  -3298  -2261  -1533  -1317  -1412  -1461  -994  391  2625  5111  7126  8242  8552  8419  8034  7417  6625  5790  5100  4722  4633  4657  4636  4510  4329  4198  4148  4096  3855  3243  2313  1364  644  191  -67  -111  214  935  1744  2199  2150  1848  1612  1532  1483  1336  1127  980  887  652  128  -556  -1136  -1486  -1601  -1468  -1068  -408  337  852  957  667  96  -557  -1068  -1301  -1183  -660  139  944  1659  2360  3034  3549  3752  3492  2697  1550  494  -86  -147  211  925  1780  2400  2559  2220  1424  392  -554  -1264  -1740  -1984  -2042  -1992  -1862  -1666  -1470  -1320  -1164  -928  -667  -501  -424  -275  79  614  1167  1563  1704  1644  1545  1439  1082  262  -773  -1515  -1800  -1845  -1839  -1808  -1729  -1625  -1552  -1523  -1495  -1445  -1439  -1577  -1856  -2146  -2304  -2258  -1940  -1266  -349  467  960  1173  1222  1168  1029  857  736  695  689  656  479  -67  -1161  -2538  -3486  -3319  -1795  529  2595  3870  4539  4835  4834  4671  4527  4455  4353  4125  3832  3658  3699  3796  3495  2314  390  -1469  -2629  -3140  -3390  -3643  -3931  -4153  -4153  -3816  -3171  -2464  -2004  -1869  -1904  -1954  -1971  -1956  -1914  -1864  -1843  -1887  -1968  -1898  -1331  -131  1261  2194  2500  2475  2400  2338  2194  1843  1299  703  131  -463  -1097  -1639  -1938  -1926  -1573  -936  -258  266  764  1455  2251  2849  3150  3359  3729  4281  4807  5134  5255  5137  4623  3706  2758  2200  2101  2263  2501  2710  2826  2805  2651  2413  2100  1694  1290  1050  1029  1170  1405  1648  1806  1862  1876  1871  1769  1468  1003  491  -41  -556  -905  -928  -505  361  1430  2387  3086  3532  3733  3508  2501  692  -1332  -2934  -3958  -4577  -4940  -5086  -5005  -4665  -4078  -3414  -2951  -2794  -2824  -2966  -3379  -4237  -5318  -6112  -6376  -6198  -5715  -5127  -4693  -4532  -4661  -5144  -5920  -6679  -7169  -7425  -7443  -6771  -4924  -2389  -444  313  383  402  528  643  660  576  395  75  -367  -773  -974  -909  -604  -203  81  172  153  111  77  58  55  80  134  160  48  -283  -763  -1189  -1437  -1536  -1499  -1282  -838  -172  554  1096  1365  1489  1627  1779  1853  1859  1879  1925  1955  1960  1982  2042  2014  1715  1164  652  470  654  963  1090  958  642  107  -782  -2158  -3894  -5304  -5375  -3540  -336  2892  4965  5435  4654  3414  2320  1603  1273  1227  1346  1529  1689  1780  1830  1913  2079  2305  2541  2737  2851  2889  2888  2859  2769  2593  2318  1967  1635  1413  1282  1195  1223  1508  2051  2613  2950  3048  3036  2971  2825  2606  2401  2289  2274  2315  2374  2423  2429  2335  2101  1761  1397  1086  875  772  744  749  751  729  670  534  265  -84  -348  -429  -394  -340  -259  -76  251  637  929  1096  1225  1341  1419  1494  1634  1875  2176  2437  2573  2510  2147  1501  836  438  341  391  445  451  413  328  174  -51  -312  -561  -769  -926  -1029  -1082  -1092  -1089  -1125  -1237  -1396  -1536  -1647  -1757  -1873  -1980  -2060  -2102  -2097  -2025  -1870  -1669  -1499  -1406  -1371  -1368  -1433  -1680  -2170  -2757  -3189  -3361  -3368  -3342  -3336  -3314  -3211  -2989  -2679  -2384  -2224  -2196  -2131  -1830  -1256  -609  -158  2  -12  -61  -90  -96  -68  13  134  226  210  24  -302  -630  -826  -880  -861  -840  -831  -792  -680  -523  -404  -361  -373  -421  -503  -660  -1008  -1636  -2356  -2666  -2137  -869  480  1285  1490  1383  1189  1114  1337  1677  1768  1574  1333  1198  1105  752  -250  -1881  -3406  -3884  -2942  -1052  840  1915  1832  819  -651  -2217  -3504  -4205  -4251  -3584  -2097  0  2000  3183  3418  3003  2215  1305  537  46  -229  -412  -544  -577  -483  -315  -118  112  342  550  732  788  668  489  353  268  215  183  177  205  266  369  522  686  789  792  704  560  389  146  -267  -907  -1706  -2449  -2886  -2923  -2634  -2188  -1790  -1548  -1428  -1366  -1334  -1338  -1448  -1776  -2337  -2942  -3310  -3241  -2685  -1849  -1125  -682  -340  58  448  740  1006  1329  1634  1809  1875  1931  2009  2062  2068  2084  2210  2479  2778  2928  2857  2644  2416  2233  2095  2007  1978  1992  2020  2052  2101  2150  2128  1976  1750  1574  1503  1500  1532  1591  1634  1593  1426  1148  836  589  452  407  413  439  466  489  502  495  450  379  330  333  367  392  382  347  299  242  178  113  81  109  174  253  321  315  207  67  -57  -172  -224  -151  -1  134  217  265  307  341  352  349  372  477  650  796  834  737  479  32  -561  -1149  -1520  -1520  -1194  -747  -366  -172  -248  -607  -1087  -1431  -1552  -1559  -1541  -1471  -1295  -1040  -779  -540  -275  87  501  762  618  -43  -971  -1692  -2012  -2100  -2172  -2286  -2337  -2264  -2147  -2077  -2275  -3072  -4322  -5148  -4577  -2322  985  4134  5969  5994  4579  2546  618  -760  -1410  -1390  -981  -613  -691  -1275  -1919  -2150  -1917  -1361  -527  537  1556  2192  2409  2413  2360  2259  1998  1492  870  395  207  292  573  886  1003  777  284  -214  -508  -613  -682  -831  -1013  -1080  -972  -787  -668  -658  -683  -693  -707  -736  -753  -725  -647  -553  -495  -512  -618  -777  -921  -1036  -1177  -1435  -1850  -2337  -2729  -2929  -2859  -2333  -1242  57  951  1254  1248  1194  1149  1086  1002  939  923  923  846  590  195  -160  -366  -438  -358  14  728  1521  2038  2199  2172  2107  2056  2041  2089  2208  2363  2513  2672  2849  2961  2865  2479  1948  1561  1434  1458  1513  1545  1503  1323  996  586  162  -207  -482  -716  -1002  -1425  -2054  -2756  -3234  -3382  -3361  -3326  -3320  -3316  -3266  -3135  -2954  -2806  -2737  -2756  -2888  -3157  -3483  -3633  -3277  -2253  -911  119  584  685  671  609  418  36  -413  -725  -876  -998  -1158  -1283  -1272  -1097  -846  -664  -602  -606  -626  -663  -721  -731  -549  -82  554  1100  1368  1346  1116  813  604  605  830  1188  1535  1794  1959  2045  2098  2188  2373  2581  2609  2537  2734  3079  2945  2084  797  -362  -847  -752  -857  -1780  -3514  -5312  -5803  -4187  -1086  2218  4589  5352  4695  3479  2483  1972  1746  1523  1241  1009  900  885  913  962  1019  1061  1060  993  849  653  582  885  1505  2051  2278  2233  1992  1594  1171  888  775  736  716  722  735  719  672  611  513  324  42  -232  -384  -374  -231  -33  108  115  -43  -329  -621  -829  -980  -1201  -1607  -2149  -2647  -2992  -3211  -3387  -3554  -3636  -3575  -3467  -3403  -3248  -2660  -1480  -116  816  1181  1264  1295  1346  1408  1457  1493  1544  1611  1675  1765  1934  2144  2255  2178  1944  1621  1212  708  166  -335  -774  -1163  -1557  -2069  -2726  -3358  -3773  -3895  -3630  -2888  -1906  -1133  -617  -52  604  1060  1115  825  398  32  -243  -470  -614  -633  -562  -447  -245  153  773  1458  1999  2293  2387  2407  2454  2587  2850  3219  3573  3804  3912  3962  3998  4018  3972  3769  3365  2848  2328  1790  1210  718  465  438  529  612  475  -133  -1190  -2286  -3035  -3386  -3483  -3472  -3446  -3441  -3455  -3454  -3300  -2634  -1064  1229  3340  4482  4662  4324  3811  3297  2802  2225  1608  1192  1137  1383  1740  1993  2018  1800  1401  927  449  7  -342  -540  -565  -466  -389  -445  -591  -744  -867  -941  -965  -962  -947  -912  -884  -1018  -1561  -2527  -3530  -4169  -4391  -4216  -3390  -1701  440  2200  3013  2853  2282  2082  2588  3627  4712  5048  3846  909  -3027  -6525  -8131  -7113  -3964  -222  2584  3892  4122  4005  3911  3827  3742  3717  3768  3869  3977  4027  3906  3442  2536  1186  -516  -2156  -3157  -3406  -3262  -3058  -2885  -2700  -2512  -2411  -2467  -2668  -2912  -3070  -3098  -3031  -2914  -2808  -2717  -2565  -2313  -2019  -1792  -1700  -1696  -1639  -1412  -1058  -738  -541  -421  -285  -118  11  62  63  53  49  51  54  48  19  -54  -226  -650  -1454  -2465  -3262  -3603  -3526  -3137  -2595  -2149  -1946  -1927  -1970  -2013  -2024  -1945  -1721  -1408  -1168  -1101  -1161  -1264  -1384  -1503  -1581  -1608  -1622  -1654  -1690  -1734  -1839  -1980  -1979  -1687  -1106  -380  264  787  1376  2044  2520  2664  2615  2543  2513  2509  2465  2328  2144  2018  1973  1907  1681  1311  1001  940  1148  1498  1825  2081  2300  2391  2268  2056  1907  1805  1650  1375  1004  645  356  86  -254  -718  -1224  -1578  -1690  -1601  -1311  -769  -66  531  844  902  806  641  462  255  2  -265  -492  -641  -719  -743  -704  -586  -408  -295  -377  -588  -782  -882  -856  -794  -830  -928  -1034  -1289  -1854  -2593  -3153  -3375  -3308  -2903  -2085  -1106  -437  -259  -382  -565  -672  -673  -602  -559  -760  -1387  -2265  -2948  -3202  -3035  -2441  -1458  -239  1041  2149  2852  3146  3210  3102  2628  1581  218  -665  -530  325  1267  1941  2417  3011  3786  4407  4540  3903  2292  227  -1231  -1685  -1400  -574  259  224  -694  -1619  -1960  -1710  -1037  -224  403  722  815  798  745  681  566  333  -7  -364  -699  -1030  -1352  -1679  -2132  -2805  -3547  -4042  -4084  -3621  -2759  -1807  -1052  -499  4  568  1263  2091  2888  3424  3588  3440  3146  2878  2773  3027  3803  4862  5625  5751  5346  4746  4242  3872  3565  3395  3439  3583  3640  3530  3343  3208  3074  2699  1914  882  10  -436  -497  -299  100  571  908  1028  998  887  703  466  225  12  -115  -34  332  901  1469  1852  2041  2171  2323  2454  2517  2535  2538  2508  2391  2160  1839  1475  1075  608  126  -186  -184  121  556  899  1069  1105  1029  836  521  20  -896  -2371  -3995  -5090  -5393  -4939  -3804  -2428  -1512  -1464  -2252  -3417  -4206  -3984  -2659  -818  679  1144  321  -1404  -3270  -4515  -4381  -2752  -754  552  1235  1613  1744  1781  1899  2122  2388  2611  2748  2803  2751  2518  2054  1421  766  235  -115  -363  -561  -609  -423  -145  -21  -107  -245  -271  -106  212  534  708  717  638  502  264  -127  -677  -1354  -2061  -2630  -2956  -3043  -2890  -2457  -1831  -1267  -958  -861  -845  -879  -990  -1082  -866  -86  1029  1812  1934  1707  1518  1461  1468  1464  1379  1166  820  342  -306  -1132  -2061  -2933  -3554  -3769  -3533  -3014  -2483  -2053  -1724  -1550  -1540  -1599  -1657  -1766  -2021  -2370  -2626  -2693  -2623  -2509  -2399  -2282  -2161  -2072  -2012  -1942  -1876  -1877  -1945  -2015  -2057  -2093  -2116  -2019  -1664  -1054  -346  314  867  1330  1693  1827  1627  1207  813  584  474  401  373  389  361  255  157  101  -20  -334  -804  -1253  -1553  -1716  -1815  -1876  -1863  -1801  -1779  -1751  -1392  -372  1055  2163  2556  2368  1830  1165  617  278  61  -103  -196  -198  -167  -235  -544  -1084  -1649  -2087  -2383  -2470  -2274  -1915  -1547  -1150  -659  -176  100  116  -3  -71  98  587  1245  1819  2258  2713  3203  3561  3717  3784  3862  3949  4023  4054  3954  3604  3023  2413  1968  1728  1641  1662  1780  1985  2226  2412  2398  1962  1015  -117  -932  -1262  -1304  -1264  -1222  -1206  -1213  -1156  -871  -292  368  801  930  893  795  669  564  546  609  681  717  728  741  766  806  867  940  1011  1132  1401  1838  2275  2402  2089  1591  1233  1059  967  924  905  825  591  208  -210  -564  -860  -1164  -1586  -2273  -3193  -3964  -3993  -2821  -637  1635  3189  3859  3640  2617  1387  586  161  -16  209  407  -35  -754  -1079  -991  -716  -273  335  920  1238  1225  1009  805  748  802  921  1155  1517  1912  2214  2288  2027  1473  801  168  -322  -588  -633  -554  -436  -305  -162  -90  -231  -607  -1131  -1738  -2288  -2544  -2428  -2149  -2028  -2222  -2596  -2903  -3054  -3104  -3092  -3000  -2794  -2455  -2025  -1592  -1219  -940  -770  -676  -583  -441  -270  -122  -10  67  57  -181  -773  -1564  -2124  -2142  -1639  -933  -432  -275  -317  -401  -461  -438  -237  168  618  890  946  911  885  866  829  781  735  693  619  466  277  205  407  901  1510  2053  2522  2952  3226  3232  3001  2612  2431  2834  3336  3068  1760  -388  -2737  -4057  -3580  -1816  315  2091  2998  3118  2955  2827  2790  2824  2895  2902  2734  2386  1923  1451  1102  897  742  531  157  -404  -1070  -1728  -2235  -2491  -2526  -2413  -2157  -1735  -1221  -775  -491  -333  -182  89  515  944  1084  768  191  -276  -471  -461  -274  150  719  1167  1350  1358  1337  1341  1321  1153  737  148  -377  -675  -790  -857  -946  -1003  -916  -640  -352  -372  -859  -1704  -2621  -3287  -3489  -3060  -1918  -481  646  1413  2001  2205  1657  129  -2307  -4996  -6887  -7243  -6087  -4000  -1538  866  2649  3476  3558  3185  2436  1517  817  504  468  646  1127  1903  2702  3193  3264  2961  2386  1770  1368  1248  1294  1380  1459  1541  1617  1643  1617  1580  1558  1542  1519  1508  1556  1693  1876  2001  2018  1967  1888  1771  1553  1143  496  -278  -949  -1389  -1713  -2071  -2507  -3082  -3986  -5329  -6800  -7868  -8380  -8466  -7881  -6101  -3354  -878  381  618  472  269  16  -315  -566  -457  67  772  1374  1705  1745  1563  1226  757  151  -560  -1476  -2845  -4490  -5721  -6148  -5866  -5048  -4038  -3338  -3125  -3161  -3164  -2991  -2626  -2135  -1653  -1340  -1246  -1284  -1364  -1407  -1276  -878  -370  -37  16  -94  -250  -414  -454  35  1414  3285  4657  4897  3988  2343  721  -316  -891  -1364  -1784  -1992  -1967  -1859  -1639  -975  297  1773  2830  3231  3145  2795  2378  2086  2012  2159  2491  2859  3023  2869  2533  2243  2124  2205  2512  2978  3398  3601  3555  3298  2934  2589  2241  1766  1215  825  710  788  943  1070  1096  1040  926  643  49  -734  -1372  -1708  -1784  -1501  -640  693  1935  2591  2662  2473  2477  3080  4167  5123  5521  5341  4807  4325  4166  4050  3424  2180  721  -391  -700  -211  590  1180  1367  1289  1059  640  109  -303  -467  -332  229  1251  2499  3607  4309  4518  4153  3125  1695  420  -425  -989  -1478  -1929  -2253  -2414  -2452  -2344  -2031  -1584  -1215  -1056  -1072  -1145  -1113  -872  -515  -250  -161  -169  -187  -206  -267  -412  -666  -1058  -1583  -2105  -2426  -2517  -2521  -2566  -2654  -2736  -2835  -3028  -3285  -3485  -3601  -3726  -3887  -4080  -4463  -5203  -6097  -6705  -6836  -6633  -6311  -5959  -5533  -5087  -4807  -4664  -4322  -3448  -2018  -413  845  1529  1752  1768  1778  1819  1857  1854  1713  1285  487  -578  -1599  -2317  -2797  -3197  -3495  -3660  -3803  -4039  -4248  -4071  -3186  -1687  -153  936  1602  2119  2736  3433  4027  4361  4358  4268  4277  3911  2606  538  -1209  -1219  796  3484  5276  5720  5350  4747  4090  3481  3118  3055  3142  3210  3197  3154  3238  3632  4343  5066  5375  5242  5127  5262  5391  5306  5018  4564  3984  3375  2897  2668  2726  3103  3738  4372  4786  5027  5230  5341  5263  5038  4666  4035  3166  2275  1540  993  562  125  -365  -800  -1063  -1165  -1188  -1209  -1335  -1681  -2222  -2749  -3064  -3070  -2640  -1718  -612  194  548  601  422  15  -438  -708  -787  -902  -1310  -1853  -1905  -1266  -414  317  766  675  160  -322  -624  -1123  -2278  -4060  -6091  -7862  -8559  -7755  -6074  -4461  -3368  -2695  -2195  -1822  -1670  -1855  -2471  -3399  -4266  -4733  -4604  -3746  -2330  -1005  -386  -513  -999  -1471  -1778  -1943  -2012  -1986  -1905  -1984  -2435  -3135  -3726  -4025  -4074  -3893  -3420  -2619  -1550  -375  690  1472  1899  2009  1821  1262  381  -587  -1463  -2183  -2693  -2935  -2936  -2804  -2652  -2545  -2479  -2443  -2532  -2939  -3712  -4527  -4878  -4548  -3797  -2993  -2201  -1344  -533  42  339  495  744  1251  1937  2534  2838  2848  2670  2416  2155  1887  1625  1441  1378  1391  1414  1423  1442  1479  1490  1393  1118  703  336  256  576  1173  1742  2068  2162  2151  2124  2086  2016  1942  1940  2051  2218  2317  2311  2287  2277  2273  2353  2510  2596  2533  2373  2235  2227  2361  2599  2927  3276  3531  3644  3563  3134  2290  1233  294  -318  -588  -626  -549  -407  -218  0  245  518  792  1055  1321  1582  1808  1975  2084  2144  2174  2195  2202  2132  1892  1447  902  444  149  -71  -280  -415  -388  -179  131  419  614  699  658  474  190  -96  -306  -411  -432  -435  -487  -621  -797  -928  -978  -983  -977  -961  -906  -777  -574  -355  -229  -336  -817  -1659  -2565  -3182  -3378  -3079  -2114  -530  1264  2883  4185  5093  5579  5731  5558  4868  3591  1988  329  -1226  -2441  -3159  -3355  -2859  -1678  -458  110  14  -283  -212  698  2341  3944  4748  4454  3263  1790  590  -156  -666  -1394  -2459  -3447  -3926  -3887  -3659  -3479  -3341  -3199  -3073  -2991  -2966  -3013  -3156  -3365  -3568  -3744  -3926  -4126  -4296  -4403  -4477  -4578  -4729  -4884  -4999  -5004  -4780  -4369  -3977  -3695  -3496  -3373  -3299  -3179  -2911  -2461  -1869  -1243  -672  -115  506  1114  1491  1494  1189  806  552  463  456  476  549  736  1046  1396  1696  1904  2014  2060  2119  2252  2438  2589  2654  2635  2457  2009  1398  914  696  656  690  773  913  1080  1192  1172  1020  836  723  697  701  670  560  371  144  -83  -274  -367  -333  -229  -149  -117  -12  346  948  1546  1932  2102  2146  2139  2125  2127  2147  2179  2193  2119  1880  1514  1191  1042  1083  1275  1525  1697  1712  1589  1413  1281  1228  1226  1241  1254  1245  1170  971  638  259  -53  -246  -321  -302  -214  -96  -5  30  28  23  38  75  107  125  150  176  156  27  -254  -644  -996  -1198  -1259  -1204  -981  -566  -86  271  425  390  141  -393  -1118  -1724  -2018  -2054  -1890  -1481  -838  -76  675  1201  1265  858  139  -776  -1677  -2219  -2186  -1602  -747  -31  334  425  398  365  389  490  629  738  791  791  716  516  127  -426  -958  -1242  -1148  -673  -32  424  518  321  0  -305  -562  -822  -1111  -1373  -1533  -1576  -1525  -1391  -1212  -1059  -963  -897  -843  -831  -973  -1372  -1916  -2323  -2436  -2295  -1993  -1665  -1472  -1474  -1418  -802  519  2036  3139  3654  3739  3618  3498  3346  2791  1668  459  -108  257  1280  2499  3362  3400  2815  2168  1619  1096  639  303  73  -88  -193  -254  -332  -495  -717  -884  -910  -783  -541  -224  162  639  1215  1848  2407  2749  2825  2585  1959  1042  101  -614  -977  -1015  -854  -626  -429  -313  -290  -325  -256  206  1186  2322  3058  3190  2875  2349  1776  1188  596  102  -211  -382  -464  -410  -163  203  547  757  818  822  840  796  582  262  20  -66  -60  -27  35  152  299  410  429  343  191  28  -176  -498  -894  -1224  -1417  -1496  -1510  -1542  -1708  -2046  -2411  -2589  -2495  -2200  -1754  -1104  -241  624  1197  1376  1262  974  600  220  -111  -342  -423  -391  -341  -260  -10  445  897  1095  1069  971  771  403  -108  -638  -790  -250  610  1087  774  -356  -1862  -3086  -3878  -4469  -4923  -5121  -4867  -3926  -2287  -403  1076  1855  2126  2229  2301  2279  2122  1914  1741  1537  1084  263  -753  -1695  -2393  -2773  -2874  -2776  -2478  -2006  -1539  -1258  -1180  -1245  -1411  -1631  -1830  -1957  -1958  -1677  -903  323  1543  2264  2360  1941  1187  417  -78  -314  -485  -724  -1113  -1656  -2253  -2760  -3069  -3173  -3165  -3129  -3076  -2945  -2640  -2134  -1550  -1087  -860  -821  -859  -911  -954  -934  -760  -408  -4  280  392  400  407  500  711  989  1242  1476  1766  2118  2466  2759  2979  3113  3161  3162  3163  3146  3044  2803  2485  2261  2228  2335  2513  2703  2839  2888  2847  2695  2431  2144  1953  1893  1917  1960  1983  1950  1817  1578  1311  1114  1023  1005  1005  966  853  674  479  328  237  177  132  126  148  97  -152  -559  -919  -1099  -1146  -1141  -1054  -800  -381  112  595  988  1253  1433  1572  1634  1595  1513  1436  1356  1266  1170  1066  958  870  834  829  728  427  25  -271  -379  -368  -319  -266  -237  -299  -516  -837  -1106  -1225  -1192  -1001  -633  -176  195  390  451  415  256  -5  -268  -440  -481  -341  34  534  908  1014  861  500  49  -294  -448  -545  -687  -800  -820  -739  -549  -338  -240  -328  -617  -991  -1272  -1457  -1704  -2093  -2547  -2973  -3359  -3690  -3908  -3977  -3857  -3421  -2546  -1347  -212  532  865  905  686  210  -361  -739  -744  -394  121  537  683  465  -159  -969  -1550  -1730  -1642  -1443  -1206  -987  -829  -712  -586  -440  -311  -235  -263  -439  -717  -973  -1103  -1065  -906  -704  -464  -145  238  598  857  1007  1052  908  458  -221  -839  -1200  -1346  -1357  -1178  -724  -119  349  542  533  381  -13  -733  -1561  -2125  -2292  -2143  -1750  -1215  -711  -357  -159  -41  55  108  64  -75  -247  -376  -446  -471  -379  -41  549  1235  1852  2312  2599  2753  2823  2810  2673  2397  2078  1860  1802  1899  2143  2459  2657  2484  1796  824  -8  -582  -1013  -1316  -1479  -1559  -1593  -1584  -1547  -1527  -1594  -1788  -2026  -2128  -1983  -1677  -1389  -1120  -652  110  901  1367  1400  1096  621  155  -213  -496  -706  -843  -924  -974  -1027  -1118  -1242  -1364  -1449  -1499  -1547  -1594  -1625  -1662  -1763  -2015  -2469  -3017  -3462  -3705  -3789  -3795  -3754  -3681  -3640  -3642  -3476  -2753  -1308  386  1602  2132  2291  2433  2800  3485  4363  5165  5684  5894  5885  5729  5484  5209  4915  4593  4286  4043  3876  3813  3869  3933  3868  3684  3451  3218  3038  2922  2822  2694  2543  2432  2354  2160  1736  1196  1006  1617  2863  4215  5296  5811  5589  4760  3511  1789  -496  -3005  -5118  -6373  -6367  -4860  -2336  204  2126  3340  3903  3865  3264  2245  1166  369  -90  -408  -860  -1572  -2338  -2821  -2874  -2573  -2086  -1602  -1255  -1105  -1135  -1256  -1356  -1359  -1236  -971  -635  -403  -408  -654  -998  -1250  -1337  -1309  -1224  -1125  -1063  -1064  -1110  -1153  -1177  -1212  -1277  -1403  -1718  -2324  -3108  -3787  -4176  -4354  -4594  -5143  -6003  -6880  -7459  -7679  -7612  -7244  -6525  -5527  -4434  -3374  -2278  -1084  -1  727  1163  1540  2010  2588  3197  3731  4101  4173  3754  2823  1730  942  623  619  766  1014  1290  1466  1474  1326  1033  632  302  238  370  444  373  271  227  224  207  149  92  111  217  336  370  282  128  -17  -123  -172  -156  -89  -17  15  13  -1  -72  -302  -734  -1239  -1590  -1672  -1579  -1431  -1172  -678  -66  363  468  316  32  -265  -493  -610  -578  -382  -85  209  434  582  672  743  893  1221  1665  2031  2230  2324  2372  2374  2297  2141  1995  1943  1944  1888  1712  1484  1324  1262  1248  1229  1141  922  622  409  430  707  1101  1398  1504  1476  1388  1286  1208  1153  1075  924  706  482  323  234  185  159  156  176  212  232  188  57  -123  -266  -310  -250  -97  137  403  643  827  936  977  971  896  661  214  -234  -288  129  645  927  903  713  624  625  327  -526  -1837  -3249  -4191  -4160  -3210  -1883  -670  159  537  636  707  846  995  1052  978  775  444  58  -222  -348  -439  -605  -818  -992  -1085  -1032  -671  69  916  1467  1613  1517  1334  1098  796  479  275  209  168  64  -105  -349  -663  -972  -1218  -1444  -1714  -2015  -2258  -2372  -2341  -2180  -1955  -1781  -1757  -1958  -2405  -2987  -3519  -3867  -3950  -3781  -3531  -3384  -3375  -3461  -3595  -3743  -3884  -3997  -4073  -4097  -3972  -3532  -2784  -1986  -1348  -874  -492  -139  184  388  428  370  321  443  892  1579  2187  2516  2620  2636  2643  2623  2553  2485  2482  2541  2585  2527  2378  2222  2095  2012  2056  2302  2661  2923  2984  2869  2559  1995  1289  682  301  108  35  65  215  433  601  658  654  652  668  708  788  892  977  1015  980  833  584  342  208  178  192  203  201  191  202  272  405  559  704  862  1000  980  688  170  -364  -707  -840  -900  -1001  -1158  -1275  -1213  -879  -289  345  754  848  699  376  -53  -460  -713  -779  -705  -540  -358  -226  -106  91  322  477  599  805  1087  1375  1612  1710  1628  1448  1265  1114  1020  993  1017  1060  1050  889  548  154  -112  -177  -82  27  0  -121  -73  416  1388  2597  3630  4113  3927  3236  2302  1349  559  68  -119  -93  50  182  210  106  -214  -844  -1672  -2424  -2949  -3287  -3503  -3556  -3229  -2316  -1068  -83  346  388  255  5  -376  -837  -1195  -1265  -1095  -906  -820  -797  -788  -841  -1051  -1393  -1704  -1876  -1943  -1973  -1990  -1997  -1975  -1896  -1763  -1629  -1550  -1539  -1593  -1734  -1956  -2178  -2300  -2253  -2010  -1647  -1323  -1091  -868  -634  -513  -628  -977  -1458  -1954  -2354  -2559  -2522  -2266  -1920  -1667  -1599  -1706  -1941  -2206  -2388  -2457  -2456  -2394  -2215  -1918  -1627  -1473  -1467  -1537  -1607  -1639  -1617  -1537  -1419  -1308  -1259  -1368  -1737  -2287  -2758  -2979  -2964  -2746  -2346  -1904  -1620  -1552  -1612  -1688  -1647  -1304  -608  169  658  768  665  524  427  390  429  592  890  1246  1543  1712  1747  1651  1413  1100  846  713  687  797  1136  1746  2461  2982  3187  3199  3174  3153  3076  2857  2465  1961  1489  1202  1122  1160  1248  1363  1483  1573  1592  1534  1449  1405  1465  1663  1957  2253  2487  2621  2662  2660  2648  2595  2451  2247  2095  2050  2061  2052  1981  1867  1758  1668  1558  1389  1186  1015  915  892  930  984  1007  983  919  829  693  495  297  171  107  62  23  23  121  368  772  1272  1772  2190  2466  2582  2595  2584  2591  2614  2631  2633  2644  2715  2890  3122  3288  3336  3318  3293  3263  3186  3026  2820  2669  2614  2568  2364  1844  1015  105  -607  -998  -1109  -944  -323  913  2548  3970  4707  4743  4252  3449  2675  2182  1871  1444  719  -253  -1303  -2173  -2433  -1774  -486  727  1362  1322  749  -78  -790  -1161  -1266  -1277  -1259  -1179  -1010  -792  -575  -356  -151  -84  -286  -751  -1330  -1849  -2193  -2334  -2325  -2235  -2125  -2049  -2048  -2146  -2329  -2539  -2732  -2912  -3079  -3205  -3226  -3069  -2735  -2365  -2127  -2049  -2053  -2108  -2263  -2532  -2818  -2987  -2974  -2799  -2559  -2383  -2320  -2353  -2481  -2693  -2913  -3043  -3065  -3027  -2943  -2747  -2342  -1749  -1172  -806  -669  -661  -698  -763  -850  -912  -848  -560  -101  311  519  563  560  548  435  106  -403  -902  -1231  -1366  -1370  -1323  -1276  -1251  -1269  -1352  -1471  -1575  -1636  -1632  -1545  -1348  -994  -530  -109  159  275  302  299  292  305  381  540  733  887  983  1038  1086  1148  1202  1179  986  554  -62  -723  -1351  -1909  -2288  -2418  -2358  -2201  -1977  -1660  -1263  -816  -291  254  615  633  303  -251  -854  -1387  -1794  -2022  -1987  -1642  -1083  -500  -247  -680  -1587  -2310  -2382  -1732  -654  322  767  499  -512  -2075  -3641  -4319  -3529  -1900  -561  129  377  415  464  570  631  623  597  566  498  331  20  -427  -905  -1219  -1206  -794  -91  602  1055  1280  1366  1279  889  160  -745  -1552  -2015  -1991  -1424  -423  674  1497  1867  1778  1315  704  257  144  362  895  1702  2573  3190  3397  3165  2491  1611  982  846  1101  1502  1760  1555  711  -473  -1373  -1624  -1215  -262  899  1786  2209  2375  2500  2588  2596  2586  2653  2816  2999  3120  3159  3156  3152  3164  3179  3159  3053  2853  2614  2340  1906  1272]
