reading_id,reading_time,wire_id,result_classification,heart_rate,heart_rate_alert,firmware_version,device_app_version,hardware_version,waveform_samples
329ce1f0-5a4c-11ed-8080-808080808080,Wed Nov 02 01:18:03 UTC 2022,e100e35f1c39,NSR,90,NONE,20001.171.50,2.10.0,Charge 5,[8945  9076  9105  8753  7577  5251  2080  -924  -2896  -3797  -4131  -4330  -4560  -4847  -5163  -5426  -5567  -5592  -5580  -5640  -5850  -6174  -6491  -6754  -7016  -7307  -7589  -7811  -7988  -8171  -8355  -8480  -8527  -8525  -8516  -8517  -8527  -8532  -8529  -8532  -8545  -8516  -8405  -8295  -8252  -8104  -7654  -6865  -5774  -4629  -3956  -4141  -5143  -6675  -8332  -9702  -10588  -10959  -10888  -10564  -10117  -9611  -9178  -8917  -8785  -8710  -8666  -8654  -8669  -8699  -8731  -8761  -8794  -8826  -8830  -8750  -8521  -8132  -7675  -7296  -7060  -6943  -6894  -6846  -6723  -6528  -6331  -6160  -5959  -5666  -5289  -4918  -4649  -4474  -4300  -4087  -3851  -3588  -3323  -3139  -3072  -3077  -3101  -3109  -3086  -3033  -2964  -2905  -2872  -2879  -2951  -3097  -3274  -3434  -3578  -3727  -3860  -3940  -3954  -3927  -3881  -3798  -3657  -3477  -3292  -3117  -2956  -2808  -2674  -2560  -2468  -2362  -2202  -2002  -1810  -1671  -1611  -1620  -1663  -1694  -1701  -1699  -1677  -1601  -1488  -1406  -1397  -1439  -1501  -1675  -2135  -2860  -3571  -4051  -4337  -4556  -4740  -4848  -4880  -4874  -4845  -4777  -4660  -4529  -4437  -4392  -4325  -4152  -3898  -3683  -3559  -3450  -3274  -3015  -2716  -2450  -2257  -2121  -2006  -1881  -1733  -1544  -1297  -1033  -823  -686  -575  -439  -241  6  207  230  64  -159  -299  -235  150  888  1882  2973  3922  4367  4063  3080  1662  110  -1236  -2136  -2524  -2441  -1988  -1383  -876  -548  -317  -128  2  76  136  221  322  409  494  594  683  722  698  621  512  404  316  253  238  288  364  381  299  187  169  270  436  648  912  1199  1463  1670  1805  1890  1968  2051  2119  2160  2185  2205  2212  2192  2148  2076  1955  1774  1548  1290  1012  723  414  87  -209  -420  -538  -599  -630  -653  -686  -746  -841  -960  -1075  -1159  -1200  -1217  -1236  -1264  -1298  -1330  -1339  -1304  -1210  -1075  -946  -829  -655  -374  -21  292  477  540  557  606  723  877  995  1041  1030  980  904  811  709  606  510  412  306  216  163  137  116  93  79  87  112  157  233  335  428  460  333  -31  -525  -901  -1060  -1098  -1135  -1233  -1425  -1682  -1927  -2100  -2186  -2201  -2156  -2048  -1882  -1693  -1522  -1364  -1191  -1010  -850  -721  -589  -329  235  1188  2428  3649  4439  4476  3673  2276  767  -487  -1347  -1769  -1818  -1656  -1410  -1172  -1007  -917  -875  -854  -835  -817  -808  -802  -777  -723  -663  -631  -616  -581  -523  -446  -351  -271  -222  -112  200  725  1336  1939  2490  2923  3173  3237  3178  3085  3019  2976  2898  2744  2559  2457  2509  2678  2869  3010  3076  3083  3047  2974  2862  2715  2546  2346  2074  1755  1490  1322  1201  1097  1033  1016  1024  1033  1022  947  760  492  261  149  131  144  158  173  194  195  121  -67  -307  -478  -508  -393  -171  70  247  344  409  469  511  525  524  526  537  550  565  591  627  653  654  636  631  674  777  925  1102  1301  1463  1502  1407  1249  1102  1009  974  969  965  967  995  1042  1046  959  822  710  642  582  490  359  227  102  -53  -252  -451  -627  -776  -871  -903  -901  -890  -869  -821  -751  -709  -722  -753  -728  -535  -16  915  2145  3367  4213  4385  3781  2576  1110  -300  -1452  -2236  -2607  -2593  -2317  -1960  -1650  -1420  -1258  -1128  -1007  -912  -855  -822  -800  -794  -809  -819  -787  -700  -597  -532  -516  -514  -502  -491  -476  -413  -260  -48  137  247  297  340  413  526  694  939  1242  1536  1750  1851  1867  1846  1813  1782  1753  1703  1601  1461  1344  1287  1266  1205  1029  738  421  148  -92  -337  -586  -794  -926  -1000  -1059  -1113  -1148  -1163  -1174  -1187  -1190  -1173  -1149  -1134  -1121  -1094  -1052  -1010  -977  -949  -928  -921  -916  -898  -858  -800  -750  -724  -711  -698  -682  -679  -707  -764  -827  -869  -883  -883  -880  -871  -850  -816  -781  -756  -746  -753  -769  -783  -792  -798  -801  -779  -704  -563  -385  -223  -118  -71  -36  49  196  352  462  516  532  503  399  221  27  -128  -229  -300  -382  -479  -552  -573  -551  -496  -418  -340  -319  -402  -567  -722  -805  -820  -750  -519  -4  867  2004  3198  4180  4622  4304  3263  1763  176  -1133  -1953  -2284  -2212  -1847  -1347  -839  -398  -88  68  117  124  136  178  239  292  325  343  356  376  406  448  503  580  684  799  888  936  959  969  973  988  1058  1233  1506  1788  1976  2055  2094  2153  2248  2352  2435  2493  2565  2679  2785  2799  2718  2614  2555  2551  2552  2467  2238  1905  1568  1281  1022  764  530  348  202  80  1  -28  -30  -30  -46  -88  -140  -177  -192  -192  -180  -144  -75  19  111  165  158  93  4  -66  -100  -110  -113  -119  -118  -79  19  159  276  324  291  180  18  -139  -255  -348  -458  -582  -693  -788  -865  -916  -938  -942  -928  -875  -766  -632  -536  -503  -511  -525  -517  -461  -358  -233  -120  -43  -6  -1  -31  -118  -269  -439  -556  -601  -619  -656  -723  -814  -910  -989  -1049  -1106  -1156  -1195  -1233  -1274  -1319  -1370  -1437  -1548  -1688  -1789  -1821  -1781  -1563  -1010  -105  995  2028  2647  2534  1622  173  -1402  -2762  -3716  -4197  -4231  -3932  -3444  -2907  -2465  -2204  -2090  -2032  -1984  -1939  -1869  -1740  -1581  -1463  -1413  -1385  -1317  -1189  -1039  -928  -881  -881  -898  -909  -884  -771  -527  -207  46  157  178  200  271  392  525  642  762  920  1106  1284  1428  1531  1591  1616  1621  1614  1588  1534  1458  1384  1328  1280  1223  1135  995  803  599  419  272  166  113  100  108  125  142  159  180  209  223  197  140  84  47  36  47  74  111  151  193  233  264  277  281  291  322  381  470  581  691  776  832  865  877  852  775  669  580  531  506  489  481  483  485  491  544  694  928  1154  1284  1312  1273  1187  1064  931  819  734  665  611  594  635  719  804  852  861  843  800  738  664  564  388  121  -155  -333  -391  -387  -367  -322  -267  -272  -357  -460  -532  -570  -580  -587  -649  -790  -907  -875  -677  -304  319  1239  2407  3621  4449  4414  3388  1709  -101  -1573  -2433  -2707  -2611  -2310  -1889  -1438  -1007  -635  -396  -290  -225  -146  -76  -33  -3  24  42  54  84  146  225  304  383  469  560  648  732  814  882  914  907  901  938  1004  1072  1192  1447  1799  2099  2266  2345  2410  2507  2656  2809  2881  2863  2798  2696  2556  2388  2206  2014  1780  1506  1261  1068  884  659  367  6  -370  -678  -875  -979  -1026  -1048  -1072  -1120  -1208  -1328  -1448  -1545  -1612  -1649  -1669  -1693  -1731  -1772  -1806  -1835  -1868  -1906  -1940  -1962  -1971  -1975  -1972  -1956  -1934  -1939  -1999  -2090  -2184  -2289  -2409  -2511  -2566  -2578  -2559  -2523  -2507  -2563  -2699  -2844  -2904  -2863  -2778  -2700  -2646  -2599  -2552  -2530  -2566  -2661  -2783  -2894  -2993  -3091  -3180  -3245  -3294  -3329  -3318  -3233  -3113  -3041  -3055  -3109  -3161  -3256  -3480  -3805  -4103  -4307  -4455  -4607  -4815  -5107  -5433  -5685  -5811  -5860  -5901  -5956  -6008  -6045  -6087  -6168  -6274  -6346  -6331  -6240  -6175  -6200  -6217  -5993  -5296  -4133  -2840  -1881  -1637  -2263  -3551  -5001  -6136  -6766  -6924  -6691  -6185  -5509  -4702  -3847  -3128  -2672  -2437  -2281  -2129  -1985  -1814  -1503  -952  -161  744  1572  2203  2646  2967  3216  3448  3736  4106  4501  4855  5166  5465  5740  5938  6032  6064  6108  6225  6419  6636  6836  7058  7338  7602  7730  7703  7604  7512  7457  7428  7411  7405  7408  7416  7417  7380  7264  7057  6768  6403  5968  5495  5036  4637  4297  3984  3682  3407  3191  3052  2952  2847  2745  2687  2684  2714  2732  2679  2529  2330  2175  2106  2088  2074  2056  2041  2018  1973  1898  1810  1733  1676  1656  1690  1778  1897  2007  2079  2112  2100  2020  1873  1715  1605  1551  1527  1516  1518  1519  1490  1421  1336  1240  1108  940  781  666  587  526  478  441  422  435  486  547  584  587  565  530  493  476  512  623  783  936  1031  1044  986  903  822  711  504  205  -92  -323  -500  -667  -829  -948  -999  -1001  -980  -948  -922  -919  -957  -1021  -1078  -1145  -1229  -1239  -1092  -755  -160  750  1882  2933  3481  3209  2107  486  -1188  -2539  -3389  -3749  -3732  -3448  -2974  -2434  -1993  -1733  -1606  -1509  -1382  -1232  -1102  -1013  -949  -896  -865  -862  -866  -842  -757  -621  -480  -368  -287  -220  -156  -103  -36  100  300  490  627  715  769  817  883  968  1051  1120  1201  1323  1476  1624  1734  1782  1763  1696  1610  1518  1425  1323  1197  1044  882  731  562  322  26  -233  -391  -487  -605  -762  -898  -968  -977  -953  -942  -972  -1025  -1055  -1044  -1026  -1034  -1067  -1115  -1164  -1199  -1215  -1222  -1226  -1227  -1225  -1220  -1213  -1207  -1204  -1202  -1194  -1169  -1132  -1126  -1184  -1272  -1338  -1371  -1378  -1365  -1349  -1342  -1341  -1339  -1334  -1332  -1333  -1343  -1376  -1440  -1530  -1633  -1724  -1783  -1815  -1837  -1846  -1814  -1717  -1581  -1464  -1403  -1393  -1402  -1403  -1376  -1281  -1076  -803  -580  -464  -399  -317  -219  -145  -118  -144  -219  -325  -428  -509  -571  -622  -653  -660  -660  -666  -671  -674  -676  -684  -703  -727  -717  -610  -414  -271  -304  -475  -639  -624  -263  521  1635  2878  4017  4734  4723  3941  2603  1003  -529  -1712  -2451  -2793  -2789  -2508  -2108  -1768  -1548  -1395  -1263  -1170  -1132  -1121  -1112  -1102  -1100  -1108  -1100  -1035  -911  -759  -615  -517  -482  -478  -445  -349  -216  -100  3  154  382  670  1001  1340  1610  1762  1814  1817  1831  1940  2212  2572  2831  2878  2755  2579  2458  2421  2428  2424  2383  2315  2258  2233  2226  2207  2150  2020  1807  1578  1421  1333  1246  1096  851  547  272  89  -11  -84  -178  -299  -419  -509  -566  -601  -631  -676  -743  -797  -771  -663  -535  -434  -344  -237  -123  -33  30  96  171  234  263  257  227  176  102  12  -73  -128  -133  -85  -16  -10  -115  -260  -347  -367  -358  -350  -353  -356  -343  -317  -301  -307  -330  -368  -394  -348  -185  38  203  258  250  232  232  257  300  343  372  389  419  485  575  646  665  608  467  291  157  92  58  7  -103  -295  -512  -660  -710  -702  -658  -577  -499  -499  -601  -746  -877  -974  -1037  -1085  -1170  -1305  -1404  -1354  -1072  -475  436  1511  2487  3046  2916  2046  646  -925  -2292  -3201  -3586  -3536  -3198  -2718  -2260  -1934  -1728  -1584  -1468  -1341  -1175  -992  -857  -803  -797  -787  -732  -609  -418  -216  -85  -45  -45  -26  29  106  179  239  293  380  545  766  979  1158  1322  1484  1620  1706  1774  1905  2147  2474  2790  2988  3040  3015  2991  2985  2977  2924  2780  2546  2284  2055  1870  1691  1470  1193  892  640  500  454  441  426  408  381  315  170  -57  -315  -529  -660  -730  -797  -900  -1050  -1236  -1408  -1517  -1568  -1606  -1650  -1688  -1711  -1708  -1648  -1497  -1275  -1043  -864  -774  -773  -834  -924  -1008  -1069  -1106  -1126  -1147  -1203  -1308  -1426  -1506  -1538  -1546  -1547  -1531  -1476  -1379  -1266  -1169  -1115  -1101  -1105  -1109  -1101  -1076  -1028  -964  -901  -864  -856  -858  -848  -829  -813  -807  -806  -793  -738  -633  -515  -435  -398  -367  -314  -233  -132  -31  38  66  59  -1  -150  -361  -564  -711  -801  -860  -930  -1043  -1181  -1279  -1290  -1206  -1046  -837  -616  -494  -530  -533  -248  416  1407  2533  3483  3965  3785  2880  1403  -259  -1691  -2614  -2911  -2638  -2016  -1308  -697  -264  -4  146  258  353  423  468  506  555  611  648  652  647  681  791  946  1073  1146  1178  1179  1166  1158  1154  1149  1148  1156  1167  1170  1165  1185  1300  1560  1882  2111  2216  2290  2377  2428  2410  2364  2339  2322  2269  2169  2053  1949  1850  1705  1482  1221  985  758  484  190  -19  -109  -143  -191  -283  -425  -606  -786  -913  -972  -990  -998  -1003  -996  -966  -907  -827  -751  -696  -649  -593  -533  -483  -452  -430  -407  -383  -369  -368  -372  -392  -466  -585  -685  -731  -739  -725  -688  -621  -520  -404  -309  -270  -284  -337  -430  -533  -598  -616  -615  -616  -621  -626  -629  -631  -633  -639  -653  -676  -700  -705  -653  -523  -353  -210  -104  -14  63  126  193  273  349  395  399  370  322  265  194  95  -35  -191  -337  -425  -449  -444  -437  -421  -367  -253  -113  -16  -3  -70  -195  -337  -463  -585  -724  -828  -765  -370  465  1684  3056  4244  4889  4722  3712  2148  520  -782  -1617  -2016  -2023  -1670  -1080  -451  33  279  311  227  119  38  -6  -25  -32  -40  -63  -104  -146  -173  -188  -209  -234  -239  -179  -31  156  292  343  347  349  360  398  537  842  1233  1529  1653  1669  1666  1694  1763  1843  1894  1910  1912  1911  1895  1849  1779  1713  1668  1637  1599  1512  1341  1100  836  588  380  201  25  -139  -280  -427  -600  -749  -813  -806  -786  -790  -831  -908  -997  -1062  -1077  -1054  -1024  -1002  -981  -947  -901  -866  -871  -909  -943  -954  -954  -955  -961  -993  -1069  -1171  -1253  -1291  -1287  -1249  -1196  -1156  -1142  -1150  -1175  -1225  -1308  -1423  -1550  -1654  -1716  -1739  -1726  -1659  -1533  -1387  -1275  -1223  -1229  -1269  -1307  -1328  -1332  -1320  -1293  -1260  -1241  -1253  -1267  -1243  -1184  -1122  -1088  -1094  -1118  -1136  -1141  -1137  -1140  -1180  -1284  -1432  -1564  -1657  -1744  -1842  -1926  -1973  -1985  -1964  -1906  -1813  -1693  -1574  -1503  -1526  -1621  -1662  -1562  -1371  -1155  -867  -347  525  1602  2524  2929  2576  1483  -49  -1626  -2907  -3722  -4102  -4172  -4017  -3680  -3286  -3002  -2881  -2853  -2835  -2806  -2777  -2723  -2604  -2444  -2319  -2265  -2244  -2211  -2161  -2120  -2109  -2116  -2119  -2118  -2141  -2213  -2323  -2414  -2442  -2429  -2397  -2288  -2010  -1558  -1013  -432  194  914  1715  2543  3385  4184  4818  5234  5470  5571  5582  5529  5400  5173  4873  4588  4374  4195  3977  3692  3378  3092  2870  2717  2622  2548  2453  2339  2243  2177  2120  2065  2019  1989  1981  2015  2105  2242  2405  2558  2668  2729  2755  2773  2800  2831  2846  2831  2791  2752  2739  2748  2765  2789  2816  2838  2859  2884  2895  2860  2768  2653  2559  2500  2462  2415  2337  2222  2072  1888  1695  1541  1431  1318  1188  1083  1021  982  965  1005  1133  1307  1435  1477  1462  1429  1396  1360  1311  1251  1196  1149  1098  1048  1013  988  953  898  824  739  642  515  366  247  184  132  33  -110  -238  -321  -372  -410  -450  -517  -648  -804  -846  -628  -42  870  1894  2854  3628  4009  3741  2706  1056  -827  -2469  -3472  -3765  -3593  -3256  -2957  -2772  -2636  -2475  -2301  -2146  -2025  -1946  -1898  -1838  -1736  -1602  -1477  -1374  -1236  -975  -614  -267  -8  170  283  326  298  230  160  111  85  74  67  68  97  167  268  359  407  418  423  437  444  423  377  333  312  295  222  45  -202  -426  -559  -623  -692  -811  -955  -1096  -1273  -1536  -1825  -2015  -2075  -2086  -2137  -2244  -2360  -2425  -2410  -2319  -2193  -2091  -2036  -2025  -2057  -2126  -2209  -2282  -2330  -2347  -2310  -2187  -1995  -1810  -1688  -1630  -1594  -1527  -1382  -1167  -948  -779  -667  -606  -589  -597  -607  -602  -570  -515  -449  -387  -341  -317  -307  -303  -318  -378  -483  -594  -684  -771  -872  -972  -1049  -1078  -1011  -818  -554  -335  -215  -166  -149  -130  -71  39  186  354  518  638  685  651  538  387  270  210  172  118  41  -38  -93  -123  -145  -157  -136  -74  6  60  59  28  -11  -64  -123  -154  -147  -138  -92  179  814  1762  2885  3900  4336  3903  2729  1172  -390  -1632  -2400  -2742  -2739  -2439  -1948  -1400  -906  -556  -350  -218  -113  -30  17  32  30  22  -2  -73  -179  -259  -241  -92  145  382  564  676  729  753  787  836  881  918  985  1132  1348  1555  1695  1770  1814  1860  1926  2011  2103  2196  2290  2366  2381  2296  2136  1971  1835  1713  1583  1421  1191  898  615  390  197  12  -155  -323  -532  -754  -919  -1012  -1077  -1135  -1161  -1133  -1071  -1011  -962  -913  -874  -861  -871  -888  -882  -820  -684  -501  -327  -202  -138  -114  -92  -56  -13  50  161  301  412  477  543  651  806  961  1047  1038  969  885  805  740  691  636  533  346  89  -167  -341  -431  -516  -646  -795  -918  -1012  -1108  -1231  -1354  -1429  -1453  -1460  -1472  -1474  -1434  -1337  -1196  -1035  -890  -801  -771  -764  -742  -709  -698  -733  -795  -852  -909  -998  -1115  -1218  -1278  -1298  -1268  -1168  -1030  -924  -879  -872  -873  -870  -851  -807  -769  -808  -910  -934  -754  -291  519  1596  2676  3434  3581  2968  1716  174  -1292  -2421  -3036  -3090  -2736  -2230  -1738  -1328  -1029  -809  -625  -474  -343  -220  -125  -68  -32  4  45  78  95  95  83  74  93  165  278  384  447  489  562  699  866  991  1055  1113  1222  1380  1523  1619  1714  1861  2049  2215  2308  2337  2342  2335  2293  2199  2075  1961  1864  1743  1545  1290  1039  803  571  367  201  44  -130  -333  -531  -659  -714  -755  -810  -854  -859  -820  -736  -609  -471  -362  -291  -244  -213  -204  -221  -259  -317  -390  -446  -457  -432  -395  -364  -344  -339  -341  -331  -304  -279  -272  -274  -266  -231  -173  -115  -76  -59  -66  -119  -231  -366  -454  -472  -450  -420  -381  -320  -243  -174  -126  -88  -48  -5  32  60  80  95  109  120  130  144  168  197  217  216  198  184  199  238  286  342  401  429  390  300  204  136  103  95  80  17  -114  -269  -381  -437  -459  -467  -482  -530  -596  -641  -647  -629  -631  -683  -735  -699  -560  -316  141  943  2054  3236  4128  4374  3772  2418  707  -858  -1946  -2496  -2597  -2445  -2244  -2016  -1696  -1354  -1123  -1032  -1017  -1010  -973  -908  -864  -859  -839  -769  -684  -618  -557  -459  -299  -126  -12  39  79  133  192  275  433  667  902  1072  1175  1243  1296  1332  1357  1394  1472  1608  1786  1961  2091  2146  2129  2071  2009  1955  1905  1854  1791  1687  1494  1205  899  661  472  233  -80  -378  -596  -759  -908  -1043  -1138  -1181  -1194  -1205  -1224  -1240  -1243  -1234  -1220  -1208  -1197  -1178  -1136  -1081  -1057  -1091  -1139  -1147  -1109  -1062  -1037  -1038  -1046  -1055  -1063  -1062  -1030  -968  -898  -835  -788  -758  -739  -734  -733  -713  -684  -669  -669  -668  -646  -591  -519  -464  -442  -439  -435  -419  -391  -351  -302  -252  -213  -170  -89  30  138  196  211  203  186  183  223  319  457  606  735  827  883  904  897  878  859  840  795  697  560  434  324  196  57  -39  -74  -78  -72  -50  -6  42  83  121  172  232  249  169  66  80  192  375  828  1703  2862  4038  4878  4955  4134  2682  997  -536  -1631  -2194  -2282  -2030  -1613  -1163  -753  -458  -313  -267  -251  -229  -178  -81  40  134  165  125  16  -115  -190  -180  -130  -97  -97  -102  -51  95  293  447  526  573  630  699  769  838  928  1077  1284  1501  1681  1807  1881  1919  1966  2067  2202  2310  2368  2386  2361  2266  2085  1835  1553  1271  1034  868  739  578  344  68  -168  -320  -397  -428  -445  -471  -512  -557  -591  -604  -591  -551  -490  -422  -367  -340  -336  -343  -354  -371  -398  -433  -456  -437  -385  -337  -314  -310  -331  -393  -493  -606  -718  -814  -874  -896  -898  -890  -867  -834  -805  -783  -761  -737  -721  -714  -706  -696  -709  -785  -924  -1057  -1096  -1014  -864  -737  -676  -659  -654  -645  -622  -589  -552  -517  -495  -494  -500  -480  -404  -286  -182  -129  -130  -192  -328  -505  -658  -763  -850  -950  -1069  -1206  -1369  -1546  -1697  -1788  -1820  -1819  -1814  -1813  -1807  -1784  -1742  -1695  -1642  -1572  -1501  -1427  -1256  -839  -68  1021  2219  3211  3650  3270  2092  432  -1281  -2637  -3401  -3575  -3308  -2798  -2246  -1768  -1387  -1135  -1039  -1041  -1051  -1001  -873  -732  -664  -671  -693  -704  -708  -711  -703  -664  -594  -503  -394  -256  -101  40  172  329  526  728  882  995  1131  1330  1562  1754  1863  1911  1951  2006  2054  2094  2160  2263  2374  2465  2508  2491  2432  2354  2262  2155  2036  1870  1596  1235  909  704  612  571  516  413  272  131  21  -71  -154  -200  -186  -137  -95  -79  -95  -146  -224  -302  -357  -383  -387  -384  -389  -401  -404  -386  -355  -328  -304  -269  -228  -203  -201  -214  -222  -217  -202  -185  -169  -153  -138  -131  -132  -130  -121  -117  -135  -181  -229  -230  -161  -54  41  106  150  194  250  307  346  368  398  475  605  742  833  883  936  1026  1141  1238  1297  1314  1273  1149  970  788  602  409  254  174  151  156  166  174  165  124  50  -24  -69  -94  -132  -186  -212  -194  -183  -130  144  772  1747  2931  4003  4537  4232  3096  1421  -342  -1768  -2647  -3008  -2983  -2744  -2448  -2138  -1780  -1434  -1216  -1125  -1077  -1028  -992  -976  -963  -921  -837  -729  -638  -589  -578  -580  -563  -508  -426  -344  -260  -160  -30  132  298  413  472  510  562  654  777  891  978  1047  1107  1178  1295  1488  1733  1961  2137  2285  2383  2329  2102  1826  1604  1386  1068  657  289  54  -114  -336  -617  -863  -1023  -1130  -1219  -1293  -1341  -1361  -1366  -1364  -1360  -1351  -1335  -1317  -1296  -1271  -1244  -1220  -1205  -1196  -1190  -1181  -1165  -1142  -1137  -1187  -1287  -1375  -1406  -1394  -1374  -1365  -1364  -1350  -1304  -1232  -1166  -1125  -1103  -1090  -1097  -1147  -1231  -1298  -1322  -1322  -1321  -1328  -1330  -1300  -1229  -1152  -1100  -1063  -1020  -971  -928  -902  -884  -859  -801  -694  -576  -492  -443  -408  -355  -260  -162  -119  -153  -245  -345  -408  -431  -445  -501  -652  -875  -1077  -1193  -1234  -1247  -1259  -1263  -1232  -1150  -1031  -904  -791  -681  -540  -362  -171  107  648  1546  2765  4081  4984  4989  4055  2497  735  -749  -1632  -1923  -1768  -1322  -802  -395  -152  -38  0  11  18  31  38  28  17  19  26  27  24  23  22  19  15  21  57  121  186  239  285  323  353  394  469  574  674  758  869  1074  1381  1699  1925  2038  2083  2117  2164  2216  2255  2277  2291  2300  2284  2213  2085  1934  1776  1605  1435  1286  1137  960  758  569  429  354  319  292  261  234  200  132  29  -77  -169  -241  -283  -293  -283  -271  -261  -248  -230  -223  -239  -263  -275  -276  -289  -332  -393  -440  -459  -461  -463  -471  -476  -471  -470  -494  -559  -651  -723  -720  -610  -423  -245  -141  -105  -95  -87  -84  -105  -162  -237  -290  -296  -263  -217  -185  -177  -182  -189  -184  -145  -38  151  401  641  786  783  638  421  240  141  80  -13  -166  -343  -478  -536  -535  -499  -445  -377  -293  -204  -142  -133  -180  -271  -358  -411  -443  -452  -377  -137  351  1135  2154  3224  3998  4058  3231  1735  -2  -1565  -2618  -3057  -3027  -2695  -2189  -1650  -1176  -810  -565  -415  -330  -299  -303  -312  -290  -215  -111  -24  32  85  137  166  163  142  111  89  114  210  346  453  500  505  497  511  591  768  1006  1219  1368  1481  1581  1677  1786  1907  2009  2074  2124  2175  2212  2211  2167  2094  2011  1897  1706  1431  1103  763  445  181  3  -80  -104  -106  -103  -100  -95  -92  -107  -156  -232  -303  -340  -348  -344  -338  -334  -332  -332  -333  -329  -313  -284  -255  -221  -163  -67  48  165  263  332  378  417  462  519  584  659  740  781  734  629  511  384  257  162  113  102  121  148  155  123  53  -34  -106  -140  -143  -137  -143  -173  -226  -277  -303  -300  -277  -231  -154  -62  2  23  18  16  28  47  55  37  3  -42  -127  -281  -466  -604  -660  -665  -673  -718  -787  -843  -869  -871  -837  -745  -617  -532  -531  -567  -539  -265  438  1505  2631  3561  4080  3945  3069  1657  72  -1324  -2281  -2742  -2856  -2784  -2547  -2148  -1717  -1404  -1237  -1142  -1057  -987  -965  -994  -1038  -1067  -1088  -1121  -1165  -1193  -1183  -1138  -1078  -1016  -942  -832  -661  -443  -226  -45  100  218  315  419  568  781  1041  1318  1608  1877  2054  2115  2109  2080  2035  1968  1883  1790  1694  1596  1491  1359  1195  1016  817  574  301  40  -199  -427  -636  -822  -990  -1138  -1246  -1312  -1346  -1345  -1310  -1246  -1137  -974  -805  -691  -630  -582  -536  -520  -553  -617  -698  -782  -842  -861  -866  -893  -958  -1053  -1152  -1232  -1305  -1396  -1508  -1614  -1678  -1696  -1698  -1704  -1707  -1706  -1719  -1773  -1873  -1979  -2048  -2079  -2131  -2277  -2510  -2721  -2831  -2861  -2879  -2919  -2969  -2995  -2980  -2944  -2914  -2887  -2845  -2797  -2771  -2761  -2740  -2688  -2597  -2463  -2295  -2114  -1931  -1735  -1549  -1453  -1489  -1600  -1694  -1732  -1704  -1598  -1431  -1265  -1151  -1102  -1113  -1172  -1248  -1313  -1353  -1382  -1412  -1389  -1276  -1140  -1012  -768  -209  782  2137  3568  4628  4908  4275  2908  1172  -527  -1870  -2649  -2780  -2403  -1794  -1210  -823  -642  -555  -488  -439  -405  -367  -318  -251  -127  127  537  1008  1386  1595  1674  1692  1695  1721  1795  1908  2025  2131  2265  2482  2767  3020  3174  3274  3405  3572  3710  3795  3866  3971  4116  4277  4421  4516  4558  4570  4575  4581  4590  4567  4434  4155  3828  3602  3490  3365  3129  2814  2500  2211  1949  1723  1514  1285  1058  876  739  606  430  180  -98  -316  -451  -556  -675  -799  -908  -985  -1029  -1060  -1103  -1165  -1225  -1267  -1290  -1306  -1342  -1421  -1561  -1761  -1980  -2163  -2282  -2324  -2264  -2079  -1774  -1393  -1021  -745  -593  -537  -533  -542  -532  -490  -429  -370  -315  -266  -239  -234  -219  -156  -48  55  111  124  121  123  147  209  307  401  455  476  486  481  439  365  285  208  89  -112  -387  -679  -929  -1107  -1208  -1256  -1273  -1275  -1272  -1277  -1298  -1333  -1373  -1410  -1432  -1450  -1492  -1535  -1513  -1341  -875  -27  1091  2242  3156  3561  3237  2157  532  -1259  -2797  -3793  -4186  -4060  -3604  -3064  -2581  -2205  -1976  -1869  -1783  -1669  -1556  -1475  -1426  -1404  -1399  -1404  -1418  -1425  -1377  -1215  -949  -647  -357  -103  123  378  672  939  1155  1366  1574  1745  1899  2099  2355  2614  2839  3044  3244  3422  3556  3644  3702  3750  3778  3757  3691  3623  3563  3490  3400  3287  3096  2803  2469  2153  1848  1531  1191  840  542  364  292  257  210  152  93  31  -16  -27  0  50  95  116  119  115  95  47  -14  -53  -58  -43  -25  -12  0  5  -4  -24  -42  -51  -55  -54  -47  -42  -52  -93  -160  -233  -293  -346  -402  -453  -483  -495  -499  -493  -463  -396  -311  -248  -224  -220  -220  -225  -245  -290  -361  -438  -485  -489  -459  -400  -308  -212  -160  -179  -249  -336  -423  -507  -585  -673  -808  -1001  -1192  -1304  -1332  -1322  -1311  -1312  -1322  -1330  -1327  -1313  -1295  -1264  -1178  -1045  -986  -1068  -1103  -784  59  1355  2779  3846  4129  3473  2098  445  -1068  -2172  -2810  -3076  -3037  -2727  -2236  -1707  -1280  -1014  -868  -783  -733  -691  -628  -536  -415  -238  -12  206  392  566  724  848  938  1000  1042  1089  1177  1321  1495  1655  1790  1923  2063  2197  2327  2479  2658  2826  2943  3001  3040  3115  3245  3392  3498  3530  3507  3469  3431  3383  3293  3123  2892  2675  2517  2379  2195  1956  1689  1420  1170  963  809  684  534  357  218  151  122  88  39  -18  -96  -210  -339  -442  -512  -574  -642  -701  -735  -743  -739  -734  -747  -807  -921  -1058  -1181  -1269  -1311  -1334  -1391  -1514  -1669  -1786  -1835  -1833  -1805  -1753  -1679  -1602  -1553  -1539  -1543  -1549  -1568  -1611  -1671  -1719  -1737  -1726  -1680  -1602  -1508  -1405  -1284  -1143  -987  -808  -623  -481  -393  -332  -286  -259  -240  -223  -221  -262  -355  -466  -554  -604  -627  -641  -654  -646  -594  -510  -432  -383  -371  -398  -444  -457  -396  -263  -57  278  841  1665  2674  3706  4475  4606  3844  2261  284  -1555  -2888  -3591  -3774  -3664  -3411  -3087  -2784  -2578  -2454  -2354  -2250  -2149  -2072  -2028  -1997  -1955  -1878  -1750  -1602  -1497  -1459  -1455  -1454  -1438  -1382  -1242  -988  -643  -275  27  193  231  210  184  182  229  347  532  732  888  997  1088  1167  1221  1240  1230  1204  1164  1104  1036  983  952  931  887  778  608  421  247  77  -119  -328  -489  -585  -665  -754  -820  -845  -849  -862  -898  -956  -1018  -1058  -1053  -990  -889  -793  -735  -709  -702  -703  -712  -724  -728  -719  -707  -699  -698  -697  -681  -636  -567  -505  -471  -462  -465  -470  -473  -475  -479  -497  -545  -613  -668  -678  -634  -553  -476  -429  -413  -423  -443  -455  -461  -466  -469  -472  -475  -470  -436  -353  -229  -102  -2  66  107  121  118  110  103  85  40  -17  -57  -69  -66  -62  -59  -56  -50  -45  -49  -69  -99  -124  -145  -184  -243  -249  -56  431  1230  2300  3479  4450  4851  4481  3450  2048  574  -714  -1656  -2169  -2225  -1903  -1379  -873  -550  -424  -390  -358  -312  -273  -245  -220  -194  -171  -147  -117  -85  -55  -30  -5  24  60  93  128  176  238  304  359  394  423  469  542  634  735  833  907  958  1017  1100  1180  1229  1246  1249  1250  1246  1225  1175  1097  1006  907  783  626  466  345  274  204  62  -148  -334  -428  -450  -448  -451  -468  -499  -538  -574  -588  -559  -495  -419  -343  -265  -186  -103  -14  59  86  62  21  0  -5  -17  -28  8  129  310  469  542  526  443  316  180  79  32  14  -24  -122  -255  -353  -387  -381  -363  -342  -327  -327  -340  -350  -353  -363  -395  -454  -525  -575  -579  -530  -437  -318  -192  -77  12  59  51  2  -52  -99  -155  -227  -305  -376  -429  -456  -463  -461  -459  -461  -473  -496  -525  -547  -564  -590  -628  -681  -741  -748  -660  -507  -269  176  927  1969  3135  4073  4361  3793  2524  933  -545  -1589  -2135  -2290  -2174  -1884  -1504  -1130  -864  -729  -662  -604  -538  -464  -391  -333  -295  -251  -164  -24  124  234  295  331  363  397  436  487  559  648  744  830  905  967  1008  1029  1045  1069  1116  1219  1391  1593  1773  1914  2045  2189  2329  2424  2458  2432  2343  2202  2043  1878  1711  1549  1383  1196  990  788  597  400  189  3  -112  -165  -198  -236  -256  -212  -131  -116  -194  -294  -361  -394  -401  -400  -406  -418  -428  -415  -371  -312  -269  -253  -245  -230  -215  -205  -195  -182  -173  -168  -162  -150  -137  -129  -125  -120  -114  -119  -153  -206  -249  -259  -234  -186  -115  -5  127  224  258  262  266  266  244  217  207  213  237  276  306  314  315  324  346  370  368  317  210  55  -126  -307  -454  -559  -643  -721  -790  -863  -956  -1044  -1093  -1113  -1133  -1167  -1219  -1276  -1321  -1364  -1419  -1458  -1454  -1420  -1317  -987  -301  721  1928  3028  3619  3419  2423  897  -733  -2079  -2922  -3237  -3147  -2816  -2361  -1853  -1382  -1061  -906  -823  -749  -685  -636  -584  -520  -455  -413  -406  -414  -407  -378  -324  -227  -85  52  143  186  206  227  276  356  438  511  616  805  1069  1325  1511  1641  1763  1916  2099  2260  2349  2370  2361  2344  2317  2281  2231  2154  2043  1913  1746  1494  1162  847  659  587  515  346  91  -170  -386  -548  -664  -745  -793  -806  -779  -707  -617  -569  -592  -658  -719  -752  -764  -767  -775  -800  -853  -953  -1095  -1217  -1272  -1291  -1311  -1319  -1299  -1272  -1292  -1368  -1447  -1485  -1486  -1452  -1364  -1204  -1008  -844  -730  -633  -547  -491  -450  -381  -265  -138  -53  -24  -23  -27  -27  -20  -3  24  60  98  132  160  188  239  342  484  610  683  710  713  704  676  621  550  491  459  450  452  453  447  440  441  453  476  509  549  587  617  635  657  695  719  675  556  380  229  327  870  1851  3092  4224  4789  4508  3436  1900  277  -1137  -2152  -2686  -2759  -2435  -1896  -1405  -1084  -879  -724  -589  -480  -413  -379  -354  -331  -320  -342  -418  -527  -609  -613  -524  -371  -217  -112  -53  -15  13  28  33  67  171  336  501  620  689  724  766  846  950  1031  1085  1145  1221  1298  1357  1387  1382  1337  1253  1150  1045  932  777  564  318  70  -157  -334  -448  -549  -700  -886  -1041  -1147  -1250  -1366  -1463  -1517  -1537  -1532  -1509  -1488  -1486  -1492  -1494  -1493  -1508  -1558  -1625  -1661  -1641  -1600  -1573  -1554  -1515  -1425  -1266  -1074  -915  -822  -743  -608  -413  -239  -158  -170  -219  -257  -274  -278  -276  -267  -250  -225  -204  -200  -214  -232  -248  -269  -302  -344  -392  -445  -493  -526  -549  -581  -624  -661  -678  -674  -649  -591  -480  -343  -235  -170  -132  -117  -120  -124  -119  -123  -178  -307  -464  -571  -600  -579  -542  -520  -530  -560  -589  -612  -630  -636  -615  -560  -530  -579  -605  -384  260  1350  2707  3972  4739  4733  3914  2484  809  -742  -1941  -2640  -2759  -2389  -1793  -1252  -937  -835  -827  -832  -841  -867  -908  -940  -935  -878  -779  -678  -614  -587  -575  -561  -539  -511  -473  -408  -294  -129  44  168  231  267  333  483  716  956  1140  1286  1423  1547  1663  1789  1912  2008  2079  2128  2160  2182  2201  2224  2238  2225  2166  2043  1837  1560  1284  1078  936  796  609  378  174  65  45  55  44  5  -32  -45  -45  -45  -47  -63  -102  -155  -197  -218  -224  -226  -230  -231  -233  -244  -275  -317  -343  -338  -320  -303  -271  -203  -111  -31  10  13  -18  -92  -200  -299  -356  -372  -372  -371  -368  -351  -310  -253  -201  -168  -160  -177  -207  -244  -283  -321  -362  -426  -508  -565  -536  -390  -174  9  111  158  194  234  264  279  287  289  258  161  17  -132  -283  -425  -505  -508  -477  -449  -431  -427  -448  -507  -587  -662  -734  -804  -840  -732  -350  333  1258  2364  3535  4511  4923  4508  3337  1745  127  -1142  -1863  -2094  -1984  -1654  -1208  -749  -376  -156  -55  21  115  194  233  244  246  247  248  261  294  333  370  416  474  525  561  612  724  891  1049  1149  1207  1264  1337  1432  1567  1765  1987  2150  2223  2254  2296  2360  2422  2466  2499  2530  2556  2568  2536  2409  2150  1802  1464  1178  919  695  525  344  63  -291  -592  -774  -883  -980  -1071  -1162  -1290  -1474  -1666  -1802  -1864  -1900  -1983  -2156  -2383  -2600  -2788  -2961  -3099  -3188  -3251  -3306  -3338  -3346  -3361  -3387  -3400  -3397  -3399  -3416  -3446  -3463  -3437  -3369  -3285  -3209  -3136  -3028  -2819  -2469  -2052  -1712  -1509  -1378  -1227  -1030  -832  -684  -582  -497  -397  -263  -97  79  245  396  539  666  749  798  860  969  1106  1216  1256  1212  1090  942  828  761  717  681  650  625  590  526  439  376  387  497  672  820  880  876  846  791  711  619  566  643  928  1481  2341  3432  4499  5171  5127  4255  2737  1025  -415  -1371  -1822  -1864  -1680  -1412  -1131  -888  -662  -418  -211  -97  -50  -20  4  32  84  167  258  331  376  393  398  404  417  433  447  457  470  498  541  591  650  717  781  854  950  1057  1145  1203  1256  1349  1520  1740  1922  2015  2050  2079  2107  2111  2086  2046  1993  1917  1811  1662  1473  1280  1100  918  745  620  554  510  454  391  346  328  313  279  224  146  30  -112  -232  -295  -302  -277  -247  -244  -281  -320  -333  -339  -353  -365  -366  -358  -346  -339  -357  -419  -507  -578  -628  -721  -926  -1213  -1453  -1569  -1596  -1597  -1593  -1576  -1525  -1435  -1333  -1241  -1156  -1072  -988  -881  -730  -564  -438  -377  -365  -362  -313  -187  -19  118  196  223  218  196  165  121  51  -62  -237  -458  -668  -813  -893  -951  -1006  -1041  -1052  -1056  -1068  -1086  -1101  -1113  -1120  -1112  -1077  -1032  -1038  -1115  -1178  -1077  -669  75  1054  2112  3020  3459  3174  2147  628  -983  -2310  -3131  -3383  -3171  -2740  -2260  -1763  -1315  -988  -785  -689  -670  -679  -669  -602  -484  -359  -264  -204  -178  -184  -211  -240  -262  -276  -271  -243  -198  -134  -56  23  117  250  415  571  687  771  854  964  1124  1334  1538  1661  1696  1691  1683  1681  1684  1691  1699  1686  1613  1454  1224  976  760  589  434  243  0  -265  -526  -762  -960  -1116  -1226  -1289  -1317  -1328  -1332  -1335  -1336  -1335  -1335  -1334  -1328  -1315  -1299  -1269  -1195  -1069  -913  -762  -655  -613  -620  -651  -686  -708  -712  -696  -654  -582  -490  -397  -304  -219  -165  -150  -148  -139  -128  -145  -198  -252  -277  -279  -278  -287  -297  -276  -184  -28  142  275  342  350  332  316  320  367  467  601  723  797  817  805  795  793  766  649  419  154  -42  -149  -212  -252  -261  -242  -234  -281  -381  -486  -555  -584  -576  -510  -387  -273  -236  -254  -248  -79  446  1403  2617  3810  4695  4908  4187  2656  748  -1011  -2150  -2498  -2278  -1831  -1402  -1116  -952  -778  -517  -235  -48  18  22  19  44  106  187  246  266  263  254  251  267  324  420  523  592  607  591  606  705  877  1067  1244  1426  1609  1744  1820  1890  2004  2158  2309  2431  2534  2632  2710  2730  2678  2584  2489  2386  2257  2105  1926  1711  1489  1291  1100  891  669  479  347  254  171  101  47  -11  -93  -199  -315  -406  -441  -435  -418  -399  -370  -332  -302  -288  -287  -294  -316  -352  -391  -422  -447  -472  -495  -517  -543  -574  -599  -602  -601  -614  -633  -645  -654  -675  -715  -774  -850  -939  -1019  -1072  -1103  -1125  -1149  -1176  -1203  -1225  -1239  -1259  -1305  -1373  -1445  -1506  -1559  -1611  -1650  -1650  -1608  -1546  -1463  -1329  -1146  -969  -863  -833  -848  -893  -962  -1043  -1123  -1204  -1283  -1355  -1416  -1437  -1387  -1277  -1167  -1118  -1143  -1195  -1227  -1235  -1224  -1180  -1100  -1019  -944  -782  -366  439  1616  2952  4063  4499  3951  2485  560  -1226  -2453  -2993  -2985  -2715  -2414  -2110  -1742  -1328  -966  -742  -641  -593  -553  -512  -471  -427  -367  -291  -226  -190  -180  -170  -112  29  215  358  410  393  366  365  389  424  498  654  874  1087  1296  1553  1828  2030  2126  2160  2184  2228  2293  2370  2443  2476  2445  2379  2305  2215  2090  1917  1691  1422  1149  930  793  684  532  331  126  -38  -151  -229  -281  -310  -321  -329  -340  -348  -351  -347  -335  -315  -278  -198  -77  27  67  59  43  40  59  83  87  69  48  27  -6  -73  -160  -229  -266  -282  -285  -266  -213  -143  -83  -51  -68  -126  -183  -211  -216  -212  -206  -201  -200  -203  -205  -208  -218  -232  -221  -127  71  305  465  520  512  492  481  476  462  427  372  311  239  111  -98  -326  -490  -575  -618  -648  -666  -670  -668  -672  -692  -720  -740  -734  -724  -757  -826  -863  -821  -613  -96  798  2010  3317  4294  4470  3628  1989  92  -1521  -2560  -3037  -3106  -2892  -2495  -2014  -1532  -1151  -944  -872  -835  -772  -693  -638  -619  -618  -603  -548  -446  -315  -186  -89  -35  -19  -21  -28  -26  -2  46  118  212  347  543  783  1006  1169  1272  1342  1401  1455  1513  1605  1744  1883  1966  1987  1966  1915  1846  1781  1736  1695  1604  1419  1177  967  808  643  446  249  92  -31  -146  -254  -326  -349  -345  -348  -370  -408  -464  -545  -632  -691  -716  -739  -781  -828  -852  -841  -802  -758  -731  -723  -724  -728  -737  -754  -768  -751  -681  -579  -493  -445  -433  -452  -491  -542  -586  -598  -580  -556  -543  -538  -537  -553  -603  -675  -721  -715  -691  -683  -673  -636  -583  -542  -510  -458  -365  -254  -182  -171  -185  -167  -89  0  35  23  16  20  -14  -142  -353  -562  -693  -739  -761  -824  -938  -1053  -1118  -1133  -1127  -1119  -1104  -1077  -1052  -1069  -1125  -1135  -1083  -1029  -904  -525  180  1162  2310  3382  4008  3857  2854  1261  -454  -1851  -2685  -2961  -2836  -2483  -2051  -1677  -1441  -1319  -1210  -1050  -875  -753  -699  -684  -672  -658  -651  -659  -677  -687  -657  -557  -402  -241  -117  -47  -18  4  54  138  251  423  678  969  1210  1364  1456  1527  1603  1700  1830  1991  2167  2337  2490  2623  2727  2778  2771  2719  2629  2489  2282  2022  1753  1510  1267  995  729  512  339  190  71  0  -33  -60  -108  -170  -216  -237  -254  -284  -325  -361  -380  -371  -316  -219  -125  -86  -108  -162  -229  -308  -386  -439  -454  -442  -408  -368  -340  -331  -333  -334  -329  -320  -315  -318  -342  -389  -440  -484  -528  -559  -562  -540  -508  -485  -479  -482  -467  -418  -352  -306  -293  -296  -290  -263  -226  -193  -162  -130  -88  -23  57  152  258  345  383  359  270  141  7  -126  -259  -375  -478  -587  -686  -747  -771  -783  -798  -807  -805  -811  -843  -884  -907  -921  -965  -1037  -1040  -858  -464  132  906  1797  2737  3584  4041  3830  2884  1373  -307  -1709  -2584  -2893  -2731  -2294  -1767  -1304  -1011  -871  -797  -725  -640  -566  -517  -487  -469  -459  -458  -458  -444  -393  -304  -190  -51  95  193  221  223  250  324  441  560  653  735  838  966  1111  1274  1458  1650  1799  1875  1898  1911  1950  2026  2112  2158  2129  2032  1896  1754  1632  1524  1407  1285  1162  978  684  345  80  -86  -185  -237  -281  -365  -483  -572  -604  -603  -593  -575  -533  -459  -364  -278  -229  -228  -261  -275  -234  -161  -106  -90  -98  -107  -110  -109  -109  -105  -90  -61  -29  -12  -21  -61  -136  -250  -400  -552  -656  -701  -709  -699  -676  -649  -627  -617  -621  -648  -705  -774  -830  -864  -867  -817  -701  -557  -443  -388  -369  -353  -330  -301  -258  -202  -137  -47  82  242  399  514  565  546  445  277  102  -31  -131  -219  -303  -396  -521  -655  -728  -708  -644  -595  -576  -574  -584  -605  -642  -710  -780  -786  -729  -703  -735  -658  -209  731  2020  3293  4117  4225  3598  2393  901  -554  -1745  -2521  -2754  -2477  -1931  -1355  -905  -659  -578  -568  -578  -575  -504  -358  -203  -106  -75  -78  -71  -37  6  44  76  104  122  135  175  264  374  457  518  623  805  1025  1219  1348  1427  1502  1620  1783  1943  2065  2164  2263  2353  2409  2416  2387  2343  2299  2232  2095  1862  1551  1205  881  617  411  255  150  53  -108  -339  -564  -716  -789  -811  -811  -807  -809  -819  -837  -855  -863  -867  -901  -995  -1115  -1190  -1201  -1185  -1170  -1169  -1197  -1264  -1352  -1424  -1460  -1468  -1471  -1483  -1507  -1534  -1544  -1528  -1506  -1488  -1461  -1404  -1331  -1284  -1282  -1303  -1314  -1292  -1232  -1141  -1046  -972  -926  -902  -886  -867  -850  -840  -836  -831  -814  -786  -773  -798  -856  -918  -961  -965  -891  -708  -471  -300  -263  -340  -471  -585  -640  -649  -663  -729  -845  -972  -1081  -1165  -1217  -1232  -1216  -1170  -1110  -1063  -1033  -1002  -958  -917  -904  -911  -915  -893  -833  -755  -718  -734  -678  -317  532  1825  3249  4333  4623  3951  2541  839  -691  -1756  -2324  -2462  -2236  -1766  -1204  -654  -192  107  227  242  244  275  334  405  476  538  586  633  702  791  870  925  973  1044  1156  1273  1331  1324  1324  1373  1436  1505  1654  1919  2209  2408  2496  2533  2570  2631  2714  2799  2859  2888  2897  2896  2895  2906  2951  3045  3157  3215  3142  2902  2531  2150  1879  1718  1588  1432  1231  975  689  446  289  200  142  86  26  -42  -145  -291  -439  -534  -562  -547  -508  -453  -393  -357  -368  -428  -528  -646  -767  -906  -1059  -1172  -1219  -1225  -1222  -1224  -1229  -1225  -1192  -1120  -1023  -933  -869  -824  -797  -811  -867  -942  -1012  -1049  -1040  -1008  -989  -998  -1038  -1091  -1129  -1135  -1114  -1076  -1031  -980  -925  -882  -858  -830  -780  -725  -681  -617  -495  -335  -195  -113  -64  -11  47  77  58  8  -48  -125  -238  -363  -468  -544  -605  -655  -686  -698  -701  -702  -706  -712  -712  -680  -610  -537  -505  -502  -477  -354  -8  689  1705  2811  3727  4139  3761  2615  1049  -539  -1832  -2637  -2936  -2826  -2456  -1987  -1519  -1108  -819  -662  -564  -450  -315  -199  -113  -29  51  102  116  109  99  104  139  205  283  343  373  383  410  496  640  781  867  893  895  912  965  1038  1106  1173  1262  1373  1485  1586  1679  1773  1863  1913  1882  1778  1649  1530  1421  1308  1193  1100  1035  953  773  476  167  -25  -107  -171  -274  -395  -496  -553  -570  -567  -560  -558  -570  -600  -637  -664  -673  -662  -629  -582  -545  -541  -578  -636  -681  -701  -704  -694  -663  -612  -560  -519  -493  -481  -478  -478  -478  -478  -489  -520  -573  -635  -693  -733  -750  -749  -741  -725  -691  -639  -579  -528  -498  -479  -453  -411  -365  -328  -309  -301  -300  -305  -309  -283  -196  -44  126  254  308  313  305  303  305  301  275  214  118  0  -118  -227  -323  -424  -568  -741  -872  -925  -936  -964  -1025  -1092  -1139  -1159  -1148  -1113  -1088  -1080  -1026  -834  -409  337  1415  2634  3607  3946  3447  2183  527  -1006  -2065  -2599  -2704  -2514  -2179  -1785  -1356  -972  -725  -617  -592  -598  -610  -631  -666  -710  -745  -761  -752  -716  -663  -603  -523  -398  -228  -71  25  94  209  380  542  656  766  918  1092  1267  1467  1711  1961  2160  2289  2366  2425  2490  2564  2635  2681  2681  2631  2568  2523  2468  2352  2152  1908  1663  1397  1116  892  763  686  611  520  430  360  295  213  119  37  -7  -14  -5  -4  -31  -90  -159  -214  -255  -284  -301  -309  -308  -300  -291  -285  -280  -262  -198  -89  19  81  93  82  67  47  21  -4  -26  -48  -74  -114  -194  -313  -437  -529  -576  -585  -580  -574  -571  -572  -579  -583  -573  -560  -553  -553  -549  -529  -496  -468  -457  -464  -485  -498  -443  -254  44  322  479  525  488  336  37  -338  -659  -844  -910  -914  -899  -891  -893  -897  -900  -889  -824  -673  -489  -385  -377  -353  -222  0]
