reading_id,reading_time,wire_id,result_classification,heart_rate,heart_rate_alert,firmware_version,device_app_version,hardware_version,waveform_samples
be4566c0-6774-11ed-8080-808080808080,Fri Nov 18 19:11:02 UTC 2022,e100e35f1c39,NSR,75,NONE,20001.171.50,2.10.0,Charge 5,[20375  20433  20486  20405  19942  18981  17713  16288  14574  12677  11085  9986  9178  8536  7996  7440  6864  6368  5883  5132  4025  2837  1870  1203  787  592  612  773  966  1233  1703  2292  2725  2811  2514  1827  712  -768  -2253  -3326  -3961  -4403  -4853  -5441  -6176  -6876  -7350  -7650  -8048  -8771  -9820  -10945  -11852  -12516  -13175  -14024  -14997  -15879  -16560  -17057  -17433  -17809  -18305  -18920  -19487  -19821  -19912  -19884  -19839  -19811  -19823  -19901  -20071  -20344  -20663  -20927  -21105  -21254  -21448  -21695  -21924  -22053  -22080  -22065  -22093  -22220  -22413  -22576  -22670  -22729  -22804  -22914  -23027  -23106  -23132  -23102  -23058  -23046  -23062  -23112  -23223  -23378  -23503  -23544  -23527  -23512  -23517  -23507  -23422  -23234  -22988  -22764  -22571  -22345  -22067  -21732  -21267  -20657  -20009  -19423  -18932  -18531  -18168  -17782  -17361  -16919  -16413  -15760  -15018  -14402  -14031  -13829  -13641  -13366  -13032  -12752  -12572  -12434  -12240  -11937  -11590  -11321  -11154  -11022  -10887  -10749  -10560  -10229  -9759  -9322  -9067  -8953  -8848  -8676  -8438  -8193  -8013  -7917  -7834  -7627  -7219  -6720  -6335  -6156  -6125  -6146  -6168  -6187  -6191  -6121  -5893  -5522  -5142  -4866  -4689  -4512  -4246  -3905  -3585  -3375  -3298  -3306  -3314  -3226  -2977  -2607  -2220  -1853  -1508  -1218  -982  -790  -662  -588  -505  -394  -298  -253  -255  -268  -251  -162  11  225  402  488  491  463  485  640  934  1246  1445  1507  1483  1399  1286  1215  1200  1217  1407  2034  3138  4488  5794  6725  6987  6526  5503  4184  2862  1818  1219  1027  1113  1367  1657  1908  2174  2495  2820  3084  3283  3424  3499  3521  3528  3530  3512  3457  3366  3268  3210  3254  3447  3746  4036  4229  4313  4318  4296  4296  4363  4533  4819  5186  5554  5866  6107  6264  6352  6426  6516  6606  6687  6758  6816  6893  7043  7282  7595  7926  8174  8317  8424  8513  8560  8579  8556  8391  7994  7466  7042  6770  6514  6237  6030  5910  5792  5621  5410  5203  5046  4958  4926  4922  4923  4924  4935  4968  5014  5035  4985  4846  4659  4496  4378  4307  4293  4302  4284  4248  4229  4208  4133  3986  3826  3727  3703  3716  3730  3721  3671  3585  3495  3432  3391  3348  3306  3285  3274  3236  3149  3027  2895  2759  2617  2485  2377  2287  2187  2042  1874  1756  1719  1719  1707  1661  1557  1370  1155  1048  1108  1225  1241  1124  969  859  812  806  806  791  771  775  818  896  983  1052  1091  1107  1114  1119  1122  1128  1145  1150  1052  752  310  -54  -211  -219  -189  -172  -162  -140  -97  -40  31  125  250  393  542  723  1007  1442  1979  2544  3177  4015  5075  6077  6645  6621  6029  4915  3494  2128  1029  320  148  409  759  992  1122  1229  1328  1346  1233  1061  940  895  881  855  799  711  610  538  516  524  533  515  456  372  304  268  241  206  165  125  100  100  125  161  198  260  392  582  756  880  994  1141  1353  1660  2016  2291  2408  2398  2307  2174  2047  1942  1811  1622  1434  1291  1124  840  463  87  -270  -611  -853  -950  -957  -943  -935  -944  -985  -1060  -1147  -1224  -1307  -1422  -1566  -1703  -1787  -1816  -1828  -1843  -1848  -1814  -1726  -1619  -1562  -1572  -1608  -1647  -1716  -1854  -2071  -2327  -2539  -2635  -2617  -2565  -2534  -2494  -2365  -2082  -1691  -1332  -1103  -996  -935  -871  -834  -856  -903  -916  -885  -862  -925  -1068  -1194  -1241  -1236  -1257  -1337  -1428  -1489  -1515  -1517  -1515  -1536  -1587  -1639  -1676  -1716  -1788  -1916  -2100  -2274  -2344  -2293  -2201  -2163  -2182  -2199  -2205  -2235  -2292  -2326  -2271  -2128  -2001  -2008  -2179  -2426  -2619  -2712  -2744  -2753  -2764  -2806  -2901  -3026  -3143  -3270  -3433  -3590  -3667  -3646  -3546  -3346  -2903  -2070  -1034  -208  287  623  928  1313  1930  2828  3904  5069  6144  6673  6338  5288  3843  2387  1347  808  518  302  170  215  435  681  838  910  937  943  951  974  1012  1057  1097  1110  1048  859  575  323  213  245  340  407  425  435  463  495  513  503  496  542  649  803  1005  1268  1579  1868  2086  2286  2565  2946  3352  3687  3919  4075  4188  4273  4325  4355  4396  4458  4514  4548  4566  4580  4578  4477  4125  3458  2688  2152  1942  1859  1705  1429  1070  707  432  280  219  203  197  169  108  36  -12  -29  -27  -15  4  14  -43  -224  -481  -682  -754  -735  -698  -681  -683  -686  -669  -625  -591  -617  -704  -793  -839  -850  -861  -898  -967  -1055  -1123  -1138  -1102  -1059  -1079  -1197  -1376  -1550  -1624  -1557  -1434  -1341  -1266  -1196  -1191  -1301  -1476  -1609  -1658  -1660  -1649  -1632  -1615  -1617  -1631  -1624  -1586  -1541  -1514  -1502  -1492  -1479  -1473  -1484  -1499  -1505  -1506  -1520  -1559  -1580  -1499  -1316  -1138  -990  -778  -512  -353  -403  -589  -762  -852  -886  -903  -908  -906  -943  -1105  -1450  -1873  -2170  -2262  -2229  -2153  -2057  -1927  -1756  -1612  -1630  -1857  -2167  -2354  -2346  -2244  -2070  -1641  -789  416  1707  2768  3265  2939  1835  320  -1212  -2565  -3632  -4284  -4454  -4175  -3592  -2976  -2574  -2425  -2412  -2420  -2364  -2184  -1911  -1669  -1542  -1503  -1498  -1499  -1479  -1395  -1219  -980  -758  -573  -362  -91  179  378  483  522  538  551  560  575  665  928  1348  1757  2005  2090  2096  2090  2093  2132  2265  2494  2718  2844  2892  2938  3039  3203  3378  3492  3523  3488  3406  3296  3145  2893  2497  2034  1655  1427  1275  1079  798  496  235  -5  -267  -511  -656  -690  -671  -659  -688  -764  -853  -905  -908  -890  -863  -818  -762  -748  -815  -925  -1002  -990  -866  -661  -474  -376  -352  -354  -378  -460  -585  -626  -496  -291  -149  -138  -271  -462  -585  -616  -629  -677  -741  -788  -819  -844  -866  -883  -857  -746  -582  -455  -394  -337  -217  -55  60  63  -61  -258  -428  -514  -537  -536  -506  -415  -265  -104  40  158  231  243  188  77  -49  -142  -191  -226  -295  -414  -562  -689  -731  -646  -459  -250  -97  -32  -49  -127  -221  -291  -351  -452  -635  -856  -1013  -1060  -1035  -990  -954  -931  -917  -948  -1074  -1272  -1451  -1553  -1592  -1577  -1466  -1214  -814  -387  -139  0  389  1256  2485  3628  4111  3694  2601  1294  186  -670  -1447  -2091  -2383  -2257  -1833  -1289  -750  -318  -71  11  22  19  4  -22  -62  -116  -157  -137  -32  117  240  312  351  375  409  472  549  609  653  706  756  767  754  771  857  1038  1322  1631  1842  1944  2037  2171  2311  2435  2558  2684  2825  3031  3302  3551  3710  3778  3767  3682  3547  3399  3278  3202  3144  3053  2902  2729  2559  2342  2031  1700  1477  1378  1308  1189  1014  835  714  653  604  555  512  438  314  192  96  -7  -121  -196  -187  -94  32  121  150  150  151  160  172  193  237  287  305  272  184  63  -52  -135  -177  -194  -222  -261  -288  -292  -276  -255  -261  -295  -310  -262  -163  -79  -54  -67  -76  -80  -115  -209  -314  -341  -275  -189  -145  -147  -168  -207  -286  -391  -460  -466  -458  -478  -536  -614  -670  -692  -715  -740  -743  -721  -690  -672  -659  -606  -518  -453  -416  -349  -236  -109  -10  49  80  93  88  44  -79  -310  -598  -836  -971  -1028  -1034  -998  -936  -882  -855  -851  -867  -913  -995  -1091  -1158  -1201  -1241  -1223  -1082  -864  -632  -363  56  733  1610  2440  2867  2617  1714  395  -1051  -2271  -3017  -3250  -3073  -2707  -2332  -2008  -1758  -1576  -1463  -1421  -1425  -1449  -1481  -1519  -1555  -1570  -1535  -1434  -1292  -1145  -983  -802  -647  -554  -514  -504  -505  -502  -493  -481  -455  -398  -318  -218  -92  44  190  357  517  612  627  649  803  1106  1443  1704  1864  1951  1983  1974  1970  2029  2161  2302  2370  2318  2151  1930  1695  1438  1169  936  722  422  -2  -424  -681  -753  -736  -708  -692  -681  -672  -674  -709  -788  -891  -981  -1044  -1100  -1177  -1271  -1341  -1372  -1382  -1370  -1297  -1137  -953  -856  -876  -946  -1011  -1073  -1140  -1212  -1304  -1421  -1545  -1631  -1642  -1608  -1573  -1528  -1449  -1347  -1255  -1201  -1203  -1242  -1245  -1158  -1015  -887  -813  -794  -803  -805  -792  -786  -808  -850  -868  -816  -693  -558  -497  -562  -715  -869  -959  -987  -987  -975  -948  -913  -890  -888  -906  -929  -932  -868  -707  -535  -506  -643  -818  -934  -962  -921  -874  -872  -864  -761  -614  -604  -771  -944  -968  -840  -657  -529  -489  -497  -510  -507  -492  -478  -472  -469  -453  -357  -90  338  835  1336  1791  2125  2275  2177  1792  1245  781  505  338  202  99  60  96  166  211  202  159  110  72  67  145  329  512  563  528  590  912  1593  2628  3786  4582  4606  3810  2408  789  -586  -1485  -1913  -1924  -1631  -1195  -805  -627  -594  -542  -458  -395  -372  -377  -381  -349  -271  -181  -100  -28  7  -13  -53  -76  -87  -95  -75  13  182  367  488  516  472  403  352  325  313  327  408  593  898  1280  1622  1830  1926  1996  2090  2205  2302  2347  2348  2345  2393  2514  2664  2766  2793  2767  2698  2588  2460  2330  2183  1974  1672  1319  1015  776  515  202  -65  -213  -272  -326  -401  -463  -474  -433  -374  -354  -410  -533  -673  -769  -805  -809  -792  -740  -648  -550  -490  -475  -479  -475  -461  -449  -439  -414  -382  -379  -422  -489  -521  -490  -435  -405  -404  -403  -378  -336  -331  -393  -452  -444  -403  -387  -400  -413  -398  -352  -301  -266  -255  -287  -381  -509  -606  -644  -633  -574  -468  -352  -285  -292  -354  -420  -452  -429  -323  -150  1  73  76  17  -114  -283  -404  -438  -404  -333  -249  -188  -189  -248  -318  -367  -399  -427  -429  -349  -194  -58  -1  4  5  11  18  29  69  170  348  562  716  728  587  361  146  -19  -123  -131  -57  16  23  -46  -150  -240  -307  -369  -417  -444  -467  -501  -511  -447  -335  -257  -249  -178  292  1345  2750  4103  5044  5248  4581  3243  1597  -9  -1243  -1859  -1880  -1581  -1242  -1018  -948  -953  -932  -814  -589  -337  -166  -99  -94  -110  -124  -107  -30  94  217  318  416  495  534  550  575  614  637  616  559  489  423  381  386  463  609  774  926  1088  1297  1518  1676  1777  1897  2066  2240  2360  2411  2428  2472  2568  2693  2809  2887  2886  2755  2499  2189  1901  1648  1392  1131  899  697  499  308  148  22  -91  -223  -403  -637  -873  -1033  -1098  -1115  -1139  -1201  -1315  -1450  -1547  -1579  -1563  -1538  -1529  -1547  -1595  -1670  -1741  -1739  -1607  -1380  -1176  -1080  -1085  -1137  -1183  -1182  -1141  -1101  -1086  -1075  -1015  -875  -704  -583  -535  -536  -591  -728  -910  -1042  -1084  -1069  -1039  -1012  -1001  -1037  -1147  -1300  -1420  -1465  -1456  -1415  -1339  -1222  -1098  -1018  -991  -987  -982  -972  -974  -1004  -1051  -1092  -1118  -1140  -1161  -1163  -1130  -1082  -1052  -1043  -1044  -1049  -1063  -1091  -1107  -1045  -844  -558  -319  -191  -135  -92  -32  40  79  -15  -319  -736  -1059  -1211  -1262  -1262  -1214  -1140  -1081  -1060  -1089  -1172  -1278  -1347  -1353  -1329  -1318  -1332  -1361  -1353  -1269  -1200  -1211  -1089  -620  129  1082  2182  3139  3619  3496  2727  1376  -215  -1603  -2487  -2758  -2530  -2068  -1582  -1179  -919  -791  -716  -654  -602  -546  -477  -409  -357  -318  -288  -243  -140  38  248  411  509  550  515  383  187  8  -92  -118  -104  -70  -2  155  433  757  1017  1169  1239  1270  1302  1352  1412  1480  1563  1664  1774  1902  2102  2394  2688  2875  2957  3002  3041  3067  3060  2980  2788  2486  2139  1831  1599  1424  1290  1195  1120  1028  875  630  322  36  -166  -285  -367  -446  -492  -489  -494  -505  -462  -398  -385  -414  -434  -433  -424  -419  -406  -356  -271  -208  -216  -275  -341  -371  -365  -391  -469  -535  -527  -437  -302  -193  -159  -209  -341  -507  -632  -691  -709  -706  -686  -647  -588  -498  -349  -150  39  173  249  283  291  271  216  138  62  7  -13  16  89  192  326  491  625  624  460  211  -3  -99  -79  -5  83  167  223  247  254  264  293  344  399  438  463  476  439  312  147  39  26  75  139  207  296  413  528  601  623  609  562  476  377  312  297  293  250  144  -5  -162  -301  -422  -531  -614  -651  -646  -620  -598  -592  -601  -631  -685  -709  -664  -502  -44  777  1742  2671  3545  4207  4417  4127  3378  2191  766  -516  -1394  -1879  -1993  -1680  -1171  -855  -769  -723  -614  -458  -333  -310  -368  -428  -439  -400  -339  -286  -235  -171  -91  -19  0  -64  -191  -264  -169  67  309  470  560  625  709  833  972  1096  1210  1322  1412  1469  1498  1521  1571  1664  1784  1896  1989  2086  2193  2279  2321  2338  2364  2437  2564  2705  2796  2755  2511  2094  1642  1284  1017  763  503  280  91  -113  -342  -558  -743  -901  -1015  -1083  -1127  -1159  -1184  -1224  -1285  -1347  -1377  -1357  -1282  -1163  -1027  -915  -848  -819  -819  -849  -903  -950  -974  -996  -1024  -1038  -1030  -1008  -990  -985  -974  -915  -773  -586  -448  -401  -409  -425  -434  -450  -497  -594  -747  -928  -1078  -1151  -1160  -1151  -1163  -1204  -1241  -1224  -1136  -1033  -999  -1042  -1094  -1109  -1080  -1014  -923  -832  -767  -733  -719  -749  -868  -1044  -1150  -1102  -948  -801  -733  -754  -854  -1015  -1149  -1135  -989  -860  -840  -894  -936  -918  -867  -817  -766  -703  -636  -595  -617  -717  -854  -956  -998  -1010  -1010  -966  -838  -659  -522  -467  -466  -513  -628  -790  -923  -989  -1013  -1041  -1103  -1187  -1254  -1284  -1294  -1299  -1292  -1238  -1108  -921  -779  -798  -957  -1086  -945  -317  779  2009  2969  3405  3259  2662  1775  717  -398  -1380  -2031  -2386  -2543  -2422  -1984  -1340  -709  -331  -283  -468  -727  -897  -846  -534  -89  266  462  602  767  937  1070  1145  1164  1143  1111  1100  1127  1192  1255  1282  1285  1285  1295  1339  1440  1586  1740  1895  2074  2277  2472  2638  2770  2864  2935  2997  3040  3054  3051  3047  3050  3061  3067  3026  2888  2666  2443  2286  2198  2135  2019  1772  1366  877  483  298  250  194  72  -66  -167  -260  -413  -649  -897  -1052  -1096  -1097  -1119  -1166  -1209  -1234  -1242  -1222  -1151  -1031  -910  -834  -802  -784  -768  -766  -788  -834  -896  -949  -966  -943  -901  -879  -891  -897  -859  -802  -756  -724  -710  -716  -726  -696  -579  -387  -182  -19  88  148  164  145  112  88  67  26  -32  -85  -104  -76  -13  45  84  114  136  136  109  30  -89  -194  -277  -394  -547  -665  -711  -706  -665  -583  -484  -418  -422  -502  -636  -771  -852  -863  -839  -816  -784  -684  -484  -245  -76  -18  -24  -30  -37  -94  -230  -422  -612  -738  -782  -768  -714  -628  -530  -462  -475  -587  -756  -913  -1016  -1054  -1026  -918  -725  -520  -416  -468  -615  -758  -890  -1043  -1080  -775  -77  892  1925  2755  3191  3175  2669  1674  394  -820  -1718  -2234  -2408  -2364  -2274  -2120  -1761  -1305  -995  -870  -790  -653  -490  -380  -343  -345  -355  -365  -383  -414  -436  -383  -195  76  293  384  392  382  375  359  332  316  328  347  378  509  816  1225  1563  1744  1815  1846  1878  1943  2058  2188  2272  2300  2310  2336  2391  2466  2534  2566  2553  2508  2455  2414  2388  2360  2293  2143  1857  1406  864  384  92  -7  -17  -73  -269  -582  -883  -1073  -1138  -1127  -1101  -1094  -1109  -1127  -1114  -1036  -886  -716  -592  -540  -578  -730  -953  -1134  -1206  -1190  -1146  -1114  -1101  -1098  -1095  -1093  -1104  -1138  -1188  -1219  -1182  -1042  -827  -649  -621  -726  -865  -985  -1087  -1165  -1203  -1175  -1061  -897  -767  -706  -682  -662  -655  -705  -824  -927  -920  -844  -793  -786  -794  -789  -753  -693  -628  -566  -514  -486  -500  -564  -661  -754  -827  -879  -914  -917  -867  -744  -568  -418  -365  -371  -350  -284  -198  -113  -51  -34  -80  -204  -376  -522  -592  -608  -610  -589  -460  -173  172  402  446  356  224  115  46  12  8  23  23  -26  -110  -167  -183  -196  -225  -264  -305  -340  -358  -360  -373  -426  -526  -668  -831  -915  -800  -532  -289  -90  279  1028  2158  3363  4167  4299  3756  2723  1552  493  -437  -1199  -1654  -1714  -1416  -966  -587  -321  -116  28  110  165  216  260  278  256  218  193  185  183  182  179  185  234  363  551  725  851  949  1027  1073  1081  1069  1056  1044  1035  1052  1132  1285  1487  1737  2047  2388  2685  2888  3015  3133  3275  3419  3535  3626  3698  3750  3779  3778  3732  3632  3479  3277  3023  2726  2422  2166  1991  1883  1797  1700  1570  1371  1101  818  547  271  26  -110  -138  -124  -113  -106  -91  -55  -4  34  32  -10  -59  -90  -106  -115  -114  -79  8  139  267  345  367  370  398  445  463  436  387  329  242  125  7  -97  -190  -253  -289  -309  -284  -134  172  523  743  742  550  277  42  -134  -278  -373  -405  -401  -379  -338  -280  -223  -196  -235  -364  -539  -666  -701  -682  -662  -703  -845  -1042  -1189  -1233  -1189  -1082  -932  -794  -727  -712  -678  -620  -589  -621  -707  -797  -846  -860  -858  -824  -738  -618  -510  -422  -340  -296  -333  -441  -564  -649  -676  -641  -534  -383  -280  -339  -613  -1003  -1317  -1476  -1531  -1542  -1535  -1523  -1516  -1515  -1512  -1500  -1486  -1506  -1581  -1629  -1554  -1444  -1409  -1291  -809  141  1415  2630  3273  3079  2227  1043  -238  -1470  -2491  -3106  -3215  -2871  -2304  -1859  -1674  -1623  -1587  -1546  -1494  -1411  -1297  -1171  -1025  -855  -691  -571  -508  -491  -493  -497  -492  -466  -404  -310  -218  -167  -154  -163  -184  -210  -196  -68  182  447  624  712  751  773  805  864  984  1186  1413  1566  1627  1644  1668  1736  1866  2018  2133  2215  2302  2361  2342  2266  2158  1975  1679  1306  954  727  652  648  537  136  -516  -1109  -1400  -1438  -1397  -1366  -1344  -1302  -1234  -1167  -1127  -1114  -1112  -1109  -1106  -1116  -1154  -1226  -1318  -1411  -1502  -1580  -1610  -1544  -1362  -1131  -959  -904  -986  -1222  -1534  -1764  -1840  -1796  -1660  -1437  -1182  -999  -964  -1081  -1271  -1404  -1402  -1289  -1148  -1029  -954  -981  -1111  -1238  -1297  -1321  -1347  -1361  -1359  -1385  -1451  -1503  -1485  -1403  -1302  -1228  -1195  -1186  -1178  -1169  -1172  -1212  -1287  -1337  -1323  -1285  -1267  -1248  -1188  -1073  -935  -823  -746  -692  -658  -618  -524  -370  -203  -63  35  100  136  145  134  129  156  232  339  440  512  553  564  517  380  190  41  -15  19  128  268  374  412  403  376  340  288  231  202  240  353  484  555  528  489  690  1319  2268  3318  4227  4644  4312  3266  1770  233  -906  -1466  -1600  -1513  -1244  -816  -396  -97  115  260  318  301  266  277  334  384  394  368  325  298  346  540  854  1146  1312  1373  1388  1357  1260  1127  1037  1029  1076  1153  1246  1340  1421  1494  1587  1709  1839  1967  2097  2221  2320  2394  2482  2638  2869  3104  3260  3320  3324  3310  3311  3342  3367  3299  3085  2761  2419  2148  1985  1870  1704  1464  1200  928  616  274  -37  -270  -410  -484  -531  -550  -549  -538  -517  -494  -488  -507  -540  -582  -645  -744  -866  -968  -984  -867  -642  -390  -185  -66  -32  -75  -201  -369  -477  -468  -376  -279  -225  -219  -264  -364  -504  -631  -703  -737  -770  -776  -662  -413  -158  -10  31  26  16  10  2  -16  -47  -79  -92  -74  -38  -10  0  -5  -25  -60  -113  -203  -334  -436  -391  -148  232  620  866  882  658  273  -96  -304  -352  -329  -300  -266  -200  -106  -20  45  106  167  201  191  163  129  38  -149  -392  -615  -786  -934  -1096  -1284  -1469  -1624  -1759  -1864  -1888  -1821  -1724  -1677  -1765  -1971  -2141  -2228  -2290  -2297  -2241  -2114  -1724  -879  331  1529  2292  2363  1769  842  -84  -979  -1898  -2750  -3412  -3759  -3676  -3230  -2624  -2051  -1667  -1498  -1422  -1299  -1093  -884  -757  -715  -714  -726  -740  -730  -671  -577  -485  -413  -351  -303  -277  -263  -225  -122  37  202  352  502  651  781  882  963  1066  1212  1351  1435  1470  1504  1596  1742  1869  1956  2057  2184  2304  2420  2550  2672  2732  2646  2364  1981  1667  1465  1321  1224  1178  1127  986  711  303  -199  -662  -919  -930  -810  -730  -797  -969  -1139  -1243  -1282  -1283  -1253  -1188  -1120  -1095  -1117  -1142  -1123  -1053  -1016  -1107  -1298  -1499  -1664  -1778  -1796  -1674  -1431  -1145  -880  -652  -479  -389  -372  -380  -387  -404  -453  -522  -556  -501  -380  -288  -289  -351  -412  -433  -422  -414  -440  -490  -528  -551  -617  -752  -897  -967  -909  -758  -627  -580  -583  -587  -562  -499  -419  -338  -267  -213  -191  -242  -358  -455  -491  -505  -546  -605  -639  -624  -537  -354  -131  25  85  88  72  60  84  182  365  570  710  760  762  744  699  614  507  421  381  378  386  374  308  167  -15  -159  -192  -112  3  84  112  79  0  -66  -88  -109  -217  -435  -638  -672  -489  -47  764  1907  3014  3651  3683  3219  2419  1469  497  -459  -1336  -2002  -2316  -2259  -1948  -1480  -959  -562  -383  -355  -334  -232  -71  68  146  171  166  142  113  112  164  244  300  313  295  277  279  305  362  456  576  711  841  929  946  931  991  1227  1600  1934  2106  2147  2168  2253  2403  2559  2697  2854  3055  3283  3489  3599  3545  3317  3019  2794  2674  2601  2534  2466  2388  2296  2177  1985  1674  1281  919  650  420  161  -112  -330  -445  -472  -438  -338  -182  -32  44  36  -18  -72  -109  -140  -165  -182  -206  -253  -315  -372  -432  -519  -611  -669  -668  -588  -462  -361  -307  -258  -190  -164  -251  -408  -550  -629  -625  -573  -536  -525  -460  -257  33  277  412  449  391  272  174  139  142  150  155  159  166  178  192  206  198  120  -49  -223  -275  -234  -230  -301  -376  -358  -238  -118  -80  -113  -168  -207  -234  -278  -340  -391  -437  -505  -583  -643  -674  -655  -594  -543  -536  -561  -594  -636  -719  -832  -871  -752  -527  -316  -175  -91  -52  -45  -47  -48  -65  -136  -294  -547  -858  -1132  -1268  -1265  -1210  -1175  -1162  -1135  -1070  -994  -945  -929  -932  -955  -1008  -1061  -1090  -1109  -1074  -915  -659  -332  132  786  1583  2377  2910  2912  2349  1458  453  -565  -1511  -2226  -2531  -2400  -1948  -1371  -944  -776  -720  -615  -439  -267  -168  -134  -112  -70  -21  -40  -185  -384  -508  -523  -479  -435  -407  -375  -308  -187  -20  161  351  525  631  665  664  656  645  626  600  586  593  621  695  871  1167  1522  1826  1999  2061  2093  2163  2274  2370  2402  2355  2229  2021  1772  1563  1447  1392  1312  1154  904  580  231  -68  -273  -392  -486  -610  -762  -893  -980  -1047  -1130  -1228  -1307  -1345  -1354  -1342  -1294  -1210  -1136  -1127  -1157  -1147  -1058  -963  -999  -1189  -1387  -1477  -1478  -1464  -1463  -1408  -1216  -938  -730  -687  -786  -930  -1033  -1074  -1083  -1081  -1057  -974  -835  -707  -630  -578  -538  -525  -544  -594  -661  -716  -751  -771  -767  -712  -580  -393  -217  -103  -54  -50  -71  -90  -92  -106  -195  -349  -479  -531  -538  -552  -585  -597  -549  -447  -321  -207  -141  -100  -28  62  123  149  164  174  155  89  0  -66  -80  -44  35  134  205  220  180  105  28  -21  -34  -7  67  169  252  299  326  320  207  -55  -372  -583  -645  -630  -608  -600  -598  -591  -579  -571  -573  -584  -608  -650  -707  -772  -853  -939  -1006  -1030  -963  -807  -629  -396  -12  554  1354  2423  3576  4360  4329  3398  1833  61  -1364  -2027  -2081  -1955  -1781  -1537  -1339  -1256  -1187  -1010  -757  -575  -542  -619  -741  -861  -939  -968  -958  -905  -801  -673  -573  -520  -501  -479  -427  -356  -308  -292  -263  -156  60  330  534  613  611  591  607  719  947  1209  1392  1487  1582  1735  1951  2234  2544  2775  2860  2826  2742  2663  2594  2508  2404  2304  2200  2070  1934  1837  1763  1625  1359  1000  638  336  134  49  53  89  87  -44  -342  -699  -947  -1033  -1029  -1004  -970  -919  -859  -816  -793  -779  -773  -792  -850  -943  -1042  -1105  -1111  -1074  -1029  -1006  -1005  -1011  -1019  -1025  -1018  -992  -958  -939  -938  -935  -936  -966  -1012  -1042  -1051  -1050  -1044  -1036  -1029  -1032  -1039  -1023  -941  -788  -627  -531  -502  -476  -414  -338  -292  -285  -292  -295  -305  -331  -362  -366  -329  -272  -214  -149  -60  45  167  301  430  522  581  631  677  713  745  779  807  817  792  718  619  544  517  521  533  530  484  376  241  147  122  140  181  255  372  519  654  735  760  749  704  616  474  274  22  -248  -472  -595  -632  -627  -588  -491  -361  -271  -281  -393  -542  -646  -672  -651  -631  -620  -566  -487  -446  -278  307  1320  2480  3447  3891  3610  2663  1358  61  -988  -1663  -1995  -2176  -2219  -2005  -1636  -1342  -1213  -1193  -1160  -1022  -820  -673  -616  -573  -489  -379  -284  -230  -206  -181  -123  -19  104  191  220  207  171  128  94  74  65  73  126  248  418  593  783  1041  1363  1663  1856  1950  2016  2110  2233  2359  2484  2605  2715  2818  2909  2985  3015  2922  2694  2442  2261  2157  2103  2053  1927  1672  1343  1068  907  829  771  674  507  317  173  99  65  0  -172  -446  -721  -899  -951  -856  -586  -217  90  279  396  466  486  455  374  263  151  42  -37  -41  21  98  171  232  266  270  268  288  325  341  304  205  78  -36  -131  -197  -227  -241  -277  -370  -519  -693  -851  -958  -998  -946  -781  -557  -390  -326  -324  -352  -417  -525  -652  -786  -943  -1110  -1234  -1270  -1171  -898  -541  -276  -178  -194  -278  -406  -547  -664  -732  -752  -748  -743  -742  -738  -724  -691  -638  -573  -506  -435  -361  -287  -215  -158  -83  65  269  448  580  680  716  633  435  207  49  -17  -29  -24  -18  -9  3  7  -41  -192  -439  -717  -906  -899  -717  -506  -384  -367  -399  -427  -439  -424  -346  -181  -41  -117  -258  52  1017  2282  3419  4127  4144  3596  2939  2220  1225  128  -828  -1582  -1966  -1846  -1385  -890  -567  -436  -423  -439  -436  -427  -433  -449  -457  -452  -447  -449  -446  -418  -349  -239  -121  -46  -31  -46  -61  -70  -88  -128  -184  -225  -223  -172  -85  29  189  370  500  556  591  647  685  654  605  637  795  1051  1344  1651  1995  2342  2586  2695  2735  2740  2647  2368  1937  1501  1166  917  680  442  256  140  53  -40  -156  -317  -503  -652  -748  -823  -858  -846  -843  -873  -904  -913  -876  -792  -709  -658  -623  -579  -522  -488  -507  -557  -589  -580  -533  -462  -386  -319  -273  -252  -237  -191  -91  7  18  -68  -188  -278  -319  -332  -343  -351  -356  -383  -461  -571  -661  -711  -740  -768  -809  -856  -886  -888  -877  -873  -882  -892  -906  -947  -1033  -1137  -1215  -1253  -1272  -1279  -1267  -1247  -1233  -1225  -1220  -1224  -1255  -1321  -1398  -1448  -1461  -1454  -1444  -1440  -1442  -1444  -1430  -1388  -1329  -1289  -1294  -1338  -1376  -1357  -1284  -1202  -1143  -1111  -1084  -1009  -855  -669  -536  -499  -574  -764  -1009  -1182  -1204  -1082  -887  -721  -646  -648  -696  -768  -849  -903  -905  -876  -865  -896  -907  -756  -428  -86  207  534  968  1614  2588  3766  4687  4908  4254  2796  931  -767  -1942  -2480  -2371  -1782  -1109  -673  -477  -381  -294  -170  -30  62  86  72  49  50  123  296  509  657  698  679  676  733  832  927  1010  1083  1128  1133  1126  1152  1255  1426  1610  1756  1846  1890  1920  1977  2084  2216  2316  2384  2477  2627  2814  3004  3187  3364  3512  3593  3592  3527  3442  3378  3322  3212  3005  2711  2349  1943  1548  1207  890  538  180  -72  -182  -214  -232  -249  -253  -243  -236  -267  -367  -510  -613  -603  -464  -263  -115  -66  -72  -73  -45  0  45  97  153  194  213  226  241  256  286  368  525  724  880  940  914  828  711  601  535  522  543  572  560  419  111  -258  -526  -627  -607  -512  -356  -185  -69  -34  -62  -135  -216  -242  -173  -48  51  87  79  49  -17  -137  -296  -472  -633  -734  -772  -808  -906  -1050  -1164  -1203  -1199  -1224  -1328  -1484  -1603  -1643  -1630  -1607  -1594  -1565  -1488  -1386  -1301  -1226  -1144  -1075  -1041  -1035  -1037  -1044  -1065  -1114  -1206  -1350  -1531  -1705  -1815  -1831  -1777  -1698  -1615  -1528  -1433  -1359  -1353  -1419  -1522  -1642  -1794  -2000  -2241  -2400  -2336  -2054  -1709  -1319  -708  254  1515  2749  3450  3224  2062  387  -1242  -2471  -3211  -3567  -3705  -3660  -3383  -2995  -2708  -2554  -2452  -2364  -2294  -2263  -2276  -2307  -2328  -2331  -2321  -2292  -2241  -2182  -2139  -2120  -2118  -2139  -2210  -2350  -2510  -2577  -2485  -2290  -2107  -2010  -2034  -2188  -2415  -2600  -2679  -2637  -2473  -2247  -2065  -1960  -1874  -1742  -1544  -1330  -1177  -1109  -1104  -1151  -1267  -1467  -1668  -1690  -1534  -1438  -1498  -1744  -2281  -2927  -3318  -3443  -3563  -3842  -4283  -4831  -5365  -5708  -5860  -5996  -6170  -6321  -6452  -6604  -6798  -7013  -7175  -7254  -7314  -7412  -7517  -7588  -7647  -7744  -7908  -8116  -8277  -8366  -8382  -7885  -5983  -2349  2025  5625  7707  8557  8850  9035  9207  9332  9432  9564  9688  9681  9495  9198  8866  8560  8335  8200  8136  8110  8066  7929  7658  7275  6860  6517  6307  6216  6196  6208  6233  6262  6291  6312  6324  6329  6334  6337  6335  6318  6282  6225  6145  6054  5978  5932  5921  5954  6021  6063  5991  5768  5475  5230  5104  5088  5108  5074  4928  4705  4517  4413  4324  4171  3941  3651  3300  2900  2480  2111  1891  1839  1877  1912  1850  1630  1308  1027  861  794  754  685  635  605  487  315  283  592  1420  2780  4249  5103  4832  3457  1481  -314  -1347  -1655  -1661  -1666  -1740  -1823  -1842  -1783  -1655  -1470  -1255  -1030  -840  -754  -763  -827  -945  -1107  -1260  -1356  -1341  -1162  -846  -533  -361  -379  -577  -887  -1163  -1286  -1219  -970  -587  -201  56  176  227  256  319  488  751  1010  1190  1281  1320  1359  1446  1600  1797  1966  2033  1984  1886  1806  1754  1707  1637  1519  1369  1232  1111  916  550  43  -456  -815  -1040  -1241  -1473  -1683  -1808  -1855  -1864  -1848  -1800  -1742  -1737  -1831  -2000  -2165  -2280  -2357  -2440  -2538  -2596  -2532  -2335  -2156  -2184  -2374  -2491  -2415  -2205  -2015  -1994  -2099  -2164  -2134  -2083  -2065  -2080  -2107  -2133  -2159  -2187  -2211  -2223  -2217  -2173  -2070  -1904  -1703  -1515  -1374  -1290  -1255  -1253  -1273  -1312  -1355  -1390  -1418  -1443  -1455  -1451  -1451  -1488  -1557  -1618  -1642  -1634  -1604  -1569  -1544  -1533  -1531  -1539  -1576  -1659  -1771  -1849  -1812  -1628  -1374  -1191  -1117  -1059  -924  -727  -567  -508  -528  -568  -594  -615  -659  -754  -909  -1081  -1209  -1282  -1313  -1311  -1301  -1304  -1307  -1292  -1251  -1177  -1060  -868  -641  -545  -671  -945  -1185  -1130  -623  310  1569  2894  3845  4111  3620  2394  716  -809  -1737  -2023  -1858  -1588  -1476  -1467  -1417  -1294  -1099  -833  -552  -342  -247  -246  -282  -317  -335  -344  -358  -391  -441  -497  -528  -490  -350  -146  38  183  327  473  569  584  540  492  501  608  818  1085  1326  1485  1554  1563  1541  1496  1428  1379  1454  1732  2141  2505  2719  2797  2803  2796  2792  2769  2683  2495  2202  1859  1545  1295  1095  940  839  779  711  573  367  142  -102  -384  -664  -878  -997  -1040  -1037  -965  -772  -499  -281  -191  -196  -240  -292  -337  -373  -406  -444  -488  -507  -481  -438  -423  -449  -500  -543  -567  -585  -603  -613  -613  -610  -623  -677  -778  -896  -991  -1049  -1089  -1140  -1212  -1274  -1278  -1200  -1060  -902  -766  -636  -479  -317  -247  -354  -630  -949  -1168  -1247  -1236  -1205  -1193  -1204  -1207  -1166  -1062  -917  -783  -690  -636  -612  -618  -634  -606  -537  -501  -524  -551  -537  -469  -337  -147  49  210  322  340  206  -40  -293  -456  -496  -481  -513  -616  -733  -792  -788  -803  -905  -1077  -1254  -1376  -1423  -1407  -1350  -1295  -1252  -1157  -1009  -809  -417  256  1130  2062  2835  3106  2662  1641  330  -951  -1828  -2182  -2191  -2006  -1782  -1706  -1765  -1810  -1748  -1535  -1214  -942  -827  -831  -888  -931  -845  -629  -437  -353  -332  -329  -331  -339  -350  -354  -334  -278  -201  -127  -43  70  197  320  452  615  809  1003  1172  1334  1527  1763  2013  2237  2426  2614  2794  2927  3046  3230  3453  3596  3626  3613  3614  3627  3624  3594  3545  3465  3342  3165  2904  2546  2139  1722  1321  993  782  665  599  564  539  501  433  330  185  22  -84  -101  -42  62  159  199  185  145  98  39  -33  -90  -88  -5  148  306  401  427  419  395  352  297  253  227  212  206  215  235  259  284  299  290  251  196  154  135  135  148  165  154  65  -109  -304  -439  -484  -452  -392  -329  -265  -204  -165  -159  -172  -186  -197  -211  -243  -287  -321  -335  -351  -395  -470  -547  -591  -593  -563  -527  -508  -507  -512  -516  -516  -513  -508  -500  -482  -432  -334  -219  -124  -41  55  164  255  278  161  -162  -629  -1014  -1169  -1135  -1018  -937  -960  -1046  -1136  -1204  -1263  -1339  -1419  -1463  -1464  -1434  -1390  -1346  -1275  -1150  -1009  -805  -327  585  1865  3215  4148  4263  3562  2359  983  -340  -1512  -2460  -3029  -3106  -2742  -2133  -1577  -1271  -1105  -812  -305  210  471  414  166  -120  -361  -518  -584  -584  -561  -548  -555  -576  -597  -611  -624  -615  -519  -292  -4  206  289  325  417  597  796  914  935  925  929  938  940  968  1075  1273  1519  1779  2039  2288  2494  2623  2682  2712  2731  2727  2678  2571  2404  2195  1968  1742  1544  1377  1160  785  303  -70  -218  -217  -182  -175  -218  -315  -443  -573  -710  -857  -972  -1005  -953  -862  -793  -770  -790  -849  -926  -983  -1005  -993  -949  -887  -838  -816  -813  -814  -813  -815  -834  -869  -903  -938  -992  -1044  -1068  -1071  -1067  -1066  -1076  -1096  -1117  -1127  -1116  -1075  -990  -855  -677  -481  -297  -154  -67  -35  -42  -75  -122  -164  -181  -166  -131  -111  -136  -191  -241  -269  -284  -305  -328  -321  -267  -199  -134  -49  65  196  314  381  392  380  381  405  438  473  521  586  672  781  888  957  977  955  908  864  843  845  854  833  752  625  468  281  83  -87  -208  -244  -192  -142  -182  -297  -420  -500  -529  -516  -449  -327  -206  -140  -97  -5  210  598  1145  1800  2495  3154  3614  3627  3121  2252  1179  41  -934  -1490  -1591  -1415  -1068  -678  -458  -398  -340  -268  -234  -223  -180  -58  138  330  440  466  447  408  353  293  244  222  215  184  98  -18  -110  -160  -182  -177  -132  -23  166  395  589  724  846  1003  1185  1349  1468  1548  1605  1655  1700  1727  1728  1726  1759  1854  1982  2084  2129  2133  2122  2108  2074  1985  1757  1296  628  -73  -607  -875  -933  -912  -884  -859  -837  -843  -907  -1042  -1229  -1437  -1617  -1725  -1764  -1770  -1751  -1686  -1587  -1547  -1644  -1828  -1980  -2022  -1959  -1860  -1776  -1706  -1653  -1642  -1689  -1791  -1941  -2122  -2309  -2469  -2601  -2723  -2856  -3006  -3148  -3240  -3271  -3271  -3278  -3304  -3342  -3384  -3439  -3544  -3725  -3923  -4047  -4082  -4091  -4122  -4169  -4218  -4271  -4324  -4390  -4503  -4638  -4717  -4663  -4447  -4167  -3990  -4008  -4211  -4487  -4686  -4751  -4731  -4674  -4597  -4512  -4432  -4369  -4330  -4315  -4314  -4311  -4289  -4237  -4169  -4115  -4093  -4104  -4144  -4196  -4188  -4014  -3587  -2744  -1277  645  2330  3214  3390  3304  3226  3187  3170  3206  3306  3414  3465  3476  3548  3697  3827  3881  3906  3968  4082  4218  4344  4433  4473  4471  4455  4437  4397  4309  4200  4224  4520  5049  5734  6452  6942  7061  6831  6197  5164  3942  2704  1573  808  628  993  1687  2413  2877  3015  3011  3013  3027  3042  3068  3109  3160  3203  3198  3112  2981  2873  2820  2798  2756  2665  2556  2481  2468  2519  2586  2612  2603  2597  2629  2723  2876  3043  3177  3279  3367  3441  3478  3487  3520  3633  3814  4003  4169  4298  4367  4378  4366  4360  4355  4303  4151  3907  3645  3394  3117  2793  2463  2147  1815  1480  1203  966  710  446  240  104  7  -80  -169  -244  -286  -314  -390  -568  -831  -1074  -1196  -1200  -1129  -953  -639  -289  -61  5  -24  -99  -197  -281  -314  -297  -275  -325  -484  -682  -828  -915  -970  -998  -992  -952  -896  -853  -826  -800  -778  -805  -929  -1135  -1352  -1536  -1703  -1878  -2036  -2114  -2089  -2007  -1900  -1743  -1528  -1331  -1224  -1195  -1188  -1177  -1188  -1268  -1450  -1735  -2049  -2279  -2382  -2408  -2412  -2435  -2490  -2552  -2580  -2559  -2471  -2296  -2067  -1876  -1798  -1840  -1961  -2119  -2268  -2343  -2318  -2242  -2187  -2182  -2192  -2156  -2038  -1876  -1748  -1664  -1576  -1477  -1408  -1389  -1404  -1413  -1380  -1276  -1098  -909  -823  -910  -1130  -1385  -1589  -1698  -1724  -1717  -1710  -1699  -1659  -1568  -1435  -1302  -1217  -1181  -1178  -1229  -1372  -1584  -1800  -2004  -2250  -2535  -2695  -2582  -2250  -1712  -825  408  1771  3013  3847  3983  3366  2223  828  -635  -2007  -3043  -3441  -3157  -2569  -2104  -1906  -1878  -1835  -1683  -1471  -1276  -1113  -952  -782  -630  -537  -492  -436  -332  -194  -55  55  120  141  130  91  36  -7  1  111  332  591  790  895  946  991  1039  1085  1145  1243  1399  1626  1888  2114  2256  2290  2224  2128  2132  2331  2670  2983  3163  3226  3229  3188  3079  2913  2742  2589  2403  2086  1581  1003  583  410  379  349  238  48  -173  -366  -477  -514  -532  -579  -658  -725  -724  -662  -606  -603  -647  -694  -714  -743  -825  -929  -1021  -1114  -1196  -1224  -1175  -1047  -885  -770  -729  -728  -722  -672  -574  -483  -442  -443  -473  -541  -684  -912  -1158  -1321  -1368  -1303  -1127  -902  -750  -736  -831  -956  -1028  -1007  -917  -798  -677  -576  -512  -499  -546  -659  -809  -928  -985  -1004  -1005  -965  -857  -682  -493  -335  -203  -77  44  130  128  43  -52  -92  -63  16  102  155  143  67  29  131  327  530  709  834  895  911  880  763  524  196  -105  -282  -349  -376  -401  -439  -518  -650  -804  -931  -1010  -1048  -1071  -1102  -1135  -1165  -1204  -1261  -1353  -1525  -1749  -1881  -1854  -1733  -1453  -848  172  1553  3001  4092  4469  3976  2690  880  -1000  -2502  -3411  -3732  -3607  -3209  -2748  -2461  -2380  -2332  -2168  -1874  -1555  -1310  -1147  -1051  -1015  -1019  -1042  -1072  -1114  -1167  -1200  -1156  -994  -765  -587  -512  -489  -436  -298  -69  189  381  467  496  537  638  825  1058  1246  1345  1380  1395  1423  1513  1712  1990  2241  2421  2566  2695  2796  2903  3043  3131  3078  2911  2698  2500  2372  2305  2196  1932  1524  1109  813  668  634  644  619  493  264  6  -201  -320  -363  -354  -303  -239  -178  -107  -31  27  64  85  107  162  288  487  689  815  868  888  903  919  944  970  995  1028  1064  1066  1015  952  949  1037  1189  1358  1487  1539  1528  1499  1473  1452  1439  1440  1440  1405  1312  1192  1107  1079  1080  1080  1078  1087  1077  977  771  537  331  158  41  18  70  137  197  253  312  379  446  489  501  516  600  789  1032  1221  1303  1327  1365  1429  1485  1514  1523  1502  1414  1235  997  763  595  519  520  549  547  484  383  291  228  185  156  156  185  199  148  26  -99  -99  38  231  570  1216  2147  3205  4141  4601  4369  3608  2612  1480  313  -673  -1350  -1716  -1787  -1602  -1255  -839  -426  -105  71  164  283  483  711  875  926  887  815  755  711  659  547  333  65  -126  -183  -157  -114  -79  -53  -32  -18  -17  -32  -39  -1  101  259  439  606  760  915  1081  1237  1334  1372  1417  1501  1615  1751  1870  1939  1987  2040  2076  2059  1952  1733  1439  1151  915  715  512  284  65  -99  -237  -456  -829  -1261  -1582  -1792  -2020  -2294  -2516  -2613  -2601  -2541  -2486  -2451  -2419  -2375  -2353  -2396  -2501  -2616  -2697  -2728  -2698  -2582  -2386  -2150  -1916  -1721  -1576  -1467  -1388  -1351  -1378  -1496  -1679  -1806  -1806  -1783  -1853  -1968  -2033  -2044  -2034  -2009  -1955  -1881  -1805  -1727  -1644  -1585  -1583  -1635  -1683  -1680  -1702  -1909  -2382  -2974  -3407  -3560  -3529  -3422  -3283  -3115  -2915  -2718  -2586  -2542  -2549  -2563  -2588  -2652  -2735  -2804  -2835  -2791  -2655  -2482  -2305  -2061  -1676  -1183  -729  -450  -358  -366  -390  -395  -377  -355  -378  -513  -742  -899  -878  -790  -759  -772  -764  -694  -555  -370  -194  -87  -58  -75  -138  -302  -511  -523  -250  161  673  1324  2173  3278  4346  4879  4614  3527  1806  -49  -1428  -2023  -1921  -1371  -698  -233  -72  -34  73  254  393  445  472  546  660  747  765  726  665  620  615  662  743  776  703  576  499  545  736  999  1213  1342  1413  1416  1328  1205  1173  1303  1516  1674  1744  1804  1931  2130  2363  2575  2709  2739  2679  2571  2508  2540  2596  2609  2573  2492  2380  2243  2093  1973  1892  1756  1468  1076  749  586  520  435  293  107  -140  -443  -730  -957  -1149  -1331  -1469  -1479  -1333  -1113  -944  -890  -887  -852  -797  -775  -778  -741  -610  -413  -252  -203  -289  -486  -733  -955  -1096  -1097  -927  -668  -469  -395  -424  -546  -758  -1017  -1206  -1199  -1000  -743  -540  -424  -377  -371  -387  -414  -440  -464  -495  -522  -515  -452  -337  -185  0  183  299  322  282  223  169  120  76  54  62  82  104  137  183  219  216  180  162  194  240  220  91  -93  -231  -283  -287  -263  -185  -27  182  379  504  550  550  543  529  438  194  -135  -367  -422  -382  -345  -337  -345  -349  -336  -304  -286  -324  -407  -460  -424  -354  -370  -476  -547  -496  -374  -338  -438  -451  -121  538  1417  2425  3299  3663  3324  2315  863  -652  -1838  -2443  -2469  -2195  -1899  -1659  -1485  -1375  -1254  -1084  -906  -764  -658  -568  -491  -422  -339  -262  -224  -216  -208  -188  -164  -141  -119  -106  -107  -102  -42  86  218  273  263  259  320  461  649  821  930  979  1022  1122  1279  1449  1605  1735  1831  1900  1948  1984  2042  2192  2466  2766  2940  2905  2671  2362  2150  2080  2044  1929  1728  1499  1268  1007  714  450  255  124  28  -57  -135  -188  -208  -207  -220  -307  -500  -720  -827  -797  -732  -710  -711  -664  -515  -322  -202  -188  -228  -276  -309  -322  -326  -328  -325  -298  -243  -200  -228  -321  -407  -440  -434  -427  -468  -580  -719  -828  -890  -900  -868  -806  -733  -721  -810  -939  -1024  -1026  -971  -914  -878  -855  -839  -850  -900  -978  -1061  -1133  -1172  -1148  -1047  -912  -814  -784  -789  -794  -784  -772  -804  -918  -1078  -1211  -1298  -1357  -1398  -1427  -1438  -1390  -1237  -1023  -863  -803  -803  -831  -898  -1012  -1144  -1249  -1300  -1310  -1306  -1295  -1254  -1147  -984  -820  -700  -635  -613  -614  -608  -564  -481  -449  -582  -847  -1092  -1269  -1469  -1752  -2061  -2294  -2397  -2368  -2233  -2064  -1937  -1815  -1542  -1019  -331  292  652  711  536  205  -153  -327  -87  605  1557  2594  3631  4488  4892  4697  3914  2614  1054  -244  -861  -824  -436  -16  211  370  736  1208  1515  1656  1782  1988  2239  2412  2429  2319  2181  2101  2077  2058  2036  2057  2146  2265  2332  2302  2244  2280  2376  2363  2193  2009  1940  1970  2005  2004  2022  2094  2184  2268  2368  2478  2547  2622  2842  3173  3401  3449  3420  3403  3409  3408  3391  3391  3434  3489  3506  3449  3282  2996  2646  2312  2003  1656  1248  877  662  587  538  430  271  129  47  -8  -93  -200  -278  -309  -309  -280  -203  -97  -25  -67  -251  -500  -679  -735  -721  -696  -685  -678  -639  -551  -445  -389  -408  -465  -512  -541  -567  -591  -590  -566  -567  -612  -668  -729  -831  -974  -1100  -1153  -1141  -1107  -1076  -1044  -1013  -996  -998  -1013  -1035  -1064  -1104  -1149  -1187  -1226  -1294  -1384  -1455  -1472  -1422  -1312  -1187  -1105  -1077  -1081  -1103  -1151  -1217  -1270  -1290  -1283  -1269  -1258  -1252  -1269  -1362  -1569  -1802  -1923  -1916  -1862  -1812  -1745  -1614  -1435  -1326  -1346  -1397  -1399  -1391  -1399  -1383  -1286  -1066  -754  -470  -303  -226  -191  -205  -285  -416  -560  -676  -764  -853  -945  -1003  -1016  -1008  -1023  -1087  -1184  -1269  -1320  -1345  -1347  -1304  -1186  -1002  -786  -545  -312  -239  -441  -692  -523  345  1687  2952  3701  3712  3010  1946  839  -277  -1380  -2259  -2696  -2649  -2275  -1834  -1486  -1187  -885  -621  -396  -151  47  28  -208  -468  -614  -651  -616  -513  -341  -186  -141  -133  -59  28  96  213  390  565  694  764  781  773  763  783  857  958  1017  1000  953  975  1109  1295  1480  1668  1842  1967  2065  2187  2349  2528  2659  2712  2730  2741  2719  2634  2455  2192  1916  1694  1530  1385  1213  994  726  461  279  201  168  128  85  70  73  37  -81  -268  -466  -624  -713  -739  -710  -623  -504  -417  -389  -393  -390  -363  -334  -337  -384  -467  -562  -622  -608  -531  -442  -389  -390  -447  -573  -737  -853  -850  -714  -509  -340  -264  -254  -279  -347  -488  -689  -854  -916  -901  -855  -803  -770  -763  -766  -755  -716  -666  -646  -683  -751  -814  -865  -923  -997  -1053  -1021  -883  -723  -581  -410  -189  -29  -75  -298  -526  -660  -715  -737  -754  -764  -755  -726  -689  -669  -672  -656  -601  -535  -490  -473  -472  -473  -471  -471  -459  -371  -140  169  397  464  413  300  125  -138  -458  -746  -935  -1021  -1043  -1045  -1055  -1091  -1161  -1238  -1305  -1352  -1313  -1136  -870  -613  -390  -169  53  335  832  1621  2594  3478  3855  3462  2440  1051  -456  -1747  -2589  -2970  -2886  -2415  -1870  -1484  -1193  -929  -765  -739  -807  -902  -966  -985  -978  -950  -884  -784  -697  -667  -684  -679  -590  -413  -216  -75  5  78  151  191  190  173  166  190  288  492  740  922  1024  1105  1182  1237  1317  1511  1815  2129  2379  2540  2613  2632  2639  2631  2573  2451  2312  2236  2249  2298  2296  2154  1832  1380]
