reading_id,reading_time,wire_id,result_classification,heart_rate,heart_rate_alert,firmware_version,device_app_version,hardware_version,waveform_samples
f2dfc9e0-d0f9-11ed-8080-808080808080,Sun Apr 02 01:59:05 UTC 2023,6119e4d89339,NSR,64,NONE,20001.188.58,2.13.0,Charge 5,[-4708  -4820  -4882  -4861  -4728  -4453  -4054  -3620  -3224  -2855  -2468  -2014  -1458  -858  -328  88  438  815  1256  1663  1943  2144  2363  2611  2818  2960  3116  3387  3767  4155  4448  4610  4683  4724  4750  4761  4762  4753  4722  4654  4550  4425  4293  4171  4082  4025  3979  3936  3900  3870  3845  3856  3972  4232  4554  4807  4953  5078  5309  5687  6088  6346  6432  6428  6381  6291  6179  6096  6030  5920  5742  5512  5218  4872  4560  4361  4267  4206  4114  3964  3756  3537  3382  3299  3218  3089  2940  2818  2724  2612  2433  2185  1911  1656  1417  1173  948  799  739  736  750  753  738  710  671  615  540  443  326  219  155  130  88  -25  -194  -346  -434  -464  -463  -455  -461  -510  -611  -718  -764  -744  -696  -641  -596  -562  -524  -484  -465  -486  -563  -681  -796  -871  -894  -881  -863  -854  -850  -843  -839  -860  -915  -972  -993  -987  -982  -986  -990  -980  -947  -884  -774  -588  -352  -159  -68  -51  -59  -81  -154  -312  -522  -706  -855  -1050  -1330  -1606  -1768  -1798  -1750  -1668  -1575  -1483  -1404  -1352  -1339  -1374  -1443  -1469  -1378  -1211  -1047  -814  -286  696  2085  3611  4764  4973  4012  2206  166  -1594  -2841  -3582  -3941  -3991  -3665  -2925  -2023  -1307  -909  -727  -598  -452  -308  -194  -111  -41  38  143  276  408  480  465  403  390  493  671  831  931  980  1018  1082  1162  1228  1326  1541  1841  2091  2229  2307  2384  2474  2582  2729  2915  3094  3231  3331  3411  3469  3505  3524  3523  3482  3388  3266  3166  3108  3057  2933  2635  2115  1481  933  584  401  311  265  219  144  45  -54  -128  -169  -184  -179  -133  -18  128  221  208  114  19  9  80  155  188  198  216  246  278  296  265  164  12  -155  -307  -405  -439  -425  -381  -316  -248  -205  -213  -275  -366  -462  -556  -646  -717  -756  -773  -783  -788  -803  -858  -957  -1076  -1189  -1269  -1294  -1259  -1171  -1069  -1004  -1006  -1072  -1166  -1231  -1223  -1129  -990  -877  -832  -846  -900  -982  -1069  -1122  -1114  -1055  -996  -994  -1050  -1112  -1144  -1153  -1151  -1140  -1111  -1070  -1024  -966  -886  -780  -671  -600  -599  -676  -800  -915  -991  -1039  -1092  -1168  -1241  -1282  -1271  -1197  -1088  -1007  -979  -981  -986  -994  -1013  -1050  -1100  -1146  -1155  -1104  -1023  -948  -883  -856  -882  -922  -933  -916  -892  -868  -826  -769  -721  -692  -658  -594  -482  -340  -217  -141  -88  -31  28  61  43  -24  -134  -270  -402  -507  -594  -683  -776  -869  -949  -1009  -1044  -1059  -1069  -1095  -1150  -1222  -1275  -1288  -1305  -1423  -1667  -1839  -1611  -841  365  1844  3325  4259  4142  2952  1039  -1110  -2939  -4090  -4601  -4664  -4386  -3824  -3107  -2441  -1994  -1771  -1659  -1560  -1468  -1402  -1357  -1326  -1294  -1241  -1171  -1101  -1035  -968  -908  -847  -757  -644  -542  -467  -414  -369  -315  -233  -119  19  178  370  594  818  1005  1163  1336  1571  1889  2262  2612  2858  2977  3028  3113  3292  3522  3702  3790  3817  3804  3732  3561  3263  2862  2466  2188  2060  2009  1908  1679  1375  1114  930  775  637  557  566  649  756  853  957  1076  1173  1219  1231  1251  1309  1409  1529  1631  1700  1756  1815  1866  1894  1904  1903  1900  1893  1887  1896  1943  2019  2077  2067  1972  1813  1640  1503  1433  1425  1447  1474  1499  1524  1534  1499  1382  1188  980  829  760  748  757  777  814  851  827  689  482  315  242  235  249  263  271  258  196  79  -66  -197  -269  -257  -168  -44  46  64  11  -93  -210  -288  -308  -301  -311  -351  -410  -468  -515  -553  -609  -721  -886  -1037  -1115  -1131  -1123  -1090  -993  -820  -632  -508  -473  -514  -622  -760  -871  -938  -980  -1005  -1013  -1001  -971  -935  -913  -906  -883  -815  -716  -631  -584  -564  -555  -544  -542  -589  -717  -875  -959  -948  -912  -909  -934  -954  -946  -924  -894  -846  -778  -719  -690  -703  -761  -852  -931  -962  -940  -884  -824  -778  -751  -743  -757  -780  -796  -816  -866  -965  -1112  -1279  -1421  -1513  -1596  -1725  -1896  -2055  -2155  -2192  -2190  -2164  -2093  -2010  -2046  -2218  -2344  -2277  -1924  -1169  -18  1340  2673  3666  3914  3192  1669  -245  -2143  -3756  -4960  -5662  -5782  -5359  -4515  -3470  -2579  -2049  -1796  -1665  -1588  -1539  -1501  -1466  -1436  -1416  -1411  -1412  -1393  -1318  -1165  -948  -719  -539  -437  -393  -374  -348  -263  -77  151  314  379  414  502  692  953  1202  1419  1674  1997  2311  2530  2662  2789  2956  3125  3225  3236  3203  3182  3187  3175  3106  2974  2782  2531  2248  1964  1724  1567  1476  1371  1181  907  632  447  365  334  306  262  208  154  109  78  62  75  139  250  354  400  393  371  360  360  361  358  342  313  285  275  290  318  324  271  163  68  54  100  136  141  139  136  97  -2  -129  -191  -135  -4  122  199  218  179  85  -31  -128  -180  -186  -134  -5  181  356  427  338  160  33  15  62  119  158  186  222  254  244  186  115  63  43  53  99  183  267  289  239  160  79  7  -26  -17  5  29  77  161  271  389  485  530  521  474  412  362  348  389  484  599  687  725  729  734  765  814  851  850  807  741  677  625  597  594  598  598  587  546  458  335  209  112  54  21  -10  -45  -72  -108  -187  -301  -401  -455  -461  -409  -301  -178  -97  -72  -77  -89  -95  -92  -80  -61  -42  -32  -52  -128  -253  -391  -513  -619  -726  -859  -1039  -1235  -1373  -1432  -1462  -1519  -1636  -1810  -1987  -2097  -2113  -2037  -1917  -1862  -1900  -1902  -1732  -1298  -497  687  2066  3346  4169  4123  3016  1055  -1268  -3370  -4760  -5221  -4883  -4070  -3124  -2314  -1745  -1395  -1206  -1096  -986  -864  -758  -669  -559  -410  -253  -145  -101  -84  -55  16  139  277  370  401  396  384  390  469  676  1001  1377  1733  2023  2247  2460  2690  2905  3079  3248  3457  3676  3818  3846  3786  3695  3635  3676  3860  4124  4308  4257  3933  3488  3176  3074  3033  2882  2581  2162  1644  1103  694  479  346  153  -136  -429  -604  -625  -530  -382  -255  -206  -260  -410  -596  -732  -785  -782  -761  -742  -732  -729  -730  -732  -737  -744  -743  -725  -694  -662  -641  -638  -650  -676  -708  -735  -756  -771  -763  -723  -682  -676  -715  -778  -831  -855  -853  -836  -828  -840  -857  -866  -882  -906  -921  -916  -902  -891  -879  -857  -829  -807  -800  -805  -820  -839  -852  -852  -839  -821  -807  -800  -798  -798  -794  -784  -770  -758  -742  -710  -655  -594  -550  -532  -538  -557  -576  -585  -586  -587  -596  -606  -600  -567  -523  -486  -462  -440  -403  -347  -289  -257  -271  -335  -422  -486  -513  -522  -535  -555  -570  -571  -568  -565  -552  -510  -422  -287  -122  35  142  180  172  154  141  129  120  138  215  341  480  613  725  753  644  437  238  109  43  12  -5  -55  -176  -335  -454  -497  -492  -475  -466  -503  -631  -842  -1049  -1146  -1088  -899  -616  -230  404  1458  2823  4135  4967  4886  3724  1817  -283  -2151  -3501  -4231  -4393  -4030  -3253  -2326  -1530  -1016  -755  -619  -507  -391  -283  -184  -77  46  164  243  283  312  352  393  421  451  513  601  675  716  739  761  794  855  964  1127  1319  1516  1728  1963  2191  2376  2510  2616  2741  2909  3096  3254  3362  3427  3472  3517  3551  3541  3452  3270  3006  2672  2301  1960  1696  1514  1363  1116  680  110  -430  -799  -974  -1058  -1164  -1301  -1406  -1459  -1496  -1539  -1575  -1592  -1593  -1587  -1577  -1560  -1538  -1526  -1547  -1609  -1674  -1691  -1660  -1611  -1555  -1511  -1500  -1524  -1570  -1598  -1568  -1482  -1381  -1310  -1279  -1277  -1305  -1380  -1478  -1550  -1576  -1572  -1555  -1527  -1491  -1453  -1410  -1364  -1329  -1307  -1287  -1268  -1257  -1251  -1224  -1155  -1061  -990  -964  -965  -971  -966  -944  -907  -869  -838  -815  -796  -782  -775  -763  -737  -699  -653  -596  -534  -491  -482  -494  -511  -526  -540  -540  -508  -450  -390  -346  -319  -312  -317  -310  -279  -240  -214  -200  -185  -163  -146  -149  -175  -208  -225  -204  -134  -32  70  178  281  329  277  156  31  -52  -88  -92  -83  -71  -48  -4  61  139  216  283  328  344  339  332  358  447  581  700  778  836  889  916  892  819  714  596  471  317  133  -30  -137  -196  -224  -232  -226  -219  -232  -282  -359  -447  -561  -719  -851  -817  -492  186  1216  2529  3970  5207  5781  5379  3982  1852  -471  -2380  -3525  -3849  -3492  -2765  -2008  -1412  -985  -646  -339  -73  141  310  435  511  543  544  534  522  514  519  559  649  771  884  961  1000  1018  1045  1106  1206  1310  1375  1416  1518  1756  2076  2335  2469  2546  2671  2894  3185  3485  3767  4021  4231  4362  4387  4339  4264  4164  4027  3862  3681  3501  3335  3182  3016  2785  2435  1974  1451  883  346  3  -95  -73  -81  -188  -356  -493  -552  -560  -551  -540  -539  -568  -645  -753  -850  -906  -927  -928  -903  -830  -718  -603  -514  -464  -455  -484  -548  -640  -751  -879  -1008  -1105  -1151  -1161  -1156  -1151  -1150  -1152  -1157  -1162  -1164  -1167  -1184  -1222  -1271  -1317  -1357  -1394  -1424  -1449  -1473  -1488  -1479  -1450  -1440  -1478  -1531  -1544  -1505  -1440  -1383  -1331  -1255  -1165  -1104  -1086  -1090  -1097  -1104  -1112  -1127  -1141  -1121  -1016  -821  -615  -493  -492  -590  -739  -892  -1038  -1167  -1237  -1222  -1152  -1070  -990  -900  -824  -800  -802  -774  -725  -708  -742  -808  -867  -889  -860  -778  -675  -598  -557  -526  -489  -450  -426  -435  -476  -514  -518  -499  -485  -482  -485  -483  -472  -456  -445  -445  -456  -474  -493  -518  -551  -583  -609  -621  -611  -567  -487  -399  -341  -320  -312  -296  -258  -165  11  230  390  438  387  270  134  27  -75  -246  -506  -769  -935  -994  -1008  -1027  -1064  -1115  -1157  -1182  -1202  -1225  -1255  -1302  -1368  -1427  -1416  -1295  -1071  -703  -72  930  2302  3811  4970  5261  4438  2663  466  -1546  -3012  -3840  -4051  -3725  -3036  -2228  -1536  -1083  -814  -617  -477  -420  -422  -431  -435  -430  -380  -286  -197  -133  -65  19  127  285  492  688  810  852  836  780  707  659  690  830  1035  1245  1477  1768  2060  2286  2459  2633  2849  3134  3446  3687  3817  3875  3915  3955  3959  3899  3807  3736  3668  3516  3213  2791  2354  1982  1705  1508  1311  1031  694  407  233  153  103  12  -161  -379  -559  -668  -726  -747  -723  -671  -631  -621  -621  -618  -615  -621  -629  -619  -573  -499  -441  -428  -448  -475  -500  -522  -544  -570  -588  -574  -515  -437  -412  -492  -626  -725  -753  -730  -687  -649  -626  -615  -607  -590  -570  -570  -606  -667  -739  -835  -955  -1059  -1105  -1061  -919  -726  -579  -550  -610  -672  -694  -700  -734  -797  -822  -758  -661  -639  -746  -929  -1071  -1094  -1009  -891  -786  -689  -616  -614  -695  -817  -906  -920  -859  -734  -565  -394  -276  -223  -202  -187  -172  -155  -129  -115  -147  -240  -373  -504  -607  -676  -717  -752  -781  -740  -565  -313  -128  -70  -86  -118  -158  -204  -243  -267  -288  -313  -341  -368  -403  -447  -485  -497  -479  -439  -393  -346  -282  -190  -81  27  120  177  204  238  315  438  562  636  641  577  449  281  91  -106  -296  -452  -556  -615  -637  -632  -614  -594  -591  -618  -655  -679  -689  -682  -644  -571  -459  -349  -258  0  733  2048  3686  5111  5699  5055  3327  1101  -981  -2507  -3403  -3770  -3682  -3217  -2492  -1658  -918  -423  -173  -89  -91  -110  -98  -35  61  156  243  336  428  486  507  526  575  643  697  725  759  851  1033  1275  1480  1574  1586  1620  1783  2089  2438  2700  2837  2900  2961  3073  3267  3515  3744  3904  3999  4038  4024  3958  3852  3745  3692  3695  3663  3469  3073  2571  2095  1694  1360  1094  900  749  582  353  87  -140  -310  -484  -687  -876  -1008  -1074  -1082  -1059  -1037  -1028  -991  -876  -721  -606  -553  -538  -542  -551  -560  -564  -561  -559  -563  -566  -565  -567  -583  -621  -673  -717  -737  -737  -721  -672  -575  -457  -351  -273  -239  -251  -273  -284  -290  -270  -219  -168  -130  -92  -46  -2  32  56  65  64  62  83  157  296  447  538  556  549  564  606  633  613  571  532  476  388  291  232  234  291  370  425  432  396  340  294  274  274  281  288  279  229  122  -16  -139  -239  -341  -425  -461  -466  -463  -457  -443  -423  -410  -408  -416  -438  -485  -548  -608  -669  -758  -878  -980  -1015  -989  -946  -918  -923  -939  -922  -875  -834  -811  -793  -733  -607  -468  -371  -312  -259  -211  -201  -263  -393  -544  -654  -705  -733  -785  -890  -1047  -1249  -1464  -1619  -1667  -1626  -1542  -1465  -1422  -1399  -1381  -1375  -1405  -1467  -1495  -1364  -925  -80  1109  2432  3628  4379  4350  3404  1681  -451  -2499  -4056  -4937  -5138  -4814  -4177  -3373  -2563  -1916  -1468  -1179  -1033  -988  -973  -952  -923  -869  -767  -635  -529  -479  -459  -437  -402  -356  -300  -248  -202  -132  -1  171  319  401  462  582  777  1001  1208  1378  1530  1695  1888  2129  2445  2838  3242  3550  3709  3712  3568  3354  3190  3119  3093  3067  3038  3006  2928  2733  2402  1993  1578  1195  869  609  368  97  -161  -328  -431  -579  -787  -965  -1065  -1134  -1208  -1268  -1290  -1281  -1273  -1282  -1269  -1169  -968  -732  -573  -541  -613  -731  -832  -881  -870  -808  -718  -632  -577  -561  -580  -614  -643  -666  -689  -695  -667  -625  -615  -652  -691  -692  -667  -646  -639  -639  -637  -629  -623  -625  -632  -628  -600  -546  -479  -424  -407  -429  -462  -495  -535  -580  -597  -561  -492  -434  -403  -390  -391  -416  -466  -510  -502  -443  -389  -383  -425  -482  -526  -559  -581  -592  -593  -591  -589  -593  -609  -627  -622  -562  -458  -382  -406  -509  -603  -643  -646  -643  -642  -632  -592  -522  -460  -446  -477  -512  -528  -535  -537  -521  -454  -320  -154  -19  53  85  136  257  430  590  709  791  813  750  634  538  497  469  363  126  -168  -384  -472  -473  -419  -319  -205  -126  -105  -136  -214  -311  -374  -374  -348  -377  -453  -397  5  841  2065  3480  4671  5129  4572  3115  1102  -1001  -2689  -3696  -4063  -3899  -3310  -2509  -1752  -1193  -879  -763  -732  -681  -586  -487  -431  -428  -437  -399  -293  -155  -45  11  35  55  94  156  219  254  265  298  398  560  757  970  1160  1281  1338  1369  1406  1504  1763  2224  2750  3134  3323  3422  3502  3531  3484  3407  3368  3393  3446  3485  3487  3428  3271  2981  2574  2151  1827  1606  1398  1116  741  349  49  -130  -244  -331  -388  -416  -454  -544  -680  -815  -905  -941  -940  -918  -878  -820  -762  -727  -720  -727  -735  -735  -717  -665  -569  -460  -405  -450  -556  -654  -727  -803  -881  -926  -926  -905  -883  -859  -842  -856  -921  -1014  -1084  -1092  -1033  -932  -843  -804  -812  -848  -898  -960  -1026  -1071  -1075  -1040  -984  -928  -885  -858  -843  -834  -828  -836  -874  -959  -1069  -1148  -1163  -1124  -1064  -1002  -930  -847  -779  -743  -733  -738  -764  -817  -878  -915  -913  -892  -858  -782  -658  -525  -435  -401  -401  -418  -449  -477  -458  -358  -215  -110  -80  -100  -152  -240  -359  -472  -543  -564  -545  -508  -468  -429  -389  -351  -326  -321  -334  -359  -378  -376  -356  -324  -269  -182  -81  8  92  169  218  247  306  433  624  817  930  921  814  654  489  357  260  160  12  -168  -306  -363  -372  -372  -374  -390  -434  -493  -534  -546  -553  -581  -611  -592  -509  -362  -70  469  1280  2360  3660  4884  5500  5110  3733  1775  -219  -1857  -2988  -3549  -3522  -3031  -2313  -1602  -1075  -792  -666  -561  -431  -330  -294  -298  -308  -312  -303  -280  -253  -234  -206  -142  -44  51  124  169  194  217  274  379  508  619  692  752  835  955  1107  1272  1445  1654  1935  2250  2505  2669  2794  2917  3021  3085  3124  3160  3189  3204  3201  3174  3109  2956  2638  2131  1544  1061  761  574  416  271  123  -76  -307  -470  -522  -511  -499  -516  -563  -629  -695  -738  -754  -746  -718  -672  -622  -575  -524  -466  -408  -361  -332  -321  -319  -319  -319  -324  -339  -360  -376  -385  -392  -401  -413  -432  -462  -505  -551  -586  -603  -588  -549  -506  -435  -337  -261  -233  -232  -237  -241  -245  -252  -266  -294  -326  -366  -423  -484  -513  -499  -464  -436  -422  -411  -402  -406  -433  -476  -510  -517  -491  -454  -460  -537  -632  -675  -656  -620  -627  -686  -745  -767  -765  -767  -791  -833  -871  -890  -887  -870  -847  -826  -802  -778  -770  -807  -902  -1016  -1083  -1079  -1044  -1025  -1029  -1037  -1018  -954  -865  -798  -774  -773  -763  -730  -682  -628  -563  -481  -405  -367  -396  -517  -696  -848  -911  -854  -669  -428  -256  -202  -211  -217  -194  -134  -29  128  313  461  520  486  389  257  114  0  -58  -89  -153  -277  -433  -572  -641  -623  -546  -464  -421  -415  -394  -289  -92  71  86  28  23  146  550  1379  2614  4116  5612  6552  6346  4888  2644  330  -1446  -2498  -2971  -3057  -2843  -2318  -1549  -779  -199  152  323  390  420  449  485  515  524  511  486  473  489  522  547  558  589  671  777  871  965  1059  1129  1176  1219  1285  1397  1549  1711  1857  1991  2136  2338  2621  2940  3200  3362  3485  3648  3848  4009  4069  4039  3979  3925  3857  3762  3646  3491  3272  2992  2668  2290  1862  1432  1048  719  448  245  101  -41  -235  -449  -597  -653  -674  -717  -780  -837  -867  -877  -886  -902  -913  -895  -839  -776  -740  -725  -711  -698  -683  -653  -589  -517  -514  -592  -683  -747  -780  -786  -775  -759  -750  -749  -746  -745  -770  -824  -873  -876  -818  -737  -680  -662  -667  -676  -683  -701  -749  -832  -924  -994  -1037  -1068  -1090  -1093  -1068  -1022  -991  -1004  -1040  -1062  -1055  -1024  -988  -959  -938  -922  -918  -939  -997  -1097  -1217  -1318  -1366  -1334  -1215  -1055  -941  -916  -960  -1029  -1092  -1137  -1153  -1126  -1063  -994  -962  -986  -1028  -1036  -992  -921  -871  -881  -959  -1070  -1155  -1184  -1147  -1038  -896  -793  -756  -754  -757  -767  -798  -852  -907  -935  -925  -882  -811  -723  -644  -580  -520  -456  -394  -342  -304  -300  -354  -468  -602  -703  -755  -817  -969  -1197  -1397  -1498  -1513  -1480  -1435  -1400  -1377  -1337  -1244  -1121  -1076  -1135  -1173  -1120  -940  -412  700  2270  3840  4847  4802  3585  1564  -644  -2500  -3729  -4323  -4364  -3976  -3368  -2728  -2181  -1805  -1565  -1322  -1018  -720  -491  -308  -152  -49  0  41  129  282  469  626  706  699  622  519  443  425  468  574  744  952  1133  1228  1253  1264  1315  1434  1627  1896  2218  2523  2761  2950  3108  3220  3289  3348  3410  3463  3498  3514  3507  3451  3324  3126  2870  2537  2107  1643  1254  963  715  497  351  267  165  -5  -199  -325  -375  -428  -542  -686  -794  -835  -830  -814  -803  -795  -791  -802  -840  -896  -939  -958  -960  -960  -970  -980  -956  -847  -658  -465  -336  -279  -270  -291  -320  -344  -359  -365  -363  -346  -304  -240  -180  -145  -124  -92  -42  10  53  77  82  76  74  89  136  207  271  295  272  213  145  87  41  0  -31  -47  -40  -10  40  99  136  124  59  -45  -164  -250  -252  -159  -14  105  161  169  148  103  48  10  1  11  19  -6  -93  -239  -409  -553  -630  -630  -588  -542  -509  -460  -347  -184  -42  30  52  55  41  -19  -139  -251  -264  -166  -28  96  200  277  303  268  197  136  101  87  79  48  -44  -208  -404  -597  -796  -1012  -1223  -1374  -1439  -1436  -1369  -1216  -965  -693  -590  -760  -1065  -1218  -896  106  1680  3437  4884  5544  5102  3591  1405  -850  -2573  -3434  -3525  -3179  -2709  -2253  -1800  -1383  -1067  -832  -632  -469  -374  -344  -342  -339  -329  -328  -338  -339  -321  -297  -274  -254  -229  -182  -94  51  252  462  634  762  860  940  1045  1234  1498  1746  1930  2107  2330  2557  2724  2847  2993  3165  3314  3432  3543  3643  3700  3690  3622  3531  3430  3286  3054  2707  2295  1894  1530  1213  949  703  467  289  176  72  -78  -287  -506  -688  -830  -942  -1018  -1043  -1024  -997  -987  -994  -1002  -981  -904  -783  -674  -620  -613  -617  -622  -641  -676  -715  -742  -750  -744  -739  -746  -760  -765  -754  -733  -719  -714  -709  -691  -665  -647  -642  -638  -613  -556  -478  -409  -380  -408  -503  -644  -774  -848  -867  -851  -800  -711  -608  -508  -405  -305  -240  -234  -286  -374  -475  -567  -615  -601  -558  -503  -413  -291  -185  -134  -156  -242  -349  -441  -505  -540  -574  -626  -674  -696  -708  -726  -748  -751  -721  -674  -655  -693  -777  -862  -916  -940  -942  -926  -916  -931  -964  -981  -963  -924  -894  -886  -887  -879  -847  -796  -747  -719  -713  -712  -680  -577  -425  -302  -252  -242  -202  -85  98  295  450  541  576  568  513  401  265  146  32  -110  -281  -461  -649  -832  -975  -1059  -1090  -1091  -1091  -1106  -1140  -1195  -1284  -1381  -1402  -1297  -1111  -865  -444  281  1343  2647  3847  4391  3944  2611  776  -1080  -2541  -3435  -3816  -3778  -3390  -2766  -2077  -1481  -1058  -792  -630  -547  -520  -517  -496  -425  -297  -128  40  174  257  303  337  373  408  432  455  510  632  820  1035  1228  1363  1448  1536  1654  1776  1886  1996  2121  2263  2420  2599  2813  3078  3370  3608  3730  3756  3740  3721  3712  3715  3724  3704  3583  3303  2897  2469  2086  1730  1361  1003  720  532  407  263  22  -272  -488  -579  -605  -620  -639  -651  -641  -607  -575  -564  -589  -648  -696  -703  -673  -611  -540  -487  -454  -427  -400  -381  -373  -373  -374  -370  -362  -354  -356  -384  -452  -524  -544  -521  -510  -531  -583  -679  -810  -925  -984  -983  -940  -884  -843  -824  -824  -848  -879  -896  -898  -899  -901  -894  -856  -774  -664  -558  -490  -480  -540  -657  -760  -745  -613  -485  -446  -483  -546  -591  -606  -591  -545  -483  -439  -440  -497  -599  -718  -827  -898  -901  -830  -727  -652  -626  -627  -630  -628  -619  -602  -569  -524  -481  -456  -473  -550  -661  -746  -767  -709  -571  -397  -277  -265  -345  -456  -535  -566  -576  -584  -588  -595  -621  -662  -683  -665  -623  -580  -544  -513  -495  -491  -481  -448  -399  -357  -315  -243  -130  8  170  345  495  577  600  616  659  731  804  851  870  873  863  828  758  647  469  181  -180  -491  -665  -729  -764  -815  -900  -1032  -1179  -1262  -1237  -1133  -1000  -866  -739  -623  -478  -232  198  941  2100  3546  4837  5409  4906  3389  1309  -723  -2279  -3216  -3530  -3316  -2746  -1962  -1134  -487  -129  9  43  42  36  71  195  371  511  576  589  586  584  586  587  592  619  696  822  967  1117  1275  1421  1526  1587  1623  1664  1748  1889  2060  2228  2379  2524  2681  2848  2993  3097  3206  3407  3723  4052  4252  4281  4181  4009  3786  3505  3197  2936  2725  2493  2191  1838  1501  1223  1014  844  624  272  -180  -594  -839  -919  -927  -934  -959  -1004  -1083  -1202  -1322  -1374  -1327  -1218  -1113  -1040  -993  -969  -975  -1011  -1064  -1113  -1139  -1149  -1156  -1167  -1182  -1193  -1154  -1038  -896  -805  -782  -793  -808  -823  -855  -908  -971  -1029  -1070  -1087  -1077  -1041  -995  -955  -931  -935  -987  -1076  -1145  -1138  -1045  -920  -823  -764  -734  -742  -793  -865  -925  -960  -980  -991  -995  -996  -997  -991  -969  -934  -903  -885  -864  -819  -755  -727  -766  -829  -860  -857  -842  -841  -862  -890  -905  -906  -903  -903  -897  -871  -818  -760  -707  -649  -597  -566  -552  -552  -562  -580  -615  -665  -703  -691  -631  -573  -562  -590  -629  -663  -689  -706  -703  -662  -580  -485  -419  -412  -468  -557  -621  -598  -468  -285  -148  -97  -87  -46  63  213  346  440  500  522  512  495  473  422  335  227  132  78  54  8  -97  -234  -335  -398  -479  -588  -677  -714  -717  -716  -720  -713  -693  -746  -946  -1175  -1178  -786  56  1337  2894  4390  5443  5703  4946  3234  974  -1220  -2858  -3779  -4028  -3801  -3404  -2971  -2460  -1905  -1406  -997  -681  -481  -390  -348  -311  -283  -273  -276  -281  -267  -218  -145  -77  -25  13  40  55  73  112  181  282  413  564  710  846  989  1158  1355  1571  1814  2084  2349  2581  2794  2990  3147  3261  3347  3412  3449  3464  3466  3440  3361  3239  3117  3008  2862  2639  2362  2066  1743  1383  1003  630  326  146  52  -46  -178  -301  -374  -394  -375  -318  -222  -133  -101  -127  -164  -153  -87  -18  18  33  43  56  58  33  -6  -31  -25  -1  18  30  34  23  -22  -114  -226  -316  -365  -380  -375  -367  -364  -374  -400  -442  -491  -526  -539  -523  -471  -395  -324  -287  -305  -385  -497  -589  -631  -635  -629  -629  -638  -649  -649  -642  -658  -727  -828  -910  -951  -956  -923  -847  -754  -682  -635  -584  -527  -488  -474  -473  -482  -501  -528  -555  -563  -544  -509  -490  -498  -514  -529  -585  -728  -918  -1031  -980  -789  -575  -447  -417  -430  -444  -448  -447  -446  -446  -445  -443  -431  -404  -373  -363  -386  -414  -400  -322  -194  -31  134  244  267  237  213  202  138  -44  -296  -483  -547  -539  -519  -506  -502  -519  -577  -667  -746  -775  -762  -765  -854  -992  -1014  -823  -420  254  1253  2482  3773  4832  5183  4503  2905  811  -1251  -2823  -3726  -4028  -3882  -3437  -2812  -2136  -1533  -1053  -694  -468  -376  -375  -408  -440  -451  -409  -286  -119  5  49  42  27  22  31  61  123  207  279  335  409  539  723  918  1070  1156  1207  1310  1545  1882  2184  2369  2470  2581  2773  3040  3291  3444  3498  3498  3489  3493  3510  3528  3530  3483  3335  3065  2712  2300  1822  1335  956  729  571  374  129  -76  -188  -251  -342  -479  -616  -707  -741  -732  -702  -661  -613  -571  -560  -621  -785  -1009  -1189  -1266  -1270  -1263  -1287  -1355  -1446  -1525  -1566  -1567  -1541  -1507  -1483  -1476  -1484  -1503  -1512  -1454  -1280  -1040  -861  -794  -796  -828  -895  -1000  -1105  -1163  -1154  -1081  -975  -879  -819  -785  -763  -745  -736  -740  -750  -753  -739  -708  -665  -620  -581  -552  -539  -557  -629  -754  -878  -946  -953  -930  -901  -867  -803  -710  -615  -534  -462  -389  -319  -262  -214  -173  -158  -193  -282  -389  -462  -487  -476  -447  -414  -390  -382  -379  -371  -360  -360  -365  -351  -301  -229  -202  -284  -454  -619  -701  -689  -630  -569  -510  -430  -325  -229  -181  -194  -233  -216  -116  -8  42  49  59  105  191  295  391  472  535  553  485  347  198  87  19  -38  -135  -294  -496  -686  -803  -835  -809  -748  -681  -639  -633  -645  -660  -698  -788  -892  -907  -815  -633  -220  579  1724  3041  4210  4767  4358  2999  1082  -844  -2363  -3323  -3756  -3758  -3434  -2872  -2187  -1551  -1066  -746  -577  -516  -507  -514  -517  -494  -424  -313  -203  -132  -96  -67  -35  -16  -16  -9  53  220  487  773  962  1020  1008  1003  1076  1258  1510  1760  1979  2166  2315  2458  2654  2904  3149  3341  3488  3631  3769  3862  3893  3883  3861  3837  3796  3722  3609  3441  3190  2870  2556  2277  1982  1649  1286  867  429  103  -47  -86  -115  -195  -310  -395  -421  -412  -395  -387  -413  -500  -629  -742  -809  -840  -838  -784  -683  -577  -513  -498  -511  -540  -574  -594  -589  -562  -538  -549  -589  -624  -629  -609  -583  -562  -539  -520  -509  -506  -504  -508  -530  -575  -630  -661  -627  -499  -314  -159  -80  -66  -104  -188  -295  -390  -454  -488  -501  -503  -498  -488  -469  -448  -433  -414  -380  -335  -296  -267  -245  -234  -230  -225  -220  -236  -299  -412  -550  -668  -717  -662  -516  -332  -175  -93  -90  -142  -213  -259  -248  -172  -65  13  30  -13  -98  -181  -216  -191  -137  -95  -81  -78  -80  -100  -149  -207  -233  -212  -168  -143  -162  -212  -267  -307  -327  -329  -317  -284  -228  -163  -121  -109  -112  -119  -123  -116  -91  -53  -20  3  53  177  373  582  746  853  925  979  1003  961  813  567  307  130  49  21  12  13  18  21  10  -22  -70  -110  -131  -139  -141  -144  -171  -248  -350  -400  -273  153  907  1951  3212  4488  5426  5675  5065  3675  1790  -179  -1821  -2849  -3127  -2697  -1874  -1129  -718  -529  -357  -136  100  314  474  560  582  568  535  485  403  267  95  -39  -97  -102  -100  -117  -154  -202  -251  -276  -258  -214  -168  -124  -90  -74  -74  -79  -82  -75  -50  -8  47  129  247  379  486  570  662  759  826  853  858  836  746  553  294  47  -151  -335  -560  -843  -1141  -1397  -1618  -1834  -2032  -2164  -2220  -2231  -2228  -2231  -2248  -2276  -2312  -2350  -2378  -2386  -2367  -2307  -2183  -1990  -1778  -1630  -1552  -1469  -1335  -1192  -1092  -1020  -932  -838  -778  -766  -775  -783  -786  -784  -759  -691  -584  -474  -403  -373  -358  -334  -301  -276  -260  -250  -253  -265  -279  -290  -297  -299  -299  -299  -297  -289  -274  -256  -240  -230  -229  -233  -237  -228  -192  -133  -83  -73  -114  -177  -224  -237  -232  -220  -184  -108  -8  83  147  181  191  176  125  34  -84  -191  -243  -223  -144  -44  -2  -54  -104  -53  56  127  110  35  -13  -5  19  48  107  206  328  434  485  480  446  401  353  317  313  335  358  371  387  412  418  381  314  242  162  70  -8  -58  -76  -69  -50  -28  14  112  271  442  573  661  721  756  753  690  546  319  48  -208  -411  -539  -588  -578  -541  -511  -504  -503  -497  -489  -476  -460  -451  -483  -600  -775  -851  -658  -128  737  1902  3246  4513  5299  5173  3923  1818  -506  -2433  -3606  -4007  -3893  -3529  -3005  -2317  -1547  -887  -455  -180  31  181  255  276  275  274  275  261  217  154  128  179  282  386  467  541  645  801  980  1121  1195  1247  1348  1518  1716  1890  2013  2095  2160  2230  2331  2497  2747  3056  3357  3595  3777  3951  4122  4237  4270  4229  4117  3940  3721  3477  3213  2908  2522  2081  1691  1400  1154  897  652  480  359  169  -153  -512  -763  -870  -892  -892  -902  -929  -961  -976  -967  -949  -934  -921  -910  -905  -901  -870  -783  -670  -611  -650  -743  -818  -824  -763  -694  -666  -659  -635  -574  -488  -416  -366  -320  -274  -245  -252  -304  -393  -493  -587  -669  -743  -813  -882  -951  -1016  -1060  -1071  -1056  -1032  -1012  -999  -983  -943  -875  -818  -833  -928  -1049  -1142  -1191  -1200  -1172  -1108  -1030  -978  -965  -969  -948  -867  -744  -641  -602  -615  -645  -674  -697  -703  -686  -671  -685  -711  -723  -710  -689  -676  -648  -574  -487  -438  -434  -457  -483  -491  -442  -310  -139  -15  26  25  16  1  -27  -45  -18  38  90  121  130  119  96  68  28  -39  -128  -224  -335  -461  -572  -643  -679  -710  -761  -834  -913  -995  -1077  -1140  -1174  -1182  -1172  -1150  -1136  -1165  -1250  -1286  -1025  -267  962  2448  3863  4808  4949  4171  2621  658  -1274  -2845  -3902  -4349  -4130  -3434  -2637  -1955  -1413  -1022  -773  -608  -483  -360  -219  -72  44  111  166  269  417  547  621  647  661  689  719  728  716  717  792  983  1230  1430  1571  1726  1932  2168  2398  2588  2726  2832  2947  3124  3369  3630  3881  4142  4386  4532  4557  4522  4481  4445  4402  4354  4307  4248  4114  3805  3281  2630  2023  1592  1290  942  484  43  -237  -350  -402  -501  -657  -810  -911  -951  -952  -943  -948  -983  -1053  -1143  -1223  -1277  -1311  -1337  -1348  -1309  -1204  -1074  -972  -925  -937  -984  -1032  -1065  -1089  -1106  -1107  -1075  -1001  -909  -849  -857  -934  -1042  -1118  -1128  -1082  -1016  -965  -939  -932  -961  -1054  -1193  -1298  -1320  -1288  -1250  -1226  -1213  -1201  -1186  -1167  -1137  -1103  -1082  -1073  -1059  -1024  -979  -932  -885  -878  -953  -1076  -1170  -1204  -1215  -1244  -1292  -1331  -1330  -1262  -1138  -1026  -975  -954  -920  -884  -867  -862  -862  -875  -917  -985  -1046  -1078  -1084  -1077  -1062  -1040  -1010  -976  -943  -898  -808  -664  -506  -381  -318  -331  -416  -536  -618  -592  -437  -223  -62  12  54  100  127  102  20  -100  -233  -341  -400  -426  -445  -484  -565  -683  -794  -868  -914  -955  -989  -995  -950  -866  -775  -695  -644  -635  -656  -639  -427  177  1286  2777  4244  5106  4925  3691  1752  -387  -2223  -3438  -3949  -3842  -3342  -2670  -1988  -1443  -1075  -825  -655  -540  -442  -350  -275  -212  -150  -88  -18  54  106  138  178  229  264  266  254  282  401  597  778  884  935  974  1032  1154  1377  1659  1908  2100  2285  2502  2733  2948  3121  3240  3349  3510  3701  3837  3875  3846  3782  3674  3526  3394  3319  3245  3045  2653  2146  1684  1374  1188  1023  782  442  53  -321  -618  -779  -812  -779  -729  -681  -648  -650  -685  -734  -777  -802  -808  -802  -790  -779  -771  -760  -750  -753  -786  -849  -917  -934  -852  -699  -567  -506  -496  -496  -481  -452  -423  -404  -393  -384  -367  -340  -339  -412  -548  -675  -737  -738  -709  -679  -662  -656  -655  -677  -742  -832  -876  -808  -635  -440  -313  -273  -284  -327  -403  -495  -567  -601  -609  -609  -613  -617  -600  -538  -434  -331  -268  -251  -261  -273  -270  -253  -242  -237  -229  -224  -228  -229  -205  -155  -107  -90  -110  -151  -204  -272  -345  -391  -397  -383  -370  -354  -324  -281  -245  -232  -229  -231  -248  -266  -263  -220  -131  -23  55  99  138  191  257  332  408  474  523  554  572  573  542  465  346  210  92  -5  -128  -308  -530  -758  -938  -1005  -951  -833  -719  -652  -637  -650  -700  -842  -1029  -1112  -1098  -1046  -747  78  1440  3078  4519  5177  4676  3111  979  -1115  -2742  -3754  -4198  -4169  -3788  -3240  -2674  -2119  -1593  -1160  -853  -652  -541  -499  -489  -482  -469  -453  -441  -421  -370  -298  -240  -198  -128  -11  133  292  461  620  769  939  1116  1251  1332  1382  1424  1499  1678  1988  2348  2643  2888  3156  3407  3559  3649  3785  3987  4162  4228  4157  3953  3698  3512  3430  3393  3343  3221  2932  2444  1895  1460  1138  817  464  140  -102  -263  -370  -472  -612  -783  -939  -1031  -1061  -1085  -1150  -1237  -1286  -1257  -1157  -1018  -880  -787  -750  -746  -746  -746  -752  -760  -765  -768  -774  -791  -817  -846  -866  -870  -865  -861  -849  -815  -779  -779  -815  -853  -868  -867  -863  -862  -871  -893  -929  -972  -1013  -1041  -1051  -1035  -982  -911  -873  -905  -992  -1078  -1119  -1110  -1076  -1040  -1012  -972  -895  -814  -793  -845  -913  -953  -955  -906  -787  -622  -478  -394  -364  -362  -364  -364  -374  -411  -480  -565  -647  -712  -748  -732  -643  -502  -372  -300  -277  -271  -258  -234  -200  -153  -82  21  164  317  432  492  522  536  523  457  323  156  1  -130  -237  -317  -389  -457  -507  -535  -569  -645  -777  -924  -1014  -1030  -996  -926  -854  -827  -853  -871  -813  -671  -405  186  1311  2861  4394  5376  5357  4187  2215  50  -1834  -3207  -4016  -4294  -4058  -3385  -2505  -1716  -1193  -870  -559  -218  17  63  -27  -153  -221  -201  -144  -111  -108  -117  -124  -110  -47  100  331  589  813  989  1121  1205  1241  1248  1283  1432  1730  2096  2388  2543  2629  2759  2961  3190  3418  3674  3996  4334  4566  4641  4593  4459  4284  4123  3991  3881  3802  3721  3498  3010  2346  1732  1273  933  669  429  138  -234  -652  -1011  -1219  -1285  -1294  -1327  -1409  -1516  -1617  -1697  -1740  -1711  -1578  -1373  -1193  -1107  -1094  -1102  -1105  -1099  -1091  -1084  -1074  -1046  -996  -948  -933  -964  -1020  -1061  -1080  -1090  -1057  -975  -899  -858  -831  -799  -761  -729  -712  -711  -720  -732  -745  -766  -801  -841  -874  -895  -905  -906  -889  -827  -712  -591  -538  -597  -744  -901  -999  -1029  -1025  -1013  -988  -934  -860  -820  -850  -919  -976  -1010  -1036  -1066  -1100  -1142  -1185  -1191  -1126  -1018  -933  -899  -890  -864  -794  -685  -565  -476  -436  -431  -443  -467  -496  -519  -529  -523  -485  -383  -211  -13  139  177  83  -66  -181  -245  -300  -379  -479  -578  -669  -750  -813  -851  -867  -864  -843  -810  -788  -809  -889  -1004  -1100  -1116  -1021  -797  -380  343  1402  2714  4092  5137  5307  4299  2349  80  -1877  -3129  -3651  -3682  -3442  -3022  -2468  -1867  -1322  -918  -667  -524  -453  -434  -444  -457  -443  -367  -215  -28  130  218  244  247  258  278  292  295  297  313  356  433  552  704  858  991  1100  1181  1253  1380  1644  2047  2479  2818  3041  3213  3382  3525  3599  3606  3585  3565  3547  3518  3466  3380  3229  2972  2598  2173  1789  1477  1207  950  691  422  172  -7  -106  -167  -252  -405  -602  -770  -875  -939  -975  -992  -1003  -1006  -984  -934  -870  -817  -790  -790  -805  -823  -830  -816  -787  -750  -703  -638  -560  -496  -456  -425  -400  -386  -373  -348  -332  -363  -442  -520  -551  -532  -495  -457  -423  -419  -475  -574  -655  -689  -689  -665  -609  -515  -413  -351  -348  -373  -389  -388  -384  -406  -465  -529  -555  -535  -505  -489  -482  -464  -417  -344  -262  -184  -114  -59  -28  -26  -48  -78  -96  -107  -127  -169  -225  -265  -265  -240  -200  -125  -6  110  161  125  43  -39  -118  -200  -265  -276  -207  -80  37  98  120  146  195  251  304  376  513  717  921  1052  1090  1006  764  429  152  7  -46  -74  -103  -123  -128  -140  -180  -225  -234  -202  -166  -151  -144  -111  -39  51  114  99  33  101  558  1540  2979  4553  5687  5842  4873  3058  903  -1064  -2518  -3373  -3628  -3313  -2593  -1757  -1048  -566  -278  -89  58  166  222  233  217  180  130  65  -34  -184  -347  -465  -513  -517  -520  -535  -546  -543  -531  -519  -505  -477  -424  -340  -219  -76  50  156  297  520  778  961  1033  1070  1170  1373  1630  1855  2004  2094  2154  2193  2204  2174  2096  1988  1865  1690  1428  1093  685  173  -406  -957  -1415  -1749  -1923  -1965  -1959  -1980  -2052  -2159  -2273  -2371  -2432  -2454  -2457  -2464  -2485  -2512  -2521  -2495  -2456  -2428  -2392  -2308  -2149  -1956  -1820  -1793  -1848  -1927  -1980  -1994  -1983  -1970  -1961  -1953  -1936  -1909  -1872  -1805  -1675  -1470  -1241  -1076  -999  -969  -968  -993  -1005  -971  -907  -861  -847  -845  -830  -786  -711  -610  -510  -438  -398  -388  -409  -445  -472  -471  -420  -315  -167  4  170  273  285  219  112  7  -68  -105  -104  -66  1  89  172  225  253  276  301  333  384  442  483  501  523  583  672  740  760  746  715  676  643  629  633  645  652  653  656  671  702  734  728  679  643  649  685  731  769  782  780  790  825  853  845  834  884  1004  1131  1205  1223  1219  1218  1235  1292  1399  1535  1664  1756  1787  1731  1582  1390  1245  1187  1186  1197  1191  1153  1063  901  691  499  370  296  240  180  137  146  198  225  169  75  110  357  682  1005  1477  2241  3288  4505  5553  5837  4996  3240  1095  -850  -2115  -2588  -2525  -2237  -1847  -1356  -788  -220  232  489  576  586  580  583  595  607  605  585  567  572  598  623  655  741  921  1154  1344  1441  1487  1551  1650  1748  1812  1843  1858  1869  1887  1949  2085  2250  2390  2564  2852  3198  3453  3553  3572  3600  3655  3698  3689  3616  3512  3418  3316  3132  2804  2340  1841  1403  1032  710  463  281  78  -212  -554  -872  -1147  -1391  -1593  -1722  -1796  -1870  -1974  -2092  -2208  -2307  -2368  -2392  -2395  -2388  -2367  -2312  -2228  -2182  -2248  -2420  -2620  -2768  -2829  -2819  -2765  -2700  -2656  -2644  -2650  -2655  -2645  -2613  -2570  -2540  -2531  -2535  -2544  -2551  -2528  -2425  -2225  -1995  -1841  -1795  -1817  -1864  -1917  -1976  -2038  -2055  -1985  -1857  -1744  -1684  -1665  -1665  -1667  -1666  -1651  -1609  -1550  -1496  -1452  -1397  -1328  -1265  -1228  -1212  -1199  -1167  -1105  -1028  -964  -933  -935  -962  -1010  -1072  -1138  -1165  -1094  -916  -707  -555  -485  -458  -445  -444  -447  -440  -422  -401  -385  -382  -392  -405  -411  -409  -410  -418  -421  -408  -379  -348  -327  -318  -316  -314  -309  -299  -283  -259  -229  -192  -142  -57  68  210  336  430  485  507  510  521  591  752  953  1089  1125  1087  985  806  597  442  346  243  84  -107  -260  -334  -349  -342  -322  -279  -220  -175  -172  -229  -338  -467  -578  -630  -573  -287  413  1592  3087  4522  5392  5322  4229  2332  152  -1747  -3076  -3748  -3776  -3318  -2614  -1901  -1337  -944  -679  -501  -365  -221  -42  172  381  510  528  479  444  471  550  630  675  696  728  779  827  856  874  905  971  1091  1275  1493  1679  1797  1875  1975  2132  2337  2559  2785  3016  3231  3390  3481  3537  3597  3673  3753  3792  3761  3687  3592  3466  3285  3040  2759  2488  2210  1881  1525  1182  838  487  193  -3  -189  -485  -852  -1135  -1265  -1290  -1280  -1270  -1266  -1265  -1259  -1250  -1244  -1244  -1246  -1240  -1215  -1171  -1116  -1066  -1036  -1041  -1081  -1141  -1184  -1169  -1073  -916  -757  -649  -612  -653  -761  -910  -1049  -1125  -1123  -1061  -960  -851  -772  -739  -738  -751  -776  -808  -830  -821  -772  -700  -643  -617  -613  -617  -621  -617  -610  -599  -573  -531  -489  -467  -466  -472  -477  -478  -473  -460  -441  -423  -407  -401  -432  -523  -645  -717  -697  -616  -539  -507  -519  -550  -586  -621  -643  -634  -585  -508  -425  -342  -277  -254  -259  -263  -273  -286  -274  -240  -211  -206  -214  -204  -153  -81  -26  -2  15  57  129  213  288  348  404  489  625  780  888  926  922  896  840  736  575  380  196  69  2  -49  -136  -257  -364  -428  -456  -469  -492  -543  -597  -581  -484  -458  -602  -777  -758  -368  475  1721  3211  4625  5476  5315  3995  1847  -506  -2497  -3759  -4185  -3968  -3420  -2737  -2087  -1668  -1474  -1321  -1113  -895  -726  -615  -540  -478  -418  -368  -343  -351  -386  -414  -381  -269  -127  -30  2  1  2  24  71  146  264  428  606  764  893  1023  1192  1415  1649  1855  2058  2304  2591  2870  3082  3193  3207  3164  3117  3091  3084  3088  3085  3036  2893  2633  2316  2057  1878  1677  1364  963  556  211  -54  -245  -365  -438  -522  -671  -866  -1018  -1090  -1112  -1119  -1136  -1182  -1246  -1297  -1322  -1331  -1325  -1294  -1228  -1136  -1038  -958  -908  -883  -868  -853  -841  -833  -827  -823  -825  -840  -878  -943  -1016  -1057  -1044  -996  -949  -915  -887  -865  -846  -815  -758  -684  -622  -595  -602  -627  -649  -656  -655  -661  -688  -728  -760  -768  -742  -685  -625  -569  -494  -396  -288  -187  -118  -95  -100  -114  -136  -178  -243  -321  -405  -484  -522  -498  -433  -366  -311  -266  -249  -268  -283  -255  -204  -173  -178  -202  -219  -226  -224  -214  -191  -153  -110  -75  -55  -47  -37  -18  6  26  36  38  37  29  6  -29  -67  -112  -181  -262  -317  -309  -224  -92  32  115  146  146  174  279  444  613  741  826  878  896  889  874  844  781  668  519  361  212  71  -58  -166  -257  -337  -403  -466  -529  -572  -573  -528  -456  -375  -287  -222  -230  -272  -258  -157  129  818  1925  3204  4354  4966  4630  3320  1375  -708  -2439  -3507  -3822  -3519  -2877  -2117  -1425  -989  -809  -700  -534  -328  -157  -71  -59  -77  -92  -93  -79  -43  41  196  381  510  552  544  526  511  509  553  671  850  1028  1161  1272  1427  1639  1840  1975  2083  2250  2521  2854  3159  3385  3545  3661  3737  3779  3826  3926  4053  4104  4017  3848  3696  3588  3468  3267  2930  2472  1998  1590  1243  947  720  530  317  81  -113  -242  -339  -461  -648  -859  -1001  -1036  -1000  -942  -892  -874  -932  -1107  -1349  -1537  -1603  -1540  -1354  -1114  -936  -877  -917  -1029  -1165  -1246  -1231  -1151  -1068  -1026  -1027  -1049  -1067  -1060  -1026  -987  -972  -1002  -1079  -1172  -1247  -1308  -1361  -1393  -1382  -1333  -1286  -1284  -1326  -1379  -1415  -1432  -1447  -1466  -1482  -1490  -1492  -1492  -1489  -1470  -1425  -1363  -1317  -1304  -1326  -1369  -1400  -1385  -1326  -1255  -1209  -1201  -1200  -1176  -1125  -1061  -1015  -1007  -1009  -960  -827  -662  -541  -488  -492  -529  -574  -612  -629  -621  -595  -559  -527  -513  -515  -522  -526  -524  -516  -505  -498  -496  -494  -487  -477  -467  -459  -445  -417  -383  -354  -331  -328  -353  -391  -412  -404  -377  -336  -261  -141  0  116  189  222  233  235  232  231  258  335  442  529  578  607  621  609  564  475  319  84  -186  -411  -541  -596  -623  -651  -684  -721  -765  -810  -841  -858  -868  -868  -859  -854  -847  -799  -654  -337  269  1255  2523  3818  4825  5136  4414  2707  445  -1764  -3388  -4213  -4333  -3968  -3340  -2599  -1876  -1340  -1060  -937  -853  -776  -697  -593  -469  -353  -252  -160  -94  -65  -54  -47  -29  23  112  214  305  381  445  503  572  666  782  897  997  1087  1184  1309  1493  1753  2058  2341  2577  2817  3072  3278  3402  3482  3547  3584  3585  3576  3578  3583  3570  3533  3470  3321  2972  2412  1843  1499  1399  1362  1182  799  355  45  -85  -140  -220  -339  -446  -504  -540  -601  -685  -747  -762  -753  -742  -731  -714  -684  -643  -593  -539  -469  -360  -223  -128  -154  -319  -512  -572  -508  -445  -425  -430  -465  -528  -597  -643  -626  -551  -464  -400  -375  -390  -421  -457  -512  -581  -615  -581  -496  -408  -364  -373  -414  -460  -493  -496  -473  -443  -429  -433  -444  -456  -478  -516  -553  -569  -567  -557  -540  -508  -453  -386  -329  -302  -286  -239  -138  0]
