reading_id,reading_time,wire_id,result_classification,heart_rate,heart_rate_alert,firmware_version,device_app_version,hardware_version,waveform_samples
a0824780-69d0-11ed-8080-808080808080,Mon Nov 21 19:13:48 UTC 2022,a101e3b72739,NSR,59,NONE,20001.171.50,2.10.0,Charge 5,[0  560  1131  1682  2184  2604  2881  2970  2899  2737  2509  2231  1942  1657  1386  1115  783  382  -61  -506  -811  -809  -477  10  414  654  795  894  1014  1206  1434  1627  1789  1946  2060  2094  2083  2076  2048  1855  1358  642  -19  -456  -689  -805  -834  -714  -383  91  532  860  1159  1531  1954  2348  2683  2957  3196  3482  3858  4242  4516  4656  4710  4720  4712  4695  4623  4397  3992  3561  3265  3067  2766  2196  1329  322  -615  -1470  -2394  -3505  -4834  -6220  -7298  -7835  -7957  -7942  -7936  -7903  -7764  -7541  -7331  -7166  -6989  -6772  -6547  -6321  -6051  -5757  -5546  -5468  -5473  -5497  -5513  -5519  -5515  -5504  -5499  -5529  -5627  -5764  -5869  -5892  -5824  -5668  -5423  -5026  -4405  -3667  -3074  -2688  -2326  -1893  -1478  -1131  -804  -504  -305  -234  -238  -263  -300  -363  -466  -610  -782  -958  -1122  -1274  -1380  -1382  -1265  -1056  -740  -271  291  802  1168  1384  1469  1494  1605  1996  2732  3575  4173  4429  4553  4813  5268  5733  5997  6016  5873  5683  5546  5450  5258  4863  4361  3908  3504  3123  2860  2767  2767  2759  2696  2570  2379  2098  1739  1387  1096  825  526  213  -107  -472  -873  -1253  -1608  -1946  -2201  -2329  -2393  -2466  -2540  -2592  -2635  -2700  -2815  -2995  -3253  -3586  -3923  -4131  -4116  -3876  -3524  -3237  -3082  -2986  -2878  -2780  -2734  -2740  -2755  -2724  -2612  -2445  -2280  -2101  -1888  -1766  -1844  -2007  -2006  -1575  -576  796  2098  2938  3105  2474  985  -1250  -3884  -6332  -8003  -8669  -8500  -7882  -7233  -6725  -6296  -5939  -5730  -5665  -5682  -5738  -5816  -5916  -6044  -6175  -6265  -6317  -6372  -6418  -6320  -5887  -5101  -4204  -3486  -3056  -2814  -2621  -2427  -2247  -2086  -1937  -1794  -1648  -1432  -1064  -621  -310  -205  -196  -150  9  322  852  1635  2489  3091  3325  3337  3288  3244  3227  3291  3498  3812  4101  4281  4376  4508  4842  5441  6155  6731  7024  7085  7061  7037  7012  6963  6899  6869  6913  7029  7172  7278  7319  7291  7166  6935  6647  6353  6080  5866  5736  5677  5662  5679  5735  5818  5891  5929  5943  5954  5962  5954  5903  5783  5575  5310  5059  4821  4494  3985  3340  2747  2374  2231  2205  2177  2094  1960  1820  1733  1719  1758  1833  1932  2033  2118  2192  2256  2297  2305  2288  2258  2212  2127  1996  1843  1694  1573  1486  1373  1172  926  749  692  746  891  1070  1195  1229  1196  1128  1019  798  405  -56  -395  -552  -600  -589  -532  -455  -358  -110  517  1556  2672  3456  3748  3557  2927  2114  1540  1404  1575  1828  1992  2014  1927  1801  1689  1599  1528  1482  1395  1104  529  -141  -608  -775  -771  -761  -874  -1165  -1570  -1935  -2149  -2243  -2307  -2358  -2371  -2352  -2351  -2438  -2662  -3015  -3412  -3726  -3888  -3954  -4046  -4227  -4402  -4411  -4251  -4073  -3963  -3896  -3867  -3949  -4212  -4583  -4878  -4992  -4897  -4487  -3609  -2256  -691  639  1387  1579  1486  1286  1024  760  568  467  424  396  358  306  244  246  513  1240  2489  4150  5859  7070  7323  6413  4456  1917  -505  -2199  -2971  -2971  -2448  -1739  -1202  -963  -925  -1023  -1284  -1674  -2046  -2195  -1761  -438  1390  2833  3553  3979  4607  5581  6688  7577  8035  7967  7343  6414  5633  5235  5164  5296  5519  5726  5862  5940  5962  5768  5080  3889  2636  1763  1315  1118  1049  1038  1046  1100  1268  1595  2067  2612  3146  3598  3939  4205  4605  5549  7248  9183  10507  10964  10920  10708  10406  10062  9785  9615  9482  9317  9146  9019  8852  8433  7646  6596  5393  3918  2076  138  -1439  -2404  -2865  -3137  -3461  -3899  -4386  -4789  -5030  -5190  -5389  -5629  -5863  -6109  -6370  -6576  -6706  -6795  -6855  -6874  -6853  -6809  -6772  -6767  -6788  -6819  -6850  -6860  -6843  -6828  -6848  -6888  -6911  -6923  -6975  -7100  -7269  -7437  -7608  -7825  -8108  -8411  -8647  -8777  -8816  -8774  -8654  -8498  -8386  -8379  -8476  -8622  -8749  -8825  -8801  -8535  -7897  -6929  -5829  -4853  -4210  -3948  -3930  -3999  -4085  -4167  -4245  -4376  -4636  -4992  -5315  -5529  -5645  -5693  -5698  -5684  -5659  -5631  -5630  -5734  -6012  -6436  -6850  -7051  -7056  -7144  -7230  -6740  -5502  -3795  -1739  410  2112  3001  2890  1715  -140  -1920  -3097  -3688  -4053  -4494  -4872  -4702  -3830  -2671  -1654  -797  -17  612  1142  1834  2773  3667  4204  4379  4291  3896  3080  1895  690  -97  -369  -383  -370  -363  -326  -260  -208  -193  -203  -222  -229  -173  0  297  705  1249  1941  2732  3541  4243  4676  4679  4087  2921  1628  745  374  285  286  301  306  298  282  289  383  623  974  1340  1680  1956  2093  2085  2028  1979  1831  1430  847  348  72  -52  -120  -167  -185  -144  -20  157  310  420  620  1042  1598  2070  2440  2885  3465  4039  4482  4796  5017  5142  5178  5194  5270  5391  5467  5446  5339  5196  5076  5002  4981  5053  5270  5569  5813  5953  6054  6161  6233  6204  6098  6000  5938  5888  5846  5821  5784  5666  5423  5114  4852  4692  4617  4593  4601  4631  4664  4678  4659  4600  4510  4428  4400  4441  4514  4567  4583  4588  4625  4716  4829  4885  4825  4662  4467  4302  4189  4136  4129  4123  4061  3900  3648  3337  2921  2282  1453  640  -17  -491  -776  -920  -1003  -1063  -1103  -1149  -1225  -1316  -1405  -1482  -1542  -1582  -1601  -1592  -1590  -1714  -2080  -2617  -3097  -3389  -3552  -3673  -3764  -3817  -3835  -3830  -3813  -3806  -3854  -4002  -4249  -4540  -4805  -5020  -5223  -5437  -5623  -5771  -5951  -6187  -6245  -5706  -4337  -2387  -446  1088  2161  2663  2493  1776  591  -993  -2607  -3841  -4605  -4921  -4823  -4565  -4434  -4486  -4641  -4806  -4919  -4971  -4952  -4807  -4508  -4129  -3804  -3590  -3438  -3297  -3184  -3137  -3165  -3226  -3271  -3291  -3299  -3292  -3244  -3126  -2946  -2758  -2564  -2271  -1852  -1422  -1081  -833  -662  -557  -503  -498  -540  -644  -857  -1208  -1664  -2107  -2388  -2464  -2398  -2267  -2219  -2518  -3188  -3655  -3200  -1654  519  2556  3811  4095  3605  2579  1185  -373  -1879  -3127  -3858  -3892  -3313  -2420  -1541  -899  -546  -397  -332  -248  -71  215  537  777  907  979  1025  1040  1028  1011  1007  1029  1074  1135  1213  1317  1456  1632  1840  2051  2208  2286  2324  2370  2440  2528  2621  2675  2600  2287  1699  1006  486  255  218  263  354  476  586  642  647  632  634  685  793  916  985  926  679  269  -162  -482  -694  -869  -1030  -1196  -1476  -2015  -2740  -3380  -3794  -4037  -4183  -4280  -4354  -4383  -4329  -4187  -3991  -3815  -3814  -4168  -4861  -5590  -6043  -6159  -5996  -5576  -5035  -4636  -4488  -4469  -4429  -4310  -4049  -3503  -2620  -1593  -724  -188  51  130  141  123  103  96  94  92  108  169  264  358  457  610  806  976  1097  1243  1480  1777  2036  2195  2267  2296  2312  2338  2379  2426  2469  2500  2511  2495  2458  2414  2381  2370  2390  2450  2534  2602  2636  2643  2644  2666  2726  2810  2885  2924  2905  2788  2566  2310  2115  2024  2038  2117  2198  2234  2219  2176  2141  2130  2134  2140  2134  2106  2054  1987  1918  1850  1764  1619  1422  1244  1138  1090  1065  1047  1041  1048  1056  1052  1032  1003  983  989  1013  1034  1051  1049  950  673  290  2  -76  30  273  593  892  1067  1084  985  836  695  565  418  267  169  145  158  167  150  113  71  38  19  13  15  25  40  36  -37  -224  -454  -534  -416  -357  -495  -498  64  1343  3187  5064  6181  6117  5083  3507  1709  -125  -1869  -3318  -4136  -4059  -3205  -2075  -1147  -565  -234  -21  165  332  448  531  647  802  935  998  1000  958  880  784  675  544  402  293  239  221  218  229  272  361  479  585  647  677  706  752  816  880  947  1049  1217  1427  1611  1723  1765  1775  1800  1873  1985  2096  2157  2126  1983  1777  1630  1668  1947  2372  2738  2932  2987  2967  2920  2889  2882  2856  2764  2614  2462  2321  2142  1884  1591  1352  1202  1110  1057  1039  1037  1039  1052  1088  1143  1205  1280  1367  1430  1409  1258  1004  766  670  758  985  1236  1406  1481  1515  1549  1599  1675  1778  1877  1932  1912  1804  1635  1464  1326  1230  1119  835  239  -556  -1239  -1623  -1766  -1791  -1761  -1703  -1639  -1590  -1586  -1684  -1931  -2245  -2473  -2555  -2549  -2515  -2483  -2459  -2427  -2351  -2215  -2041  -1840  -1605  -1372  -1215  -1154  -1123  -1044  -901  -732  -585  -505  -537  -705  -952  -1156  -1260  -1273  -1194  -1052  -938  -906  -931  -963  -975  -987  -1065  -1272  -1640  -2191  -2855  -3408  -3686  -3747  -3733  -3715  -3707  -3739  -3848  -4029  -4244  -4471  -4678  -4808  -4844  -4810  -4728  -4634  -4608  -4713  -4917  -5114  -5244  -5336  -5427  -5499  -5527  -5518  -5500  -5509  -5570  -5658  -5726  -5759  -5777  -5794  -5775  -5643  -5342  -4915  -4452  -4038  -3745  -3569  -3411  -3195  -2963  -2791  -2699  -2675  -2706  -2758  -2789  -2798  -2863  -3092  -3357  -3233  -2386  -841  1122  2992  4130  4205  3340  1836  -35  -2026  -3855  -5223  -5874  -5674  -4755  -3515  -2339  -1422  -829  -535  -385  -182  129  491  939  1575  2292  2827  3079  3158  3197  3254  3349  3517  3761  4006  4199  4370  4527  4613  4595  4511  4409  4281  4081  3832  3626  3535  3610  3894  4338  4814  5249  5608  5835  5873  5625  5030  4289  3764  3593  3657  3832  4056  4270  4435  4546  4612  4637  4608  4479  4237  3964  3762  3593  3204  2399  1419  752  580  716  924  1060  1046  835  454  38  -277  -470  -589  -665  -707  -739  -807  -940  -1110  -1259  -1354  -1391  -1378  -1311  -1203  -1073  -904  -628  -214  258  637  824  816  645  362  78  -106  -187  -216  -224  -230  -248  -281  -307  -274  -129  105  318  425  443  429  415  401  386  400  521  854  1435  2079  2481  2557  2494  2441  2385  2329  2366  2512  2674  2791  2862  2854  2702  2367  1871  1309  841  572  487  513  602  710  779  746  582  351  169  90  90  138  218  311  389  410  357  270  225  268  377  489  548  507  320  23  -252  -401  -430  -399  -356  -318  -287  -272  -295  -379  -531  -723  -902  -1018  -1085  -1171  -1302  -1439  -1534  -1585  -1605  -1600  -1574  -1513  -1387  -1225  -1224  -1564  -2008  -1984  -1073  711  2813  4321  4655  3873  2342  505  -1273  -2860  -4165  -5031  -5337  -4981  -4035  -2963  -2263  -2011  -1982  -1972  -1911  -1756  -1450  -1040  -709  -547  -436  -199  189  569  778  794  683  515  345  208  129  118  152  193  219  238  283  387  538  678  759  782  789  821  882  943  990  1040  1133  1296  1489  1635  1717  1792  1900  2035  2188  2340  2447  2493  2496  2476  2445  2401  2312  2129  1848  1502  1099  708  463  408  474  580  654  599  311  -176  -652  -938  -1054  -1099  -1116  -1100  -1061  -1043  -1080  -1149  -1219  -1291  -1361  -1406  -1401  -1333  -1219  -1116  -1074  -1103  -1173  -1244  -1297  -1332  -1343  -1315  -1248  -1174  -1123  -1102  -1086  -1056  -1007  -946  -892  -860  -845  -833  -821  -828  -884  -1004  -1168  -1333  -1471  -1580  -1668  -1724  -1723  -1634  -1455  -1258  -1131  -1093  -1100  -1116  -1124  -1119  -1106  -1093  -1077  -1053  -1018  -946  -800  -604  -426  -268  -87  87  162  91  -78  -270  -442  -601  -769  -932  -1037  -1035  -911  -706  -522  -459  -542  -725  -932  -1104  -1216  -1274  -1285  -1209  -991  -603  -101  373  689  854  981  1137  1267  1276  1179  1071  973  832  659  534  481  441  358  249  149  50  -61  -187  -338  -539  -781  -1011  -1161  -1222  -1238  -1237  -1228  -1238  -1310  -1432  -1493  -1476  -1644  -2181  -2802  -3006  -2422  -932  1122  2981  3943  3790  2801  1401  -134  -1683  -3141  -4302  -4946  -5078  -4841  -4365  -3831  -3380  -2999  -2634  -2243  -1806  -1383  -1063  -860  -737  -675  -661  -682  -735  -806  -862  -872  -801  -627  -368  -78  177  361  491  596  654  643  578  502  452  433  427  447  564  836  1216  1582  1847  1994  2028  1959  1820  1681  1601  1590  1617  1652  1684  1719  1773  1884  2107  2409  2658  2768  2771  2735  2693  2654  2615  2574  2538  2513  2476  2368  2101  1594  879  178  -276  -456  -471  -420  -375  -372  -423  -562  -806  -1088  -1296  -1385  -1392  -1364  -1321  -1276  -1254  -1276  -1341  -1429  -1535  -1671  -1824  -1941  -1966  -1887  -1760  -1603  -1296  -718  -14  480  647  668  720  811  873  872  808  678  470  224  35  -64  -116  -153  -157  -107  -10  108  222  293  315  316  320  342  381  419  444  459  468  465  443  411  407  443  483  496  494  493  495  495  489  472  445  417  416  482  635  830  1000  1116  1157  1120  1063  1022  982  947  927  880  741  501  237  42  -52  -85  -113  -148  -137  -48  55  104  92  43  -12  -45  -62  -117  -253  -426  -530  -521  -453  -397  -371  -378  -442  -598  -808  -977  -1069  -1139  -1243  -1371  -1464  -1497  -1495  -1481  -1458  -1423  -1385  -1353  -1330  -1316  -1324  -1361  -1414  -1462  -1493  -1511  -1533  -1589  -1701  -1858  -2014  -2117  -2154  -2152  -2145  -2152  -2181  -2227  -2278  -2313  -2331  -2345  -2356  -2316  -2150  -1856  -1552  -1369  -1337  -1361  -1240  -681  561  2356  4126  5247  5408  4697  3390  1677  -273  -2193  -3743  -4493  -4115  -2807  -1204  139  956  1228  1183  1082  1038  1092  1278  1553  1796  1950  2054  2160  2281  2398  2508  2634  2780  2899  2948  2908  2775  2574  2360  2198  2138  2190  2325  2517  2767  3021  3172  3211  3228  3289  3404  3546  3663  3734  3794  3879  3970  4017  4008  3982  3979  4022  4130  4291  4447  4541  4578  4593  4609  4641  4688  4730  4748  4746  4729  4685  4572  4317  3813  2950  1766  574  -251  -606  -663  -634  -620  -648  -733  -870  -1015  -1127  -1193  -1229  -1249  -1251  -1246  -1243  -1221  -1171  -1097  -1002  -913  -875  -912  -1030  -1187  -1302  -1343  -1329  -1280  -1207  -1140  -1112  -1130  -1171  -1204  -1215  -1205  -1177  -1138  -1096  -1061  -1050  -1072  -1096  -1079  -1015  -937  -881  -854  -837  -805  -744  -670  -618  -631  -744  -946  -1168  -1351  -1481  -1550  -1550  -1469  -1324  -1175  -1086  -1072  -1099  -1127  -1142  -1157  -1169  -1158  -1108  -1028  -962  -943  -962  -994  -1019  -1032  -1038  -1036  -1006  -952  -913  -914  -932  -939  -935  -931  -915  -850  -726  -578  -460  -400  -377  -351  -314  -291  -311  -380  -455  -492  -481  -388  -155  167  412  436  186  -274  -739  -1014  -1093  -1087  -1083  -1098  -1114  -1117  -1112  -1108  -1073  -888  -439  153  585  685  496  147  -206  -453  -583  -637  -671  -728  -784  -762  -638  -481  -371  -340  -400  -567  -807  -1016  -1119  -1139  -1138  -1137  -1111  -1049  -974  -911  -862  -819  -760  -683  -656  -816  -1261  -1876  -2373  -2464  -1944  -792  774  2283  3190  3212  2377  920  -836  -2638  -4311  -5633  -6377  -6446  -5933  -5087  -4187  -3430  -2883  -2511  -2285  -2198  -2186  -2115  -1843  -1352  -822  -466  -316  -263  -190  -55  102  211  209  40  -295  -676  -955  -1091  -1113  -1044  -914  -787  -704  -641  -541  -379  -196  -42  71  181  338  558  760  827  745  611  524  529  674  998  1404  1700  1829  1908  2021  2120  2117  2031  1989  2091  2298  2456  2448  2321  2209  2164  2129  2038  1888  1721  1593  1518  1426  1213  910  656  518  450  394  320  237  180  159  160  166  173  183  196  213  234  252  259  256  251  235  184  82  -39  -121  -143  -135  -129  -144  -182  -203  -105  203  629  941  1011  893  701  529  415  371  370  341  273  242  276  330  375  413  452  494  515  478  365  193  4  -157  -255  -272  -242  -213  -218  -280  -412  -579  -705  -730  -627  -408  -158  11  74  80  80  88  93  86  76  77  87  117  181  268  327  326  283  254  286  373  482  590  679  729  740  730  707  660  569  419  209  -27  -213  -307  -334  -341  -352  -355  -313  -194  -31  105  200  295  404  509  602  676  715  723  736  796  910  1065  1253  1459  1636  1747  1795  1779  1646  1351  952  578  331  231  246  344  490  633  742  813  847  839  793  733  681  635  572  473  331  162  5  -114  -204  -269  -306  -322  -346  -415  -544  -681  -739  -675  -549  -449  -404  -384  -374  -366  -351  -363  -485  -721  -874  -629  255  1764  3503  4861  5368  4954  3850  2330  634  -1028  -2538  -3748  -4391  -4356  -3831  -3054  -2198  -1492  -1116  -1012  -987  -926  -819  -679  -524  -398  -334  -314  -307  -294  -269  -218  -122  17  141  179  172  206  272  320  352  379  391  371  325  269  225  219  268  358  455  537  607  678  753  824  897  1002  1172  1400  1646  1887  2109  2270  2340  2347  2337  2334  2334  2317  2252  2101  1864  1615  1425  1259  1043  784  550  374  236  107  -41  -243  -522  -834  -1069  -1179  -1214  -1232  -1250  -1269  -1307  -1391  -1512  -1629  -1727  -1815  -1891  -1940  -1961  -1972  -1989  -2019  -2058  -2106  -2162  -2202  -2198  -2165  -2140  -2139  -2155  -2165  -2137  -2053  -1944  -1863  -1824  -1805  -1796  -1805  -1818  -1829  -1850  -1890  -1939  -1970  -1950  -1861  -1703  -1530  -1405  -1329  -1270  -1212  -1151  -1069  -929  -694  -372  -55  154  236  239  198  113  -2  -126  -287  -550  -939  -1394  -1794  -2031  -2101  -2088  -2068  -2064  -2074  -2098  -2136  -2209  -2367  -2624  -2901  -3102  -3233  -3360  -3517  -3694  -3852  -3949  -3988  -4025  -4113  -4233  -4322  -4358  -4345  -4232  -3951  -3566  -3260  -3133  -3149  -3234  -3334  -3407  -3448  -3456  -3364  -3031  -2358  -1405  -334  649  1343  1707  1882  1987  2025  1972  1851  1708  1566  1403  1179  919  714  612  579  607  796  1281  2016  2714  3118  3229  3223  3242  3321  3439  3612  3868  4166  4411  4567  4681  4805  4928  5000  5013  4998  4981  4968  4976  5040  5179  5349  5464  5438  5210  4810  4374  4020  3780  3659  3642  3674  3670  3567  3387  3196  2995  2737  2457  2244  2104  1971  1835  1715  1537  1186  722  431  632  1497  2991  4815  6439  7344  7249  6162  4326  2101  -148  -2078  -3384  -3902  -3653  -2876  -1989  -1346  -995  -772  -561  -395  -316  -296  -290  -284  -282  -283  -282  -268  -222  -117  52  236  338  323  250  207  223  266  316  382  463  550  658  787  897  956  966  933  852  753  706  757  879  1003  1086  1131  1179  1263  1354  1395  1402  1442  1526  1627  1728  1816  1907  2032  2168  2245  2224  2137  2057  2010  1962  1857  1657  1398  1188  1079  1022  969  930  883  683  175  -588  -1357  -1934  -2276  -2431  -2474  -2461  -2426  -2357  -2220  -2046  -1913  -1852  -1835  -1827  -1809  -1778  -1740  -1698  -1662  -1643  -1662  -1737  -1854  -1962  -2019  -2015  -1978  -1956  -1973  -2028  -2095  -2110  -2049  -1972  -1932  -1930  -1943  -1945  -1913  -1843  -1765  -1706  -1630  -1513  -1414  -1404  -1487  -1603  -1688  -1720  -1706  -1646  -1541  -1430  -1361  -1341  -1345  -1367  -1411  -1462  -1494  -1504  -1511  -1522  -1539  -1565  -1598  -1612  -1536  -1305  -989  -752  -661  -663  -708  -787  -888  -993  -1100  -1197  -1261  -1287  -1293  -1282  -1246  -1195  -1150  -1124  -1122  -1137  -1144  -1104  -979  -803  -674  -678  -836  -1086  -1311  -1443  -1505  -1540  -1561  -1544  -1454  -1306  -1169  -1094  -1044  -937  -752  -550  -410  -368  -393  -429  -450  -456  -441  -386  -291  -190  -114  -58  -7  23  35  75  137  132  30  -91  -137  -95  -69  -152  -313  -438  -482  -479  -471  -470  -460  -418  -351  -291  -252  -229  -214  -199  -179  -167  -197  -289  -345  -149  491  1623  3062  4408  5224  5229  4452  3137  1500  -266  -1891  -3103  -3699  -3574  -2823  -1721  -671  -36  165  181  201  276  397  525  611  644  648  629  566  467  387  390  494  645  760  837  963  1181  1411  1551  1588  1580  1564  1539  1487  1417  1362  1333  1330  1377  1505  1674  1796  1837  1845  1869  1913  1974  2104  2349  2649  2881  2985  3000  2988  2967  2932  2893  2912  3059  3322  3601  3798  3862  3714  3286  2683  2116  1663  1297  1039  902  835  767  611  306  -61  -310  -352  -239  -82  30  96  164  245  298  278  167  0  -157  -271  -361  -439  -481  -473  -439  -414  -408  -413  -412  -386  -333  -284  -264  -275  -298  -314  -318  -318  -318  -314  -300  -268  -225  -195  -202  -252  -321  -365  -362  -334  -337  -409  -505  -551  -512  -404  -291  -230  -220  -231  -243  -264  -323  -432  -551  -624  -643  -638  -636  -643  -651  -663  -688  -716  -722  -680  -578  -433  -278  -148  -65  -26  -37  -150  -410  -733  -962  -1042  -1033  -989  -924  -877  -912  -1030  -1175  -1301  -1395  -1459  -1497  -1516  -1512  -1481  -1436  -1415  -1438  -1458  -1421  -1351  -1310  -1326  -1357  -1342  -1258  -1146  -1093  -1153  -1292  -1463  -1633  -1737  -1741  -1699  -1666  -1634  -1574  -1470  -1322  -1149  -988  -869  -796  -757  -703  -575  -382  -193  -61  3  17  1  -47  -139  -253  -349  -407  -437  -464  -508  -571  -632  -662  -668  -684  -753  -895  -1075  -1226  -1317  -1359  -1382  -1380  -1270  -1021  -808  -840  -1113  -1336  -1009  272  2348  4464  5780  5865  4888  3390  1844  405  -954  -2115  -2815  -2915  -2483  -1751  -1046  -564  -258  -17  179  301  386  513  678  802  844  842  846  877  919  938  917  870  823  793  796  839  898  954  1021  1105  1201  1305  1411  1503  1549  1519  1420  1288  1167  1095  1106  1234  1470  1720  1879  1931  1914  1873  1880  2014  2264  2504  2619  2603  2522  2452  2443  2507  2622  2755  2869  2932  2897  2685  2271  1798  1484  1393  1424  1444  1352  1109  793  549  431  369  269  111  -69  -263  -454  -586  -630  -625  -624  -655  -706  -750  -774  -785  -789  -772  -711  -605  -487  -399  -369  -385  -405  -406  -404  -450  -577  -734  -829  -845  -834  -825  -805  -751  -670  -599  -563  -563  -599  -671  -753  -809  -827  -828  -836  -863  -899  -927  -949  -986  -1041  -1092  -1135  -1183  -1242  -1299  -1329  -1316  -1256  -1142  -988  -845  -758  -712  -675  -641  -618  -617  -654  -729  -816  -886  -931  -955  -964  -957  -928  -887  -859  -835  -750  -554  -309  -141  -90  -94  -80  -36  -10  -13  10  72  115  106  61  7  -31  -51  -65  -71  -70  -76  -89  -99  -113  -128  -120  -92  -65  -48  -47  -76  -145  -231  -292  -309  -297  -278  -263  -255  -260  -289  -339  -378  -345  -201  0  151  214  228  232  232  226  206  177  153  144  164  217  283  348  422  494  533  512  418  272  130  20  -89  -254  -459  -620  -696  -704  -671  -627  -600  -604  -641  -691  -729  -745  -751  -757  -759  -735  -648  -513  -471  -669  -1014  -1146  -672  575  2344  4046  5094  5102  4050  2372  581  -1059  -2361  -3174  -3513  -3478  -3149  -2553  -1784  -1083  -644  -464  -433  -448  -450  -404  -295  -154  -43  1  -7  -31  -21  84  301  548  713  767  737  630  451  263  138  96  117  204  374  625  882  1045  1103  1137  1201  1277  1326  1340  1331  1303  1259  1208  1165  1151  1198  1324  1503  1679  1853  2071  2320  2520  2647  2735  2789  2775  2668  2488  2307  2163  2019  1823  1579  1343  1181  1100  1054  994  890  733  540  355  214  114  34  -35  -93  -154  -237  -335  -410  -453  -503  -582  -668  -741  -814  -899  -988  -1074  -1151  -1191  -1163  -1070  -972  -945  -996  -1070  -1133  -1199  -1273  -1334  -1366  -1376  -1378  -1395  -1444  -1493  -1494  -1430  -1331  -1232  -1138  -1047  -969  -898  -818  -733  -634  -504  -366  -272  -238  -234  -237  -245  -255  -258  -245  -233  -247  -283  -324  -343  -316  -251  -190  -170  -208  -285  -360  -405  -427  -437  -445  -446  -425  -373  -288  -158  -3  117  161  148  116  80  42  -11  -97  -181  -218  -223  -219  -201  -169  -121  -45  42  109  145  155  117  6  -148  -258  -239  -74  154  322  378  363  316  252  193  159  155  180  235  320  414  497  575  652  703  701  652  594  562  549  520  452  355  260  192  171  204  271  337  376  373  303  155  -26  -165  -194  -110  14  98  127  129  121  99  68  42  30  43  94  178  254  274  215  97  -38  -151  -213  -223  -202  -175  -158  -156  -166  -178  -187  -190  -190  -189  -188  -185  -173  -137  -64  -12  -120  -460  -839  -852  -156  1295  3150  4737  5448  5109  3936  2235  279  -1585  -2979  -3694  -3754  -3359  -2796  -2296  -1903  -1482  -992  -597  -402  -322  -244  -154  -111  -132  -148  -105  -22  58  112  131  152  211  290  350  375  373  365  360  342  289  205  123  69  50  56  77  120  202  311  401  456  500  571  694  860  1030  1174  1280  1347  1375  1369  1344  1313  1285  1257  1231  1213  1207  1214  1241  1286  1331  1341  1277  1124  915  704  533  414  305  167  34  -47  -129  -293  -522  -723  -865  -978  -1061  -1099  -1102  -1096  -1095  -1091  -1070  -1026  -959  -892  -833  -762  -684  -627  -592  -555  -492  -409  -345  -336  -382  -456  -525  -572  -590  -575  -531  -462  -365  -242  -85  101  263  340  334  291  249  210  169  115  37  -55  -124  -151  -151  -141  -133  -129  -130  -133  -133  -126  -125  -166  -281  -438  -554  -587  -556  -491  -427  -400  -418  -463  -513  -574  -648  -704  -704  -649  -573  -524  -529  -567  -599  -609  -608  -610  -613  -602  -548  -434  -293  -208  -246  -394  -586  -757  -861  -872  -769  -555  -305  -130  -85  -141  -226  -283  -305  -323  -355  -393  -429  -466  -505  -533  -547  -553  -559  -567  -575  -581  -573  -542  -498  -472  -486  -522  -517  -417  -243  -54  123  267  353  378  344  229  48  -121  -214  -238  -233  -221  -204  -175  -137  -98  -67  -58  -76  -90  -69  -21  24  51  53  28  -5  -41  -106  -215  -297  -237  -109  -178  -498  -768  -591  291  1825  3518  4664  4842  4097  2723  1103  -413  -1643  -2527  -3007  -3054  -2807  -2453  -2031  -1545  -1080  -726  -514  -424  -403  -409  -374  -219  33  252  360  380  361  324  282  248  225  217  234  292  390  493  568  620  669  724  779  802  751  646  557  515  499  489  493  542  655  791  896  969  1049  1138  1220  1331  1530  1802  2040  2162  2188  2179  2168  2160  2148  2126  2100  2075  2063  2065  2072  2057  1986  1834  1641  1481  1377  1313  1282  1268  1213  1051  786  508  309  204  153  105  22  -89  -200  -279  -306  -305  -320  -363  -411  -441  -449  -449  -449  -447  -440  -435  -435  -431  -424  -430  -467  -523  -563  -567  -551  -537  -524  -494  -448  -418  -433  -484  -538  -570  -580  -581  -580  -566  -526  -474  -454  -508  -624  -741  -803  -809  -797  -792  -792  -778  -732  -670  -626  -611  -609  -615  -645  -713  -775  -763  -678  -595  -556  -553  -578  -639  -717  -777  -801  -796  -754  -658  -517  -389  -337  -386  -506  -632  -715  -752  -766  -771  -768  -766  -759  -738  -705  -667  -633  -615  -614  -619  -623  -624  -615  -589  -554  -520  -471  -368  -213  -81  -34  -33  -11  4  -45  -149  -244  -297  -319  -325  -306  -248  -158  -71  -35  -92  -250  -449  -592  -638  -619  -584  -559  -541  -518  -485  -423  -295  -108  87  269  429  535  577  577  532  425  286  185  146  143  152  161  155  112  36  -44  -95  -107  -96  -79  -69  -83  -132  -201  -251  -252  -198  -114  -46  -51  -187  -458  -776  -957  -726  130  1539  3156  4496  5092  4809  3902  2693  1325  -194  -1783  -3144  -3879  -3791  -3004  -1885  -901  -359  -215  -212  -168  -53  70  161  232  303  371  440  532  645  738  784  800  816  828  789  667  506  367  255  159  93  83  161  345  569  719  745  689  630  652  775  929  1027  1052  1038  1014  997  1020  1137  1357  1612  1811  1915  1951  1962  1969  1977  1988  1998  2006  2014  2025  2023  1979  1878  1739  1608  1528  1488  1429  1289  1039  690  312  -5  -217  -338  -405  -453  -526  -663  -853  -1048  -1192  -1227  -1110  -888  -701  -660  -737  -823  -861  -865  -870  -896  -944  -994  -1026  -1037  -1040  -1048  -1046  -1000  -897  -772  -673  -610  -575  -551  -524  -486  -444  -408  -369  -331  -328  -382  -467  -544  -562  -509  -430  -370  -354  -380  -405  -390  -344  -306  -292  -292  -295  -298  -307  -327  -354  -376  -381  -369  -350  -337  -341  -356  -375  -401  -439  -491  -549  -591  -609  -617  -624  -630  -610  -545  -451  -367  -304  -254  -220  -202  -184  -155  -124  -103  -93  -98  -137  -230  -354  -451  -491  -492  -483  -477  -474  -468  -462  -449  -398  -273  -107  16  59  51  17  -46  -144  -262  -370  -442  -472  -478  -480  -483  -479  -460  -435  -418  -401  -356  -271  -159  -53  14  35  21  -24  -100  -207  -343  -479  -560  -545  -421  -236  -82  -14  -10  -26  -34  -16  28  65  45  -28  -104  -149  -161  -119  13  223  434  591  703  779  803  775  738  733  734  688  587  461  332  189  31  -123  -254  -341  -381  -402  -441  -510  -583  -612  -585  -538  -496  -437  -344  -226  -124  -81  -102  -190  -333  -431  -238  575  2078  3820  5175  5730  5335  4129  2465  637  -1143  -2603  -3490  -3744  -3468  -2782  -1840  -942  -371  -147  -96  -59  14  98  179  278  386  466  505  521  524  524  541  592  662  714  730  724  715  711  715  718  704  659  596  544  522  537  603  717  832  910  977  1075  1171  1201  1178  1171  1213  1276  1316  1325  1329  1342  1365  1395  1423  1439  1441  1437  1437  1435  1427  1429  1444  1455  1412  1224  844  397  76  -74  -166  -282  -400  -477  -542  -668  -867  -1057  -1162  -1186  -1171  -1140  -1107  -1092  -1108  -1139  -1165  -1177  -1183  -1183  -1163  -1105  -1025  -962  -939  -963  -1036  -1135  -1208  -1208  -1118  -967  -831  -758  -722  -672  -588  -491  -424  -405  -423  -463  -522  -591  -651  -693  -711  -700  -656  -596  -546  -515  -496  -490  -496  -505  -507  -505  -503  -511  -542  -575  -551  -443  -317  -239  -214  -232  -291  -372  -451  -513  -555  -571  -553  -503  -424  -315  -190  -79  -15  -1  -8  -14  -23  -41  -60  -64  -59  -63  -88  -140  -208  -265  -298  -318  -340  -366  -393  -415  -422  -376  -241  -56  82  134  128  88  14  -62  -96  -86  -69  -55  -43  -37  -44  -65  -92  -108  -94  -45  17  66  67  -15  -160  -295  -376  -405  -381  -294  -165  -47  30  84  127  157  169  166  173  235  375  548  675  735  755  746  691  589  468  361  267  171  72  -43  -185  -293  -322  -316  -304  -259  -181  -114  -92  -109  -138  -173  -218  -277  -356  -433  -458  -388  -255  -231  -515  -1024  -1306  -864  433  2250  3979  4981  4903  3902  2394  682  -1024  -2520  -3604  -4093  -3891  -3173  -2349  -1711  -1277  -977  -780  -630  -451  -251  -112  -67  -85  -129  -175  -182  -107  40  191  268  259  196  131  102  107  127  163  216  272  323  363  384  391  403  439  493  532  535  518  535  644  853  1087  1255  1354  1419  1454  1463  1483  1558  1684  1822  1941  2024  2058  2041  1985  1911  1827  1748  1716  1717  1694  1644  1578  1481  1345  1170  978  796  609  400  214  102  50  1  -106  -295  -514  -684  -760  -754  -706  -642  -581  -539  -535  -571  -623  -658  -668  -665  -661  -662  -670  -682  -690  -692  -688  -681  -659  -609  -541  -492  -479  -483  -489  -481  -449  -405  -363  -318  -272  -239  -223  -215  -203  -182  -165  -183  -267  -412  -556  -627  -563  -335  -28  202  299  312  270  157  6  -87  -78  -19  18  0  -79  -191  -282  -319  -307  -261  -186  -87  21  121  188  223  243  246  209  106  -42  -162  -211  -212  -193  -163  -130  -103  -79  -50  -17  5  13  15  21  30  38  37  21  -8  -41  -74  -99  -120  -162  -243  -339  -406  -422  -406  -385  -370  -359  -352  -351  -355  -361  -357  -323  -247  -165  -137  -171  -245  -338  -414  -445  -430  -383  -320  -270  -232  -159  3  225  404  486  504  496  463  392  302  229  162  61  -67  -165  -202  -201  -194  -209  -278  -409  -563  -684  -743  -752  -743  -735  -736  -751  -783  -839  -921  -1020  -1132  -1160  -830  101  1548  3096  4261  4701  4299  3184  1651  -36  -1676  -3056  -3951  -4233  -3998  -3444  -2723  -1991  -1390  -972  -719  -587  -508  -434  -364  -308  -251  -180  -104  -34  20  47  45  38  67  165  301  407  452  459  449  423  388  359  344  342  371  446  542  615  680  818  1055  1318  1509  1607  1652  1682  1709  1730  1749  1768  1790  1812  1836  1874  1936  2011  2078  2130  2171  2195  2194  2171  2143  2108  2012  1794  1494  1221  1019  827  575  288  69  -42  -115  -218  -349  -450  -488  -481  -459  -436  -410  -371  -318  -271  -247  -248  -266  -289  -306  -320  -356  -440  -565  -681  -751  -774  -769  -745  -708  -655  -567  -429  -274  -167  -134  -161  -237  -334  -396  -369  -254  -141  -148  -274  -400  -423  -326  -146  57  218  276  200  32  -140  -253  -287  -251  -166  -56  40  97  114  110  91  50  0  -32  -37  -46  -101  -213  -339  -427  -464  -452  -407  -362  -320  -261  -200  -164  -152  -148  -149  -156  -162  -154  -120  -68  -26  -8  -8  -14  -36  -89  -163  -221  -246  -249  -242  -234  -230  -253  -320  -408  -455  -427  -356  -297  -280  -311  -377  -445  -508  -571  -599  -567  -518  -490  -485  -498  -541  -616  -711  -801  -853  -835  -734  -591  -483  -439  -430  -431  -433  -432  -419  -383  -317  -244  -197  -195  -231  -283  -317  -313  -277  -237  -233  -278  -356  -444  -524  -570  -544  -412  -194  7  112  129  111  103  112  119  103  71  22  -70  -216  -389  -544  -632  -626  -539  -428  -359  -349  -370  -398  -418  -421  -408  -381  -324  -211  -116  -236  -577  -773  -409  660  2301  4063  5292  5585  4990  3726  2043  241  -1452  -2863  -3709  -3799  -3314  -2554  -1669  -826  -221  119  313  475  641  767  822  832  838  859  910  1002  1110  1183  1206  1203  1194  1185  1176  1181  1214  1269  1321  1357  1377  1382  1378  1371  1374  1387  1375  1302  1199  1127  1090  1057  1026  1017  1038  1068  1060  999  933  914  943  990  1021  1029  1038  1077  1145  1209  1226  1181  1105  1033  967  892  798  675  523  374  237  78  -121  -339  -547  -727  -853  -918  -978  -1102  -1263  -1344  -1280  -1134  -1017  -969  -958  -962  -998  -1084  -1186  -1242  -1228  -1181  -1128  -1067  -1012  -991  -1001  -1024  -1052  -1083  -1117  -1158  -1221  -1294  -1335  -1318  -1265  -1215  -1183  -1137  -1031  -869  -731  -666  -653  -661  -669  -674  -683  -697  -705  -705  -701  -698  -704  -732  -785  -830  -810  -696  -528  -392  -358  -403  -463  -497  -470  -387  -310  -277  -273  -278  -300  -354  -419  -425  -313  -129  13  62  49  23  8  -3  -26  -48  -59  -83  -147  -237  -304  -327  -323  -316  -317  -330  -356  -385  -411  -427  -433  -434  -425  -393  -331  -255  -199  -177  -176  -196  -247  -322  -396  -448  -478  -485  -444  -325  -163  -52  -43  -107  -153  -96  43  162  195  159  103  57  17  -37  -103  -157  -188  -208  -223  -232  -234  -213  -154  -74  -19  -10  -23  0  107  289  473  591  625  593  502  356  203  109  81  76  73  92  139  178  165  100  9  -89  -196  -300  -376  -407  -393  -340  -249  -140  -60  -31  -36  -51  -74  -141  -322  -585  -661  -197  924  2503  4120  5255  5547  4951  3587  1683  -394  -2234  -3453  -3891  -3740  -3299  -2779  -2293  -1814  -1272  -746  -405  -267  -204  -108  43  205  323  392  437  466  481  487  480  451  412  385  379  390  406  422  437  455  494  568  655  744  843  937  1004  1051  1080  1091  1090  1082  1067  1062  1115  1267  1480  1654  1739  1754  1739  1730  1768  1884  2039  2146  2166  2120  2036  1946  1887  1867  1860  1845  1821  1796  1769  1718  1615  1459  1274  1047  737  377  69  -151  -352  -593  -829  -974  -1001  -948  -855  -752  -663  -604  -575  -575  -612  -687  -777  -861  -929  -959  -918  -817  -699  -613  -577  -579  -601  -631  -661  -683  -690  -681  -668  -667  -676  -681  -676  -666  -635  -559  -455  -374  -334  -318  -312  -311  -311  -304  -289  -269  -252  -239  -223  -209  -210  -232  -266  -295  -293  -225  -121  -100  -204  -343  -442  -487  -485  -468  -472  -502  -547  -603  -668  -722  -750  -750  -731  -707  -691  -687  -692  -700  -713  -731  -744  -737  -705  -664  -654  -691  -741  -765  -770  -775  -793  -820  -826  -771  -649  -521  -469  -498  -544  -565  -565  -560  -563  -577  -598  -615  -625  -629  -608  -539  -429  -323  -265  -270  -302  -306  -264  -197  -142  -109  -67  -6  43  65  86  137  224  318  392  442  461  398  203  -82  -336  -472  -503  -465  -371  -250  -161  -145  -215  -354  -509  -620  -669  -672  -646  -607  -566  -535  -508  -423  -260  -149  -140  6  638  1885  3446  4684  5052  4424  3036  1290  -442  -1996  -3287  -4115  -4325  -3954  -3176  -2261  -1492  -989  -707  -551  -444  -348  -266  -194  -111  -24  32  49  44  38  45  74  116  153  181  205  230  256  280  296  319  350  361  332  284  269  373  650  1008  1263  1346  1325  1257  1154  1048  1009  1080  1212  1316  1364  1414  1528  1684  1799  1833  1813  1779  1749  1725  1692  1644  1595  1551  1503  1459  1436  1428  1424  1411  1358  1228  1038  846  671  491  297  108  -41  -145  -240  -359  -471  -535  -556  -572  -590  -572  -510  -451  -427  -424  -423  -418  -412  -404  -396  -393  -395  -398  -400  -391  -362  -324  -297  -292  -300  -298  -254  -144  0  104  109  9  -159  -330  -450  -487  -446  -370  -304  -254  -213  -194  -207  -239  -257  -237  -197  -164  -136  -93  -44  -22  -41  -87  -129  -154  -172  -186  -192  -185  -155  -98  -33  13  35  44  43  25  0  -22  -41  -57  -72  -93  -136  -204  -257  -229  -128  -34  5  10  8  7  3  -9  -29  -49  -60  -67  -85  -121  -156  -180  -210  -247  -268  -264  -250  -240  -232  -220  -207  -196  -193  -206  -245  -294  -315  -286  -227  -175  -157  -187  -276  -393  -480  -513  -513  -494  -446  -368  -294  -251  -234  -220  -210  -240  -340  -472  -570  -609  -625  -651  -698  -761  -830  -895  -946  -977  -988  -989  -989  -993  -998  -993  -983  -998  -1065  -1189  -1313  -1346  -1275  -1024  -303  1064  2795  4260  4917  4610  3464  1743  -213  -2107  -3645  -4509  -4582  -4060  -3272  -2493  -1877  -1460  -1208  -1046  -906  -775  -659  -520  -310  -59  137  228  229  179  118  89  99  126  155  172  179  215  328  499  646  714  715  685  648  627  655  755  891  991  1028  1044  1085  1157  1259  1406  1586  1745  1859  1937  1999  2064  2151  2256  2356  2429  2465  2477  2492  2531  2606  2712  2805  2820  2720  2515  2265  2057  1937  1863  1763  1597  1388  1211  1118  1075  987  799  549  332  208  155  117  79  58  69  113  163  192  197  187  165  126  71  8  -46  -76  -76  -63  -57  -65  -88  -125  -167  -203  -229  -247  -252  -255  -288  -387  -526  -621  -625  -584  -549  -531  -532  -587  -732  -925  -1067  -1117  -1111  -1082  -1036  -987  -960  -954  -925  -829  -690  -583  -557  -608  -698  -793  -875  -914  -891  -835  -788  -764  -767  -799  -855  -917  -960  -978  -981  -958  -886  -778  -692  -666  -675  -673  -639  -573  -503  -463  -457  -462  -465  -466  -479  -523  -596  -664  -693  -677  -636  -604  -598  -598  -589  -573  -567  -576  -579  -556  -516  -492  -497  -516  -527  -527  -515  -495  -486  -501  -525  -531  -510  -474  -444  -431  -428  -412  -366  -303  -260  -248  -244  -216  -152  -68  32  167  346  543  695  763  748  668  554  448  382  359  358  332  244  107  -21  -102  -144  -194  -299  -455  -603  -683  -662  -560  -451  -418  -496  -643  -778  -853  -851  -759  -608  -517  -542  -515  -87  955  2431  3875  4837  4989  4215  2739  957  -839  -2370  -3345  -3740  -3666  -3168  -2436  -1745  -1220  -868  -620  -356  -85  37  -64  -250  -314  -226  -117  -69  -34  53  184  284  310  278  236  218  219  226  246  282  332  405  498  589  667  718  750  796  866  938  986  1003  999  987  979  1001  1066  1149  1226  1329  1504  1728  1915  2007  2027  2023  2011  1981  1943  1943  1999  2064  2087  2064  2014  1950  1865  1726  1535  1344  1190  1041  827  521  194  -42  -151  -189  -240  -353  -495  -595  -629  -625  -614  -593  -556  -520  -515  -566  -674  -800  -901  -984  -1068  -1099  -1005  -818  -642  -540  -500  -496  -510  -524  -519  -494  -471  -478  -510  -556  -612  -661  -689  -690  -661  -606  -539  -480  -443  -439  -446  -430  -407  -448  -579  -739  -859  -916  -908  -828  -692  -553  -461  -431  -443  -470  -513  -602  -741  -887  -983  -1011  -992  -952  -913  -890  -883  -884  -889  -898  -904  -881  -798  -664  -516  -394  -350  -424  -583  -740  -836  -862  -842  -783  -681  -556  -447  -364  -296  -242  -194  -130  -60  -5  60  167  269  293  240  155  62  -24  -71  -63  -27  -11  -41  -97  -160  -236  -331  -424  -468  -412  -229  39  295  455  520  533  531  528  513  462  331  99  -171  -372  -456  -448  -376  -260  -147  -99  -147  -266  -390  -468  -503  -540  -622  -738  -816  -767  -592  -482  -706  -1291  -1859  -1799  -701  1247  3322  4700  4915  4073  2616  947  -643  -1994  -3068  -3809  -4091  -3866  -3211  -2296  -1377  -672  -240  -21  65  69  24  -7  31  133  250  357  451  526  556  540  520  538  585  614  594  531  454  392  370  407  491  577  629  654  686  750  864  1007  1113  1159  1214  1341  1507  1624  1661  1651  1636  1642  1699  1839  2026  2169  2226  2217  2158  2072  2004  1979  1980  1984  1980  1965  1943  1904  1814  1651  1423  1179  968  783  570  322  93  -68  -160  -212  -272  -366  -454  -480  -473  -503  -570  -632  -666  -664  -652  -658  -681  -699  -676  -577  -414  -257  -164  -130  -128  -139  -160  -199  -259  -324  -364  -345  -230  -9  233  357  298  140  11  -37  -45  -56  -92  -150  -207  -256  -301  -311  -239  -94  48  125  140  132  125  122  117  99  58  -5  -68  -96  -69  -2  69  118  132  109  44  -42  -112  -144  -132  -58  79  231  328  342  296  232  177  125  63  6  -25  -23  4  40  57  47  24  5  -5  -20  -42  -69  -100  -124  -118  -80  -38  -12  2  6  -29  -141  -304  -433  -484  -486  -488  -522  -583  -645  -688  -702  -686  -653  -613  -568  -523  -494  -499  -518  -505  -449  -380  -329  -306  -317  -362  -424  -471  -486  -462  -390  -269  -119  -20  -70  -253  -439  -544  -582  -610  -666  -748  -823  -862  -861  -830  -786  -752  -739  -745  -761  -784  -835  -937  -1068  -1181  -1287  -1409  -1448  -1144  -248  1231  2896  4151  4592  4199  3179  1745  42  -1778  -3412  -4459  -4695  -4212  -3352  -2514  -1914  -1525  -1227  -969  -767  -634  -548  -484  -439  -414  -396  -383  -380  -374  -342  -274  -198  -148  -134  -134  -131  -128  -138  -171  -211  -223  -187  -124  -76  -59  -62  -70  -70  -49  4  94  209  325  429  531  644  779  943  1120  1289  1452  1622  1771  1860  1901  1941  1998  2054  2097  2126  2136  2131  2123  2119  2117  2090  1997  1804  1533  1242  951  665  439  322  293  289  259  194  91  -72  -292  -489  -591  -599  -546  -465  -389  -351  -354  -377  -391  -389  -388  -386  -365  -328  -282  -230  -207  -243  -317  -394  -469  -545  -600  -617  -609  -590  -566  -541  -526  -524  -527  -532  -538  -552  -580  -631  -697  -748  -760  -739  -702  -656  -590  -484  -358  -247  -151  -62  19  108  203  253  232  169  101  11  -134  -284  -350  -331  -300  -314  -394  -508  -599  -641  -636  -558  -381  -165  -30  -24  -89  -151  -184  -211  -255  -317  -376  -413  -427  -436  -452  -484  -540  -610  -664  -690  -689  -641  -512  -297  -66  82  136  167  243  376  531  656  713  714  693  664  616  551  496  454  388  243  27  -174  -286  -312  -297  -248  -149  -29  37  28  -10  -31  -27  -10  6  20  32  13  -56  -129  -139  -59  74  200  281  325  345  360  384  392  358  306  262  205  125  56  36  51  60  53  47  49  49  41  32  29  33  35  28  11  -1  4  33  88  145  108  -96  -356  -393  82  1226  2862  4416  5276  5220  4350  2870  1076  -737  -2386  -3649  -4298  -4260  -3623  -2602  -1519  -699  -296  -196  -199  -207  -215  -226  -237  -244  -242  -218  -154  -30  164  396  591  687  698  675  639  575  482  397  361  364  342  262  161  86  32  -26  -54  6  172  429  717  928  1019  1043  1064  1118  1206  1306  1414  1534  1639  1692  1692  1668  1659  1685  1730  1759  1750  1694  1607  1525  1471  1450  1454  1464  1457  1407  1272  1027  719  472  360  319  234  46  -192  -387  -510  -597  -688  -816  -970  -1094  -1148  -1152  -1140  -1128  -1119  -1113  -1119  -1141  -1175  -1209  -1237  -1260  -1268  -1238  -1173  -1116  -1105  -1131  -1156  -1154  -1147  -1166  -1196  -1199  -1175  -1154  -1143  -1114  -1070  -1065  -1100  -1128  -1132  -1135  -1149  -1159  -1159  -1172  -1208  -1240  -1243  -1215  -1175  -1145  -1130  -1130  -1140  -1149  -1136  -1077  -984  -877  -741  -572  -398  -247  -143  -107  -112  -108  -72  -8  59  95  81  19  -80  -174  -212  -182  -109  -39  25  101  163  180  169  158  154  156  160  165  161  130  75  42  63  104  144  193  228  216  173  142  144  163  172  172  185  218  254  274  270  255  245  250  271  304  345  395  436  432  382  306  208  110  83  182  368  555  699  805  879  925  948  968  1009  1079  1158  1226  1275  1292  1239  1072  828  623  519  476  415  293  145  30  -41  -94  -129  -143  -144  -127  -76  17  109  121  41  -60  -113  -100  -54  -16  0]
