reading_id,reading_time,wire_id,result_classification,heart_rate,heart_rate_alert,firmware_version,device_app_version,hardware_version,waveform_samples
33913280-7141-11ed-8080-808080808080,Thu Dec 01 06:27:17 UTC 2022,a101e3b72739,NSR,63,NONE,20001.171.50,2.10.0,Charge 5,[-4337  -4833  -5286  -5677  -6019  -6328  -6621  -6956  -7345  -7683  -7869  -7914  -7890  -7839  -7738  -7521  -7136  -6617  -6075  -5615  -5244  -4840  -4339  -3863  -3526  -3288  -3052  -2808  -2617  -2502  -2424  -2352  -2296  -2288  -2392  -2650  -2985  -3225  -3228  -3059  -3048  -3380  -3619  -3046  -1355  1188  3871  5792  6488  6157  5142  3609  1622  -637  -2649  -3874  -4213  -3857  -3125  -2443  -1983  -1622  -1256  -838  -341  190  787  1615  2711  3814  4607  5002  5015  4569  3612  2247  692  -836  -2158  -3075  -3490  -3550  -3473  -3315  -2948  -2241  -1273  -291  510  1046  1315  1422  1553  1852  2258  2564  2669  2644  2558  2394  2135  1833  1557  1326  1137  1001  932  917  950  1061  1278  1577  1938  2432  3124  3905  4545  4898  5020  5026  4927  4680  4271  3679  2864  1829  706  -232  -792  -1043  -1157  -1218  -1259  -1311  -1361  -1365  -1278  -1079  -800  -532  -345  -223  -118  -34  19  93  248  444  556  516  365  160  -130  -528  -924  -1180  -1269  -1225  -1061  -832  -640  -538  -508  -509  -514  -517  -518  -516  -508  -498  -505  -544  -568  -466  -151  318  757  1029  1132  1109  990  818  641  484  322  152  21  -64  -169  -344  -564  -758  -887  -968  -1020  -1047  -1056  -1063  -1075  -1065  -974  -746  -345  259  1057  1898  2532  2829  2883  2857  2842  2830  2735  2454  1967  1352  720  162  -282  -593  -765  -830  -836  -788  -647  -391  -43  311  570  702  754  774  778  776  762  730  706  707  704  640  466  151  -288  -722  -990  -1072  -1072  -1082  -1140  -1246  -1367  -1468  -1536  -1583  -1582  -1461  -1270  -1187  -1165  -818  189  1879  3884  5393  5588  4307  1994  -707  -3225  -5224  -6528  -7054  -6862  -6162  -5266  -4405  -3631  -2989  -2542  -2208  -1844  -1461  -1184  -1044  -968  -916  -898  -924  -985  -1044  -1071  -1073  -1072  -1072  -1052  -963  -767  -511  -308  -215  -179  -113  26  211  383  513  606  700  830  987  1117  1211  1315  1463  1655  1894  2148  2353  2490  2575  2618  2615  2572  2507  2445  2457  2664  3109  3673  4180  4512  4627  4553  4361  4101  3769  3327  2771  2204  1767  1482  1246  946  562  206  2  -21  122  437  892  1407  1887  2238  2416  2470  2490  2536  2631  2781  2958  3094  3134  3081  2995  2904  2799  2716  2732  2883  3103  3264  3276  3133  2908  2717  2625  2590  2527  2413  2295  2204  2120  2030  1969  1966  2001  2023  2023  2054  2138  2220  2268  2279  2209  1984  1627  1290  1088  1012  999  1032  1143  1360  1643  1881  1997  2001  1933  1760  1417  945  514  246  108  2  -127  -280  -472  -775  -1196  -1596  -1837  -1919  -1905  -1804  -1607  -1356  -1131  -971  -876  -836  -858  -937  -1037  -1113  -1150  -1205  -1373  -1684  -2044  -2339  -2546  -2691  -2793  -2874  -2936  -2956  -2965  -3031  -3136  -3231  -3367  -3647  -4006  -4093  -3526  -2234  -482  1324  2755  3402  3111  2035  414  -1397  -2990  -4176  -4920  -5186  -5039  -4629  -4020  -3255  -2529  -2038  -1773  -1572  -1309  -1007  -749  -521  -285  -70  111  290  474  645  814  1003  1189  1313  1345  1309  1240  1173  1127  1057  889  620  353  169  42  -83  -210  -306  -339  -308  -254  -199  -70  240  712  1156  1421  1567  1740  1977  2201  2346  2414  2426  2363  2183  1915  1668  1484  1306  1073  761  379  -2  -294  -492  -667  -866  -1059  -1181  -1225  -1238  -1241  -1192  -1021  -712  -364  -112  0  17  -10  -77  -198  -379  -599  -852  -1152  -1484  -1775  -1963  -2047  -2062  -2022  -1915  -1738  -1521  -1300  -1098  -910  -735  -603  -534  -494  -417  -266  -64  153  380  565  606  489  313  168  70  -39  -249  -549  -813  -949  -993  -1033  -1105  -1187  -1251  -1283  -1252  -1124  -921  -718  -532  -299  -3  287  504  615  631  594  518  417  326  218  13  -277  -543  -708  -792  -850  -896  -869  -708  -470  -288  -220  -225  -251  -272  -269  -209  -66  131  300  375  353  251  48  -297  -740  -1125  -1332  -1390  -1409  -1461  -1558  -1686  -1805  -1876  -1919  -1994  -2110  -2136  -1953  -1754  -1849  -2174  -2334  -1823  -251  2136  4431  5705  5537  4205  2405  614  -1107  -2786  -4237  -5152  -5345  -4888  -4020  -3052  -2267  -1745  -1348  -933  -532  -261  -123  -12  111  181  158  96  70  93  168  367  752  1206  1524  1638  1598  1418  1099  738  463  320  270  260  249  205  114  0  -95  -131  -58  187  607  1080  1450  1673  1828  2040  2398  2859  3257  3481  3557  3565  3545  3492  3395  3262  3118  2985  2853  2688  2487  2281  2080  1851  1590  1361  1238  1222  1253  1281  1300  1318  1313  1218  969  604  245  -35  -269  -528  -836  -1146  -1389  -1535  -1604  -1607  -1481  -1147  -686  -320  -167  -157  -179  -189  -195  -223  -299  -429  -569  -667  -722  -772  -836  -904  -961  -999  -1000  -943  -844  -763  -728  -704  -641  -513  -334  -149  -3  92  155  207  237  199  39  -213  -448  -592  -674  -768  -922  -1154  -1427  -1644  -1738  -1735  -1682  -1567  -1351  -1069  -813  -608  -405  -187  -5  90  101  63  9  -47  -128  -292  -577  -915  -1169  -1278  -1287  -1250  -1197  -1133  -1045  -921  -771  -602  -404  -172  89  386  669  843  867  793  688  604  562  549  541  489  310  -16  -373  -608  -708  -771  -854  -927  -941  -887  -801  -719  -634  -522  -395  -288  -246  -279  -347  -410  -446  -419  -339  -324  -492  -871  -1320  -1393  -542  1268  3350  4769  4944  3887  2090  169  -1563  -3141  -4524  -5375  -5360  -4421  -2862  -1322  -356  -14  -5  -70  -117  -141  -141  -117  -92  -89  -100  -108  -109  -100  -61  33  161  263  310  326  371  503  729  988  1217  1386  1492  1503  1358  1080  785  560  406  292  173  21  -113  -142  -66  27  100  166  261  407  601  839  1138  1493  1856  2183  2436  2581  2621  2594  2513  2383  2236  2105  1965  1770  1521  1246  982  783  672  607  537  436  298  148  25  -51  -88  -81  -21  81  193  303  431  603  811  1031  1238  1391  1460  1446  1368  1258  1153  1044  878  639  391  223  153  134  116  59  -69  -262  -439  -528  -532  -498  -451  -374  -249  -112  -18  10  -18  -103  -228  -340  -409  -460  -533  -630  -717  -764  -774  -770  -772  -784  -794  -771  -685  -547  -398  -269  -168  -72  52  211  373  515  628  689  641  427  84  -252  -499  -655  -734  -750  -739  -737  -760  -811  -869  -875  -771  -593  -442  -353  -286  -213  -136  -69  -23  -9  -38  -117  -221  -298  -329  -326  -311  -301  -321  -386  -486  -587  -668  -743  -849  -985  -1099  -1152  -1143  -1104  -1073  -1065  -1058  -1008  -880  -703  -562  -492  -443  -352  -192  36  295  506  618  657  668  652  593  512  453  421  383  310  192  33  -162  -359  -502  -561  -556  -523  -494  -464  -409  -298  -124  67  196  233  211  159  42  -196  -503  -727  -808  -809  -797  -796  -842  -986  -1212  -1439  -1606  -1703  -1727  -1669  -1557  -1447  -1347  -1213  -1030  -837  -725  -805  -1074  -1305  -1098  -90  1757  3981  5793  6487  5790  3967  1583  -896  -3173  -4899  -5765  -5769  -5123  -4093  -2984  -1978  -1064  -241  399  831  1107  1304  1507  1751  1988  2151  2227  2248  2222  2129  1967  1769  1559  1332  1089  851  649  509  433  394  367  346  362  486  742  1035  1241  1377  1553  1793  2009  2133  2163  2120  2031  1918  1796  1674  1567  1494  1472  1502  1560  1607  1628  1642  1680  1757  1869  1978  2054  2131  2277  2482  2662  2740  2698  2547  2291  1926  1488  1082  749  429  74  -297  -613  -806  -887  -913  -914  -875  -784  -673  -599  -578  -584  -591  -591  -580  -565  -547  -523  -488  -448  -418  -410  -456  -580  -752  -908  -1019  -1095  -1144  -1161  -1117  -979  -786  -635  -576  -574  -589  -611  -648  -692  -691  -581  -394  -247  -214  -284  -412  -565  -731  -879  -959  -949  -871  -799  -812  -910  -1033  -1144  -1219  -1235  -1199  -1131  -1041  -934  -804  -648  -506  -432  -437  -487  -545  -597  -668  -792  -950  -1085  -1166  -1204  -1231  -1284  -1358  -1399  -1360  -1264  -1153  -1052  -966  -885  -807  -743  -718  -755  -866  -1023  -1163  -1243  -1267  -1248  -1188  -1104  -1048  -1086  -1259  -1514  -1731  -1859  -1908  -1849  -1637  -1346  -1139  -1085  -1112  -1099  -952  -676  -393  -212  -110  14  213  424  549  580  582  588  589  575  546  513  465  371  204  -17  -231  -364  -408  -404  -375  -300  -159  23  185  271  272  206  112  24  -78  -263  -544  -813  -921  -806  -557  -373  -397  -611  -879  -965  -521  656  2319  3848  4618  4318  3096  1340  -611  -2514  -4099  -5051  -5192  -4607  -3608  -2573  -1720  -1092  -697  -482  -331  -202  -121  -92  -98  -125  -158  -177  -166  -125  -49  97  336  622  878  1068  1195  1262  1281  1274  1261  1248  1236  1230  1229  1235  1216  1106  922  770  706  702  736  830  987  1158  1313  1496  1766  2109  2449  2717  2907  3057  3218  3414  3598  3705  3738  3753  3769  3731  3561  3284  3019  2808  2522  2060  1544  1185  1038  1001  971  918  866  833  797  711  560  383  243  181  183  183  95  -86  -227  -222  -159  -160  -232  -341  -474  -629  -798  -945  -1032  -1038  -924  -675  -380  -181  -122  -140  -178  -210  -229  -234  -233  -226  -207  -161  -97  -70  -148  -311  -469  -585  -672  -732  -761  -771  -772  -772  -775  -782  -778  -737  -663  -595  -557  -529  -498  -473  -476  -519  -585  -641  -680  -736  -848  -1010  -1166  -1278  -1349  -1407  -1483  -1559  -1560  -1423  -1149  -812  -513  -325  -258  -266  -270  -213  -93  30  104  139  172  210  227  208  179  182  222  257  232  154  81  41  22  13  9  5  -4  -23  -39  -38  -18  9  36  49  40  18  -5  -36  -71  -102  -123  -137  -153  -178  -216  -272  -341  -410  -455  -438  -362  -278  -192  -157  -348  -698  -737  -32  1448  3292  4775  5218  4428  2727  621  -1412  -3027  -4108  -4631  -4559  -4019  -3251  -2396  -1567  -933  -568  -358  -179  -30  30  21  36  116  208  264  289  294  257  142  -42  -231  -358  -415  -448  -529  -714  -980  -1221  -1354  -1389  -1364  -1269  -1066  -758  -416  -122  87  200  237  253  292  367  474  596  709  825  983  1168  1319  1429  1564  1756  1966  2154  2310  2414  2447  2430  2386  2319  2253  2226  2224  2166  1953  1587  1169  782  427  104  -150  -311  -397  -437  -460  -483  -511  -538  -556  -561  -556  -545  -541  -573  -669  -802  -903  -940  -927  -872  -769  -628  -479  -347  -240  -161  -126  -139  -175  -195  -168  -73  58  163  201  170  76  -40  -127  -179  -238  -336  -452  -542  -590  -615  -646  -701  -769  -819  -844  -867  -895  -913  -904  -864  -782  -620  -377  -135  10  57  60  51  22  -42  -142  -248  -334  -392  -431  -471  -527  -589  -634  -645  -625  -580  -516  -442  -369  -315  -292  -296  -314  -329  -331  -315  -265  -183  -119  -122  -194  -294  -374  -423  -468  -525  -584  -632  -671  -713  -744  -730  -664  -571  -467  -308  -59  203  352  332  195  59  -11  -31  5  100  187  216  203  185  160  80  -83  -289  -463  -568  -618  -638  -649  -646  -600  -485  -335  -218  -161  -143  -144  -144  -77  63  134  30  -55  244  1176  2689  4322  5340  5254  4163  2533  775  -934  -2575  -4050  -5015  -5142  -4470  -3287  -1983  -950  -282  158  451  630  753  842  883  874  826  768  734  723  681  531  245  -95  -353  -443  -381  -238  -70  119  324  493  600  666  718  757  779  786  788  800  844  924  1004  1063  1124  1184  1213  1207  1185  1177  1241  1442  1762  2081  2308  2476  2671  2910  3090  3070  2856  2591  2371  2213  2092  1937  1675  1287  805  332  -19  -229  -356  -467  -609  -769  -888  -935  -915  -823  -660  -485  -373  -340  -361  -423  -514  -608  -687  -751  -812  -875  -944  -1016  -1077  -1102  -1078  -1027  -987  -976  -983  -980  -939  -837  -676  -474  -263  -74  60  116  108  80  57  19  -65  -190  -313  -412  -492  -556  -597  -610  -596  -564  -522  -478  -435  -398  -369  -350  -341  -336  -331  -328  -341  -383  -445  -500  -523  -526  -537  -572  -612  -621  -588  -534  -489  -478  -494  -519  -553  -593  -610  -543  -348  -86  95  131  81  22  -12  -32  -54  -86  -109  -111  -101  -92  -97  -124  -157  -181  -207  -246  -286  -302  -286  -252  -209  -162  -137  -159  -221  -304  -395  -480  -552  -619  -664  -647  -559  -430  -301  -208  -156  -112  -69  -34  -1  35  66  92  121  153  180  200  214  211  181  134  61  -67  -224  -337  -375  -362  -329  -304  -283  -231  -110  72  246  337  319  211  60  -84  -214  -374  -600  -845  -1011  -1074  -1087  -1073  -971  -697  -282  150  534  865  1110  1209  1060  578  -94  -632  -879  -922  -891  -924  -1160  -1602  -2122  -2486  -2304  -1278  489  2547  4201  4824  4270  2911  1263  -401  -2006  -3405  -4378  -4653  -4121  -3093  -2055  -1344  -1036  -979  -985  -946  -830  -656  -475  -341  -275  -245  -219  -202  -203  -212  -204  -143  -14  158  344  531  710  870  1012  1140  1253  1334  1356  1324  1279  1248  1236  1258  1332  1452  1581  1677  1727  1748  1756  1751  1738  1734  1778  1906  2102  2294  2435  2519  2552  2549  2529  2520  2569  2711  2900  3031  3060  3029  2968  2844  2626  2351  2069  1775  1434  1057  694  379  131  -49  -222  -448  -688  -843  -876  -820  -720  -615  -522  -436  -353  -291  -260  -258  -292  -371  -485  -600  -686  -718  -700  -680  -701  -757  -819  -857  -852  -811  -765  -751  -780  -805  -762  -635  -469  -330  -264  -282  -380  -521  -642  -713  -748  -762  -764  -765  -773  -785  -769  -666  -427  -63  309  553  641  657  670  685  692  689  689  707  745  775  749  620  360  32  -227  -348  -360  -311  -224  -133  -75  -56  -60  -82  -127  -185  -212  -183  -135  -122  -154  -219  -299  -384  -472  -564  -634  -659  -660  -664  -662  -655  -675  -739  -827  -897  -924  -919  -895  -851  -780  -701  -649  -635  -638  -629  -589  -527  -475  -450  -445  -451  -473  -510  -547  -572  -594  -636  -666  -595  -409  -230  -151  -154  -196  -270  -383  -525  -650  -719  -740  -733  -704  -658  -611  -574  -523  -410  -246  -115  -55  -22  14  45  56  56  53  51  51  53  58  62  46  -12  -109  -204  -271  -333  -436  -607  -813  -976  -1050  -1052  -1016  -957  -887  -810  -711  -547  -294  -68  -115  -487  -812  -594  412  2115  4008  5279  5383  4386  2641  547  -1492  -3249  -4645  -5522  -5690  -5132  -4043  -2746  -1587  -805  -415  -248  -135  0  182  390  562  644  626  522  379  262  187  119  28  -84  -214  -355  -476  -536  -496  -314  0  330  545  649  752  909  1078  1189  1231  1227  1160  1003  804  686  710  817  911  954  965  985  1073  1285  1605  1944  2250  2535  2813  3064  3256  3374  3436  3457  3427  3312  3094  2812  2530  2282  2056  1807  1486  1091  706  419  225  64  -76  -169  -207  -215  -218  -235  -274  -341  -429  -502  -513  -452  -346  -239  -171  -166  -228  -336  -453  -549  -627  -695  -735  -745  -745  -753  -769  -798  -849  -912  -942  -876  -687  -439  -252  -157  -95  -20  49  84  79  40  -37  -146  -257  -362  -492  -669  -856  -978  -1007  -977  -933  -896  -855  -783  -670  -538  -414  -298  -207  -196  -284  -439  -602  -713  -743  -719  -679  -649  -629  -607  -582  -566  -562  -565  -569  -570  -560  -531  -489  -445  -399  -344  -288  -244  -213  -183  -151  -123  -104  -99  -117  -167  -248  -341  -413  -442  -437  -426  -433  -472  -548  -654  -730  -682  -516  -355  -272  -230  -171  -82  18  147  317  482  585  624  630  602  487  255  -22  -233  -362  -500  -723  -982  -1165  -1227  -1205  -1132  -1016  -871  -719  -592  -516  -489  -484  -482  -482  -487  -503  -546  -613  -651  -684  -827  -1083  -1281  -1150  -381  1140  3041  4539  4964  4154  2402  268  -1743  -3403  -4586  -5205  -5237  -4721  -3867  -2978  -2226  -1646  -1221  -883  -579  -320  -142  -55  -39  -52  -67  -73  -61  -28  10  44  94  181  279  344  363  367  383  416  458  501  547  589  617  625  643  740  963  1242  1455  1571  1656  1744  1829  1934  2107  2360  2634  2854  2981  3026  3035  3050  3082  3116  3131  3093  2973  2809  2696  2702  2814  2932  2948  2864  2765  2698  2645  2548  2311  1862  1261  707  375  246  173  49  -125  -299  -426  -493  -537  -600  -682  -755  -812  -863  -894  -861  -722  -514  -338  -260  -262  -306  -364  -420  -465  -494  -512  -533  -554  -567  -576  -582  -564  -484  -345  -205  -125  -107  -120  -140  -152  -148  -109  -19  98  183  183  80  -87  -241  -330  -369  -393  -419  -445  -467  -475  -467  -445  -405  -300  -84  162  264  167  -26  -199  -295  -314  -302  -321  -427  -624  -816  -872  -792  -698  -682  -729  -760  -715  -600  -446  -290  -180  -137  -127  -111  -89  -94  -137  -180  -179  -140  -105  -128  -272  -549  -853  -1052  -1114  -1104  -1082  -1064  -1032  -947  -793  -617  -496  -459  -474  -498  -509  -513  -520  -521  -487  -396  -288  -243  -275  -330  -365  -376  -376  -376  -394  -457  -575  -704  -804  -890  -993  -1130  -1306  -1480  -1587  -1592  -1488  -1296  -1073  -887  -765  -702  -681  -693  -728  -769  -797  -787  -720  -640  -646  -862  -1363  -1932  -2067  -1405  116  2247  4223  5198  4928  3661  1800  -168  -1950  -3501  -4660  -5126  -4815  -3941  -2822  -1749  -942  -488  -321  -280  -228  -114  38  187  297  353  365  357  347  335  324  335  386  454  493  480  440  406  384  366  359  387  462  558  639  699  765  843  921  1001  1102  1228  1346  1420  1490  1658  1956  2296  2559  2711  2797  2884  2988  3091  3197  3326  3454  3538  3570  3572  3563  3542  3481  3345  3147  2937  2716  2477  2267  2112  1959  1735  1417  1077  801  580  366  174  39  -31  -59  -91  -163  -266  -371  -477  -586  -663  -675  -624  -553  -516  -528  -561  -589  -603  -608  -608  -606  -604  -612  -638  -676  -714  -746  -765  -758  -700  -573  -409  -277  -209  -183  -180  -206  -262  -326  -373  -386  -369  -346  -352  -399  -469  -527  -564  -597  -639  -699  -755  -756  -682  -558  -434  -346  -285  -215  -130  -75  -99  -209  -339  -401  -395  -391  -442  -566  -726  -844  -886  -883  -871  -857  -827  -776  -709  -638  -577  -536  -512  -480  -404  -262  -87  45  97  78  10  -72  -129  -146  -141  -136  -147  -184  -270  -424  -611  -755  -816  -795  -704  -568  -445  -373  -341  -328  -331  -346  -368  -390  -419  -472  -555  -633  -644  -563  -442  -360  -336  -342  -357  -373  -373  -326  -218  -77  49  129  156  145  110  50  -24  -95  -180  -320  -495  -622  -666  -660  -648  -642  -635  -628  -633  -656  -689  -715  -728  -741  -764  -798  -822  -813  -773  -758  -893  -1217  -1464  -1173  -44  1833  3924  5424  5764  4886  3111  926  -1240  -3141  -4592  -5391  -5459  -4924  -3959  -2752  -1638  -946  -706  -706  -761  -781  -686  -410  2  399  639  684  596  457  307  171  90  66  68  71  68  52  8  -75  -177  -247  -245  -169  -27  150  312  433  528  606  665  711  768  858  983  1130  1305  1539  1809  2026  2135  2173  2210  2290  2441  2665  2912  3105  3199  3215  3206  3202  3211  3216  3166  3003  2730  2419  2136  1872  1574  1237  926  686  491  287  55  -179  -413  -645  -831  -929  -955  -933  -836  -643  -418  -267  -221  -228  -247  -272  -308  -356  -401  -430  -459  -538  -698  -884  -1005  -1041  -1034  -1019  -1002  -973  -920  -832  -705  -563  -451  -401  -409  -441  -483  -537  -594  -644  -689  -704  -678  -644  -632  -642  -661  -674  -679  -680  -677  -664  -639  -603  -545  -452  -343  -269  -231  -181  -80  63  194  227  109  -108  -308  -426  -483  -518  -549  -579  -614  -653  -685  -705  -713  -706  -666  -574  -429  -259  -92  60  191  275  300  267  180  71  -5  -50  -104  -189  -296  -428  -574  -678  -688  -598  -460  -353  -306  -297  -296  -297  -305  -327  -346  -324  -237  -113  -6  53  65  36  -12  -57  -81  -85  -79  -88  -138  -228  -310  -346  -343  -332  -325  -319  -318  -336  -390  -459  -497  -478  -426  -385  -370  -374  -389  -408  -428  -450  -495  -592  -778  -1093  -1493  -1754  -1555  -662  928  2878  4498  5109  4512  2959  852  -1366  -3329  -4785  -5541  -5539  -4890  -3851  -2759  -1837  -1175  -812  -676  -613  -544  -489  -470  -474  -467  -429  -365  -283  -170  -17  151  304  421  494  531  542  535  524  539  608  708  783  807  799  785  790  845  959  1096  1203  1260  1291  1352  1505  1767  2071  2319  2474  2568  2639  2727  2867  3036  3173  3280  3391  3492  3570  3638  3688  3705  3706  3719  3730  3664  3416  2976  2481  2108  1899  1727  1451  1098  818  686  640  586  485  346  176  -35  -265  -453  -569  -625  -645  -647  -642  -638  -649  -687  -746  -803  -842  -860  -861  -850  -829  -803  -777  -756  -751  -784  -865  -953  -989  -976  -958  -949  -917  -843  -747  -646  -539  -449  -406  -414  -476  -561  -614  -619  -610  -625  -664  -702  -725  -734  -738  -748  -764  -778  -789  -808  -837  -858  -861  -855  -861  -890  -935  -979  -1018  -1046  -1034  -964  -846  -709  -582  -487  -418  -362  -323  -309  -322  -363  -435  -517  -575  -607  -631  -642  -592  -443  -236  -89  -68  -125  -196  -266  -325  -365  -414  -495  -587  -650  -686  -730  -793  -847  -867  -857  -839  -826  -823  -843  -901  -978  -1035  -1057  -1055  -1035  -983  -920  -956  -1183  -1532  -1787  -1685  -951  514  2424  4150  4980  4525  2951  752  -1572  -3631  -5120  -5862  -5871  -5290  -4343  -3322  -2438  -1695  -1069  -647  -482  -478  -505  -501  -467  -410  -315  -182  -57  20  53  60  58  51  30  -21  -111  -198  -211  -121  52  279  493  621  658  659  669  708  793  928  1069  1165  1211  1248  1311  1420  1583  1782  1964  2091  2214  2422  2720  3006  3188  3293  3404  3538  3642  3677  3656  3618  3596  3581  3509  3319  3048  2779  2532  2261  1917  1539  1233  1023  818  576  343  152  11  -61  -77  -72  -84  -129  -193  -245  -284  -328  -379  -417  -437  -442  -414  -324  -186  -66  -6  6  -2  -37  -113  -210  -283  -315  -317  -302  -282  -273  -297  -369  -470  -544  -569  -568  -569  -563  -503  -358  -189  -120  -180  -289  -374  -415  -424  -423  -417  -388  -303  -177  -98  -155  -368  -643  -833  -892  -893  -919  -985  -1057  -1105  -1122  -1098  -1001  -831  -659  -561  -554  -603  -660  -691  -697  -700  -700  -689  -670  -657  -663  -691  -738  -793  -838  -864  -881  -903  -922  -909  -863  -808  -748  -662  -553  -447  -346  -219  -59  109  279  439  540  540  429  244  44  -137  -291  -394  -444  -476  -508  -524  -515  -519  -558  -613  -663  -707  -751  -794  -818  -791  -691  -553  -449  -416  -431  -466  -518  -641  -904  -1228  -1293  -701  654  2430  4052  4923  4669  3465  1814  58  -1641  -3172  -4358  -4970  -4905  -4273  -3280  -2157  -1185  -583  -326  -228  -159  -101  -68  -43  14  118  225  286  301  296  287  278  273  297  385  540  703  794  786  703  607  554  552  576  607  638  668  715  806  943  1074  1142  1174  1276  1531  1874  2137  2250  2275  2285  2313  2363  2446  2581  2743  2875  2954  3003  3053  3107  3146  3152  3122  3045  2905  2714  2525  2352  2107  1693  1131  556  64  -372  -771  -1071  -1242  -1333  -1404  -1509  -1675  -1879  -2059  -2169  -2223  -2258  -2281  -2266  -2188  -2055  -1887  -1691  -1484  -1292  -1102  -911  -771  -716  -736  -817  -935  -1045  -1114  -1143  -1149  -1148  -1141  -1112  -1055  -992  -952  -929  -896  -860  -847  -844  -800  -692  -562  -457  -385  -332  -284  -241  -220  -232  -267  -312  -366  -416  -444  -447  -438  -426  -411  -387  -361  -343  -324  -283  -210  -138  -116  -122  -101  -51  7  64  108  124  112  74  17  -57  -153  -252  -327  -369  -393  -417  -465  -547  -645  -703  -667  -536  -384  -290  -252  -239  -240  -245  -245  -238  -235  -253  -303  -378  -452  -500  -521  -531  -525  -475  -363  -210  -52  62  92  40  -46  -125  -175  -187  -159  -91  23  179  343  476  555  576  554  516  486  469  447  388  282  156  15  -182  -419  -595  -662  -668  -662  -657  -648  -630  -607  -584  -556  -524  -493  -464  -431  -387  -311  -179  -41  -71  -392  -863  -1150  -873  238  2107  4162  5566  5720  4606  2700  621  -1263  -2904  -4254  -5084  -5174  -4499  -3275  -1918  -833  -192  59  84  44  21  28  41  26  -22  -73  -101  -108  -103  -77  -10  100  235  354  422  439  451  503  597  688  741  758  753  732  699  695  780  927  1011  981  905  848  820  824  895  1076  1351  1645  1921  2168  2363  2499  2598  2678  2750  2834  2979  3179  3301  3240  3057  2873  2738  2650  2591  2522  2392  2152  1786  1371  1047  881  831  816  751  552  205  -179  -465  -617  -701  -800  -926  -1027  -1070  -1074  -1068  -1063  -1048  -1015  -980  -961  -953  -951  -960  -973  -945  -826  -646  -500  -425  -388  -357  -327  -303  -291  -296  -329  -388  -453  -502  -542  -594  -664  -752  -837  -877  -825  -678  -503  -381  -339  -339  -340  -340  -361  -405  -438  -449  -465  -506  -546  -565  -563  -549  -529  -505  -483  -471  -480  -515  -565  -609  -643  -671  -681  -653  -577  -476  -394  -348  -311  -253  -187  -159  -204  -310  -441  -567  -669  -736  -769  -783  -790  -794  -789  -774  -755  -735  -702  -629  -505  -339  -184  -108  -131  -204  -258  -269  -292  -356  -427  -508  -644  -819  -949  -996  -988  -959  -916  -852  -756  -639  -542  -490  -470  -456  -431  -390  -330  -259  -194  -135  -79  -15  63  125  140  121  89  29  -98  -294  -493  -630  -687  -690  -672  -651  -629  -607  -597  -610  -642  -675  -687  -668  -637  -617  -612  -614  -618  -625  -640  -679  -792  -1034  -1360  -1581  -1412  -581  952  2850  4463  5155  4721  3374  1418  -808  -2891  -4456  -5237  -5187  -4562  -3721  -2886  -2112  -1392  -786  -400  -233  -195  -199  -201  -172  -92  33  170  287  371  433  510  614  716  789  837  874  895  899  916  990  1124  1274  1377  1377  1260  1095  979  932  918  935  1038  1267  1567  1823  1964  2012  2034  2082  2163  2260  2362  2477  2639  2855  3075  3239  3320  3329  3293  3227  3147  3077  3018  2934  2814  2677  2507  2253  1911  1557  1263  1012  748  503  331  202  52  -112  -258  -358  -408  -442  -523  -664  -800  -858  -842  -799  -767  -753  -748  -743  -735  -733  -745  -764  -779  -791  -803  -811  -810  -802  -777  -716  -628  -558  -533  -545  -585  -657  -748  -818  -846  -842  -825  -818  -817  -818  -831  -858  -872  -836  -741  -642  -591  -580  -554  -472  -349  -235  -164  -134  -121  -111  -115  -157  -243  -360  -495  -623  -708  -746  -760  -768  -767  -750  -719  -688  -683  -740  -842  -917  -935  -919  -894  -878  -871  -855  -813  -746  -675  -640  -659  -711  -783  -877  -973  -1030  -1033  -998  -955  -931  -928  -908  -821  -664  -496  -370  -287  -225  -167  -103  -18  97  231  337  370  335  273  195  68  -126  -367  -614  -813  -917  -939  -934  -935  -953  -990  -1036  -1078  -1119  -1159  -1177  -1153  -1084  -986  -879  -789  -722  -669  -620  -611  -723  -974  -1153  -874  110  1699  3440  4665  4853  3958  2325  403  -1502  -3250  -4625  -5333  -5296  -4638  -3532  -2315  -1378  -813  -469  -237  -95  -32  -15  4  83  234  394  493  519  503  476  453  440  436  449  488  545  603  655  712  792  895  995  1073  1124  1156  1180  1218  1287  1387  1507  1628  1731  1823  1924  2014  2068  2112  2203  2348  2515  2695  2897  3094  3244  3342  3421  3495  3533  3500  3416  3354  3333  3273  3136  2988  2885  2789  2576  2162  1644  1181  809  481  204  9  -123  -258  -451  -685  -881  -984  -1012  -1007  -1000  -990  -966  -913  -830  -733  -648  -612  -648  -750  -894  -1048  -1177  -1260  -1309  -1350  -1390  -1420  -1432  -1424  -1389  -1315  -1184  -983  -762  -610  -556  -557  -586  -649  -738  -821  -879  -904  -899  -876  -821  -742  -693  -702  -746  -800  -848  -875  -884  -884  -867  -816  -735  -646  -554  -442  -316  -206  -133  -96  -82  -81  -88  -98  -113  -125  -127  -129  -161  -253  -379  -474  -505  -480  -404  -275  -122  -7  38  30  -28  -144  -284  -366  -339  -229  -108  -30  1  -7  -99  -308  -567  -743  -782  -726  -646  -592  -577  -588  -617  -652  -679  -691  -684  -648  -579  -493  -419  -368  -307  -187  -26  100  156  170  190  250  334  394  402  364  303  228  127  9  -80  -117  -122  -127  -147  -165  -149  -100  -63  -71  -100  -122  -145  -187  -241  -281  -302  -310  -299  -254  -217  -354  -750  -1120  -968  23  1782  3727  5002  5051  3949  2192  285  -1526  -3174  -4511  -5258  -5253  -4580  -3465  -2249  -1297  -741  -467  -351  -319  -294  -223  -116  -19  50  106  147  176  196  211  209  168  95  27  -10  -29  -35  2  124  299  447  527  555  559  555  554  563  589  647  751  886  1009  1090  1125  1129  1134  1189  1342  1593  1878  2121  2290  2404  2498  2583  2650  2717  2831  3002  3151  3170  3060  2925  2830  2744  2607  2386  2100  1788  1473  1172  902  674  470  258  19  -223  -422  -559  -644  -689  -709  -722  -734  -750  -774  -811  -886  -1007  -1136  -1221  -1250  -1253  -1253  -1253  -1241  -1206  -1153  -1099  -1034  -929  -784  -635  -515  -446  -420  -398  -357  -301  -244  -213  -217  -227  -213  -193  -203  -258  -356  -460  -513  -507  -476  -451  -452  -477  -508  -516  -472  -387  -320  -291  -258  -174  -57  17  9  -60  -143  -203  -244  -303  -386  -456  -476  -446  -405  -387  -384  -371  -336  -294  -261  -234  -224  -243  -281  -310  -293  -215  -113  -38  -3  1  -10  -31  -54  -61  -51  -41  -32  -27  -38  -75  -141  -242  -358  -467  -552  -580  -541  -495  -480  -481  -491  -501  -492  -465  -442  -441  -449  -430  -381  -349  -351  -364  -374  -381  -380  -345  -245  -97  32  97  106  96  89  89  91  82  46  -10  -65  -117  -197  -313  -420  -474  -477  -458  -437  -422  -413  -421  -469  -563  -666  -732  -755  -767  -787  -817  -853  -887  -907  -919  -956  -1086  -1291  -1298  -722  581  2375  4113  5143  5073  4016  2337  347  -1727  -3668  -5126  -5707  -5358  -4355  -3079  -1948  -1225  -845  -615  -433  -285  -166  -59  20  43  32  35  43  47  68  108  158  222  298  382  450  466  459  487  535  559  557  540  503  449  410  439  534  643  741  842  942  1021  1098  1220  1399  1596  1779  1949  2106  2237  2328  2394  2483  2604  2706  2749  2749  2761  2840  3002  3187  3306  3294  3111  2792  2452  2172  1931  1681  1429  1227  1106  1014  839  516  98  -275  -490  -551  -571  -656  -826  -1006  -1112  -1140  -1131  -1122  -1118  -1115  -1105  -1075  -1021  -961  -923  -915  -918  -907  -867  -814  -769  -723  -642  -524  -405  -325  -294  -303  -341  -396  -460  -540  -628  -693  -716  -707  -679  -652  -641  -647  -662  -680  -710  -740  -722  -639  -537  -457  -404  -372  -366  -386  -418  -435  -425  -411  -414  -431  -468  -548  -656  -749  -809  -841  -828  -741  -601  -475  -401  -369  -349  -324  -292  -269  -261  -259  -253  -250  -265  -308  -364  -405  -423  -422  -393  -328  -264  -275  -392  -546  -646  -664  -620  -539  -459  -413  -404  -415  -435  -466  -507  -551  -558  -486  -346  -187  -49  44  85  90  83  73  55  21  -28  -92  -181  -330  -556  -790  -940  -990  -988  -966  -929  -885  -855  -845  -846  -844  -830  -805  -769  -720  -660  -609  -624  -798  -1131  -1380  -1178  -307  1211  3055  4620  5311  4909  3587  1663  -514  -2611  -4324  -5338  -5498  -4904  -3816  -2621  -1687  -1101  -714  -391  -105  135  324  443  468  421  366  338  328  314  283  253  261  312  390  484  583  666  719  753  798  854  900  920  917  898  876  881  936  1029  1130  1231  1345  1454  1524  1564  1642  1820  2068  2296  2464  2611  2766  2896  2962  2991  3036  3106  3184  3267  3356  3419  3419  3336  3186  3018  2867  2717  2524  2241  1891  1579  1361  1150  859  501  148  -130  -302  -393  -440  -472  -527  -635  -765  -856  -886  -885  -881  -883  -890  -899  -913  -932  -947  -941  -909  -840  -740  -643  -586  -580  -615  -670  -725  -767  -795  -812  -818  -815  -811  -806  -797  -780  -766  -774  -806  -837  -849  -848  -844  -842  -841  -835  -822  -810  -802  -789  -757  -701  -639  -606  -606  -614  -621  -625  -618  -601  -575  -538  -499  -475  -477  -517  -583  -629  -638  -634  -649  -691  -747  -788  -803  -785  -728  -643  -566  -517  -492  -481  -485  -501  -520  -522  -497  -452  -429  -482  -602  -728  -802  -780  -685  -590  -514  -403  -238  -80  10  42  62  99  153  210  258  276  247  173  72  -37  -145  -252  -366  -482  -584  -669  -735  -769  -770  -757  -751  -754  -757  -749  -724  -685  -651  -632  -620  -600  -568  -556  -634  -830  -1053  -1095  -696  369  2046  3836  5037  5136  4084  2244  58  -2099  -3898  -5120  -5653  -5460  -4692  -3628  -2531  -1652  -1117  -834  -637  -443  -254  -92  33  123  181  217  242  247  230  208  210  245  296  348  393  433  480  528  556  559  553  562  598  658  727  813  930  1091  1307  1565  1812  1970  2025  2045  2096  2193  2297  2366  2410  2467  2550  2625  2672  2692  2700  2711  2745  2812  2897  2948  2935  2896  2879  2876  2836  2702  2473  2207  1941  1675  1406  1110  749  376  112  5  -12  -48  -160  -350  -565  -729  -816  -863  -894  -902  -881  -845  -817  -807  -805  -805  -802  -801  -800  -792  -760  -700  -632  -590  -587  -602  -614  -620  -626  -644  -679  -716  -730  -706  -651  -592  -548  -506  -472  -462  -470  -486  -501  -508  -501  -474  -429  -384  -354  -334  -311  -289  -289  -322  -377  -434  -474  -491  -491  -486  -482  -481  -485  -494  -506  -515  -527  -555  -595  -625  -635  -623  -594  -560  -533  -514  -504  -498  -479  -431  -378  -367  -402  -444  -465  -468  -449  -402  -337  -286  -262  -269  -322  -430  -559  -652  -688  -687  -678  -671  -655  -613  -547  -477  -416  -368  -330  -304  -288  -270  -228  -151  -62  10  72  137  193  208  170  95  13  -65  -157  -273  -400  -504  -563  -582  -574  -554  -527  -499  -471  -438  -409  -392  -381  -378  -416  -533  -695  -801  -771  -658  -661  -890  -1159  -1099  -357  1185  3132  4730  5417  4999  3571  1502  -760  -2891  -4605  -5593  -5722  -5190  -4315  -3304  -2291  -1380  -668  -256  -122  -118  -115  -93  -74  -58  -25  26  81  125  156  187  246  343  444  508  535  554  593  665  759  849  905  920  917  912  908  911  943  1019  1128  1237  1323  1381  1419  1462  1548  1696  1877  2042  2176  2301  2448  2640  2851  3014  3089  3108  3117  3138  3185  3277  3375  3392  3291  3140  3022  2875  2551  2079  1673  1454  1332  1151  824  405  33  -199  -308  -353  -371  -375  -375  -389  -428  -478  -516  -533  -533  -532  -550  -611  -713  -818  -890  -921  -921  -906  -886  -863  -836  -817  -819  -837  -863  -876  -862  -827  -783  -729  -664  -593  -530  -480  -446  -432  -438  -466  -516  -576  -617  -630  -624  -609  -594  -589  -598  -614  -625  -619  -603  -579  -533  -453  -364  -313  -321  -362  -388  -382  -383  -422  -483  -537  -561  -543  -506  -470  -443  -436  -451  -477  -517  -565  -612  -659  -704  -741  -759  -754  -736  -714  -692  -662  -625  -605  -621  -660  -699  -718  -715  -717  -750  -806  -865  -933  -1036  -1158  -1223  -1177  -1067  -976  -930  -898  -842  -745  -628  -524  -444  -383  -323  -234  -90  83  220  283  302  311  296  194  -39  -351  -624  -794  -880  -918  -925  -900  -842  -777  -744  -744  -756  -764  -762  -752  -725  -673  -611  -580  -613  -689  -736  -774  -954  -1275  -1447  -1109  -7  1827  3844  5199  5397  4452  2650  444  -1720  -3565  -4848  -5371  -5161  -4429  -3461  -2547  -1825  -1258  -798  -472  -275  -141  -21  80  141  159  156  168  225  331  455  566  649  699  716  715  712  713  715  705  677  672  783  1022  1262  1384  1403  1391  1389  1396  1401  1415  1478  1619  1835  2083  2302  2442  2498  2516  2564  2669  2811  2944  3029  3054  3032  2996  2973  2973  2993  3044  3135  3225  3235  3141  2970  2737  2462  2174  1861  1482  1062  695  425  195  -40  -249  -385  -454  -513  -606  -719  -809  -861  -880  -887  -903  -932  -963  -977  -972  -960  -955  -957  -961  -959  -953  -942  -930  -918  -905  -890  -873  -859  -845  -829  -806  -779  -751  -729  -715  -711  -725  -752  -762  -727  -667  -617  -580  -545  -509  -467  -422  -386  -370  -366  -365  -369  -383  -409  -445  -493  -547  -595  -638  -683  -723  -738  -705  -616  -507  -436  -417  -423  -430  -437  -452  -473  -489  -494  -493  -490  -491  -495  -495  -489  -482  -473  -463  -444  -412  -380  -374  -403  -465  -563  -664  -721  -720  -654  -508  -326  -190  -123  -98  -84  -62  -32  -31  -105  -233  -335  -376  -389  -408  -434  -456  -465  -457  -438  -419  -429  -505  -633  -742  -798  -820  -822  -801  -778  -781  -809  -822  -792  -760  -734  -656  -538  -492  -650  -1059  -1456  -1285  -157  1745  3755  5102  5230  4104  2247  255  -1596  -3214  -4460  -5182  -5302  -4811  -3827  -2661  -1648  -963  -590  -411  -302  -205  -131  -81  -37  0  33  79  149  247  357  441  488  522  556  572  558  526  502  492  490  492  505  538  583  619  634  642  682  794  975  1174  1344  1464  1561  1692  1870  2035  2152  2252  2373  2521  2670  2778  2840  2873  2887  2891  2905  2948  3011  3062  3084  3071  3011  2896  2740  2562  2371  2162  1892  1513  1029  551  235  98  21  -87  -240  -406  -548  -648  -689  -673  -635  -611  -605  -605  -608  -621  -651  -699  -752  -788  -795  -771  -722  -664  -610  -570  -551  -557  -588  -640  -691  -721  -732  -731  -709  -654  -579  -513  -476  -469  -496  -558  -634  -679  -673  -634  -578  -508  -447  -429  -447  -466  -471  -464  -450  -439  -432  -434  -459  -516  -592  -650  -668  -655  -635  -623  -623  -631  -644  -658  -676  -701  -732  -750  -742  -708  -667  -653  -666  -644  -582  -548  -552  -565  -574  -572  -561  -560  -575  -603  -629  -633  -615  -594  -560  -490  -393  -313  -281  -286  -310  -353  -421  -503  -590  -657  -658  -597  -516  -435  -371  -343  -335  -326  -302  -252  -183  -122  -94  -99  -112  -126  -177  -298  -451  -560  -596  -583  -555  -529  -513  -509  -525  -571  -627  -648  -603  -515  -436  -401  -404  -417  -430  -446  -465  -554  -845  -1301  -1597  -1346  -308  1459  3437  4838  5168  4406  2793  728  -1385  -3279  -4749  -5558  -5559  -4869  -3822  -2763  -1867  -1145  -619  -321  -169  -67  0  22  15  -2  -21  -29  -16  28  123  278  449  568  612  618  630  669  733  811  883  926  918  859  798  781  796  811  827  881  1003  1155  1266  1333  1414  1521  1621  1733  1905  2131  2356  2549  2693  2773  2797  2804  2827  2870  2915  2952  2984  3014  3042  3060  3073  3103  3126  3046  2778  2362  1935  1565  1219  876  585  393  281  188  48  -155  -375  -557  -687  -766  -781  -733  -666  -643  -682  -746  -799  -827  -838  -843  -837  -806  -757  -716  -702  -705  -700  -680  -668  -683  -690  -651  -581  -534  -530  -541  -538  -525  -514  -504  -478  -434  -397  -384  -386  -376  -340  -293  -276  -304  -351  -390  -424  -445  -430  -380  -322  -282  -263  -259  -272  -311  -381  -463  -529  -574  -613  -650  -675  -681  -656  -592  -510  -443  -402  -388  -387  -380  -357  -338  -344  -367  -377  -359  -342  -351  -370  -380  -379  -374  -375  -400  -460  -528  -552  -523  -468  -403  -337  -291  -281  -301  -336  -358  -360  -358  -358  -346  -328  -317  -315  -324  -341  -354  -354  -348  -346  -350  -339  -295  -237  -192  -164  -135  -77  43  194  282  252  142  15  -94  -181  -244  -291  -320  -327  -327  -359  -450  -555  -589  -530  -444  -400  -410  -440  -463  -486  -518  -556  -575  -561  -547  -615  -848  -1262  -1678  -1627  -662  1187  3353  5015  5565  4907  3336  1339  -691  -2616  -4299  -5403  -5626  -4968  -3740  -2413  -1388  -825  -642  -615  -547  -381  -192  -73  -45  -65  -81  -64  -27  -9  -15  -18  26  139  267  326  306  261  226  209  211  242  303  370  414  439  469  525  597  655  696  742  815  915  1039  1170  1289  1428  1644  1928  2183  2324  2362  2377  2438  2554  2686  2796  2876  2919  2915  2862  2780  2701  2644  2613  2599  2571  2459  2194  1810  1446  1193  1026  858  607  277  -52  -321  -504  -590  -609  -614  -638  -684  -739  -784  -822  -870  -928  -969  -983  -982  -974  -962  -948  -939  -924  -874  -766  -611  -466  -379  -351  -355  -373  -400  -437  -476  -508  -536  -573  -621  -666  -688  -689  -677  -649  -595  -508  -403  -320  -280  -266  -258  -250  -236  -214  -198  -223  -309  -416  -478  -485  -468  -432  -365  -281  -221  -213  -256  -325  -386  -419  -427  -422  -415  -410  -410  -413  -415  -418  -422  -419  -394  -344  -285  -247  -240  -266  -320  -394  -470  -524  -550  -557  -546  -509  -454  -407  -382  -363  -324  -271  -237  -235  -242  -248  -266  -293  -311  -306  -283  -261  -249  -239  -221  -181  -100  6  79  88  66  51  46  25  -54  -213  -399  -524  -561  -552  -539  -535  -542  -559  -588  -617  -640  -662  -687  -711  -738  -773  -812  -841  -845  -873  -1039  -1355  -1632  -1546  -783  736  2698  4421  5182  4694  3186  1102  -1089  -3015  -4459  -5269  -5386  -4918  -4090  -3146  -2246  -1488  -939  -604  -436  -361  -301  -210  -94  6  53  50  27  7  6  56  191  386  554  645  687  717  736  732  715  700  691  689  701  740  798  852  889  911  923  950  1018  1121  1242  1393  1607  1890  2174  2379  2493  2576  2675  2773  2836  2858  2861  2878  2932  3018  3096  3135  3142  3135  3112  3047  2921  2744  2529  2245  1853  1423  1096  919  807  646  387  92  -130  -273  -402  -535  -627  -656  -650  -635  -622  -625  -678  -800  -943  -1025  -1009  -933  -857  -813  -795  -781  -748  -687  -602  -507  -430  -388  -379  -409  -489  -601  -697  -750  -768  -770  -771  -780  -804  -830  -839  -814  -750  -660  -575  -524  -506  -495  -469  -434  -412  -417  -442  -459  -467  -478  -478  -459  -419  -350  -276  -244  -291  -426  -591  -696  -707  -660  -611  -589  -586  -591  -604  -629  -663  -697  -733  -766  -784  -785  -783  -785  -787  -774  -733  -672  -617  -581  -570  -585  -611  -636  -655  -660  -629  -537  -395  -261  -189  -170  -167  -164  -158  -147  -125  -90  -47  -17  -27  -90  -203  -340  -476  -586  -688  -811  -917  -944  -889  -804  -745  -728  -730  -717  -677  -627  -633  -711  -738  -654  -643  -857  -1147  -1134  -420  1163  3274  5031  5608  4838  3102  944  -1154  -2953  -4352  -5159  -5219  -4600  -3566  -2476  -1647  -1197  -983  -756  -440  -136  85  242  346  391  398  404  422  438  445  448  455  463  471  478  493  532  612  711  783  807  801  792  800  837  895  950  993  1039  1123  1271  1452  1595  1662  1677  1690  1759  1929  2173  2403  2562  2660  2730  2806  2910  3025  3118  3178  3215  3253  3298  3341  3371  3358  3239  2977  2631  2313  2071  1854  1578  1220  874  647  514  370  162  -80  -298  -460  -575  -666  -728  -762  -783  -799  -790  -738  -669  -650  -726  -856  -957  -995  -994  -970  -914  -831  -751  -701  -690  -709  -740  -773  -800  -823  -852  -884  -904  -899  -867  -825  -784  -729  -665  -620  -619  -652  -676  -661  -627  -598  -570  -542  -524  -521  -534  -550  -568  -616  -694  -765  -806  -820  -810  -765  -675  -561  -478  -450  -464  -502  -546  -575  -584  -584  -582  -581  -580  -578  -574  -571  -579  -603  -638  -666  -679  -677  -666  -651  -634  -615  -604  -602  -604  -599  -578  -546  -523  -534  -596  -688  -767  -804  -804  -768  -682  -534  -362  -254  -265  -359  -462  -523  -534  -514  -476  -432  -389  -327  -216  -71  43  91  81  34  -47  -164  -295  -404  -476  -496  -465  -418  -394  -398  -424  -456  -481  -501  -522  -534  -533  -536  -545  -541  -524  -512  -525  -584  -713  -956  -1298  -1495  -1110  138  2080  4082  5336  5362  4257  2446  378  -1654  -3500  -4915  -5556  -5301  -4385  -3208  -2147  -1405  -948  -640  -410  -250  -151  -90  -53  -38  -30  5  97  240  380  454  454  422  398  406  460  557  665  754  832  902  946  954  936  912  900  905  914  927  965  1059  1214  1385  1496  1519  1507  1568  1796  2156  2474  2633  2682  2735  2844  2993  3138  3237  3278  3281  3265  3226  3157  3085  3045  3042  3047  3015  2900  2683  2402  2121  1836  1500  1150  887  710  501  227  -8  -136  -194  -249  -328  -423  -502  -541  -545  -534  -525  -538  -597  -696  -801  -875  -905  -904  -896  -892  -883  -859  -826  -800  -773  -718  -640  -571  -537  -544  -577  -604  -592  -529  -441  -374  -351  -363  -400  -454  -509  -554  -577  -561  -492  -389  -301  -258  -264  -321  -434  -577  -692  -744  -737  -700  -662  -638  -622  -603  -585  -578  -581  -585  -584  -583  -598  -640  -699  -744  -762  -760  -742  -709  -670  -641  -603  -521  -404  -316  -296  -334  -402  -468  -521  -579  -638  -676  -661  -578  -468  -387  -331  -273  -203  -133  -70]
