reading_id,reading_time,wire_id,result_classification,heart_rate,heart_rate_alert,firmware_version,device_app_version,hardware_version,waveform_samples
cc27ead0-6623-11ed-8080-808080808080,Thu Nov 17 02:59:05 UTC 2022,a101e3b72739,NSR,60,NONE,20001.171.50,2.10.0,Charge 5,[-5466  -6092  -6523  -6712  -6570  -5832  -4332  -2231  112  2347  4277  5880  7121  7912  8265  8312  8092  7479  6381  4896  3347  2159  1553  1402  1446  1543  1779  2347  3217  4106  4908  5752  6763  8004  9342  10431  10981  10843  9963  8415  6376  4096  1985  480  -171  81  1069  2382  3582  4513  5332  6258  7310  8223  8721  8811  8665  8385  7988  7427  6648  5761  5043  4680  4636  4834  5336  6371  8078  10101  11770  12724  13079  13102  12904  12380  11432  10141  8689  7230  5865  4711  3876  3198  2328  1289  504  207  328  797  1508  2210  2737  3157  3584  4043  4470  4686  4442  3543  2027  229  -1505  -3095  -4618  -6112  -7500  -8618  -9351  -9690  -9655  -9235  -8485  -7590  -6686  -5767  -4753  -3563  -2300  -1289  -746  -597  -711  -1086  -1729  -2556  -3467  -4289  -4793  -4934  -4858  -4649  -4285  -3779  -3228  -2685  -2159  -1707  -1307  -829  -285  146  389  491  435  153  -334  -885  -1374  -1801  -2171  -2400  -2383  -2062  -1488  -833  -301  -9  83  93  68  -24  -214  -438  -608  -765  -1039  -1436  -1802  -2000  -2008  -1841  -1533  -1198  -950  -774  -617  -493  -448  -500  -666  -958  -1334  -1705  -2035  -2344  -2631  -2889  -3031  -2717  -1649  -4  1708  2931  3271  2731  1599  200  -1089  -1976  -2351  -2116  -1298  -153  1081  2205  2986  3323  3239  2775  2057  1336  788  407  132  -51  -148  -180  -170  -118  23  356  959  1810  2783  3733  4513  5003  5195  5169  4987  4684  4330  3963  3550  3117  2769  2550  2418  2331  2269  2223  2207  2253  2364  2495  2584  2625  2650  2673  2710  2849  3208  3758  4341  4849  5297  5790  6393  7004  7492  7848  8097  8241  8305  8337  8352  8285  8040  7615  7098  6459  5555  4392  3155  1979  930  103  -443  -750  -886  -914  -886  -819  -676  -380  107  700  1222  1544  1663  1646  1514  1258  941  669  433  41  -672  -1589  -2413  -2952  -3192  -3204  -3048  -2729  -2187  -1399  -537  184  784  1340  1753  1925  1882  1639  1148  380  -617  -1715  -2711  -3521  -4241  -4865  -5240  -5289  -5039  -4560  -3986  -3419  -2775  -1883  -715  573  1677  2285  2360  2111  1801  1610  1455  1078  344  -625  -1525  -2094  -2329  -2399  -2500  -2749  -2947  -2792  -2381  -1997  -1702  -1408  -1009  -443  296  1168  1993  2523  2678  2575  2377  2168  1906  1465  790  26  -593  -988  -1231  -1391  -1468  -1406  -1111  -493  407  1312  1898  2113  2122  2072  2011  1932  1794  1514  1035  375  -342  -901  -1167  -1217  -1196  -1148  -1001  -695  -294  55  290  449  581  711  840  944  1011  1058  1064  907  457  -202  -789  -1103  -1189  -1208  -1274  -1409  -1561  -1656  -1658  -1563  -1408  -1257  -1166  -1145  -1166  -1184  -1170  -1129  -1080  -1030  -966  -894  -860  -906  -1022  -1162  -1307  -1476  -1689  -1937  -2181  -2360  -2433  -2425  -2403  -2407  -2422  -2426  -2443  -2498  -2533  -2408  -2002  -1321  -510  197  613  749  704  438  -161  -1030  -1867  -2389  -2565  -2552  -2502  -2470  -2457  -2463  -2498  -2581  -2710  -2842  -2903  -2854  -2737  -2613  -2503  -2393  -2258  -2056  -1737  -1350  -1108  -1140  -1246  -1192  -999  -780  -596  -511  -607  -893  -1337  -1946  -2666  -3323  -3873  -4441  -4961  -5123  -4820  -4352  -4017  -3807  -3521  -2933  -2044  -1146  -491  -99  96  162  152  77  -94  -376  -708  -986  -1158  -1290  -1458  -1605  -1591  -1379  -1074  -769  -448  -60  388  797  1041  1096  1029  868  570  136  -326  -702  -1014  -1382  -1838  -2269  -2550  -2658  -2653  -2600  -2531  -2433  -2244  -1927  -1568  -1313  -1212  -1199  -1170  -1049  -858  -693  -611  -601  -678  -881  -1163  -1419  -1622  -1831  -2063  -2269  -2414  -2475  -2405  -2154  -1789  -1474  -1310  -1272  -1288  -1281  -1189  -1002  -754  -492  -253  -67  70  180  237  216  164  133  113  70  3  -42  -7  138  335  485  583  709  915  1202  1551  1925  2270  2527  2680  2750  2784  2843  2968  3135  3290  3428  3590  3794  4012  4194  4289  4286  4204  4045  3794  3486  3212  3044  2981  2976  2990  3002  3007  3008  3017  3038  3063  3095  3144  3223  3336  3486  3674  3886  4135  4477  4860  5097  5076  4862  4590  4358  4166  3980  3798  3608  3396  3193  3046  2979  3017  3195  3485  3774  3972  4078  4148  4227  4306  4341  4303  4191  4062  3986  3941  3830  3571  3183  2782  2484  2330  2285  2299  2347  2432  2572  2778  3006  3175  3248  3221  3083  2874  2698  2611  2560  2450  2221  1887  1531  1255  1071  924  793  692  620  553  452  292  78  -160  -360  -467  -504  -580  -807  -1189  -1591  -1861  -1965  -1987  -2022  -2076  -2083  -1994  -1818  -1666  -1635  -1532  -1041  -70  1319  2932  4240  4592  3772  2045  -230  -2593  -4541  -5914  -6699  -6772  -6230  -5398  -4474  -3566  -2849  -2427  -2173  -1904  -1600  -1359  -1229  -1170  -1135  -1108  -1082  -1044  -1010  -1029  -1115  -1264  -1506  -1815  -2102  -2361  -2660  -2981  -3227  -3359  -3417  -3424  -3318  -3010  -2550  -2122  -1841  -1653  -1439  -1186  -1027  -1066  -1247  -1456  -1627  -1741  -1799  -1820  -1826  -1802  -1705  -1526  -1339  -1224  -1181  -1150  -1090  -984  -811  -576  -296  83  611  1194  1664  1906  1894  1733  1584  1475  1298  989  569  47  -574  -1173  -1562  -1726  -1824  -1950  -2088  -2232  -2376  -2486  -2541  -2549  -2523  -2442  -2278  -2071  -1923  -1889  -1943  -2037  -2136  -2216  -2252  -2223  -2134  -1997  -1828  -1628  -1332  -908  -474  -159  76  329  589  801  945  1018  1037  1034  1028  1012  964  857  617  141  -528  -1163  -1574  -1754  -1782  -1713  -1556  -1311  -971  -558  -154  248  721  1235  1739  2126  2285  2363  2535  2692  2608  2099  1163  143  -548  -840  -956  -1145  -1528  -1931  -2064  -1959  -1855  -1807  -1663  -1296  -788  -315  130  683  1297  1763  1960  1925  1740  1475  1193  902  558  118  -454  -1164  -1877  -2364  -2515  -2401  -2175  -1962  -1786  -1588  -1308  -975  -698  -549  -471  -311  29  444  713  759  663  507  326  153  30  -43  -114  -226  -396  -625  -877  -1097  -1259  -1353  -1381  -1323  -1154  -925  -757  -694  -664  -545  -225  303  881  1363  1777  2153  2406  2495  2493  2454  2351  2136  1867  1670  1587  1536  1400  1114  719  344  97  -2  7  96  231  373  494  576  617  640  655  675  707  727  685  521  202  -197  -543  -767  -872  -895  -903  -962  -1104  -1272  -1272  -825  321  2078  3858  4943  4878  3566  1273  -1380  -3674  -5169  -5776  -5615  -4977  -4177  -3360  -2587  -1918  -1374  -967  -691  -483  -266  -38  133  237  319  393  434  438  429  424  411  374  344  382  490  622  751  861  923  939  932  909  853  755  628  509  460  540  740  970  1123  1170  1159  1134  1107  1097  1166  1375  1677  1931  2068  2123  2139  2132  2113  2119  2214  2434  2748  3088  3377  3524  3480  3281  3027  2819  2689  2580  2375  1998  1522  1086  726  404  112  -142  -365  -558  -713  -822  -901  -994  -1113  -1231  -1324  -1390  -1434  -1471  -1550  -1700  -1842  -1846  -1716  -1571  -1496  -1518  -1618  -1739  -1860  -1972  -2053  -2099  -2152  -2238  -2341  -2429  -2489  -2523  -2536  -2532  -2524  -2496  -2387  -2139  -1807  -1535  -1431  -1506  -1709  -1957  -2155  -2249  -2264  -2253  -2237  -2206  -2154  -2084  -2020  -2008  -2077  -2189  -2280  -2330  -2348  -2329  -2224  -1966  -1600  -1283  -1103  -1014  -959  -935  -943  -963  -978  -989  -992  -959  -865  -737  -639  -585  -519  -407  -279  -161  -40  89  203  288  366  457  564  700  881  1106  1320  1450  1488  1486  1478  1455  1413  1411  1505  1651  1763  1812  1831  1865  1949  2082  2229  2330  2358  2313  2197  2039  1887  1752  1627  1527  1459  1397  1332  1282  1262  1261  1273  1296  1333  1396  1506  1646  1773  1873  1948  1966  1901  1789  1702  1675  1681  1680  1645  1573  1474  1352  1192  1017  898  854  818  718  547  353  185  44  -85  -202  -284  -297  -225  -102  7  70  90  91  90  86  33  -138  -445  -802  -1098  -1322  -1514  -1560  -1290  -759  -15  995  2097  2905  3100  2549  1286  -504  -2457  -4070  -4930  -4962  -4376  -3463  -2499  -1703  -1139  -724  -408  -249  -251  -313  -359  -382  -423  -539  -761  -1042  -1276  -1364  -1260  -995  -678  -425  -275  -198  -166  -168  -187  -198  -184  -152  -134  -159  -211  -278  -385  -532  -701  -887  -1061  -1153  -1104  -907  -604  -272  46  402  803  1148  1386  1570  1735  1864  1932  1930  1900  1885  1865  1807  1729  1618  1421  1185  1069  1159  1368  1537  1608  1623  1629  1640  1653  1651  1604  1465  1181  767  313  -114  -516  -864  -1116  -1291  -1426  -1514  -1529  -1460  -1292  -1006  -605  -186  86  154  98  17  -33  -54  -70  -121  -237  -389  -516  -622  -765  -961  -1167  -1329  -1418  -1443  -1442  -1446  -1451  -1417  -1304  -1143  -1015  -951  -912  -866  -822  -808  -824  -854  -895  -937  -971  -999  -1022  -1036  -1035  -993  -886  -733  -573  -389  -121  231  568  781  863  886  883  813  641  427  295  289  343  387  409  411  397  374  355  348  354  371  394  418  448  480  500  505  502  504  521  555  621  731  840  860  770  629  496  403  358  338  283  148  -34  -166  -190  -128  -38  20  29  20  33  73  108  101  60  40  67  105  125  131  141  148  108  -27  -252  -509  -748  -949  -1143  -1377  -1628  -1827  -1956  -2055  -2161  -2267  -2347  -2375  -2269  -1867  -959  496  2168  3527  4124  3664  2096  -239  -2755  -4959  -6489  -7117  -6949  -6352  -5654  -4993  -4377  -3828  -3350  -2901  -2506  -2229  -2042  -1872  -1710  -1608  -1594  -1632  -1647  -1582  -1464  -1373  -1338  -1302  -1201  -1037  -875  -766  -712  -690  -668  -608  -493  -358  -245  -134  25  254  489  635  683  734  900  1191  1492  1688  1799  1911  2087  2358  2679  2943  3108  3222  3350  3543  3787  4022  4243  4454  4597  4644  4639  4628  4624  4625  4647  4718  4827  4916  4896  4678  4263  3797  3459  3297  3200  3035  2796  2556  2319  2077  1896  1819  1811  1819  1820  1816  1816  1813  1769  1649  1488  1341  1177  936  669  500  475  564  728  912  1057  1156  1228  1250  1200  1110  1045  1026  1026  1003  952  933  1014  1149  1207  1151  1061  1003  971  935  881  834  835  890  971  1070  1204  1354  1484  1600  1715  1789  1755  1597  1429  1408  1524  1625  1605  1476  1338  1264  1218  1144  1067  1013  959  898  847  797  706  556  373  189  37  -52  -80  -85  -118  -222  -390  -563  -709  -870  -1121  -1480  -1858  -2129  -2248  -2268  -2239  -2142  -1914  -1563  -1224  -1030  -979  -982  -950  -845  -693  -564  -501  -526  -660  -882  -1110  -1294  -1445  -1583  -1709  -1811  -1865  -1828  -1673  -1452  -1273  -1184  -1144  -1107  -1068  -1047  -995  -869  -829  -1059  -1468  -1795  -1705  -876  654  2430  3758  3957  2875  1010  -1073  -3012  -4477  -5230  -5280  -4800  -4000  -3147  -2483  -2053  -1797  -1677  -1661  -1686  -1661  -1530  -1341  -1203  -1154  -1136  -1083  -981  -884  -851  -842  -767  -591  -339  -126  -126  -346  -600  -749  -785  -768  -777  -843  -921  -967  -980  -1003  -1081  -1197  -1255  -1139  -812  -392  -76  51  59  60  145  369  684  962  1124  1213  1311  1439  1562  1651  1690  1660  1558  1387  1189  1051  1022  1074  1148  1198  1209  1197  1167  1087  899  623  386  268  199  50  -251  -670  -1064  -1299  -1371  -1378  -1404  -1479  -1574  -1639  -1647  -1602  -1527  -1441  -1349  -1243  -1115  -977  -861  -785  -770  -844  -975  -1079  -1134  -1190  -1275  -1359  -1391  -1336  -1223  -1133  -1104  -1109  -1119  -1122  -1120  -1127  -1156  -1202  -1241  -1256  -1251  -1251  -1285  -1356  -1429  -1461  -1449  -1409  -1312  -1118  -871  -669  -564  -538  -542  -554  -593  -683  -795  -873  -897  -887  -865  -854  -900  -1046  -1254  -1410  -1426  -1305  -1123  -972  -867  -748  -581  -399  -264  -234  -321  -458  -561  -612  -629  -632  -633  -635  -635  -632  -631  -633  -637  -627  -588  -526  -481  -480  -517  -547  -495  -350  -202  -109  -43  15  51  53  37  21  6  -18  -54  -83  -90  -70  -25  22  75  154  252  339  417  494  563  634  738  859  922  894  790  643  522  471  449  384  244  78  -34  -72  -73  -71  -57  7  136  278  366  388  382  374  363  339  296  242  194  109  -63  -110  399  1609  3243  4827  5717  5399  3972  1960  -168  -2088  -3513  -4276  -4410  -3999  -3130  -2025  -940  -28  577  825  839  777  705  640  594  566  543  528  552  630  721  771  795  837  912  987  1004  967  949  960  951  920  894  886  902  933  972  1010  1024  970  840  701  622  621  685  817  1019  1240  1412  1556  1756  2016  2249  2428  2608  2808  2980  3064  3065  3036  3022  3014  2983  2899  2756  2589  2462  2374  2248  2018  1728  1500  1389  1352  1308  1178  921  561  187  -100  -281  -426  -604  -793  -928  -1009  -1113  -1280  -1474  -1661  -1808  -1835  -1724  -1561  -1398  -1224  -1058  -949  -913  -941  -1026  -1152  -1286  -1390  -1444  -1458  -1454  -1436  -1391  -1330  -1287  -1278  -1284  -1293  -1322  -1387  -1458  -1490  -1485  -1441  -1347  -1247  -1205  -1216  -1235  -1216  -1155  -1094  -1053  -1008  -941  -868  -819  -813  -846  -885  -900  -898  -890  -848  -743  -610  -521  -499  -517  -556  -613  -662  -654  -576  -471  -390  -350  -345  -372  -448  -584  -747  -888  -992  -1055  -1046  -979  -918  -889  -830  -656  -393  -165  -53  -33  -46  -59  -76  -111  -153  -148  -47  135  314  391  318  114  -137  -335  -420  -421  -399  -373  -311  -185  -23  121  219  279  316  333  328  308  296  308  338  368  394  426  465  486  468  437  415  396  402  466  555  607  593  512  397  318  331  453  641  822  955  1039  1053  945  702  417  213  111  58  13  -24  -50  -61  -58  -41  -19  -4  -4  -15  -30  -39  -37  -19  -2  -15  -82  -179  -194  -69  78  198  446  965  1785  2828  3799  4216  3746  2459  688  -1195  -2817  -3891  -4382  -4394  -3960  -3145  -2206  -1423  -881  -515  -244  -50  46  56  28  -1  -18  -25  -44  -97  -165  -172  -29  264  577  761  773  666  525  429  400  407  424  442  455  445  402  337  279  245  229  223  246  314  411  489  522  519  510  512  522  538  579  713  1015  1453  1888  2198  2354  2397  2397  2408  2441  2482  2505  2510  2517  2548  2601  2653  2663  2561  2282  1845  1354  912  586  390  274  157  14  -120  -235  -353  -475  -567  -617  -644  -662  -666  -647  -614  -586  -570  -567  -598  -686  -804  -891  -923  -925  -915  -884  -825  -774  -765  -744  -647  -498  -345  -209  -110  -59  -36  -29  -65  -197  -426  -660  -796  -813  -743  -628  -519  -437  -366  -304  -270  -263  -239  -163  -57  16  18  -42  -120  -179  -241  -355  -513  -653  -735  -763  -758  -751  -743  -698  -599  -491  -423  -396  -385  -376  -363  -325  -246  -148  -77  -46  -34  -40  -122  -315  -514  -542  -394  -225  -114  -16  110  246  337  337  268  202  189  219  258  296  343  384  368  251  45  -174  -347  -460  -525  -563  -597  -636  -650  -615  -565  -544  -559  -579  -546  -457  -424  -524  -676  -757  -621  -82  882  2135  3467  4392  4302  3114  1187  -1167  -3456  -4958  -5416  -5136  -4455  -3627  -2897  -2294  -1652  -956  -394  -61  113  215  282  333  366  361  306  218  127  42  -53  -150  -181  -85  105  295  414  460  462  447  433  431  460  524  581  588  571  590  665  752  802  815  814  806  786  749  706  687  739  899  1118  1292  1393  1482  1587  1683  1775  1914  2102  2296  2469  2622  2761  2863  2862  2702  2369  1905  1448  1147  1010  936  841  656  330  -66  -372  -525  -587  -616  -658  -746  -854  -920  -931  -925  -924  -915  -866  -780  -736  -790  -884  -947  -978  -1000  -1019  -1041  -1074  -1110  -1146  -1192  -1232  -1226  -1143  -995  -840  -702  -559  -425  -345  -328  -350  -393  -442  -498  -574  -657  -707  -708  -671  -626  -583  -520  -413  -287  -198  -169  -176  -193  -213  -233  -249  -261  -272  -269  -233  -185  -196  -328  -538  -705  -754  -703  -602  -491  -375  -210  18  248  388  383  278  179  142  144  148  138  129  168  278  407  480  466  380  260  99  -133  -387  -569  -653  -683  -710  -741  -751  -716  -621  -494  -392  -336  -329  -372  -434  -440  -301  -47  41  -255  -747  -1099  -1151  -749  263  1714  3110  3980  4009  3143  1666  -13  -1633  -3074  -4168  -4737  -4768  -4335  -3508  -2425  -1371  -675  -422  -414  -443  -434  -374  -256  -96  60  175  239  268  286  321  386  486  622  777  902  970  996  1000  980  922  842  768  706  651  616  613  629  639  630  616  608  604  613  670  814  1020  1206  1333  1431  1516  1555  1568  1657  1860  2130  2409  2612  2686  2672  2630  2583  2524  2449  2362  2257  2119  1954  1786  1608  1357  996  626  391  303  243  111  -78  -251  -387  -514  -641  -743  -806  -837  -847  -860  -926  -1067  -1203  -1242  -1207  -1173  -1159  -1142  -1099  -1026  -934  -832  -733  -659  -627  -623  -626  -627  -628  -628  -616  -592  -569  -556  -559  -580  -619  -669  -716  -750  -767  -774  -773  -765  -743  -707  -670  -656  -665  -664  -646  -673  -779  -877  -844  -660  -460  -428  -565  -704  -735  -700  -675  -672  -664  -641  -599  -545  -520  -551  -595  -594  -549  -514  -539  -632  -768  -871  -845  -707  -565  -459  -361  -300  -340  -454  -537  -543  -517  -496  -476  -447  -427  -426  -434  -461  -530  -634  -744  -834  -871  -851  -807  -776  -757  -705  -581  -419  -312  -330  -462  -613  -691  -697  -684  -674  -662  -625  -548  -459  -402  -394  -408  -399  -343  -261  -202  -181  -181  -189  -211  -252  -301  -325  -318  -323  -363  -415  -462  -506  -545  -576  -604  -632  -660  -692  -730  -767  -789  -794  -786  -770  -758  -768  -826  -963  -1151  -1237  -1120  -940  -904  -1038  -1137  -807  210  1715  3143  3835  3421  2148  578  -959  -2379  -3558  -4318  -4555  -4229  -3418  -2398  -1501  -918  -649  -581  -582  -539  -371  -95  164  332  445  573  750  975  1207  1400  1546  1659  1752  1844  1940  2021  2068  2079  2073  2077  2097  2118  2128  2132  2141  2153  2158  2147  2131  2119  2111  2108  2129  2199  2317  2471  2674  2924  3151  3280  3309  3296  3283  3280  3283  3287  3298  3334  3413  3530  3645  3719  3747  3719  3581  3284  2898  2574  2364  2192  2010  1838  1660  1421  1117  814  572  370  171  -21  -195  -336  -429  -491  -533  -550  -549  -544  -550  -592  -682  -785  -849  -864  -857  -850  -845  -837  -827  -823  -831  -836  -802  -694  -523  -357  -282  -328  -455  -614  -770  -882  -933  -938  -930  -936  -957  -973  -970  -958  -954  -960  -964  -939  -867  -774  -712  -692  -660  -563  -429  -337  -324  -380  -499  -657  -790  -845  -834  -820  -844  -888  -922  -938  -958  -990  -1020  -1005  -896  -693  -485  -382  -413  -524  -647  -760  -833  -811  -702  -603  -577  -614  -678  -744  -797  -827  -841  -849  -853  -850  -834  -815  -799  -765  -683  -568  -479  -451  -490  -583  -680  -723  -710  -673  -631  -593  -553  -484  -387  -304  -288  -347  -432  -510  -589  -654  -678  -668  -662  -693  -739  -733  -648  -529  -425  -350  -283  -210  -156  -157  -227  -346  -473  -572  -628  -665  -727  -821  -871  -788  -593  -398  -264  -197  -195  -226  -251  -263  -263  -223  -110  47  159  140  -33  -284  -476  -525  -403  -127  194  411  478  462  433  404  353  285  227  187  151  117  84  29  -63  -177  -274  -334  -363  -400  -493  -642  -796  -887  -883  -819  -745  -674  -604  -518  -402  -301  -259  -295  -422  -415  125  1299  2845  4282  4967  4545  3186  1288  -726  -2523  -3963  -4877  -5035  -4478  -3460  -2226  -1049  -194  230  323  285  257  275  328  416  549  706  832  889  884  852  834  838  844  826  770  701  651  620  610  641  722  835  946  1032  1082  1102  1119  1146  1162  1163  1186  1267  1386  1483  1532  1559  1594  1650  1740  1858  1977  2083  2192  2311  2419  2493  2523  2529  2555  2631  2744  2849  2920  2958  2968  2931  2821  2660  2501  2359  2198  1985  1713  1407  1105  817  541  304  128  3  -115  -267  -434  -573  -663  -704  -710  -710  -720  -745  -791  -872  -975  -1054  -1067  -1004  -899  -813  -779  -801  -873  -969  -1052  -1102  -1119  -1101  -1055  -984  -899  -838  -832  -887  -989  -1083  -1114  -1096  -1074  -1064  -1058  -1056  -1058  -1064  -1062  -1031  -969  -911  -890  -887  -860  -795  -726  -687  -669  -655  -651  -667  -692  -710  -714  -724  -758  -808  -841  -820  -736  -634  -561  -511  -460  -437  -480  -581  -683  -742  -755  -741  -710  -668  -635  -625  -635  -648  -629  -552  -430  -327  -304  -365  -479  -622  -757  -838  -862  -861  -845  -771  -589  -342  -154  -90  -140  -279  -450  -568  -606  -601  -592  -604  -657  -769  -917  -1027  -1061  -1049  -1031  -1021  -1018  -1020  -1021  -1012  -986  -943  -889  -841  -809  -773  -697  -593  -511  -464  -430  -413  -430  -468  -504  -531  -548  -559  -561  -535  -457  -336  -217  -143  -116  -97  -55  -33  -81  -178  -277  -356  -396  -399  -398  -425  -489  -580  -685  -777  -829  -838  -824  -821  -873  -1004  -1158  -1231  -1200  -1131  -1077  -1051  -1046  -1049  -1037  -993  -999  -1186  -1520  -1728  -1428  -354  1308  2898  3747  3582  2526  911  -905  -2604  -3908  -4588  -4595  -4121  -3412  -2616  -1832  -1149  -597  -135  266  566  725  771  778  815  905  1027  1137  1194  1167  1037  839  667  600  665  845  1067  1239  1335  1406  1522  1701  1900  2058  2146  2177  2179  2180  2199  2244  2305  2357  2374  2349  2296  2231  2164  2126  2180  2384  2693  2991  3215  3375  3486  3575  3682  3839  4070  4381  4706  4903  4829  4436  3885  3458  3246  3093  2857  2574  2353  2201  2019  1744  1379  969  572  242  12  -125  -208  -272  -350  -441  -523  -607  -720  -854  -972  -1055  -1116  -1159  -1170  -1150  -1127  -1135  -1188  -1269  -1347  -1410  -1451  -1471  -1469  -1436  -1374  -1314  -1261  -1180  -1056  -926  -854  -870  -962  -1084  -1180  -1223  -1227  -1214  -1182  -1125  -1063  -1034  -1060  -1129  -1209  -1267  -1291  -1312  -1365  -1443  -1496  -1483  -1404  -1315  -1298  -1365  -1458  -1546  -1648  -1750  -1796  -1746  -1619  -1467  -1315  -1158  -1015  -914  -845  -788  -734  -662  -552  -401  -236  -109  -55  -54  -73  -129  -262  -432  -527  -481  -351  -230  -143  -45  89  233  354  458  569  687  792  869  939  1035  1142  1219  1268  1314  1370  1436  1505  1540  1443  1125  672  312  156  145  219  356  490  526  431  277  163  97  10  -119  -224  -237  -162  -48  52  110  112  73  17  -26  -42  -19  40  58  -61  -266  -390  -268  291  1404  2883  4212  4808  4368  2966  976  -1081  -2797  -3950  -4447  -4439  -4228  -3901  -3362  -2600  -1729  -962  -492  -295  -195  -96  -25  -23  -66  -87  -43  50  150  235  315  374  367  298  229  200  204  223  249  279  306  336  375  414  451  503  571  630  677  733  817  917  1024  1153  1299  1421  1482  1502  1559  1722  1963  2169  2276  2311  2332  2385  2496  2657  2837  2995  3100  3143  3145  3133  3109  3050  2929  2749  2527  2265  1964  1670  1424  1236  1071  862  592  324  98  -92  -252  -377  -475  -579  -716  -878  -1020  -1099  -1107  -1070  -1016  -961  -912  -884  -875  -864  -853  -864  -892  -920  -940  -964  -1015  -1077  -1106  -1089  -1063  -1059  -1076  -1095  -1117  -1159  -1180  -1116  -1001  -930  -924  -924  -873  -789  -731  -717  -721  -727  -729  -730  -738  -757  -788  -821  -815  -754  -708  -747  -832  -883  -853  -725  -538  -386  -322  -327  -366  -416  -460  -489  -504  -517  -538  -554  -535  -467  -378  -317  -296  -299  -318  -353  -394  -432  -462  -483  -501  -528  -561  -583  -589  -596  -625  -673  -709  -716  -705  -688  -651  -570  -461  -373  -330  -325  -339  -358  -382  -424  -477  -518  -534  -537  -533  -517  -486  -458  -453  -470  -503  -549  -575  -531  -404  -239  -110  -35  24  77  81  2  -145  -294  -387  -431  -462  -490  -519  -571  -654  -747  -827  -898  -994  -1120  -1225  -1265  -1228  -1127  -1004  -912  -860  -821  -785  -782  -872  -1062  -1239  -1232  -827  195  1767  3388  4408  4397  3354  1667  -139  -1773  -3214  -4344  -4958  -5026  -4570  -3621  -2439  -1439  -857  -620  -520  -412  -278  -157  -86  -66  -68  -67  -56  -39  -26  -17  -5  13  27  34  78  198  350  440  428  363  308  284  285  312  372  451  521  579  638  695  743  789  877  1049  1257  1397  1440  1437  1443  1469  1493  1500  1533  1663  1893  2139  2311  2391  2422  2454  2498  2540  2577  2607  2621  2598  2515  2372  2186  1965  1711  1444  1219  1084  995  835  558  247  -14  -241  -469  -648  -706  -663  -602  -571  -566  -571  -573  -572  -574  -583  -595  -594  -569  -529  -501  -496  -493  -475  -447  -414  -388  -373  -365  -347  -292  -199  -118  -80  -66  -55  -52  -64  -86  -98  -93  -80  -63  -39  -16  -31  -124  -273  -396  -444  -430  -384  -318  -239  -162  -110  -82  -52  -23  -39  -109  -131  -33  64  6  -193  -409  -559  -625  -619  -552  -441  -312  -192  -87  15  87  53  -94  -261  -346  -340  -294  -253  -226  -203  -181  -158  -138  -135  -161  -213  -272  -315  -334  -336  -331  -324  -317  -305  -276  -207  -92  27  105  146  179  203  200  170  124  73  28  -14  -54  -79  -87  -81  -69  -54  -45  -38  -24  16  91  188  274  320  304  224  115  36  8  11  20  25  25  16  -6  -36  -56  -53  -19  33  77  84  39  -39  -113  -152  -162  -163  -161  -133  -55  54  146  194  209  206  196  177  122  7  -137  -246  -291  -293  -280  -279  -302  -351  -442  -577  -711  -794  -828  -830  -772  -605  -362  -149  -25  -17  -194  -553  -858  -768  -29  1397  3134  4493  4967  4403  2931  939  -1102  -2869  -4191  -4899  -4901  -4344  -3484  -2531  -1660  -973  -484  -196  -85  -66  -55  -20  28  94  192  290  335  334  324  321  310  274  213  155  137  187  295  401  455  461  453  464  509  572  620  649  690  777  903  1022  1091  1108  1104  1110  1147  1209  1284  1367  1446  1516  1609  1769  1986  2188  2315  2385  2453  2545  2646  2731  2791  2838  2882  2909  2860  2673  2365  2061  1873  1778  1652  1416  1117  847  628  424  228  73  -37  -140  -261  -398  -525  -627  -718  -811  -892  -937  -944  -928  -906  -888  -876  -872  -881  -906  -938  -951  -929  -886  -844  -801  -763  -739  -710  -659  -606  -572  -559  -549  -522  -513  -575  -685  -766  -787  -776  -762  -733  -666  -576  -515  -506  -525  -545  -555  -561  -563  -555  -538  -529  -538  -530  -479  -428  -446  -537  -645  -716  -740  -742  -741  -738  -729  -702  -653  -602  -561  -520  -465  -387  -293  -232  -239  -300  -381  -458  -508  -525  -514  -484  -458  -445  -441  -449  -476  -514  -544  -555  -554  -546  -532  -524  -546  -600  -637  -608  -520  -414  -341  -314  -308  -299  -283  -276  -300  -350  -385  -378  -354  -350  -367  -379  -382  -402  -447  -489  -505  -502  -498  -506  -527  -544  -540  -531  -545  -574  -601  -615  -601  -556  -512  -492  -485  -469  -440  -424  -425  -397  -317  -225  -166  -150  -156  -131  -24  150  310  392  399  351  236  44  -173  -335  -404  -412  -401  -369  -296  -194  -114  -83  -98  -136  -167  -177  -177  -190  -237  -325  -433  -526  -594  -656  -705  -703  -634  -403  231  1393  2849  4126  4713  4314  3048  1281  -630  -2390  -3723  -4418  -4453  -4026  -3390  -2734  -2139  -1556  -954  -453  -174  -51  70  234  378  454  475  481  505  562  636  691  710  699  667  626  591  559  525  502  517  585  713  877  1018  1097  1128  1136  1121  1080  1027  986  980  1021  1104  1197  1255  1261  1247  1271  1387  1589  1812  1994  2124  2223  2316  2403  2482  2549  2597  2626  2645  2668  2706  2751  2760  2682  2522  2311  2081  1858  1638  1415  1209  1024  805  489  113  -192  -359  -424  -447  -463  -495  -570  -673  -751  -772  -761  -774  -859  -1019  -1190  -1296  -1329  -1332  -1325  -1283  -1195  -1092  -996  -897  -805  -744  -727  -758  -800  -802  -783  -769  -754  -731  -707  -695  -702  -723  -756  -795  -827  -840  -836  -818  -805  -808  -822  -830  -833  -838  -844  -832  -781  -696  -598  -507  -465  -506  -613  -746  -846  -844  -751  -657  -622  -637  -675  -725  -786  -845  -874  -855  -798  -724  -668  -665  -699  -729  -753  -780  -798  -800  -797  -807  -835  -869  -902  -937  -952  -923  -863  -811  -791  -779  -724  -594  -412  -243  -141  -104  -97  -83  -31  41  56  -52  -237  -386  -437  -409  -366  -357  -386  -423  -443  -453  -476  -513  -538  -516  -421  -287  -203  -214  -277  -321  -331  -360  -476  -616  -569  -321  -197  -354  -508  -300  416  1635  3184  4550  5070  4452  2893  807  -1262  -2775  -3527  -3647  -3314  -2722  -2119  -1584  -1010  -372  185  522  647  673  684  697  702  710  751  844  975  1115  1254  1396  1513  1558  1537  1490  1432  1371  1320  1285  1255  1213  1165  1132  1123  1131  1129  1103  1073  1070  1115  1217  1335  1408  1428  1444  1502  1600  1696  1761  1795  1807  1825  1906  2078  2283  2427  2480  2484  2485  2501  2529  2558  2572  2563  2542  2513  2453  2330  2138  1938  1788  1608  1258  788  412  203  45  -134  -276  -321  -308  -306  -343  -429  -574  -765  -976  -1179  -1332  -1404  -1397  -1340  -1269  -1194  -1107  -1017  -957  -956  -1001  -1049  -1074  -1076  -1041  -954  -835  -741  -706  -711  -722  -728  -747  -811  -928  -1074  -1193  -1230  -1171  -1068  -988  -955  -947  -944  -941  -948  -967  -972  -938  -888  -855  -835  -813  -784  -732  -643  -538  -458  -407  -369  -367  -434  -539  -628  -687  -741  -813  -891  -942  -954  -935  -895  -832  -756  -720  -758  -823  -858  -862  -854  -838  -814  -786  -762  -735  -707  -691  -694  -717  -755  -813  -889  -955  -983  -976  -941  -877  -764  -590  -406  -287  -250  -258  -274  -283  -290  -298  -295  -261  -208  -187  -276  -508  -799  -1010  -1092  -1078  -983  -799  -583  -425  -355  -342  -394  -546  -756  -902  -926  -894  -860  -716  -451  -391  -773  -1322  -1468  -814  615  2412  3898  4415  3835  2545  937  -798  -2500  -3944  -4901  -5192  -4751  -3797  -2789  -2010  -1423  -957  -606  -371  -235  -164  -111  -37  53  125  166  189  203  196  159  113  107  181  338  524  661  721  727  714  713  730  750  767  785  804  826  844  856  888  982  1143  1314  1411  1418  1389  1380  1414  1514  1677  1849  1980  2073  2164  2268  2372  2473  2573  2674  2784  2903  3002  3027  2933  2741  2543  2406  2336  2309  2277  2151  1864  1473  1111  820  552  290  68  -98  -219  -291  -320  -323  -324  -334  -354  -374  -385  -386  -382  -380  -389  -417  -457  -493  -524  -555  -569  -530  -419  -272  -159  -110  -107  -138  -209  -303  -382  -440  -488  -519  -485  -354  -166  -4  81  102  98  80  31  -54  -134  -172  -185  -200  -208  -194  -154  -112  -98  -113  -139  -176  -226  -287  -350  -401  -411  -364  -284  -223  -201  -204  -212  -218  -226  -241  -262  -279  -286  -284  -288  -316  -383  -469  -528  -527  -469  -391  -339  -319  -299  -250  -187  -145  -146  -178  -219  -264  -319  -379  -433  -475  -500  -494  -441  -365  -283  -179  -93  -85  -136  -200  -256  -296  -323  -352  -395  -445  -459  -402  -307  -247  -252  -285  -301  -286  -259  -250  -261  -259  -236  -208  -185  -171  -162  -144  -110  -67  -33  -13  14  93  226  340  363  296  192  102  34  -29  -105  -214  -355  -474  -524  -506  -468  -441  -422  -391  -339  -277  -227  -197  -169  -136  -119  -182  -369  -595  -724  -754  -738  -699  -671  -694  -807  -966  -920  -347  861  2503  4041  4723  4149  2633  770  -1019  -2524  -3666  -4414  -4688  -4408  -3629  -2610  -1705  -1117  -798  -598  -424  -263  -139  -71  -54  -67  -95  -115  -68  121  442  759  949  994  917  720  456  229  100  66  108  207  357  545  721  821  821  742  630  556  592  768  1010  1192  1259  1253  1221  1193  1203  1292  1466  1672  1844  1962  2042  2109  2180  2258  2338  2403  2438  2451  2462  2497  2597  2766  2900  2895  2744  2471  2124  1803  1575  1432  1331  1212  1043  835  606  353  83  -174  -396  -567  -674  -718  -719  -700  -675  -654  -635  -595  -524  -483  -560  -731  -875  -920  -896  -855  -817  -773  -726  -697  -690  -685  -665  -644  -678  -800  -963  -1087  -1109  -996  -794  -611  -522  -526  -575  -614  -627  -626  -624  -616  -590  -556  -563  -631  -706  -737  -726  -703  -689  -682  -664  -623  -559  -481  -409  -364  -351  -353  -355  -358  -373  -402  -434  -457  -473  -489  -522  -571  -612  -644  -691  -757  -822  -852  -832  -781  -710  -603  -460  -316  -201  -136  -137  -202  -304  -403  -464  -487  -499  -518  -523  -489  -429  -369  -322  -291  -277  -280  -296  -315  -331  -336  -326  -294  -234  -162  -111  -110  -170  -278  -391  -460  -474  -461  -454  -465  -484  -494  -504  -538  -563  -534  -463  -390  -332  -295  -260  -190  -94  -27  -17  -44  -76  -90  -80  -55  -26  -5  3  5  8  12  5  -34  -110  -190  -241  -267  -293  -324  -356  -388  -410  -415  -408  -390  -363  -326  -284  -266  -289  -331  -359  -371  -383  -415  -469  -522  -554  -591  -693  -885  -1051  -844  78  1656  3419  4762  5156  4415  2815  824  -1168  -2891  -4128  -4723  -4703  -4269  -3586  -2716  -1785  -986  -408  -25  192  286  314  318  313  309  322  371  445  509  536  543  568  619  648  608  529  466  437  433  447  485  544  611  677  731  769  811  898  1049  1221  1349  1411  1424  1407  1385  1376  1381  1388  1404  1447  1516  1578  1608  1660  1826  2078  2290  2403  2441  2432  2413  2431  2520  2656  2757  2765  2681  2544  2374  2138  1825  1497  1232  1069  952  756  429  56  -246  -431  -506  -511  -498  -509  -555  -613  -657  -688  -710  -722  -724  -715  -697  -686  -706  -745  -760  -749  -747  -751  -736  -696  -640  -589  -560  -548  -546  -545  -548  -560  -584  -610  -618  -595  -557  -530  -519  -516  -522  -556  -633  -722  -768  -762  -733  -698  -659  -612  -554  -499  -463  -448  -443  -441  -441  -452  -492  -564  -629  -641  -614  -592  -592  -597  -578  -513  -425  -367  -363  -394  -426  -444  -455  -473  -495  -511  -521  -530  -540  -530  -471  -359  -237  -137  -36  71  146  146  83  4  -44  -63  -70  -77  -95  -145  -224  -326  -465  -635  -767  -826  -848  -854  -837  -800  -757  -721  -702  -690  -667  -627  -597  -603  -634  -685  -741  -756  -728  -695  -574  -223  382  1273  2450  3517  3842  3161  1647  -342  -2320  -3795  -4501  -4513  -4084  -3404  -2647  -2007  -1549  -1199  -857  -516  -248  -83  0  44  103  174  214  219  211  214  246  311  387  440  457  460  478  505  503  460  412  392  403  446  527  636  747  840  906  957  999  1029  1042  1054  1087  1145  1210  1265  1319  1419  1610  1879  2152  2347  2434  2450  2436  2419  2436  2528  2675  2804  2882  2921  2912  2823  2672  2523  2392  2209  1921  1556  1186  859  594  384  199  37  -88  -181  -271  -409  -636  -927  -1184  -1317  -1304  -1177  -1011  -888  -820  -763  -707  -683  -714  -769  -794  -748  -641  -520  -450  -469  -579  -739  -878  -954  -979  -975  -919  -783  -602  -458  -391  -382  -403  -451  -526  -603  -650  -654  -624  -581  -542  -505  -469  -442  -431  -429  -426  -422  -434  -484  -572  -673  -767  -835  -849  -804  -743  -683  -600  -499  -426  -400  -399  -405  -420  -453  -489  -487  -432  -359  -291  -215  -136  -83  -74  -114  -179  -240  -296  -341  -354  -323  -264  -223  -248  -357  -507  -627  -694  -723  -723  -681  -580  -433  -331  -398  -641  -920  -1087  -1107  -1044  -976  -912  -799  -659  -656  -877  -1167  -1319  -1150  -435  900  2536  3816  4174  3494  2032  245  -1400  -2743  -3755  -4280  -4259  -3814  -3148  -2521  -2063  -1721  -1395  -994  -540  -181  -3  38  26  9  0  -8  -25  -28  41  223  426  490  396  271  208  203  251  365  514  633  688  696  682  657  643  666  730  825  950  1085  1181  1219  1234  1274  1378  1543  1700  1789  1827  1873  1967  2112  2263  2363  2401  2415  2436  2462  2483  2514  2583  2671  2707  2634  2470  2277  2102  1949  1762  1474  1111  807  644  561  464  300  45  -274  -578  -802  -935  -1007  -1050  -1075  -1083  -1084  -1080  -1054  -987  -901  -846  -832  -824  -794  -743  -695  -671  -671  -667  -627  -552  -506  -538  -602  -634  -629  -621  -639  -679  -718  -733  -699  -609  -498  -414  -362  -318  -300  -330  -390  -433  -429  -366  -267  -151  -4  154  218  79  -245  -595  -820  -906  -908  -871  -831  -807  -788  -744  -667  -577  -477  -370  -291  -268  -290  -321  -336  -338  -365  -448  -564  -649  -675  -663  -650  -672  -751  -863  -943  -937  -846  -723  -644  -621  -594  -498  -345  -213  -151  -159  -219  -312  -401  -458  -474  -434  -326  -173  -13  119  201  224  179  50  -127  -279  -368  -390  -367  -353  -380  -457  -577  -691  -746  -751  -745  -745  -744  -726  -698  -681  -671  -631  -529  -343  -113  59  99  -20  -255  -496  -716  -829  -475  622  2301  4019  5061  4945  3758  2003  168  -1512  -2962  -4041  -4532  -4310  -3452  -2262  -1181  -517  -270  -241  -261  -274  -277  -242  -124  57  216  298  334  379  439  482  493  489  489  507  549  601  638  650  650  647  637  617  595  588  589  594  614  660  739  847  946  1000  1022  1040  1069  1125  1212  1316  1427  1538  1631  1686  1716  1779  1932  2141  2309  2392  2425  2445  2463  2482  2535  2616  2640  2575  2476  2370  2223  2011  1744  1453  1160  848  510  188  -69  -249  -368  -459  -536  -590  -610  -605  -598  -615  -662  -706  -704  -673  -674  -721  -757  -735  -664  -580  -512  -465  -423  -378  -340  -319  -318  -340  -386  -442  -480  -486  -476  -486  -550  -654  -728  -719  -633  -521  -429  -364  -326  -321  -331  -324  -304  -299  -320  -354  -379  -388  -387  -385  -382  -376  -368  -363  -364  -374  -387  -397  -400  -400  -398  -393  -387  -390  -403  -416  -415  -415  -457  -537  -594  -600  -583  -557  -491  -352  -184  -72  -44  -57  -59  -42  -39  -71  -139  -252  -387  -488  -523  -499  -426  -331  -274  -321  -482  -647  -656  -508  -353  -288  -298  -348  -425  -506  -553  -554  -531  -506  -483  -478  -511  -573  -625  -643  -637  -624  -612  -601  -585  -559  -531  -511  -502  -502  -478  -399  -298  -238  -264  -377  -527  -654  -740  -766  -709  -595  -477  -388  -339  -336  -358  -371  -358  -325  -283  -242  -213  -184  -110  37  199  276  258  202  123  -3  -158  -281  -335  -343  -337  -332  -315  -265  -196  -177  -253  -363  -422  -425  -412  -405  -402  -392  -379  -380  -403  -475  -629  -799  -924  -988  -788  -65  1203  2820  4325  5111  4849  3643  1828  -270  -2328  -3954  -4832  -4838  -4086  -2991  -2029  -1364  -876  -465  -156  19  87  106  113  115  112  121  174  283  414  506  542  562  597  642  675  693  708  724  739  755  769  775  766  747  729  725  732  746  784  869  1015  1194  1349  1443  1478  1479  1476  1497  1552  1622  1682  1761  1922  2154  2361  2472  2506  2509  2516  2541  2589  2641  2663  2651  2628  2591  2488  2287  2043  1856  1736  1597  1380  1109  843  625  454  263  16  -218  -361  -416  -434  -465  -531  -616  -676  -692  -692  -720  -795  -888  -950  -968  -968  -969  -960  -906  -795  -671  -594  -574  -573  -560  -527  -474  -426  -426  -502  -640  -757  -729  -559  -397  -330  -329  -342  -358  -396  -479  -602  -716  -746  -640  -466  -363  -373  -425  -457  -470  -478  -483  -484  -480  -474  -470  -469  -473  -480  -484  -483  -482  -480  -479  -489  -514  -537  -548  -548  -540  -519  -493  -476  -473  -475  -461  -422  -369  -330  -313  -311  -314  -311  -292  -260  -230  -217  -231  -283  -380  -501  -603  -657  -644  -534  -326  -99  49  98  88  27  -106  -280  -412  -461  -443  -385  -312  -252  -218  -205  -211  -218  -208  -190  -180  -176  -168  -156  -156  -178  -195  -145  19  258  464  566  557  431  199  -44  -189  -225  -230  -274  -356  -430  -461  -444  -382  -302  -246  -238  -274  -327  -373  -404  -430  -454  -466  -461  -462  -492  -551  -565  -433  -233  -147  -173  -128  234  1099  2361  3632  4399  4233  3083  1283  -767  -2679  -4034  -4628  -4563  -3972  -2996  -1963  -1213  -805  -567  -368  -211  -107  -32  24  67  121  204  312  413  478  503  496  463  420  392  396  436  495  543  556  529  475  445  476  555  684  904  1184  1410  1516  1535  1518  1489  1451  1408  1384  1388  1400  1405  1439  1568  1807  2084  2294  2393  2415  2420  2444  2487  2531  2562  2582  2602  2618  2618  2586  2508  2398  2293  2208  2129  2017  1812  1481  1074  682  363  125  -22  -86  -113  -150  -203  -254  -303  -366  -446  -525  -586  -627  -665  -709  -740  -735  -701  -650  -586  -524  -485  -471  -469  -478  -520  -601  -691  -746  -761  -761  -767  -773  -739  -633  -504  -437  -439  -455  -465  -507  -605  -707  -731  -684  -607  -505  -416  -415  -535  -720  -867  -933  -946  -923  -871  -817  -788  -790  -814  -846  -876  -890  -850  -725  -556  -431  -383  -377  -382  -425  -538  -698  -830  -896  -918  -940  -983  -1037  -1076  -1087  -1066  -1009  -937  -908  -957  -1057  -1129  -1134  -1102  -1060  -996  -916  -853  -829  -843  -892  -964  -1030  -1067  -1086  -1121  -1181  -1228  -1186  -1046  -918  -910  -1020  -1144  -1173  -1102  -1021  -981  -970  -964  -962  -963  -960  -957  -954  -937  -903  -864  -833  -837  -881  -936  -974  -991  -989  -965  -897  -773  -633  -538  -487  -434  -369  -324  -314  -320  -326  -338  -368  -409  -431  -418  -389  -378  -394  -417  -425  -442  -516  -649  -794  -921  -1030  -1123  -1191  -1227  -1240  -1248  -1252  -1238  -1189  -1120  -1069  -1076  -1222  -1555  -1926  -2001  -1468  -279  1356  3010  4043  3980  2849  1005  -1122  -3122  -4688  -5564  -5571  -4813  -3659  -2504  -1627  -1103  -790  -510  -225  13  183  307  416  537  694  891  1080  1187  1175  1070  959  925  967  1050  1166  1277  1332  1339  1341  1368  1411  1448  1466  1469  1449  1388  1298  1216  1162  1143  1188  1331  1539  1722  1823  1878  1944  2046  2186  2342  2466  2544  2594  2623  2636  2650  2685  2741  2801  2898  3115  3475  3875  4177  4321  4315  4163  3882  3572  3342  3196  3078  2982  2918  2848  2702  2469  2236  2075  1902  1566  1095  686  447  319  234  187  186  207  226  241  267  311  358  387  381  341  287  253  248  250  220  139  50  10  12  21  41  115  262  434  560  611  590  516  431  386  381  381  369  331  239  109  3  -43  -47  -40  -34  -25  -16  -40  -160  -401  -640  -686  -532  -358  -289  -307  -358  -413  -459  -487  -501  -517  -544  -573  -589  -609  -679  -790  -889  -949  -973  -972  -957  -937  -920  -910  -900  -885  -871  -860  -853  -844  -835  -826  -813  -797  -789  -817  -907  -1041  -1162  -1236  -1262  -1244  -1171  -1040  -896  -833  -908  -1076  -1242  -1351  -1399  -1398  -1363  -1307  -1225  -1128  -1063  -1054  -1090  -1137  -1172  -1199  -1226  -1242  -1237  -1227  -1219  -1200  -1176  -1162  -1152  -1132  -1103  -1073  -1042  -1014  -1006  -1031  -1077  -1128  -1185  -1244  -1289  -1318  -1338  -1322  -1187  -874  -431  -11  252  344  340  315  299  299  330  407  512  613  705  789  823  768  639  476  288  90  -61  -132  -131  -83  -32  -10  -11  -22  -31  -16  37  101  126  78  -37  -162  -233  -256  -288  -391  -618  -890  -952  -511  581  2165  3748  4754  4849  4091  2763  1124  -669  -2479  -4070  -5090  -5229  -4509  -3341  -2173  -1262  -717  -463  -339  -271  -253  -264  -276  -256  -181  -61  81  252  433  561  612  618  602  547  440  316  233  206  211  232  280  361  451  510  540  591  689  798  866  886  884  875  851  808  789  866  1054  1297  1515  1661  1758  1857  2003  2229  2492  2686  2767  2788  2810  2853  2899  2922  2925  2915  2888  2840  2779  2715  2606  2380  2039  1693  1430  1229  1019  744  397  63  -146  -235  -316  -464  -636  -757  -814  -837  -852  -879  -910  -933  -947  -963  -986  -1001  -989  -942  -878  -825  -793  -772  -752  -726  -693  -661  -635  -610  -587  -570  -563  -578  -621  -682  -725  -718  -655  -568  -507  -490  -501  -517  -529  -531  -529  -531  -547  -578  -613  -642  -662  -680  -705  -746  -820  -917  -1005  -1067  -1093  -1062  -957  -818  -720  -693  -701  -693  -640  -559  -488  -457  -470  -536  -667  -832  -951  -971  -896  -767  -646  -581  -567  -575  -593  -626  -679  -724  -682  -482  -148  218  544  807  987  1078  1092  1014  816  534  283  170  195  269  316  328  338  351  352  335  310  262  163  25  -88  -136  -117  -36  103  270  408  484  512  514  484  415  314  206  131  110  119  121  106  98  131  216  305  345  348  363  392  415  434  453  467  476  486  492  458  350  188  46  -18  -8  38  86  108  68  -38  -167  -270  -331  -360  -383  -401  -395  -354  -302  -291  -375  -532  -599  -488  -411  -481  -408  94  1103  2507  3876  4601  4336  3183  1486  -434  -2327  -3895  -4834  -5035  -4631  -3845  -2943  -2194  -1674  -1261  -872  -547  -322  -180  -120  -145  -214  -243  -191  -117  -87  -94  -102  -106  -126  -167  -205  -212  -199  -205  -255  -323  -369  -360  -273  -127  13  93  102  74  53  57  83  125  185  262  325  353  371  411  466  497  469  387  280]
