reading_id,reading_time,wire_id,result_classification,heart_rate,heart_rate_alert,firmware_version,device_app_version,hardware_version,waveform_samples
e5ceeb10-5ff6-11ed-8080-808080808080,Wed Nov 09 06:22:34 UTC 2022,a101e3b72739,NSR,68,NONE,20001.171.50,2.10.0,Charge 5,[0  -343  -540  -555  -425  -199  64  310  473  502  428  341  291  276  291  352  472  635  794  918  994  1009  968  885  776  685  638  592  492  350  226  150  100  58  30  23  25  19  8  6  10  0  -37  -94  -148  -181  -163  -31  255  600  705  292  -485  -1129  -1289  -902  -2  1290  2640  3606  3871  3263  1891  258  -1269  -2700  -3891  -4546  -4537  -3865  -2795  -1837  -1239  -858  -516  -187  58  202  316  485  732  988  1146  1162  1089  996  902  801  712  644  569  442  277  160  157  271  448  647  885  1142  1323  1414  1501  1624  1736  1797  1806  1784  1767  1775  1786  1751  1644  1517  1524  1754  2072  2317  2477  2591  2671  2734  2796  2856  2891  2872  2791  2643  2447  2263  2106  1900  1559  1120  735  504  345  98  -272  -664  -922  -936  -763  -588  -506  -475  -427  -339  -237  -188  -243  -389  -570  -759  -973  -1195  -1335  -1332  -1221  -1081  -947  -798  -658  -589  -637  -819  -1067  -1243  -1252  -1100  -877  -696  -606  -581  -591  -648  -798  -1038  -1266  -1358  -1265  -1032  -782  -626  -576  -576  -586  -589  -570  -517  -448  -398  -395  -435  -491  -530  -546  -556  -569  -579  -573  -541  -495  -460  -447  -460  -498  -554  -615  -689  -781  -873  -917  -814  -492  -78  112  -132  -702  -1263  -1541  -1433  -961  -339  104  253  243  230  254  260  209  139  71  -27  -159  -290  -400  -486  -552  -595  -613  -615  -612  -599  -549  -431  -286  -221  -304  -471  -592  -612  -578  -550  -540  -544  -565  -602  -590  -440  -178  120  525  1175  2067  3025  3760  3937  3296  1879  74  -1679  -3187  -4339  -4843  -4554  -3794  -3049  -2552  -2168  -1658  -1051  -557  -211  86  338  474  500  477  453  442  443  445  439  419  393  372  353  324  298  319  430  634  869  1036  1088  1022  851  650  539  548  606  657  700  740  785  858  984  1216  1618  2104  2467  2625  2644  2582  2485  2432  2499  2694  2942  3135  3211  3182  3081  2899  2592  2176  1762  1454  1260  1110  903  574  179  -129  -279  -332  -381  -478  -624  -771  -862  -892  -888  -854  -772  -663  -579  -549  -566  -621  -699  -767  -793  -751  -633  -480  -362  -306  -303  -377  -568  -826  -1030  -1135  -1181  -1192  -1164  -1101  -1012  -888  -705  -502  -389  -419  -531  -633  -691  -715  -713  -698  -691  -691  -646  -506  -305  -159  -161  -328  -579  -788  -899  -935  -895  -750  -546  -390  -349  -407  -502  -559  -515  -339  -98  86  165  156  40  -212  -527  -755  -837  -805  -708  -605  -532  -472  -408  -331  -264  -259  -323  -393  -428  -438  -448  -470  -498  -495  -405  -226  -29  116  192  209  166  45  -125  -269  -334  -302  -151  101  353  485  420  135  -256  -561  -696  -716  -677  -586  -459  -336  -246  -192  -174  -190  -228  -251  -256  -304  -417  -514  -504  -362  -130  98  178  16  -280  -416  -142  614  1764  2878  3318  2895  1910  582  -1011  -2674  -4142  -5142  -5351  -4681  -3499  -2278  -1284  -645  -353  -269  -265  -275  -280  -296  -339  -398  -425  -375  -256  -129  -32  45  130  239  358  440  470  484  506  517  477  392  324  335  420  512  569  585  575  601  742  1020  1370  1699  1956  2177  2440  2736  2964  3068  3081  3067  3070  3113  3181  3234  3252  3249  3240  3206  3120  3003  2923  2908  2897  2768  2431  1935  1461  1122  836  474  92  -150  -214  -196  -198  -265  -400  -554  -657  -683  -661  -626  -604  -616  -673  -758  -827  -853  -845  -823  -796  -760  -726  -718  -735  -756  -765  -768  -775  -788  -799  -804  -798  -773  -736  -712  -741  -848  -995  -1102  -1137  -1130  -1118  -1119  -1138  -1170  -1207  -1236  -1214  -1050  -680  -242  -6  -90  -406  -832  -1280  -1664  -1861  -1692  -1053  -176  450  552  222  -246  -571  -665  -627  -557  -480  -361  -178  11  92  -68  -509  -1053  -1431  -1543  -1454  -1228  -927  -632  -406  -279  -246  -272  -312  -336  -334  -312  -283  -234  -140  -20  52  8  -172  -412  -590  -661  -662  -617  -523  -396  -279  -203  -172  -169  -167  -147  -124  -166  -343  -613  -841  -957  -992  -993  -972  -900  -764  -607  -518  -540  -614  -655  -649  -639  -673  -725  -690  -579  -541  -535  -281  479  1744  3124  4003  3917  2804  1002  -922  -2555  -3792  -4577  -4833  -4614  -4018  -3149  -2197  -1402  -931  -761  -695  -574  -363  -82  230  524  756  917  1017  1047  1000  918  855  820  793  760  741  792  947  1174  1385  1531  1609  1623  1602  1598  1625  1647  1648  1673  1803  2069  2364  2523  2495  2370  2263  2226  2263  2372  2509  2593  2584  2514  2430  2347  2256  2149  2043  1978  1981  2037  2094  2087  2008  1869  1659  1369  1011  605  235  10  -90  -207  -417  -672  -877  -994  -1037  -1037  -998  -909  -791  -704  -696  -789  -976  -1209  -1380  -1384  -1246  -1099  -1016  -979  -960  -956  -979  -1030  -1064  -1022  -871  -635  -427  -383  -494  -623  -683  -687  -679  -685  -709  -739  -770  -812  -876  -949  -1001  -1021  -1006  -949  -850  -717  -548  -354  -177  -56  0  -10  -88  -226  -392  -564  -734  -860  -883  -820  -737  -670  -630  -626  -651  -694  -724  -704  -614  -477  -343  -248  -194  -173  -170  -170  -160  -138  -114  -113  -176  -327  -534  -737  -894  -980  -977  -883  -734  -551  -311  -38  161  237  236  208  165  109  45  -37  -130  -202  -251  -300  -354  -396  -414  -389  -294  -140  -13  -19  -202  -492  -744  -857  -836  -742  -626  -520  -434  -385  -397  -493  -695  -1006  -1320  -1364  -948  -262  346  784  1176  1660  2232  2654  2649  2141  1178  -185  -1787  -3373  -4672  -5392  -5383  -4712  -3554  -2266  -1283  -764  -575  -524  -493  -457  -416  -342  -187  68  358  563  628  583  489  397  329  284  259  247  226  180  107  18  -69  -111  -31  232  641  1064  1375  1524  1539  1472  1358  1252  1210  1226  1280  1394  1578  1816  2090  2354  2531  2580  2522  2419  2331  2298  2362  2565  2856  3100  3228  3273  3231  3017  2586  2047  1556  1163  854  640  519  439  344  217  74  -57  -160  -220  -240  -229  -221  -290  -514  -898  -1329  -1608  -1591  -1277  -836  -502  -376  -387  -426  -432  -388  -287  -142  -1  90  113  39  -131  -321  -436  -461  -441  -423  -422  -427  -431  -445  -486  -548  -606  -643  -658  -660  -655  -643  -625  -595  -538  -441  -327  -245  -216  -230  -276  -336  -392  -442  -484  -489  -429  -317  -207  -132  -89  -77  -137  -280  -445  -590  -708  -759  -688  -507  -282  -85  26  38  -23  -113  -198  -276  -343  -385  -397  -399  -406  -416  -417  -409  -411  -433  -444  -391  -253  -62  126  262  276  121  -137  -356  -449  -422  -312  -175  -70  -10  26  27  -52  -214  -388  -476  -439  -308  -142  8  107  134  61  -137  -395  -567  -577  -463  -288  -112  -8  -58  -297  -632  -886  -978  -955  -872  -755  -631  -539  -493  -502  -614  -841  -1008  -843  -212  857  2105  3023  3260  2873  1964  555  -1103  -2782  -4366  -5451  -5666  -5100  -4042  -2807  -1740  -1054  -676  -414  -198  -61  -4  12  17  24  36  47  73  107  108  118  236  458  706  909  1024  1066  1113  1217  1348  1404  1303  1086  874  751  716  716  729  776  864  972  1091  1198  1249  1247  1241  1270  1390  1673  2082  2446  2634  2671  2651  2625  2600  2585  2620  2739  2913  3067  3139  3036  2634  1967  1298  845  597  436  266  64  -128  -252  -274  -222  -162  -129  -124  -152  -235  -368  -495  -564  -563  -504  -418  -350  -365  -507  -750  -999  -1180  -1258  -1197  -980  -691  -470  -354  -265  -160  -78  -67  -105  -132  -151  -234  -405  -591  -715  -762  -756  -727  -684  -628  -549  -428  -281  -172  -133  -136  -134  -101  -68  -137  -357  -630  -815  -870  -834  -764  -689  -602  -487  -350  -222  -130  -71  -34  -18  -29  -84  -204  -394  -605  -751  -804  -806  -793  -779  -781  -838  -963  -1063  -998  -781  -559  -405  -298  -216  -152  -108  -94  -99  -98  -98  -106  -123  -170  -272  -424  -594  -751  -864  -884  -769  -548  -316  -143  -53  -32  -49  -75  -103  -132  -136  -80  47  223  389  486  484  374  166  -76  -271  -374  -381  -326  -267  -229  -222  -285  -466  -709  -864  -842  -693  -536  -431  -388  -439  -578  -715  -781  -788  -765  -707  -608  -502  -422  -390  -413  -297  312  1538  3074  4271  4421  3283  1298  -822  -2592  -3844  -4558  -4744  -4471  -3788  -2769  -1691  -857  -336  -45  90  130  139  177  283  455  653  808  874  864  829  798  776  799  939  1245  1685  2119  2392  2456  2364  2173  1969  1844  1822  1851  1878  1887  1886  1883  1881  1881  1893  1951  2086  2259  2359  2331  2231  2149  2116  2109  2111  2129  2176  2239  2281  2287  2280  2279  2281  2276  2243  2162  2036  1876  1672  1384  1000  619  374  256  145  -12  -161  -255  -317  -418  -612  -854  -1028  -1092  -1099  -1110  -1144  -1186  -1206  -1197  -1187  -1207  -1254  -1280  -1253  -1204  -1184  -1192  -1180  -1080  -871  -630  -461  -396  -393  -403  -396  -372  -357  -386  -448  -500  -533  -573  -631  -696  -751  -767  -714  -603  -514  -528  -647  -789  -886  -900  -820  -696  -604  -581  -611  -641  -645  -647  -670  -698  -704  -686  -620  -476  -290  -152  -92  -69  -74  -185  -478  -854  -1054  -944  -660  -436  -360  -366  -381  -382  -394  -488  -720  -1031  -1262  -1321  -1212  -981  -713  -510  -438  -476  -519  -491  -427  -390  -395  -423  -448  -457  -456  -452  -440  -403  -296  -97  127  277  320  270  138  -36  -185  -273  -326  -393  -496  -622  -734  -798  -813  -808  -809  -819  -818  -752  -577  -341  -159  -88  -92  -141  -250  -423  -644  -851  -925  -895  -932  -931  -616  22  903  1973  2912  3247  2794  1707  241  -1309  -2676  -3696  -4285  -4401  -4091  -3426  -2527  -1650  -1039  -685  -410  -139  55  119  66  -60  -197  -273  -261  -185  -59  152  472  818  1043  1048  842  566  415  449  607  814  941  890  741  649  685  799  891  922  944  1029  1216  1451  1633  1731  1797  1863  1914  1956  2005  2079  2235  2523  2870  3120  3207  3183  3117  3030  2932  2834  2693  2421  1999  1514  1111  885  805  769  723  664  584  487  397  328  276  220  115  -60  -250  -379  -438  -468  -495  -528  -594  -727  -902  -1027  -1049  -981  -876  -789  -741  -717  -702  -689  -680  -673  -647  -586  -507  -447  -404  -339  -259  -228  -299  -446  -598  -711  -782  -820  -829  -827  -829  -824  -801  -764  -728  -702  -682  -654  -618  -581  -539  -466  -324  -142  -29  -55  -197  -396  -606  -787  -909  -975  -989  -902  -659  -321  -56  41  9  -88  -213  -330  -384  -345  -249  -162  -119  -111  -113  -124  -157  -225  -331  -475  -628  -734  -766  -735  -656  -560  -492  -472  -478  -490  -491  -464  -389  -283  -197  -159  -156  -163  -171  -181  -188  -186  -172  -137  -73  -6  27  29  22  4  -47  -132  -239  -362  -474  -532  -543  -541  -526  -487  -433  -367  -290  -218  -169  -174  -288  -514  -721  -760  -681  -649  -688  -638  -263  669  2055  3283  3753  3276  1953  145  -1637  -3129  -4291  -4968  -4998  -4475  -3670  -2852  -2193  -1747  -1459  -1242  -1031  -777  -484  -207  19  182  262  263  240  261  320  347  320  275  260  314  409  437  353  234  157  123  106  131  281  596  980  1274  1391  1338  1189  1068  1085  1290  1623  1927  2095  2147  2151  2138  2120  2146  2266  2471  2689  2850  2938  2970  2965  2919  2829  2713  2619  2581  2551  2374  1938  1378  965  784  694  574  418  290  238  233  161  -73  -408  -655  -706  -592  -406  -234  -116  -53  -31  -49  -129  -284  -461  -583  -632  -651  -664  -658  -626  -584  -555  -525  -448  -310  -166  -103  -147  -235  -293  -314  -321  -322  -313  -295  -272  -232  -164  -87  -29  -7  -11  -30  -75  -163  -280  -387  -463  -484  -425  -308  -209  -192  -243  -299  -323  -325  -330  -344  -357  -349  -303  -222  -128  -43  28  93  126  76  -92  -363  -653  -882  -1024  -1093  -1088  -975  -715  -354  -33  123  75  -157  -466  -686  -742  -673  -543  -403  -313  -326  -421  -508  -499  -376  -209  -97  -64  -62  -70  -93  -126  -133  -83  1  66  91  115  166  211  200  142  67  -21  -97  -119  -91  -53  -36  -34  -37  -74  -211  -470  -761  -950  -1000  -961  -892  -881  -1036  -1266  -1238  -877  -531  -422  -410  -159  716  2203  3640  4207  3618  2246  612  -991  -2473  -3869  -5071  -5657  -5314  -4258  -3058  -2119  -1486  -1032  -665  -386  -204  -91  -29  -16  -31  -30  30  149  287  426  553  635  655  635  593  531  449  383  382  440  502  559  653  787  908  965  936  840  744  707  787  1044  1422  1737  1867  1843  1768  1748  1823  1929  2013  2083  2143  2194  2273  2394  2527  2632  2691  2712  2714  2685  2581  2367  2075  1813  1659  1565  1426  1216  961  649  310  54  -90  -221  -401  -583  -691  -717  -718  -747  -789  -775  -720  -758  -909  -982  -845  -598  -418  -362  -372  -386  -395  -437  -539  -670  -766  -805  -806  -758  -637  -477  -362  -327  -335  -337  -309  -255  -196  -146  -119  -128  -168  -207  -224  -221  -212  -211  -217  -210  -170  -112  -93  -151  -258  -342  -375  -387  -409  -441  -456  -436  -401  -393  -462  -623  -805  -867  -714  -401  -102  53  74  37  -6  -46  -88  -125  -152  -229  -445  -771  -1039  -1120  -1032  -832  -558  -289  -126  -99  -163  -255  -313  -273  -99  147  331  348  171  -139  -441  -606  -590  -404  -114  154  316  365  343  283  188  54  -90  -197  -245  -253  -256  -277  -320  -386  -473  -549  -580  -573  -551  -533  -540  -594  -715  -878  -1000  -975  -726  -326  -33  -50  -367  -793  -894  -184  1310  2961  4026  4013  2872  1014  -1004  -2773  -4101  -4940  -5234  -4953  -4215  -3248  -2254  -1419  -912  -703  -582  -427  -280  -202  -191  -203  -174  -65  88  204  248  264  311  408  517  576  566  531  515  514  505  485  463  454  468  500  548  646  809  1023  1273  1536  1757  1880  1900  1860  1802  1762  1779  1895  2102  2311  2439  2474  2454  2400  2331  2286  2329  2502  2754  2969  3089  3120  3049  2839  2498  2055  1509  942  542  388  386  432  483  522  472  232  -141  -451  -603  -660  -693  -718  -728  -708  -663  -623  -607  -607  -593  -544  -481  -457  -494  -545  -557  -508  -388  -226  -93  -52  -109  -214  -303  -366  -430  -500  -550  -565  -561  -560  -564  -548  -484  -389  -314  -294  -317  -351  -382  -414  -441  -451  -442  -427  -445  -562  -799  -1049  -1139  -989  -708  -485  -389  -353  -311  -258  -228  -249  -314  -403  -503  -601  -708  -811  -841  -746  -578  -441  -377  -359  -365  -391  -406  -360  -239  -95  3  42  44  18  -53  -165  -270  -326  -336  -329  -327  -338  -357  -371  -376  -376  -374  -370  -366  -372  -410  -494  -600  -679  -719  -742  -766  -803  -875  -982  -1064  -1008  -761  -535  -662  -1053  -1233  -887  54  1468  2927  3884  3964  3058  1362  -626  -2405  -3864  -5011  -5635  -5581  -4868  -3652  -2330  -1353  -867  -683  -576  -484  -408  -293  -72  214  457  618  768  965  1136  1131  942  716  576  540  565  596  602  578  538  497  472  504  652  911  1167  1302  1310  1278  1278  1340  1470  1660  1858  1988  2022  1991  1927  1856  1798  1775  1801  1881  1999  2131  2286  2499  2758  2983  3084  3044  2918  2738  2472  2122  1795  1602  1520  1385  1046  550  103  -194  -391  -520  -581  -627  -723  -863  -979  -1043  -1086  -1135  -1170  -1127  -956  -700  -473  -344  -310  -373  -548  -780  -951  -1016  -1021  -1008  -959  -833  -660  -540  -535  -622  -765  -926  -1030  -989  -770  -468  -250  -197  -263  -365  -453  -543  -681  -844  -946  -940  -875  -861  -939  -1024  -1008  -884  -753  -715  -738  -727  -678  -642  -629  -630  -652  -709  -777  -813  -841  -928  -1059  -1167  -1189  -1098  -959  -841  -738  -628  -468  -222  47  241  319  307  274  252  194  36  -181  -339  -380  -349  -306  -286  -309  -383  -489  -584  -625  -608  -552  -470  -378  -315  -333  -466  -689  -923  -1107  -1225  -1290  -1310  -1247  -1048  -755  -455  -135  297  967  1932  2983  3701  3669  2720  1144  -556  -2110  -3454  -4515  -5187  -5297  -4707  -3561  -2279  -1294  -755  -477  -261  -99  6  142  341  523  614  618  578  529  497  512  585  695  786  825  824  803  777  763  783  846  927  984  1003  1000  994  988  984  989  1018  1081  1166  1275  1430  1606  1718  1726  1700  1791  2119  2603  2991  3148  3143  3080  3000  2870  2644  2366  2146  2024  1959  1924  1916  1927  1925  1848  1662  1412  1155  846  403  -140  -617  -887  -965  -962  -944  -920  -896  -882  -877  -873  -865  -851  -844  -858  -904  -963  -1009  -1044  -1072  -1079  -1063  -1040  -1030  -1024  -999  -948  -882  -805  -715  -612  -515  -457  -477  -592  -768  -935  -1028  -1024  -953  -870  -757  -550  -258  10  168  197  91  -112  -317  -448  -516  -576  -649  -712  -756  -797  -829  -813  -724  -592  -487  -445  -442  -442  -437  -430  -411  -369  -312  -270  -252  -246  -244  -272  -361  -497  -628  -720  -763  -741  -626  -432  -242  -139  -145  -235  -326  -296  -97  173  365  394  297  165  53  -19  -56  -96  -222  -488  -771  -842  -678  -466  -342  -308  -339  -433  -594  -773  -885  -921  -939  -963  -994  -983  -860  -741  -780  -771  -331  669  2029  3271  3812  3363  2189  834  -409  -1569  -2763  -4023  -5009  -5171  -4445  -3301  -2189  -1327  -785  -525  -444  -423  -373  -265  -126  8  140  267  353  378  353  295  230  201  233  312  397  466  520  558  578  598  649  745  854  928  951  942  916  897  937  1086  1302  1473  1527  1480  1406  1359  1362  1443  1648  1990  2379  2667  2804  2861  2896  2910  2913  2944  3014  3082  3078  2956  2686  2286  1864  1551  1332  1075  745  460  279  123  -62  -225  -303  -290  -212  -109  -31  -5  -41  -152  -324  -525  -733  -913  -1029  -1096  -1146  -1181  -1199  -1206  -1196  -1138  -1016  -867  -736  -597  -415  -242  -169  -218  -325  -405  -430  -421  -410  -424  -475  -551  -631  -717  -811  -873  -853  -733  -565  -438  -391  -410  -480  -594  -717  -805  -833  -811  -777  -759  -743  -703  -642  -592  -565  -550  -539  -553  -614  -697  -734  -683  -579  -491  -456  -489  -605  -779  -894  -761  -258  445  979  1168  1095  874  602  374  239  220  320  448  465  309  52  -163  -265  -287  -274  -222  -114  22  120  150  136  109  77  45  36  46  23  -78  -256  -463  -638  -738  -758  -735  -720  -730  -742  -722  -676  -646  -628  -579  -511  -455  -401  -335  -275  -240  -219  -193  -171  -230  -499  -967  -1281  -1002  11  1556  3114  4019  3880  2767  1112  -586  -2097  -3406  -4452  -5003  -4837  -4101  -3234  -2513  -1924  -1387  -942  -683  -574  -434  -137  244  531  652  647  520  246  -76  -234  -123  134  336  411  415  409  413  441  499  579  687  837  978  1027  1016  1039  1115  1241  1444  1679  1842  1898  1898  1901  1941  2029  2155  2285  2384  2440  2465  2483  2500  2510  2511  2510  2525  2568  2629  2682  2708  2682  2566  2350  2074  1783  1523  1335  1186  956  585  183  -84  -182  -208  -279  -435  -628  -784  -849  -826  -764  -658  -452  -179  24  69  -25  -171  -277  -312  -307  -292  -281  -289  -334  -411  -494  -565  -631  -717  -820  -902  -953  -996  -1046  -1096  -1125  -1120  -1082  -1026  -993  -1009  -1051  -1084  -1101  -1100  -1045  -901  -701  -543  -476  -478  -521  -586  -625  -562  -391  -219  -177  -308  -523  -685  -739  -716  -654  -584  -529  -483  -436  -430  -517  -663  -765  -769  -717  -662  -614  -554  -466  -355  -232  -122  -74  -113  -207  -307  -376  -387  -351  -312  -326  -429  -585  -727  -811  -792  -666  -493  -303  -102  50  86  -9  -217  -485  -719  -831  -770  -528  -205  34  128  120  44  -62  -96  20  224  374  411  385  355  327  279  215  160  126  105  87  54  -5  -69  -117  -186  -336  -580  -858  -1075  -1161  -1102  -925  -673  -420  -262  -248  -353  -507  -613  -579  -368  -86  30  -129  -390  -401  168  1384  2881  4035  4352  3678  2112  14  -2104  -3864  -4964  -5184  -4660  -3759  -2760  -1886  -1327  -1048  -848  -618  -390  -186  -12  100  171  278  438  582  660  698  745  824  922  1005  1052  1060  1016  896  689  415  143  -22  -8  196  506  767  893  919  929  972  1037  1094  1150  1238  1397  1658  2012  2338  2449  2298  2052  1892  1880  1994  2180  2384  2575  2735  2853  2917  2913  2828  2670  2469  2255  2032  1768  1414  992  620  391  279  218  191  185  119  -75  -338  -539  -616  -587  -482  -350  -255  -241  -312  -450  -628  -822  -989  -1036  -910  -700  -565  -575  -665  -749  -801  -822  -782  -632  -377  -114  47  103  106  54  -110  -394  -695  -895  -969  -959  -900  -801  -665  -530  -445  -423  -433  -447  -454  -455  -442  -408  -363  -328  -292  -226  -144  -104  -142  -222  -286  -320  -337  -311  -156  167  534  696  499  31  -437  -696  -748  -705  -634  -562  -511  -492  -489  -481  -464  -462  -513  -632  -793  -960  -1106  -1201  -1235  -1225  -1180  -1086  -931  -751  -620  -576  -578  -543  -423  -249  -79  77  229  357  414  368  276  193  87  -47  -194  -378  -587  -737  -787  -784  -781  -784  -772  -726  -664  -612  -537  -386  -205  -115  -148  -229  -304  -400  -586  -850  -1000  -902  -718  -562  -206  557  1651  2794  3498  3272  2083  339  -1504  -3076  -4106  -4514  -4375  -3868  -3160  -2377  -1679  -1199  -951  -837  -740  -623  -523  -469  -415  -271  -13  303  590  745  714  548  354  239  245  341  489  656  783  838  831  789  745  735  774  834  869  873  867  859  837  792  770  897  1278  1798  2192  2340  2301  2125  1881  1717  1770  2048  2431  2746  2914  2996  3080  3179  3245  3187  2917  2471  2020  1696  1502  1374  1211  977  714  413  49  -315  -612  -823  -947  -983  -910  -689  -365  -81  63  38  -202  -655  -1133  -1339  -1112  -564  -6  295  278  15  -331  -579  -652  -583  -420  -229  -92  -46  -97  -261  -502  -720  -856  -940  -1012  -1059  -1021  -846  -575  -347  -259  -274  -293  -280  -290  -353  -396  -347  -227  -135  -152  -259  -385  -486  -549  -571  -553  -496  -417  -352  -324  -345  -421  -535  -638  -700  -715  -652  -459  -136  219  486  573  449  164  -145  -353  -439  -443  -406  -374  -374  -390  -406  -441  -516  -631  -715  -676  -530  -391  -307  -247  -170  -72  20  99  201  346  464  459  346  239  199  195  167  81  -55  -189  -252  -248  -264  -388  -621  -813  -774  -529  -299  -222  -273  -404  -588  -782  -905  -878  -669  -344  -34  126  -22  -564  -1308  -1841  -1719  -769  697  2206  3385  3820  3247  1822  -93  -2093  -3701  -4636  -4931  -4660  -3932  -3021  -2218  -1619  -1114  -649  -329  -211  -214  -253  -286  -279  -227  -165  -123  -90  -42  27  94  131  139  140  142  143  142  165  264  468  715  887  940  913  860  834  910  1145  1475  1740  1850  1817  1655  1368  1060  923  1073  1419  1756  1953  2038  2103  2210  2402  2685  2969  3142  3200  3202  3169  3077  2913  2669  2325  1921  1549  1227  933  707  581  507  391  150  -164  -387  -400  -228  -10  77  -30  -275  -554  -768  -875  -905  -905  -903  -905  -898  -857  -790  -746  -738  -717  -677  -666  -674  -642  -554  -457  -410  -415  -413  -372  -317  -288  -338  -460  -578  -649  -689  -711  -708  -675  -613  -525  -414  -308  -245  -228  -218  -183  -131  -115  -221  -502  -871  -1136  -1166  -967  -644  -365  -230  -213  -251  -310  -382  -479  -603  -709  -755  -741  -704  -688  -707  -719  -701  -676  -667  -667  -652  -612  -558  -521  -511  -519  -527  -514  -461  -376  -300  -263  -257  -260  -262  -267  -288  -321  -318  -224  -73  3  -79  -277  -461  -551  -536  -431  -266  -98  28  108  152  174  209  327  620  1106  1637  2008  2141  2066  1800  1370  923  633  475  269  -40  -333  -519  -617  -662  -672  -673  -678  -698  -731  -770  -786  -706  -475  -183  -57  -227  -562  -829  -975  -1133  -1347  -1429  -1276  -1058  -905  -698  -224  661  1899  3100  3721  3415  2167  250  -1852  -3654  -4834  -5234  -4877  -4060  -3236  -2681  -2291  -1796  -1133  -529  -189  -97  -126  -180  -219  -225  -172  -43  124  265  373  483  577  594  550  515  531  592  663  727  801  864  878  846  796  742  717  748  805  849  889  970  1128  1345  1562  1742  1889  2005  2080  2110  2117  2136  2193  2293  2419  2528  2603  2679  2785  2916  3058  3196  3301  3350  3277  2963  2391  1737  1222  919  737  554  328  67  -232  -523  -700  -698  -537  -312  -158  -164  -327  -552  -717  -787  -813  -818  -789  -721  -622  -510  -424  -406  -452  -524  -586  -625  -641  -635  -610  -573  -543  -530  -547  -606  -686  -743  -743  -687  -610  -555  -541  -554  -570  -577  -581  -584  -571  -528  -483  -487  -548  -632  -705  -735  -708  -644  -567  -491  -435  -427  -487  -606  -694  -672  -570  -454  -335  -223  -154  -132  -130  -144  -206  -334  -480  -572  -583  -548  -521  -529  -566  -620  -679  -713  -703  -664  -607  -515  -388  -278  -230  -228  -251  -303  -374  -447  -509  -544  -552  -568  -631  -735  -821  -801  -625  -364  -170  -112  -148  -219  -292  -354  -390  -393  -354  -262  -116  40  151  199  203  164  72  -47  -131  -142  -91  2  109  186  221  236  237  176  5  -226  -399  -466  -479  -510  -574  -615  -584  -510  -437  -390  -386  -409  -407  -359  -286  -205  -119  -109  -322  -736  -992  -587  642  2276  3584  3965  3279  1874  249  -1312  -2779  -4066  -4869  -4898  -4182  -3086  -1999  -1121  -526  -226  -161  -239  -352  -396  -300  -73  189  385  482  512  493  412  302  256  337  500  643  712  731  756  832  940  1023  1056  1056  1026  938  808  727  750  815  861  941  1129  1390  1610  1732  1765  1750  1754  1828  1990  2247  2535  2733  2797  2790  2775  2761  2730  2674  2605  2558  2561  2587  2584  2497  2261  1836  1301  813  444  189  38  -21  -26  -12  -4  -22  -94  -216  -306  -289  -216  -168  -156  -153  -156  -194  -293  -423  -516  -543  -529  -505  -492  -503  -546  -604  -647  -664  -669  -673  -671  -646  -605  -575  -569  -566  -542  -492  -449  -479  -607  -784  -947  -1071  -1154  -1191  -1182  -1138  -1065  -952  -808  -685  -605  -515  -389  -249  -128  -57  -56  -137  -307  -518  -667  -689  -604  -477  -377  -342  -403  -583  -825  -998  -1024  -918  -755  -602  -481  -404  -383  -377  -331  -248  -154  -62  4  8  -94  -320  -598  -823  -965  -1053  -1105  -1120  -1082  -967  -763  -497  -249  -105  -78  -113  -148  -152  -109  -9  120  220  265  269  244  186  98  2  -75  -121  -137  -146  -167  -222  -320  -432  -496  -470  -370  -242  -129  -45  25  99  181  248  241  165  145  261  413  463  463  656  1179  1913  2559  2724  2168  1041  -312  -1652  -2882  -4006  -4961  -5446  -5145  -4072  -2662  -1514  -931  -760  -728  -720  -727  -740  -743  -712  -629  -485  -289  -81  72  146  168  188  242  320  386  415  410  401  401  404  449  573  720  831  921  1034  1198  1344  1342  1192  1022  919  893  955  1118  1340  1537  1661  1757  1889  2071  2272  2447  2561  2612  2627  2638  2660  2687  2715  2743  2752  2697  2510  2132  1626  1135  733  435  266  186  98  -20  -109  -143  -176  -276  -469  -698  -868  -936  -929  -887  -838  -793  -756  -730  -720  -726  -742  -742  -666  -467  -201  9  108  103  0  -158  -280  -319  -293  -227  -137  -64  -54  -104  -159  -194  -243  -366  -590  -820  -904  -815  -662  -545  -481  -424  -334  -240  -185  -190  -258  -349  -403  -411  -390  -350  -315  -306  -314  -323  -331  -334  -312  -248  -160  -96  -84  -121  -196  -291  -390  -475  -500  -413  -240  -79  -20  -84  -213  -336  -433  -518  -589  -614  -522  -252  107  359  412  341  247  167  98  22  -61  -139  -205  -272  -341  -387  -383  -326  -237  -157  -123  -176  -341  -560  -723  -790  -797  -769  -696  -582  -468  -417  -507  -765  -1094  -1315  -1280  -990  -625  -241  365  1350  2539  3460  3610  2785  1199  -647  -2258  -3488  -4472  -5156  -5326  -4920  -4011  -2861  -1921  -1405  -1152  -975  -815  -630  -381  -123  58  167  245  296  313  312  308  306  300  280  241  186  128  97  139  230  272  223  133  111  295  695  1120  1386  1483  1503  1517  1521  1473  1363  1292  1407  1695  1970  2102  2115  2079  2015  1933  1885  1998  2368  2880  3264  3389  3309  3097  2829  2581  2374  2162  1896  1592  1321  1113  893  599  277  15  -154  -249  -304  -361  -460  -588  -683  -717  -713  -699  -683  -667  -673  -725  -826  -934  -998  -1007  -978  -920  -811  -644  -483  -397  -389  -425  -470  -511  -545  -569  -574  -567  -568  -587  -615  -627  -603  -557  -511  -469  -428  -385  -321  -232  -147  -91  -54  -25  -45  -193  -484  -809  -1034  -1106  -1052  -911  -731  -552  -411  -348  -369  -420  -445  -437  -423  -414  -412  -457  -593  -786  -936  -964  -842  -594  -330  -187  -219  -392  -642  -876  -974  -883  -679  -490  -376  -323  -304  -303  -311  -311  -270  -155  22  182  242  193  47  -186  -448  -652  -768  -814  -795  -714  -603  -518  -497  -518  -539  -537  -505  -449  -402  -372  -348  -344  -406  -565  -757  -818  -672  -468  -382  -374  -274  83  811  1849  2805  3137  2626  1514  166  -1211  -2591  -3975  -5168  -5795  -5555  -4479  -3015  -1756  -1005  -691  -604  -583  -545  -448  -314  -210  -183  -217  -242  -192  -61  82  179  230  276  385  626  984  1350  1617  1755  1785  1737  1634  1494  1336  1191  1097  1054  1028  1015  1037  1107  1228  1392  1570  1722  1817  1855  1861  1872  1944  2122  2366  2580  2718  2795  2812  2782  2776  2864  3012  3112  3113  3034  2856  2503  2006  1530  1186  957  792  667  572  451  219  -101  -351  -409  -316  -186  -88  -29  7  28  -14  -187  -481  -813  -1103  -1297  -1362  -1292  -1103  -843  -580  -374  -261  -234  -245  -257  -259  -253  -243  -225  -191  -135  -85  -99  -205  -346  -461  -560  -671  -796  -913  -987  -997  -932  -783  -566  -351  -215  -179  -207  -259  -323  -398  -479  -546  -569  -528  -440  -351  -295  -270  -265  -287  -350  -458  -589  -701  -763  -773  -751  -724  -686  -592  -405  -152  72  192  222  219  213  190  116  -25  -193  -309  -347  -343  -334  -329  -317  -293  -275  -286  -302  -267  -153  27  211  327  355  334  273  155  -2  -130  -181  -186  -239  -403  -634  -815  -886  -881  -845  -797  -735  -645  -515  -379  -299  -294  -337  -416  -500  -533  -578  -701  -706  -321  562  1898  3323  4173  3950  2612  538  -1646  -3436  -4634  -5160  -4999  -4333  -3390  -2334  -1412  -855  -640  -568  -501  -421  -359  -328  -329  -338  -289  -110  173  429  560  586  573  544  490  415  358  378  521  763  977  1027  873  620  424  348  379  521  764  1019  1187  1267  1312  1352  1401  1476  1590  1735  1856  1929  1996  2068  2111  2123  2152  2273  2526  2830  3047  3118  3042  2825  2546  2330  2204  2085  1896  1612  1232  766  311  14  -88  -83  -59  -101  -284  -604  -937  -1149  -1217  -1199  -1156  -1093  -972  -779  -581  -465  -451  -488  -528  -585  -701  -845  -947  -982  -973  -950  -938  -946  -963  -974  -978  -1001  -1070  -1170  -1261  -1311  -1307  -1257  -1203  -1168  -1130  -1032  -825  -544  -301  -159  -90  -65  -90  -176  -290  -370  -393  -386  -392  -433  -496  -548  -569  -548  -472  -353  -248  -196  -189  -195  -194  -191  -205  -268  -389  -509  -562  -556  -535  -495  -406  -290  -224  -249  -327  -386  -379  -291  -131  39  120  64  -68  -186  -257  -283  -213  9  316  543  622  624  623  622  576  452  290  168  120  118  134  167  211  241  241  207  145  73  2  -65  -115  -144  -172  -212  -264  -330  -409  -486  -538  -559  -549  -492  -399  -402  -689  -1188  -1531  -1400  -664  608  2092  3364  4043  3896  2937  1377  -466  -2232  -3656  -4582  -4873  -4575  -3923  -3144  -2387  -1704  -1101  -617  -299  -153  -136  -176  -222  -247  -235  -179  -96  -22  29  92  215  393  557  661  718  746  744  698  620  573  613  709  810  895  960  1023  1115  1235  1361  1490  1613  1692  1710  1696  1681  1677  1691  1738  1863  2109  2419  2652  2752  2781  2817  2874  2919  2919  2876  2819  2758  2642  2415  2127  1872  1633  1312  925  609  430  316  182  10  -159  -286  -376  -457  -532  -593  -634  -667  -713  -775  -852  -943  -1011  -1018  -986  -955  -938  -924  -908  -894  -890  -890  -891  -892  -894  -901  -910  -915  -895  -832  -739  -657  -613  -602  -604  -591  -542  -474  -424  -401  -377  -329  -268  -224  -210  -211  -200  -142  -24  81  54  -134  -429  -788  -1135  -1351  -1386  -1280  -1089  -851  -605  -410  -299  -241  -202  -176  -160  -143  -141  -208  -395  -668  -907  -1030  -1033  -948  -804  -620  -442  -320  -248  -193  -157  -157  -200  -265  -310  -296  -208  -75  51  141  202  245  254  182  -11  -274  -486  -588  -606  -593  -584  -582  -556  -472  -352  -270  -285  -407  -575  -705  -787  -871  -970  -1049  -1090  -1110  -1120  -1052  -801  -433  -221  -242  -140  488  1633  2884  3676  3533  2372  593  -1303  -3056  -4439  -5204  -5378  -5106  -4419  -3395  -2295  -1422  -903  -621  -377  -106  127  301  442  530  511  370  172  26  -16  27  129  251  348  413  466  524  582  617  620  610  629  736  958  1219  1389  1405  1294  1131  1021  1062  1297  1637  1902  2007  2019  2035  2094  2195  2318  2413  2435  2414  2424  2511  2688  2914  3098  3203  3268  3295  3214  2965  2584  2165  1754  1372  1051  788  560  346  139  -37  -152  -207  -232  -249  -254  -257  -313  -480  -718  -911  -980  -898  -666  -372  -164  -92  -106  -171  -297  -478  -662  -794  -844  -821  -766  -722  -693  -668  -655  -660  -661  -646  -624  -601  -579  -551  -524  -519  -526  -506  -453  -386  -327  -302  -315  -339  -354  -359  -359  -354  -336  -304  -301  -408  -681  -1037  -1279  -1259  -961  -536  -198  -38  -39  -161  -330  -464  -544  -582  -577  -504  -353  -177  -55  -9  -37  -158  -371  -596  -743  -800  -813  -819  -828  -823  -786  -714  -620  -517  -396  -251  -147  -117  -55  102  272  376  406  352  188  -49  -268  -405  -464  -470  -445  -407  -391  -421  -463  -478  -475  -515  -656  -824  -873  -796  -708  -676  -671  -643  -572  -474  -356  -174  67  207  99  -105  -23  670  1963  3286  3801  3106  1426  -676  -2573  -3897  -4665  -4943  -4703  -4083  -3290  -2392  -1519  -907  -625  -528  -466  -403  -385  -410  -428  -404  -355  -324  -297  -219  -80  88  261  392  455  470  466  454  429  389  348  342  406  515  601  629  620  608  621  693  873  1160  1439  1579  1584  1536  1480  1429  1391  1393  1505  1785  2188  2580  2855  2983  2984  2888  2725  2537  2374  2262  2198  2155  2100  2018  1936  1868  1750  1483  1074  646  271  -63  -337  -495  -538  -527  -508  -503  -543  -659  -826  -964  -1039  -1069  -1048  -950  -801  -672  -589  -511  -410  -298  -196  -121  -103  -168  -274  -271  -47  284  524  617  621  528  268  -118  -432  -523  -437  -305  -183  -61  57  131  104  -33  -206  -328  -364  -329  -256  -192  -189  -267  -381  -467  -520  -584  -683  -785  -847  -854  -822  -768  -707  -643  -588  -558  -557  -573  -583  -542  -409  -219  -77  -67  -208  -446  -669  -780  -743  -569  -337  -169  -117  -155  -258  -420  -605  -745  -812  -829  -824  -797  -742  -674  -615  -561  -501  -425  -334  -243  -176  -140  -127  -125  -118  -101  -96  -161  -344  -588  -764  -818  -787  -721  -648  -589  -551  -519  -463  -356  -192  -7  132  194  202  175  70  -160  -462  -697  -799  -805  -784  -790  -834  -883  -901  -864  -739  -511  -221  45  232  274  43  -502  -1085  -1178  -438  922  2346  3296  3369  2485  1044  -387  -1544  -2543  -3568  -4536  -5160  -5196  -4582  -3421  -1992  -748  -27  205  204  176  197  262  329  368  384  392  401  406  391  340  263  204  215  336  552  786  950  1000  933  784  624  525  528  663  917  1199  1405  1513  1551  1540  1484  1410  1406  1515  1656  1732  1754  1810  1961  2174  2367  2505  2601  2661  2688  2709  2751  2826  2920  2994  3032  3039  2991  2844  2587  2247  1841  1398  979  644  417  261  108  -81  -324  -618  -901  -1088  -1162  -1162  -1083  -893  -638  -443  -385  -445  -561  -679  -757  -758  -685  -571  -438  -295  -186  -166  -228  -312  -396  -495  -609  -716  -782  -779  -695  -553  -420  -350  -358  -431  -532  -599  -570  -420  -206  -29  77  142  177  168  128  93  82  70  18  -82  -188  -252  -273  -279  -316  -423  -570  -673  -664  -528  -317  -117  32  147  229  233  114  -90  -278  -405  -507  -609  -697  -762  -814  -837  -776  -581  -315  -121  -80  -156  -268  -350  -376  -345  -257  -149  -87  -112  -197  -279  -309  -281  -241  -253  -355  -516  -652  -713  -711  -676  -623  -563  -509  -473  -452  -434  -420  -421  -430  -422  -362  -258  -173  -141  -140  -127  -62  73  240  371  439  458  402  202  -137  -481  -690  -753  -734  -686  -634  -588  -546  -515  -515  -544  -575  -590  -591  -578  -546  -502  -460  -420  -374  -318  -250  -208  -256  -443  -773  -1103  -1121  -530  749  2374  3653  4066  3532  2204  423  -1356  -2935  -4299  -5200  -5365  -4882  -3988  -2904  -1954  -1346  -1006  -797  -666  -592  -497  -264  105  441  583  532  402  306  276  283  293  295  285  268  257  284  386  571  792  965  1026  941  729  480  309  259  328  511  752  945  1039  1049  1022  1036  1162  1419  1775  2161  2487  2683  2744  2731  2700  2685  2713  2792  2887  2961  2987  2964  2909  2839  2722  2457  1981  1422  1005  798  689  550  358  158  -28  -223  -418  -560  -614  -582  -476  -340  -245  -234  -297  -385  -448  -474  -482  -477  -444  -380  -319  -286  -289  -338  -467  -704  -993  -1211  -1298  -1285  -1202  -1021  -731  -418  -187  -42  46  59  -13  -109  -162  -177  -216  -295  -370  -407  -418  -429  -455  -494  -534  -561  -562  -519  -425  -291  -155  -62  -31  -59  -139  -244  -334  -402  -456  -491  -501  -499  -500  -512  -522  -515  -530  -611  -720  -799  -847  -872  -867  -828  -750  -650  -576  -551  -555  -562  -563  -560  -557  -557  -558  -547  -510  -457  -413  -388  -367  -334  -303  -316  -399  -528  -662  -766  -805  -749  -606  -424  -265  -173  -162  -207  -257  -286  -300  -304  -266  -138  70  273  393  425  408  365  295  217  166  151  134  69  -55  -210  -356  -487  -630  -780  -881  -884  -790  -643  -491  -374  -358  -490  -694  -840  -852  -723  -507  -296  -138  -24  42  -35  -401  -929  -1169  -838  9  1286  2709  3624  3587  2730  1359  -251  -1793  -3090  -4145  -4849  -4905  -4249  -3241  -2270  -1485  -919  -555  -335  -212  -155  -136  -136  -144  -148  -125  -64  10  75  141  213  278  335  405  491  566  604  613  610  593  554  500  456  439  456  513  607  720  838  969  1143  1370  1600  1768  1857  1898  1925  1945  1970  2028  2132  2250  2356  2480  2658  2875  3074  3191  3184  3053  2845  2624  2414  2199  1933  1572  1187  905  731  593  467  367  292  234  169  41  -183  -438  -609  -664  -650  -593  -481  -337  -238  -274  -475  -759  -979  -1071  -1079  -1053  -1004  -939  -879  -824  -751  -678  -625  -578  -530  -499  -493  -499  -504  -504  -498  -497  -521  -578  -647  -692  -707  -705  -694  -669  -632  -590  -555  -541  -534  -486  -393  -309  -256  -204  -140  -91  -77  -102  -175  -300  -438  -528  -552  -546  -570  -657  -788  -909  -999  -1053  -1018  -832  -566  -383  -340  -358  -365  -353  -342  -328  -284  -223  -173  -139  -124  -140  -193  -278  -360  -388  -359  -319  -299  -297  -304  -317  -336  -348  -324  -241  -120  -10  75  143  185  204  224  260  309  362  388  310  62  -273  -519  -597  -579  -551  -564  -638  -745  -831  -859  -812  -668  -438  -240  -229  -408  -652  -903  -1194  -1478  -1542  -1182  -472  284  803  1077  1361  1846  2461  2896  2727  1772  307  -1264  -2723  -3913  -4657  -4936  -4856  -4307  -3166  -1815  -833  -366  -203  -157  -157  -167  -134  -10  146  206  153  81  35  15  34  125  309  535  693  744  743  753  784  820  850  874  896  909  912  909  916  949  1010  1090  1201  1344  1470  1536  1555  1566  1617  1728  1867  1990  2115  2298  2554  2827  3034  3123  3074  2890  2649  2478  2427  2456  2496  2471  2286  1901  1386  884  522  312  185  95  37  -7  -87  -238  -427  -578  -647  -650  -627  -605  -586  -560  -534  -552  -654  -792  -852  -752  -507  -235  -56  0  -69  -320  -735  -1142  -1361  -1344  -1143  -882  -702  -650  -665  -669  -624  -541  -454  -380  -315  -265  -245  -261  -300  -349  -398  -443  -485  -524  -537  -503  -444  -406  -396  -378  -352  -345  -359  -369  -357  -325  -289  -258  -222  -188  -168  -177  -237  -372  -569  -730  -735  -598  -461  -408  -416  -434  -444  -458  -472  -449  -363  -262  -231  -287  -369  -429  -444  -397  -299  -208  -190  -242  -312  -377  -444  -519  -600  -658  -630  -488  -291  -134  -59  -41  -50  -92  -191  -323  -424  -468  -471  -441  -374  -285  -204  -159  -149  -152  -150  -135  -128  -187  -390  -723  -1044  -1236  -1316  -1330  -1272  -1084  -687  -239  -155  -524  -935  -915  -141  1379  3085  4168  4126  3017  1323  -428  -1992  -3390  -4573  -5270  -5209  -4408  -3222  -2106  -1332  -936  -792  -709  -547  -297  -55  112  202  225  184  86  -37  -140  -185  -140  18  244  427  512  542  566  595  625  664  739  865  982  1017  984  948  931  925  941  1009  1136  1289  1426  1537  1640  1738  1812  1858  1902  1996  2185  2424  2599  2684  2765  2892  3022  3095  3111  3103  3086  3022  2824  2452  2008  1644  1367  1067  704  368  142  18  -53  -105  -147  -200  -295  -423  -506  -499  -449  -417  -412  -416  -419  -416  -417  -437  -501  -610  -725  -795  -820  -829  -836  -830  -794  -715  -618  -556  -548  -571  -599  -619  -625  -615  -590  -564  -550  -548  -552  -553  -545  -518  -477  -440  -419  -399  -362  -331  -345  -405  -452  -432  -348  -248  -168  -134  -199  -406  -688  -900  -971  -930  -817  -684  -608  -620  -681  -733  -755  -758  -750  -717  -650  -568  -519  -528  -576  -629  -668  -690  -677  -581  -378  -130  63  154  146  71  -33  -142  -224  -259  -270  -282  -291  -282  -240  -168  -86  -28  -20  -54  -106  -176  -280  -412  -536  -582  -491  -304  -113  27  104  131  147  158  128  9  -232  -562  -869  -1065  -1150  -1137  -980  -662  -350  -267  -393  -552  -498  118  1407  2957  4129  4386  3509  1715  -492  -2581  -4194  -5228  -5660  -5401  -4510  -3310  -2149  -1224  -618  -322  -240  -262  -308  -331  -308  -226  -82  93  242  346  451  568  652  683  694  712  721  693  631  558  487  429  395  394  432  509  630  791  963  1121  1275  1430  1573  1685  1755  1779  1774  1766  1783  1852  1996  2229  2531  2828  3025  3101  3089  3027  2955  2918  2912  2882  2764  2560  2304  2009  1706  1453  1234  986  706  431  179  -22  -131  -153  -154  -208  -333  -496  -647  -742  -782  -806  -843  -888  -934  -979  -1015  -1005  -932  -839  -748  -647  -557  -513  -505  -508  -511  -516  -517  -483  -381  -245  -154  -153  -229  -347  -474  -586  -673  -719  -724  -712  -699  -689  -684  -686  -693  -696  -689  -678  -669  -664  -655  -640  -630  -653  -726  -812  -846  -813  -733  -615  -477  -355  -283  -265  -287  -347  -428  -496  -523  -484  -352  -153  30  138  154  48  -206  -543  -806  -906  -836  -613  -315  -76  51  105  103  38  -68  -175  -256  -301  -287  -212  -113  -22  58  112  75  -90  -336  -581  -774  -884  -905  -872  -820  -759  -692  -641  -640  -728  -888  -973  -869  -666  -476  -273  16  571  1536  2688  3523  3554  2591  923  -888  -2398  -3509  -4341  -4889  -4969  -4393  -3216  -1902  -1026  -725  -703  -665  -556  -464  -435  -417  -330  -162  6  92  93  68  94  221  427  611  702  716  703  692  685  678  672  666  663  677  722  795  881  988  1133  1299  1438  1522  1566  1595  1639  1725  1853  1987  2116  2250  2388  2525  2653  2743  2781  2781  2762  2735  2701  2650  2582  2525  2492  2449  2343  2162  1932  1689  1475  1329  1233  1091  803  380  -72  -491  -843  -1078  -1160  -1114  -1015  -952  -955  -985  -994  -978  -970  -973  -932  -803  -624  -480  -407  -364  -305  -244  -222  -236  -262  -292  -322  -344  -364  -417  -527  -662  -748  -742  -680  -648  -699  -782  -798  -694  -509  -339  -245  -212  -209  -226  -264  -321  -387  -435  -454  -459  -460  -462  -467  -469  -451  -399  -327  -274  -253  -246  -251  -308  -464  -687  -862  -887  -705  -325  134  487  606  489  241  11  -101  -85  32  194  317  319  140  -205  -571  -795  -842  -765  -619  -452  -313  -228  -207  -272  -431  -626  -762  -807  -796  -754  -676  -570  -499  -539  -683  -837  -933  -962  -892  -647  -237]
