reading_id,reading_time,wire_id,result_classification,heart_rate,heart_rate_alert,firmware_version,device_app_version,hardware_version,waveform_samples
eb1d1400-7376-11ed-8080-808080808080,Sun Dec 04 01:56:50 UTC 2022,a101e3b72739,NSR,61,NONE,20001.171.50,2.10.0,Charge 5,[4405  4463  4439  4210  3657  2660  1106  -968  -3206  -4984  -5872  -6003  -5831  -5735  -5860  -6063  -5935  -5031  -3243  -814  1847  4163  5436  5190  3415  471  -3050  -6512  -9604  -12449  -15289  -18257  -21243  -23983  -26393  -28482  -30065  -30975  -31398  -31717  -32108  -32483  -32725  -32768  -32768  -32513  -31889  -30977  -29909  -28761  -27533  -26103  -24477  -23015  -22029  -21416  -20907  -20413  -20018  -19785  -19668  -19555  -19365  -19129  -18955  -18915  -18986  -19035  -18810  -18112  -17102  -16168  -15460  -14863  -14278  -13751  -13401  -13239  -13087  -12724  -12086  -11333  -10707  -10331  -10141  -9971  -9670  -9132  -8366  -7468  -6431  -5264  -4225  -3558  -3124  -2555  -1616  -355  803  1160  260  -1687  -4040  -6215  -7893  -8962  -9484  -9643  -9557  -9191  -8546  -7807  -7081  -6265  -5357  -4572  -3996  -3459  -2815  -2066  -1258  -512  -16  183  208  163  42  -260  -855  -1695  -2521  -3092  -3373  -3457  -3416  -3259  -2989  -2623  -2168  -1656  -1212  -944  -784  -524  0  723  1381  1780  1918  1879  1708  1440  1144  852  505  48  -470  -909  -1134  -1100  -832  -439  -49  417  1214  2349  3465  4242  4670  4901  5053  5181  5299  5354  5171  4582  3685  2787  2040  1430  999  791  750  796  897  1023  1133  1220  1285  1313  1292  1250  1205  1124  944  660  350  116  0  -32  -27  13  123  311  519  675  811  1025  1344  1693  2051  2597  3511  4573  5294  5457  5215  4818  4467  4239  4080  3897  3610  3175  2625  2064  1620  1380  1320  1346  1399  1494  1692  2027  2424  2727  2864  2901  2936  3000  3089  3204  3348  3472  3488  3339  3006  2495  1910  1422  1071  774  510  330  206  50  -145  -282  -248  -7  337  600  700  697  674  654  634  611  596  588  567  488  287  -73  -515  -896  -1169  -1357  -1465  -1500  -1499  -1493  -1444  -1221  -697  104  1003  1818  2438  2812  2968  3001  2996  2938  2726  2303  1764  1288  968  788  714  714  747  785  848  1042  1513  2265  3076  3677  3996  4141  4248  4419  4662  4822  4696  4167  3259  2259  1568  1433  1976  3073  4125  4397  3554  1747  -508  -2527  -3908  -4588  -4507  -3771  -2758  -1658  -497  488  1037  1176  1104  948  744  514  286  96  -75  -336  -746  -1218  -1614  -1870  -1979  -1939  -1808  -1690  -1608  -1480  -1251  -970  -733  -595  -542  -510  -438  -338  -258  -190  -75  86  224  302  358  444  570  692  769  819  913  1135  1513  1921  2178  2248  2237  2264  2401  2648  2976  3357  3771  4183  4516  4690  4680  4486  4120  3642  3131  2617  2111  1613  1091  592  269  191  296  496  694  824  923  1082  1325  1615  1931  2245  2488  2592  2523  2258  1796  1201  582  52  -284  -408  -410  -389  -390  -409  -421  -405  -326  -143  116  356  542  731  995  1341  1634  1686  1496  1235  995  712  305  -231  -824  -1335  -1617  -1612  -1364  -1012  -736  -613  -578  -546  -499  -460  -413  -317  -188  -90  -49  -42  -52  -79  -122  -165  -205  -260  -344  -447  -542  -622  -701  -781  -842  -862  -814  -671  -470  -299  -207  -177  -180  -201  -239  -298  -366  -421  -448  -455  -468  -528  -688  -967  -1303  -1588  -1755  -1779  -1634  -1304  -847  -418  -151  -41  16  110  293  576  883  1092  1170  1169  1112  984  806  634  480  318  146  -11  -137  -229  -274  -279  -271  -272  -286  -308  -326  -319  -252  -116  34  130  154  142  123  97  26  -134  -347  -508  -569  -569  -563  -596  -681  -755  -726  -602  -473  -369  -244  -115  -129  -377  -621  -390  630  2233  3594  3728  2307  -126  -2717  -4765  -5931  -6278  -6083  -5566  -4758  -3674  -2500  -1531  -972  -776  -693  -472  -46  430  754  872  853  730  485  157  -163  -437  -668  -832  -913  -946  -973  -1011  -1061  -1104  -1080  -891  -499  5  487  875  1140  1271  1295  1252  1158  1049  996  1039  1141  1228  1258  1241  1188  1098  991  933  983  1163  1434  1699  1867  1958  2086  2326  2632  2884  3020  3062  3046  2961  2743  2330  1749  1153  708  413  187  25  -70  -129  -163  -173  -182  -211  -265  -333  -400  -454  -498  -560  -658  -760  -810  -782  -684  -558  -465  -422  -407  -433  -534  -701  -890  -1070  -1218  -1305  -1335  -1356  -1409  -1483  -1544  -1578  -1591  -1597  -1602  -1574  -1445  -1173  -807  -490  -326  -288  -305  -368  -507  -690  -825  -873  -869  -854  -842  -849  -911  -1052  -1229  -1368  -1433  -1441  -1399  -1291  -1141  -1013  -927  -820  -619  -325  -37  135  174  111  -34  -237  -436  -593  -717  -819  -888  -922  -943  -946  -908  -835  -759  -701  -637  -532  -387  -212  -16  174  317  393  405  340  174  -64  -311  -549  -796  -1025  -1186  -1264  -1289  -1294  -1294  -1297  -1303  -1297  -1254  -1146  -950  -668  -378  -188  -119  -112  -114  -118  -144  -211  -314  -424  -515  -592  -665  -734  -779  -744  -527  -79  524  1112  1524  1720  1784  1806  1797  1721  1575  1402  1236  1067  890  737  620  488  291  58  -144  -274  -297  -202  -45  83  160  262  425  534  492  419  533  1035  2127  3730  5230  5814  5051  3112  601  -1692  -3256  -4149  -4557  -4476  -3968  -3147  -2023  -794  131  609  802  872  889  886  854  764  622  459  296  158  99  140  232  314  382  476  622  804  971  1055  1045  1016  1020  1040  1047  1043  1046  1078  1140  1180  1163  1117  1092  1089  1083  1065  1091  1267  1641  2111  2508  2762  2940  3139  3363  3522  3567  3535  3474  3410  3355  3298  3177  2933  2602  2283  2041  1892  1791  1622  1307  920  601  383  189  -58  -373  -720  -1024  -1215  -1296  -1327  -1342  -1352  -1346  -1274  -1140  -1027  -990  -1002  -1020  -1021  -1005  -972  -930  -892  -872  -887  -937  -990  -1024  -1052  -1105  -1231  -1458  -1722  -1910  -1985  -1974  -1904  -1809  -1732  -1698  -1698  -1712  -1722  -1707  -1655  -1583  -1526  -1495  -1476  -1470  -1491  -1539  -1587  -1611  -1599  -1566  -1532  -1511  -1531  -1638  -1839  -2056  -2181  -2135  -1857  -1330  -720  -302  -165  -180  -222  -270  -332  -378  -370  -331  -305  -300  -302  -305  -308  -317  -332  -349  -380  -447  -543  -632  -686  -695  -663  -609  -550  -484  -377  -201  18  218  335  361  348  347  362  383  415  454  465  404  269  116  4  -105  -299  -562  -793  -935  -999  -1016  -1026  -1019  -906  -598  -147  278  591  816  974  1051  1031  902  695  506  397  332  210  -20  -292  -471  -480  -337  -129  38  117  136  137  140  152  184  253  357  487  635  737  616  172  -304  -232  690  2161  3560  4373  4330  3419  1926  183  -1658  -3458  -4890  -5550  -5262  -4254  -2948  -1758  -974  -525  -113  338  683  835  862  849  800  685  571  583  740  923  1037  1071  1036  934  799  696  652  647  650  633  579  503  460  496  623  826  1069  1305  1489  1610  1698  1784  1850  1870  1862  1859  1866  1867  1850  1822  1800  1812  1885  2014  2139  2232  2314  2388  2436  2470  2508  2507  2349  1939  1371  890  642  567  526  418  203  -91  -424  -774  -1117  -1383  -1537  -1641  -1762  -1887  -1969  -1988  -1953  -1875  -1743  -1542  -1318  -1162  -1110  -1127  -1177  -1250  -1323  -1354  -1313  -1218  -1122  -1074  -1086  -1141  -1222  -1311  -1386  -1435  -1447  -1384  -1218  -1008  -857  -802  -792  -762  -686  -584  -481  -379  -251  -69  141  313  411  426  352  224  108  57  79  133  172  209  268  327  353  354  349  353  369  387  401  426  494  607  731  854  993  1119  1144  1038  882  752  658  577  498  424  357  290  206  80  -87  -263  -415  -525  -582  -584  -532  -395  -128  222  543  806  1035  1196  1260  1242  1136  929  683  498  400  313  162  -69  -356  -645  -873  -1011  -1061  -994  -764  -425  -139  -8  8  -1  -11  -59  -177  -289  -309  -338  -520  -832  -1142  -1270  -1058  -415  676  1944  2859  3027  2318  875  -904  -2586  -3864  -4557  -4625  -4215  -3546  -2748  -1873  -1033  -360  90  317  367  312  158  -96  -322  -320  -80  200  366  406  390  387  422  495  585  661  720  778  831  884  954  1024  1069  1094  1103  1088  1056  1016  974  940  918  908  925  989  1109  1247  1344  1422  1566  1785  2000  2197  2456  2768  2998  3063  2991  2833  2644  2486  2388  2322  2228  2085  1898  1679  1448  1223  988  720  426  132  -134  -343  -454  -467  -430  -396  -392  -438  -528  -618  -680  -735  -797  -850  -871  -862  -855  -862  -844  -760  -628  -516  -470  -471  -466  -415  -319  -227  -184  -221  -356  -554  -735  -853  -899  -840  -636  -340  -102  -16  -49  -118  -167  -200  -249  -316  -371  -408  -451  -526  -635  -745  -819  -853  -867  -870  -845  -768  -656  -564  -525  -526  -541  -552  -556  -562  -584  -630  -689  -745  -810  -911  -1034  -1121  -1131  -1083  -1030  -992  -950  -889  -815  -740  -666  -580  -472  -344  -212  -97  -4  36  -11  -143  -324  -499  -608  -642  -649  -659  -678  -704  -735  -755  -734  -655  -546  -465  -436  -447  -481  -532  -587  -631  -650  -643  -637  -690  -843  -1010  -1050  -995  -925  -679  -44  961  2104  2948  2987  2012  294  -1661  -3438  -4717  -5256  -5080  -4457  -3654  -2859  -2147  -1493  -887  -393  -81  47  77  86  96  101  100  101  111  132  151  167  190  234  286  307  281  240  215  247  410  660  832  844  742  612  523  495  513  567  644  728  797  808  759  765  944  1233  1455  1528  1509  1473  1474  1566  1768  2019  2229  2374  2477  2543  2542  2443  2248  2023  1863  1791  1742  1642  1471  1270  1095  954  795  582  350  135  -63  -233  -342  -383  -373  -338  -306  -295  -303  -321  -341  -359  -362  -312  -182  -12  109  143  118  81  56  53  74  114  164  214  259  311  396  508  601  646  646  615  568  519  481  469  479  505  554  622  684  695  636  532  400  212  -8  -167  -225  -218  -171  -64  122  342  502  570  596  626  643  567  346  36  -243  -415  -481  -492  -495  -512  -541  -566  -577  -577  -575  -567  -535  -467  -369  -238  -79  40  73  52  26  4  -26  -82  -159  -225  -265  -297  -324  -334  -325  -309  -305  -310  -298  -259  -218  -190  -145  -34  150  363  508  497  332  110  -94  -281  -465  -637  -765  -837  -869  -875  -850  -795  -737  -711  -740  -830  -953  -1058  -1107  -1091  -1024  -919  -775  -616  -491  -465  -575  -745  -894  -1111  -1417  -1583  -1324  -440  997  2467  3259  2872  1291  -924  -3092  -4828  -5941  -6350  -6182  -5593  -4596  -3328  -2181  -1440  -1077  -937  -890  -865  -842  -816  -770  -694  -610  -558  -548  -570  -597  -594  -549  -495  -433  -332  -217  -140  -83  0  114  216  269  270  236  192  162  151  153  164  185  205  212  225  305  504  799  1092  1288  1390  1479  1610  1773  1928  2045  2112  2141  2144  2118  2053  1956  1855  1787  1762  1737  1637  1390  958  407  -87  -386  -524  -614  -714  -837  -962  -1044  -1070  -1066  -1056  -1048  -1045  -1066  -1126  -1202  -1238  -1202  -1125  -1065  -1045  -1057  -1078  -1079  -1003  -814  -563  -351  -209  -89  65  250  409  511  562  578  566  532  477  398  307  237  213  232  295  404  531  621  652  649  642  633  612  588  595  663  773  871  914  874  738  549  417  440  640  928  1160  1281  1325  1337  1336  1324  1280  1179  1036  905  817  760  713  677  668  671  649  605  568  553  553  559  560  522  391  185  9  -63  -28  106  318  523  610  531  347  164  43  -11  -29  -39  -39  -14  21  37  28  29  81  181  278  320  306  278  274  290  307  316  322  320  291  207  63  -100  -219  -269  -273  -249  -193  -109  -28  36  116  226  316  323  244  126  13  -75  -130  -153  -158  -161  -176  -204  -235  -262  -282  -286  -273  -252  -228  -201  -167  -109  -21  68  120  102  -21  -250  -545  -857  -1035  -799  58  1442  2880  3700  3402  1963  -161  -2261  -3782  -4629  -4932  -4706  -4033  -3214  -2501  -1966  -1566  -1150  -584  26  430  552  527  486  463  438  399  374  386  418  452  478  466  421  380  355  341  331  332  370  464  602  744  856  909  872  749  633  672  916  1253  1522  1626  1579  1486  1430  1423  1466  1589  1828  2152  2450  2656  2818  2986  3154  3312  3452  3553  3614  3659  3688  3668  3580  3464  3374  3261  3018  2635  2249  1987  1837  1721  1608  1505  1398  1266  1123  1018  985  1012  1052  1069  1067  1085  1172  1319  1398  1312  1167  1102  1104  1106  1089  1049  986  880  687  425  186  19  -101  -230  -409  -616  -758  -803  -819  -886  -1010  -1137  -1215  -1235  -1218  -1202  -1245  -1399  -1638  -1879  -2086  -2272  -2451  -2606  -2699  -2719  -2703  -2703  -2763  -2899  -3088  -3280  -3417  -3466  -3460  -3470  -3548  -3701  -3920  -4200  -4500  -4728  -4831  -4851  -4849  -4850  -4857  -4868  -4879  -4883  -4890  -4927  -5009  -5105  -5170  -5191  -5189  -5184  -5184  -5191  -5192  -5158  -5038  -4802  -4509  -4261  -4077  -3827  -3350  -2629  -1845  -1202  -730  -331  80  553  1034  1373  1500  1459  1263  906  488  180  49  12  -51  -207  -423  -621  -806  -1053  -1381  -1739  -2074  -2355  -2575  -2788  -3079  -3489  -3919  -4191  -4232  -4104  -3920  -3781  -3747  -3856  -4117  -4424  -4585  -4518  -4338  -4236  -4300  -4458  -4598  -4712  -4863  -5053  -5231  -5406  -5641  -5919  -6093  -5964  -5433  -4702  -4153  -3928  -3917  -4113  -4708  -5773  -6999  -7929  -8392  -8531  -8483  -8164  -7424  -6349  -5312  -4574  -3952  -3083  -1889  -493  1023  2570  4057  5415  6491  7186  7624  8026  8588  9467  10732  12298  13933  15466  16925  18233  19126  19487  19403  19103  18939  19086  19242  18857  17683  15960  14132  12653  11777  11257  10638  9829  9015  8320  7735  7176  6558  5844  5080  4429  4033  3834  3644  3376  3070  2772  2486  2218  1975  1782  1668  1594  1489  1348  1193  931  429  -226  -792  -1170  -1420  -1600  -1772  -2094  -2710  -3514  -4167  -4466  -4508  -4467  -4431  -4417  -4446  -4547  -4708  -4862  -4930  -4827  -4495  -4013  -3568  -3260  -3051  -2878  -2719  -2540  -2269  -1892  -1514  -1247  -1106  -1042  -1009  -997  -1027  -1152  -1442  -1858  -2238  -2460  -2549  -2595  -2646  -2699  -2745  -2772  -2758  -2679  -2527  -2361  -2291  -2362  -2544  -2804  -3079  -3276  -3356  -3358  -3340  -3329  -3338  -3361  -3361  -3250  -2951  -2540  -2209  -2055  -2029  -2034  -1989  -1856  -1670  -1499  -1360  -1188  -879  -370  257  794  1124  1347  1666  2231  3079  4131  5227  6161  6773  7054  7106  6986  6695  6328  6035  5796  5459  5036  4698  4515  4483  4723  5356  6248  7117  7776  8209  8545  8946  9403  9634  9318  8440  7238  5945  4771  3876  3183  2523  1945  1537  1253  1079  1047  1139  1319  1534  1723  1852  1901  1829  1591  1187  690  206  -219  -629  -1039  -1405  -1715  -1992  -2234  -2415  -2508  -2479  -2348  -2190  -2032  -1860  -1712  -1633  -1616  -1625  -1629  -1621  -1610  -1606  -1628  -1704  -1837  -1990  -2121  -2168  -1972  -1299  -119  1161  1966  1972  1159  -252  -1928  -3562  -4847  -5568  -5795  -5762  -5621  -5393  -5082  -4742  -4445  -4202  -3952  -3622  -3182  -2652  -2091  -1559  -1087  -704  -413  -131  226  603  875  997  1001  911  759  583  378  91  -285  -690  -1071  -1437  -1827  -2254  -2636  -2863  -2913  -2829  -2619  -2269  -1756  -1098  -448  -20  135  144  127  140  186  246  300  343  384  431  480  530  636  873  1218  1557  1789  1854  1741  1511  1266  1053  861  657  400  56  -391  -918  -1410  -1734  -1877  -1932  -1955  -1925  -1821  -1681  -1558  -1476  -1427  -1402  -1392  -1387  -1381  -1378  -1409  -1523  -1754  -2064  -2341  -2491  -2526  -2511  -2470  -2338  -1984  -1340  -536  237  918  1473  1800  1866  1743  1522  1284  1062  805  452  21  -401  -719  -894  -973  -1039  -1130  -1269  -1527  -1922  -2307  -2525  -2557  -2474  -2324  -2139  -1951  -1757  -1487  -1089  -579  -3  525  886  1106  1191  1032  648  177  -323  -787  -1150  -1475  -1875  -2365  -2848  -3200  -3331  -3190  -2828  -2407  -2035  -1698  -1335  -933  -562  -309  -161  -55  14  25  -33  -168  -371  -608  -821  -973  -1124  -1362  -1652  -1860  -1927  -1891  -1753  -1422  -841  -172  288  438  392  247  10  -272  -500  -638  -736  -820  -869  -876  -867  -888  -970  -1105  -1252  -1374  -1453  -1490  -1465  -1312  -996  -604  -300  -169  -165  -168  -66  173  458  646  681  601  474  357  274  220  189  168  125  20  -130  -258  -322  -346  -354  -336  -272  -186  -126  -87  -26  76  218  418  666  837  786  524  365  802  2034  3754  5390  6307  6029  4581  2493  368  -1456  -2807  -3542  -3631  -3194  -2393  -1419  -498  212  684  965  1126  1274  1542  1983  2466  2790  2925  2993  3042  2998  2826  2615  2466  2387  2297  2140  1944  1766  1624  1513  1448  1438  1471  1522  1545  1517  1473  1469  1526  1613  1669  1675  1673  1731  1897  2154  2399  2539  2578  2593  2647  2731  2793  2815  2835  2908  3062  3267  3461  3612  3720  3784  3800  3745  3572  3268  2869  2406  1895  1416  1061  815  594  383  227  135  71  14  -23  -51  -108  -215  -357  -499  -586  -552  -410  -256  -156  -120  -140  -224  -366  -518  -611  -633  -623  -627  -670  -740  -802  -826  -778  -625  -413  -246  -181  -200  -272  -373  -489  -650  -892  -1186  -1444  -1613  -1711  -1786  -1913  -2142  -2415  -2608  -2659  -2587  -2427  -2216  -1980  -1725  -1467  -1228  -1000  -760  -517  -328  -259  -353  -604  -919  -1171  -1320  -1410  -1463  -1478  -1478  -1488  -1495  -1468  -1371  -1198  -1007  -879  -852  -907  -1001  -1080  -1114  -1118  -1132  -1184  -1261  -1349  -1448  -1542  -1581  -1518  -1362  -1188  -1076  -1035  -1034  -1067  -1153  -1276  -1371  -1378  -1298  -1176  -1067  -1001  -967  -930  -863  -748  -599  -485  -448  -455  -485  -548  -648  -756  -821  -825  -803  -788  -783  -778  -764  -729  -672  -623  -631  -701  -774  -786  -718  -607  -504  -407  -276  -131  -43  -27  -38  -42  -47  -79  -147  -225  -276  -294  -299  -298  -269  -184  -68  16  35  3  -48  -92  -118  -129  -136  -145  -142  -83  40  138  146  229  522  787  734  461  407  958  2102  3381  4094  3769  2551  917  -783  -2380  -3790  -4899  -5493  -5391  -4642  -3543  -2446  -1564  -913  -387  106  565  921  1112  1164  1173  1218  1324  1482  1678  1866  1998  2071  2099  2062  1919  1693  1467  1275  1062  778  455  198  103  201  438  710  938  1116  1279  1446  1605  1753  1921  2119  2296  2420  2523  2635  2741  2806  2818  2802  2794  2799  2808  2811  2799  2783  2782  2806  2847  2881  2878  2816  2688  2537  2416  2313  2152  1876  1497  1105  801  566  270  -176  -721  -1227  -1582  -1754  -1791  -1766  -1705  -1580  -1357  -1073  -831  -687  -584  -422  -181  55  194  213  138  20  -73  -111  -117  -132  -170  -210  -232  -260  -328  -426  -516  -616  -777  -973  -1156  -1340  -1509  -1614  -1659  -1695  -1764  -1853  -1916  -1921  -1865  -1765  -1618  -1363  -955  -485  -115  110  261  366  394  329  176  -44  -279  -486  -663  -799  -873  -893  -886  -860  -814  -758  -712  -657  -545  -349  -125  21  63  66  99  162  205  185  129  97  105  124  131  127  125  144  191  234  214  113  -26  -162  -272  -342  -365  -338  -251  -130  -68  -152  -385  -657  -854  -965  -1034  -1090  -1130  -1113  -993  -779  -547  -392  -341  -347  -356  -336  -285  -208  -100  11  42  -64  -249  -396  -455  -455  -414  -332  -247  -230  -310  -463  -647  -807  -900  -926  -909  -868  -822  -792  -774  -729  -641  -551  -498  -466  -367  13  906  2291  3722  4499  4135  2662  552  -1553  -3160  -4097  -4436  -4307  -3860  -3272  -2631  -1884  -1050  -305  213  502  625  656  644  609  590  640  764  903  980  977  942  928  944  960  951  935  928  894  784  621  486  417  387  365  319  223  94  -12  -75  -114  -115  22  393  893  1270  1441  1567  1791  2058  2237  2291  2281  2251  2203  2143  2090  2039  1976  1913  1831  1680  1478  1296  1156  1022  834  544  135  -368  -843  -1144  -1252  -1259  -1232  -1173  -1068  -933  -809  -729  -686  -666  -662  -664  -667  -676  -705  -778  -888  -991  -1054  -1083  -1090  -1078  -1056  -1038  -1023  -994  -929  -800  -585  -328  -108  64  207  279  254  182  120  45  -106  -316  -481  -557  -584  -604  -623  -643  -665  -691  -718  -731  -720  -704  -704  -713  -688  -589  -424  -250  -112  -17  40  59  30  -43  -145  -248  -335  -416  -513  -637  -751  -805  -802  -780  -717  -556  -324  -128  -40  -43  -91  -148  -192  -216  -225  -237  -274  -318  -329  -301  -258  -215  -174  -120  -38  115  408  815  1176  1373  1441  1453  1416  1304  1140  993  901  844  804  798  832  891  935  901  771  612  486  373  216  18  -147  -232  -268  -317  -401  -488  -541  -582  -655  -743  -799  -816  -827  -863  -911  -938  -949  -964  -981  -973  -913  -790  -647  -547  -517  -571  -693  -706  -327  549  1769  2977  3595  3116  1569  -560  -2699  -4395  -5424  -5757  -5456  -4695  -3737  -2792  -1962  -1303  -834  -507  -240  29  281  424  434  385  345  332  337  350  374  421  481  526  549  572  612  693  873  1212  1666  2062  2268  2309  2273  2189  2042  1842  1642  1500  1428  1383  1308  1183  1032  907  835  815  883  1099  1435  1776  2047  2254  2422  2569  2682  2740  2751  2744  2730  2702  2644  2542  2395  2224  2027  1714  1195  576  103  -121  -207  -297  -445  -608  -700  -689  -622  -560  -510  -450  -378  -339  -414  -645  -956  -1223  -1382  -1450  -1468  -1474  -1479  -1469  -1415  -1300  -1138  -954  -770  -607  -477  -366  -235  -66  103  212  234  203  158  81  -67  -261  -457  -681  -954  -1205  -1362  -1424  -1438  -1435  -1401  -1293  -1097  -874  -701  -584  -469  -326  -188  -117  -145  -237  -337  -432  -525  -608  -682  -753  -807  -842  -883  -945  -1018  -1082  -1097  -1007  -780  -460  -127  145  296  299  176  -11  -193  -339  -450  -544  -650  -769  -866  -918  -937  -951  -969  -966  -874  -646  -335  -64  133  354  679  1038  1278  1312  1126  775  404  156  35  -47  -144  -266  -440  -665  -846  -875  -765  -618  -495  -387  -245  -22  281  575  751  794  755  658  501  298  106  -21  -104  -205  -342  -479  -592  -679  -734  -747  -694  -527  -229  107  323  336  184  -34  -220  -317  -335  -340  -385  -453  -505  -563  -769  -1193  -1551  -1428  -723  458  1990  3489  4304  4066  2916  1148  -828  -2514  -3723  -4418  -4469  -3925  -3001  -1937  -1022  -437  -124  33  96  108  105  110  124  134  136  154  243  476  869  1329  1702  1889  1885  1742  1534  1337  1165  994  824  700  651  634  586  525  511  539  560  588  740  1101  1565  1912  2046  2046  2016  1999  1993  1990  1987  1986  2001  2050  2146  2269  2375  2426  2426  2414  2418  2438  2462  2483  2480  2368  2049  1574  1129  805  480  -4  -602  -1081  -1317  -1408  -1480  -1547  -1568  -1548  -1531  -1535  -1546  -1552  -1539  -1483  -1351  -1154  -963  -834  -770  -753  -766  -807  -882  -986  -1077  -1123  -1133  -1117  -1029  -802  -465  -168  -17  15  7  -6  -38  -108  -218  -345  -453  -518  -567  -648  -756  -836  -865  -866  -854  -815  -732  -627  -552  -527  -534  -552  -573  -589  -594  -585  -575  -587  -633  -694  -726  -703  -634  -552  -494  -462  -440  -436  -471  -534  -593  -632  -668  -723  -791  -844  -878  -906  -902  -792  -515  -134  181  324  347  368  448  550  599  574  497  377  199  -47  -335  -584  -735  -803  -823  -812  -767  -661  -479  -274  -127  -54  -8  62  150  213  258  345  493  646  755  813  829  817  790  738  624  445  274  173  133  107  74  31  -14  -46  -58  -58  -57  -61  -59  -32  42  175  341  482  560  576  503  278  -79  -430  -663  -802  -933  -1089  -1233  -1325  -1351  -1316  -1185  -966  -828  -845  -780  -313  764  2383  4042  5033  4818  3404  1384  -564  -2127  -3302  -4145  -4660  -4837  -4645  -4105  -3358  -2547  -1751  -1048  -518  -193  -17  118  255  353  403  455  541  642  723  754  715  611  476  356  288  281  307  335  369  430  499  517  477  451  492  564  629  710  819  941  1092  1318  1622  1939  2187  2319  2349  2328  2321  2381  2511  2650  2729  2746  2740  2734  2735  2742  2740  2679  2512  2281  2093  1984  1920  1868  1795  1681  1548  1432  1335  1206  957  561  136  -173  -359  -513  -699  -895  -1050  -1151  -1213  -1229  -1151  -940  -664  -438  -294  -187  -97  -35  -15  -19  -4  52  110  97  -5  -133  -232  -319  -439  -580  -681  -719  -729  -742  -752  -718  -607  -452  -325  -244  -184  -120  -34  77  174  168  -15  -321  -584  -704  -714  -689  -670  -673  -715  -798  -891  -949  -948  -896  -824  -764  -732  -727  -747  -775  -783  -737  -610  -406  -196  -88  -118  -240  -386  -514  -633  -778  -956  -1122  -1225  -1250  -1222  -1174  -1113  -1002  -791  -474  -134  92  160  140  103  55  -17  -124  -247  -348  -431  -556  -739  -905  -974  -956  -907  -846  -747  -599  -439  -313  -237  -218  -250  -307  -354  -381  -395  -403  -411  -420  -421  -382  -282  -161  -91  -83  -97  -107  -114  -126  -136  -152  -221  -387  -607  -768  -827  -829  -815  -788  -741  -689  -649  -604  -532  -442  -360  -281  -201  -147  -145  -196  -273  -342  -388  -417  -433  -446  -494  -636  -902  -1218  -1405  -1255  -616  530  2001  3359  4028  3651  2356  611  -1148  -2670  -3783  -4395  -4501  -4111  -3386  -2653  -2064  -1581  -1222  -1005  -835  -613  -320  -32  122  108  37  4  -4  -27  -54  -23  105  291  463  562  569  510  465  512  660  855  1021  1104  1092  989  825  672  589  589  655  767  893  1017  1158  1340  1526  1644  1691  1760  1940  2231  2538  2762  2876  2913  2923  2935  2937  2903  2834  2743  2627  2468  2255  2026  1849  1760  1739  1746  1732  1636  1394  1018  624  308  51  -202  -433  -581  -683  -834  -1036  -1196  -1262  -1267  -1230  -1126  -953  -774  -659  -608  -584  -575  -575  -561  -502  -403  -312  -276  -295  -337  -375  -415  -480  -561  -629  -671  -692  -694  -691  -695  -701  -698  -671  -602  -526  -472  -433  -417  -434  -460  -465  -431  -357  -274  -219  -203  -219  -266  -337  -416  -491  -541  -543  -505  -469  -455  -458  -466  -475  -491  -515  -535  -525  -448  -299  -106  85  235  315  332  316  289  254  208  149  82  2  -123  -305  -484  -591  -625  -631  -633  -632  -631  -638  -640  -585  -426  -200  -10  81  107  126  161  194  201  153  14  -226  -493  -665  -688  -603  -486  -396  -332  -274  -208  -138  -96  -81  -27  97  256  418  565  661  669  563  356  117  -60  -144  -162  -150  -118  -62  3  58  93  109  111  129  190  286  373  411  383  299  192  104  61  69  152  316  507  656  738  774  779  752  685  602  542  519  506  461  332  76  -282  -639  -910  -1078  -1105  -981  -844  -880  -1062  -1091  -616  548  2274  4004  4929  4480  2769  449  -1822  -3658  -4868  -5422  -5370  -4796  -3915  -2982  -2132  -1423  -925  -669  -542  -379  -145  55  155  180  195  243  312  357  373  428  585  807  979  1041  1007  901  764  656  607  615  668  739  789  805  799  783  769  776  815  871  918  957  1012  1111  1283  1547  1862  2128  2271  2309  2305  2304  2323  2354  2355  2290  2174  2059  1975  1919  1868  1813  1755  1686  1571  1385  1161  946  723  470  243  109  51  11  -88  -320  -643  -909  -1038  -1072  -1081  -1103  -1136  -1163  -1174  -1179  -1179  -1160  -1106  -1036  -992  -994  -1016  -1025  -994  -884  -666  -356  -41  162  206  118  -53  -247  -415  -558  -685  -810  -973  -1197  -1431  -1581  -1605  -1512  -1338  -1144  -982  -851  -729  -593  -452  -359  -339  -349  -351  -353  -391  -495  -628  -723  -778  -848  -976  -1137  -1261  -1305  -1282  -1230  -1182  -1144  -1108  -1068  -1004  -881  -703  -535  -409  -307  -227  -227  -349  -530  -660  -703  -695  -658  -593  -508  -435  -398  -401  -433  -471  -488  -469  -427  -393  -389  -415  -460  -509  -550  -571  -567  -539  -499  -466  -447  -448  -477  -533  -593  -634  -656  -666  -649  -543  -309  -21  185  260  251  206  143  76  29  9  -7  -45  -94  -143  -186  -211  -216  -220  -244  -296  -363  -419  -447  -462  -480  -486  -432  -278  -64  109  217  330  479  643  793  904  963  969  884  656  345  102  -1  -14  3  34  83  139  189  234  297  409  584  785  961  1104  1225  1284  1248  1146  987  756  493  259  48  -176  -419  -644  -734  -493  257  1503  2895  3896  4043  3132  1411  -551  -2290  -3568  -4225  -4222  -3735  -3029  -2301  -1670  -1133  -652  -256  14  173  267  358  483  620  713  746  759  792  847  899  922  921  915  910  902  886  884  937  1046  1148  1194  1176  1097  967  798  617  475  389  336  318  380  544  763  962  1130  1339  1649  1997  2261  2401  2476  2574  2744  2932  3010  2886  2598  2281  2033  1860  1742  1655  1560  1419  1217  982  769  614  495  361  180  -51  -292  -471  -557  -592  -619  -632  -618  -595  -584  -586  -584  -569  -553  -553  -569  -577  -556  -488  -361  -220  -126  -87  -78  -77  -70  -54  -14  86  266  464  587  567  386  105  -149  -300  -373  -432  -502  -569  -618  -646  -655  -645  -602  -515  -382  -271  -287  -433  -593  -685  -721  -725  -668  -510  -292  -136  -144  -326  -581  -765  -816  -773  -693  -618  -566  -538  -527  -536  -570  -616  -649  -646  -607  -553  -516  -506  -499  -459  -359  -186  37  233  311  231  35  -181  -339  -432  -499  -561  -615  -657  -679  -673  -658  -676  -746  -836  -893  -892  -851  -803  -767  -737  -712  -725  -817  -961  -1077  -1126  -1135  -1143  -1162  -1184  -1205  -1220  -1230  -1250  -1301  -1387  -1475  -1513  -1472  -1367  -1243  -1135  -1048  -981  -941  -925  -907  -858  -758  -609  -447  -337  -335  -462  -692  -947  -1157  -1314  -1450  -1583  -1696  -1758  -1768  -1754  -1744  -1733  -1708  -1685  -1683  -1679  -1655  -1613  -1562  -1503  -1441  -1386  -1344  -1305  -1260  -1250  -1383  -1702  -2059  -2139  -1659  -612  706  1840  2298  1803  523  -1097  -2711  -4074  -4907  -5065  -4652  -3865  -2933  -2044  -1170  -223  686  1340  1670  1806  1935  2152  2414  2645  2814  2946  3091  3254  3380  3433  3441  3436  3414  3349  3226  3066  2942  2923  2989  3054  3091  3132  3190  3253  3302  3338  3376  3396  3310  3033  2633  2300  2145  2140  2227  2397  2665  2964  3163  3215  3177  3117  3069  3040  3029  3037  3067  3121  3188  3242  3271  3289  3285  3187  2906  2477  2039  1653  1283  944  687  472  221  -45  -261  -428  -577  -701  -785  -835  -868  -874  -842  -779  -707  -645  -600  -571  -549  -518  -470  -416  -376  -372  -421  -533  -682  -825  -915  -913  -834  -720  -591  -466  -384  -379  -447  -559  -660  -718  -746  -766  -784  -800  -830  -895  -979  -1040  -1060  -1059  -1055  -1055  -1064  -1099  -1167  -1246  -1298  -1307  -1279  -1225  -1157  -1084  -1039  -1050  -1074  -1021  -894  -791  -760  -768  -766  -732  -677  -632  -612  -610  -611  -601  -577  -563  -596  -687  -819  -968  -1096  -1160  -1151  -1072  -935  -782  -663  -599  -584  -604  -634  -653  -634  -545  -373  -146  61  182  217  207  166  85  -17  -102  -170  -259  -385  -509  -592  -632  -651  -675  -735  -840  -954  -1014  -997  -932  -831  -635  -307  49  277  337  301  226  129  34  -24  -52  -107  -233  -398  -516  -562  -583  -617  -669  -742  -847  -962  -1027  -1002  -901  -758  -619  -522  -476  -468  -468  -427  -337  -271  -320  -444  -365  256  1504  3084  4363  4595  3492  1424  -1005  -3253  -4862  -5614  -5590  -5003  -4103  -3149  -2270  -1461  -743  -193  167  398  550  631  653  647  636  629  628  638  658  660  607  521  476  459  392  280  184  130  113  117  121  121  143  230  412  657  875  1010  1080  1136  1205  1278  1323  1331  1320  1329  1401  1553  1733  1865  1935  1986  2051  2133  2225  2316  2392  2455  2515  2557  2541  2468  2381  2319  2266  2146  1884  1509  1114  732  347  -15  -282  -407  -426  -414  -422  -466  -528  -573  -601  -648  -742  -862  -952  -983  -967  -938  -915  -886  -826  -736  -638  -547  -467  -406  -371  -354  -340  -323  -315  -330  -377  -439  -487  -507  -510  -509  -506  -502  -498  -499  -501  -501  -500  -508  -537  -567  -554  -498  -460  -481  -524  -490  -348  -196  -119  -109  -129  -148  -152  -148  -156  -197  -258  -274  -196  -66  26  48  28  0  -29  -70  -129  -194  -225  -198  -153  -141  -168  -200  -212  -195  -153  -117  -121  -171  -234  -267  -279  -306  -350  -378  -366  -306  -205  -92  -12  8  -41  -161  -312  -434  -495  -504  -482  -462  -467  -487  -489  -447  -369  -282  -207  -140  -70  -1  37  39  43  99  229  387  495  519  476  388  258  90  -70  -164  -186  -172  -148  -128  -110  -71  4  77  94  62  28  11  -5  -46  -104  -156  -203  -254  -296  -331  -366  -388  -460  -599  -542  99  1457  3158  4425  4570  3413  1308  -1083  -3135  -4565  -5368  -5588  -5337  -4768  -3921  -2854  -1802  -1004  -498  -200  -29  87  185  264  336  412  477  511  508  464  372  252  157  119  132  177  252  388  617  919  1200  1370  1413  1350  1199  1014  889  872  947  1056  1141  1182  1203  1231  1281  1349  1438  1585  1838  2172  2499  2737  2877  2968  3051  3124  3165  3172  3151  3099  2984  2777  2510  2260  2049  1841  1612  1336  993  625  288  -37  -350  -569  -662  -707  -784  -901  -1018  -1107  -1167  -1200  -1218  -1231  -1238  -1237  -1225  -1202  -1176  -1147  -1111  -1083  -1089  -1127  -1166  -1175  -1154  -1131  -1119  -1110  -1086  -1048  -1030  -1053  -1091  -1088  -1009  -863  -710  -615  -580  -560  -537  -521  -519  -522  -534  -574  -661  -785  -898  -945  -911  -810  -678  -549  -444  -368  -317  -290  -283  -280  -246  -147  -8  91  80  -54  -247  -400  -475  -505  -528  -555  -568  -566  -587  -647  -712  -754  -776  -795  -815  -825  -794  -688  -518  -350  -229  -153  -102  -63  -35  -17  0  13  13  -20  -88  -136  -108  -34  35  98  168  230  266  274  259  240  232  250  301  383  478  567  641  702  745  751  725  700  691  675  601  442  252  144  173  286  377  382  300  138  -89  -325  -490  -523  -425  -273  -152  -93  -86  -117  -169  -186  -177  -260  -452  -622  -611  -214  761  2248  3734  4444  3958  2473  457  -1587  -3260  -4396  -4960  -4933  -4361  -3440  -2512  -1843  -1454  -1234  -1056  -811  -506  -264  -151  -120  -112  -99  -83  -77  -78  -61  7  131  277  397  465  499  548  644  768  881  954  983  985  980  980  987  998  997  987  1001  1084  1226  1369  1460  1492  1481  1462  1483  1588  1780  1993  2137  2191  2199  2201  2213  2229  2244  2266  2303  2355  2395  2376  2233  1941  1600  1348  1162  914  582  275  67  -84  -274  -520  -773  -1002  -1222  -1426  -1571  -1625  -1580  -1436  -1212  -974  -800  -722  -713  -722  -724  -716  -695  -636  -505  -309  -116  6  61  78  56  -32  -179  -322  -422  -516  -653  -813  -938  -1006  -1034  -1035  -997  -907  -798  -724  -683  -610  -448  -229  -53  22  27  17  18  27  9  -73  -210  -330  -393  -422  -465  -565  -694  -724  -605  -433  -304  -238  -205  -171  -139  -135  -167  -218  -268  -306  -323  -317  -294  -275  -296  -376  -483  -559  -569  -502  -355  -170  -22  38  18  -44  -108  -155  -183  -198  -202  -193  -178  -177  -186  -184  -178  -193  -234  -259  -224  -130  -18  69  101  43  -113  -310  -454  -511  -520  -535  -581  -647  -697  -712  -703  -683  -679  -711  -761  -845  -1023  -1156  -925  -139  1172  2725  3861  3887  2652  606  -1602  -3448  -4652  -5155  -5073  -4610  -3916  -3110  -2335  -1665  -1085  -624  -339  -197  -104  2  138  279  398  493  547  551  535  524  513  498  481  471  486  549  655  762  830  858  873  886  886  869  846  849  890  964  1060  1173  1319  1522  1752  1947  2079  2149  2165  2140  2099  2090  2156  2280  2395  2458  2484  2513  2561  2610  2643  2641  2597  2527  2466  2444  2439  2348  2042  1529  972  487  79  -253  -492  -627  -680  -688  -683  -669  -635  -580  -520  -482  -480  -508  -547  -592  -639  -682  -724  -770  -805  -792  -722  -644  -617  -621  -599  -545  -492  -460  -438  -425  -457  -541  -619  -656  -669  -673  -659  -627  -594  -567  -537  -497  -452  -401  -345  -287  -199  -75  15  -4  -148  -378  -617  -803  -928  -999  -1020  -995  -924  -833  -767  -733  -701  -651  -587  -529  -506  -531  -576  -602  -586  -509  -380  -253  -183  -194  -289  -425  -523  -548  -527  -515  -564  -694  -893  -1103  -1246  -1253  -1081  -746  -347  10  274  414  426  339  204  81  -9  -95  -192  -271  -319  -363  -438  -563  -709  -821  -874  -891  -876  -795  -639  -481  -425  -481  -574  -653  -741  -849  -881  -732  -505  -447  -656  -884  -649  329  1851  3329  4041  3513  1834  -437  -2674  -4420  -5419  -5652  -5315  -4599  -3583  -2420  -1372  -599  -82  267  488  562  525  472  449  412  302  128  -41  -161  -213  -184  -55  193  507  764  923  1041  1166  1279  1342  1381  1466  1573  1613  1570  1494  1419  1354  1283  1198  1109  1016  936  931  1072  1377  1754  2063  2254  2381  2509  2699  2998  3366  3676  3839  3868  3801  3620  3305  2918  2546  2194  1844  1561  1401  1298  1121  816  470  213  83  25  -45  -191  -401  -599  -725  -777  -790  -799  -812  -816  -798  -759  -721  -699  -683  -669  -658  -647  -619  -552  -441  -339  -328  -418  -534  -611  -641  -644  -634  -605  -552  -490  -461  -503  -606  -715  -761  -705  -565  -385  -208  -74  -24  -84  -254  -482  -676  -784  -834  -873  -908  -923  -902  -827  -681  -479  -269  -107  -27  -37  -137  -299  -455  -548  -585  -597  -595  -570  -522  -467  -425  -403  -397  -399  -405  -422  -474  -556  -622  -642  -627  -606  -605  -627  -641  -639  -649  -661  -626  -532  -421  -348  -323  -318  -302  -265  -215  -178  -163  -163  -166  -165  -162  -164  -184  -216  -238  -230  -199  -148  -71  20  94  127  115  46  -90  -272  -454  -593  -673  -713  -745  -769  -757  -725  -724  -760  -810  -872  -949  -1022  -1067  -1059  -971  -757  -438  -229  -408  -928  -1362  -1176  -104  1588  3213  4039  3697  2317  361  -1631  -3310  -4587  -5419  -5682  -5313  -4404  -3175  -1957  -1065  -592  -410  -294  -57  296  609  777  826  813  768  723  712  736  786  865  985  1119  1214  1247  1240  1221  1196  1157  1106  1056  1029  1032  1046  1043  1006  941  871  818  802  869  1077  1417  1801  2129  2363  2528  2651  2729  2779  2847  2951  3050  3102  3114  3116  3118  3087  2969  2744  2465  2207  2014  1874  1729  1511  1208  899  671  523  367  154  -70  -221  -240  -143  -8  103  170  185  128  -25  -231  -396  -485  -529  -558  -611  -731  -895  -1027  -1095  -1117  -1092  -1004  -866  -727  -604  -484  -382  -324  -291  -253  -226  -243  -295  -337  -353  -371  -440  -575  -731  -835  -861  -840  -811  -785  -768  -777  -836  -933  -1022  -1057  -1016  -911  -796  -752  -819  -955  -1080  -1151  -1174  -1167  -1143  -1087  -975  -842  -760  -754  -783  -797  -761  -679  -598  -553  -541  -546  -558  -572  -581  -570  -526  -440  -316  -212  -238  -392  -539  -598  -601  -592  -574  -523  -431  -326  -247  -217  -240  -301  -388  -499  -622  -734  -809  -835  -798  -683  -522  -393  -332  -302  -271  -248  -245  -255  -260  -239  -197  -165  -154  -145  -99  0  99  143  157  177  201  214  219  222  230  240  243  222  168  108  82  90  103  111  129  159  169  126  47  -11  -23  -9  -20  -97  -217  -312  -361  -389  -404  -408  -423  -476  -585  -737  -839  -789  -641  -522  -405  -128  480  1516  2810  3815  3968  3134  1558  -326  -2067  -3434  -4356  -4744  -4537  -3811  -2761  -1643  -726  -171  76  175  221  244  253  267  304  380  511  716  946  1101  1147  1135  1119  1110  1090  1047  980  907  846  811  796  761  655  486  337  295  386  545  660  692  682  667  645  628  712  1052  1669  2319  2728  2879  2932  3004  3106  3207  3281  3316  3297  3200  3009  2738  2438  2168  1945  1756  1614  1545  1533  1489  1303  960  604  373  254  159  64  -5  -46  -108  -248  -454  -650  -772  -819  -824  -826  -839  -855  -867  -883  -910  -935  -923  -854  -763  -697  -651  -583  -461  -303  -160  -75  -49  -63  -114  -214  -364  -543  -703  -800  -831  -827  -811  -789  -771  -765  -751  -661  -433  -132  93  179  155  32  -206  -532  -856  -1092  -1221  -1278  -1310  -1351  -1400  -1438  -1444  -1396  -1285  -1123  -944  -777  -645  -556  -491  -430  -361  -270  -171  -100  -68  -55  -55  -78  -134  -223  -330  -430  -504  -546  -566  -582  -602  -614  -598  -563  -555  -605  -678  -718  -687  -540  -274  8  181  225  210  193  185  176  145  77  -14  -111  -224  -391  -621  -868  -1049  -1125  -1130  -1119  -1112  -1102  -1066  -991  -897  -828  -794  -736  -601  -428  -299  -238  -217  -214  -239  -304  -394  -473  -513  -505  -453  -374  -300  -259  -264  -293  -307  -282  -204  -65  105  257  386  499  563  549  462  315  124  -42  -97  -23  80  92  4  -92  -149  -195  -247  -290  -316  -330  -308  -240  -233  -411  -713  -936  -851  -248  958  2542  3890  4336  3665  2165  359  -1285  -2634  -3684  -4260  -4270  -3856  -3159  -2357  -1735  -1414  -1245  -1057  -843  -678  -541  -310  48  407  655  821  966  1080  1134  1142  1128  1098  1057  1020  1005  1022  1066  1118  1152  1153  1117  1057  987  923  873  836  808  792  787  780  765  767  876  1186  1642  2042  2255  2311  2321  2398  2614  2910  3125  3165  3056  2882  2718  2592  2494  2412  2349  2312  2262  2118  1841  1493  1184  962  808  687  596  524  387  97  -286  -589  -729  -778  -820  -864  -879  -845  -771  -693  -640  -622  -623  -605  -538  -438  -346  -285  -252  -245  -250  -249  -244  -258  -328  -462  -627  -775  -878  -946  -996  -1028  -1051  -1085  -1127  -1159  -1176  -1193  -1216  -1202  -1060  -747  -373  -101  42  115  126  54  -62  -151  -194  -229  -291  -412  -624  -887  -1083  -1150  -1138  -1119  -1119  -1114  -1019  -759  -393  -101  2  -40  -113  -138  -115  -78  -55  -58  -96  -175  -273  -343  -366  -360  -346  -338  -357  -435  -585  -763  -896  -941  -886  -726  -512  -346  -278  -262  -237  -195  -166  -159  -130  -33  116  238  250  127  -81  -290  -452  -574  -673  -759  -824  -848  -795  -637  -401  -163  0  68  93  129  170  172  131  88  70  70  74  73  70  66  68  78  90  75  -9  -174  -351  -449  -443  -381  -298  -193  -91  -48  -71  -103  -96  -68  -51  -30  24  104  149  79  -94  -241  -307  -438  -780  -1253  -1464  -956  328  1962  3288  3683  2894  1197  -815  -2614  -3937  -4736  -5004  -4744  -4048  -3086  -2026  -1092  -490  -184  33  272  464  502  404  293  240  212  177  164  205  269  324  377  433  469  475  461  443  437  473  587  773  949  1036  1027  967  916  899  890  868  845  838  848  868  910  1003  1147  1296  1412  1506  1591  1670  1800  2049  2375  2642  2791  2881  2968  3040  3049  2984  2870  2709  2484  2190  1882  1612  1341  1013  669  371  121  -94  -281  -451  -623  -767  -808  -713  -547  -414  -353  -347  -423  -633  -922  -1132  -1181  -1118  -1009  -895  -804  -721  -593  -411  -241  -138  -53  116  372  580  606  420  133  -82  -154  -145  -155  -240  -378  -503  -590  -648  -667  -631  -558  -487  -446  -428  -418  -409  -405  -389  -305  -105  161  369  451  450  434  440  470  491  445  277  13  -232  -354  -356  -315  -289  -288  -298  -304  -280  -207  -106  -32  -6  -8  -15  -21  -39  -76  -107  -115  -127  -165  -222  -284  -350  -421  -495  -572  -658  -742  -774  -704  -564  -466  -469  -525  -585  -657  -749  -835  -882  -877  -850  -834  -832  -829  -811  -777  -748  -747  -765  -780  -784  -776  -755  -708  -638  -601  -636  -701  -748  -797  -881  -989  -1094  -1176  -1233  -1270  -1285  -1269  -1220  -1141  -1054  -993  -954  -898  -825  -810  -945  -1242  -1609  -1928  -2135  -2231  -2251  -2238  -2221  -2200  -2147  -2043  -1906  -1790  -1730  -1723  -1741  -1757  -1727  -1609  -1409  -1191  -1043  -1068  -1264  -1389  -1086  -150  1283  2692  3383  2935  1478  -509  -2574  -4426  -5863  -6697  -6851  -6424  -5609  -4630  -3671  -2828  -2193  -1846  -1721  -1661  -1579  -1477  -1383  -1312  -1264  -1236  -1204  -1135  -1038  -958  -917  -894  -853  -709  -351  209  799  1275  1619  1839  1943  1969  1942  1826  1568  1171  745  448  331  316  340  426  654  1069  1563  1953  2204  2486  2984  3704  4451  5007  5303  5420  5471  5509  5518  5478  5403  5310  5176  4965  4677  4368  4121  3962  3849  3701  3415  2967  2509  2221  2141  2228  2492  2919  3357  3624  3686  3619  3470  3232  2910  2542  2169  1841  1610  1478  1406  1362  1333  1309  1285  1249  1202  1182  1250  1442  1690  1865  1900  1803  1617  1402  1213  1069  960  855  699  445  105  -246  -526  -682  -732  -732  -725  -725  -728  -712  -653  -552  -440  -346  -273  -216  -164  -102  -30  6  -90  -408  -883  -1321  -1586  -1684  -1705  -1745  -1845  -1984  -2106  -2164  -2129  -1995  -1759  -1413  -975  -544  -262  -165  -166  -175  -162  -138  -119  -96  -17  190  559  999  1343  1491  1426  1142  702  268  -43  -239  -386  -546  -710  -818  -851  -848  -842  -835  -821  -807  -846  -1002  -1269  -1548  -1748  -1847  -1869  -1846  -1807  -1769  -1715  -1614  -1477  -1351  -1261  -1202  -1171  -1159  -1148  -1132  -1113]
