reading_id,reading_time,wire_id,result_classification,heart_rate,heart_rate_alert,firmware_version,device_app_version,hardware_version,waveform_samples
1aaa0500-6163-11ed-8080-808080808080,Fri Nov 11 01:49:39 UTC 2022,a101e3b72739,NSR,58,NONE,20001.171.50,2.10.0,Charge 5,[-3797  -4361  -4682  -4755  -4716  -4651  -4570  -4469  -4380  -4354  -4392  -4440  -4440  -4361  -4219  -4078  -3990  -3959  -3968  -4024  -4150  -4321  -4452  -4462  -4303  -4019  -3777  -3696  -3705  -3651  -3483  -3301  -3218  -3242  -3327  -3426  -3486  -3464  -3330  -3063  -2701  -2360  -2129  -1996  -1916  -1865  -1803  -1680  -1466  -1137  -712  -321  -107  -83  -174  -297  -377  -353  -192  57  269  361  360  353  415  574  778  943  1025  1038  1027  1051  1116  1168  1175  1174  1190  1198  1182  1165  1160  1152  1106  1004  844  654  475  385  427  430  164  -128  141  1185  2739  4443  5754  6029  5153  3678  2206  850  -461  -1541  -2236  -2537  -2248  -1353  -349  362  885  1397  1812  2007  2059  2123  2248  2375  2453  2479  2477  2467  2459  2462  2509  2650  2901  3160  3272  3180  2990  2850  2803  2810  2850  2936  3046  3106  3037  2821  2515  2244  2141  2253  2498  2725  2848  2886  2892  2889  2858  2785  2734  2826  3101  3482  3838  4049  4059  3884  3606  3350  3191  3121  3117  3163  3218  3215  3122  2951  2711  2409  2089  1777  1433  1060  763  611  542  470  374  240  32  -200  -344  -366  -324  -273  -262  -368  -657  -1049  -1346  -1449  -1376  -1159  -877  -683  -702  -956  -1331  -1634  -1767  -1783  -1780  -1809  -1856  -1876  -1854  -1806  -1764  -1741  -1741  -1744  -1703  -1584  -1428  -1285  -1088  -715  -194  271  508  524  432  304  160  -8  -213  -427  -594  -702  -769  -802  -820  -857  -927  -1037  -1192  -1353  -1457  -1486  -1472  -1445  -1410  -1374  -1361  -1390  -1461  -1561  -1659  -1723  -1744  -1744  -1742  -1749  -1781  -1835  -1862  -1802  -1662  -1523  -1479  -1526  -1551  -1487  -1416  -1441  -1553  -1675  -1736  -1731  -1707  -1698  -1695  -1687  -1694  -1761  -1910  -2085  -2201  -2235  -2223  -2201  -2181  -2145  -2053  -1897  -1737  -1642  -1601  -1562  -1510  -1469  -1440  -1379  -1217  -933  -616  -397  -294  -214  -98  5  55  89  119  130  174  389  897  1609  2214  2497  2531  2501  2514  2567  2612  2628  2629  2623  2607  2602  2677  2895  3197  3442  3581  3651  3675  3647  3584  3525  3494  3440  3307  3121  2951  2795  2595  2354  2159  2054  2002  1961  1936  1951  1968  1959  1960  1986  1994  1942  1834  1722  1642  1564  1430  1261  1208  1432  2028  3041  4300  5457  6191  6181  5337  3978  2381  639  -1008  -2196  -2682  -2421  -1562  -492  381  915  1167  1242  1242  1227  1187  1069  847  584  380  279  258  260  207  43  -195  -407  -566  -727  -897  -1008  -1044  -1085  -1212  -1395  -1528  -1569  -1564  -1567  -1600  -1650  -1689  -1699  -1673  -1621  -1569  -1517  -1446  -1374  -1332  -1311  -1289  -1243  -1094  -739  -199  308  581  631  602  628  836  1327  2016  2637  3026  3216  3294  3316  3315  3301  3270  3223  3162  3069  2919  2748  2622  2550  2472  2364  2257  2174  2120  2098  2105  2127  2142  2137  2108  2041  1912  1724  1549  1475  1524  1680  1935  2239  2498  2676  2790  2843  2834  2789  2749  2761  2886  3168  3523  3784  3991  4383  5023  5736  6347  6748  6927  6937  6718  6144  5211  4070  2961  2106  1559  1169  787  388  -24  -436  -804  -1091  -1300  -1467  -1619  -1742  -1834  -1924  -2054  -2257  -2533  -2829  -3080  -3255  -3356  -3352  -3211  -3005  -2841  -2761  -2757  -2804  -2903  -3094  -3366  -3614  -3755  -3788  -3741  -3621  -3456  -3317  -3277  -3340  -3450  -3553  -3626  -3681  -3727  -3727  -3631  -3445  -3232  -3062  -2973  -2958  -2985  -3023  -3051  -3058  -3060  -3098  -3204  -3345  -3447  -3481  -3478  -3474  -3476  -3462  -3388  -3220  -3008  -2858  -2825  -2874  -2948  -3002  -3013  -2998  -2986  -2987  -2988  -2971  -2921  -2847  -2768  -2702  -2649  -2591  -2517  -2442  -2381  -2304  -2169  -1982  -1816  -1745  -1777  -1860  -1934  -1976  -1996  -1997  -1955  -1846  -1689  -1543  -1448  -1398  -1345  -1255  -1168  -1143  -1168  -1210  -1280  -1354  -1341  -1295  -1364  -1329  -714  668  2671  4911  6766  7681  7548  6658  5400  3994  2513  1187  274  -264  -475  -291  86  361  507  636  787  915  958  940  900  824  756  779  862  918  918  873  790  670  533  404  283  161  61  16  42  142  281  400  470  491  490  515  556  561  533  529  589  704  817  884  901  894  884  889  930  1038  1237  1494  1716  1846  1914  1976  2044  2101  2138  2162  2189  2250  2351  2435  2426  2258  1896  1413  993  759  645  516  325  63  -300  -712  -1017  -1146  -1188  -1251  -1336  -1380  -1355  -1292  -1255  -1279  -1328  -1365  -1392  -1419  -1441  -1453  -1455  -1431  -1368  -1287  -1226  -1178  -1099  -984  -887  -848  -875  -963  -1086  -1180  -1198  -1152  -1090  -1045  -1021  -1011  -1012  -1045  -1126  -1211  -1214  -1098  -901  -697  -565  -552  -660  -848  -1039  -1166  -1189  -1097  -926  -761  -668  -647  -672  -732  -803  -839  -810  -741  -669  -603  -541  -499  -484  -487  -504  -535  -558  -545  -502  -460  -421  -358  -280  -239  -267  -333  -385  -401  -402  -406  -413  -390  -309  -184  -67  7  37  27  -15  -74  -125  -160  -168  -112  5  115  161  145  100  70  85  136  215  335  478  599  672  724  791  874  943  982  993  977  955  945  942  922  863  773  691  644  626  611  574  497  387  293  256  268  293  316  344  385  409  312  14  -380  -652  -717  -654  -565  -481  -372  -263  -247  -216  222  1314  2814  4224  5074  4999  3987  2442  689  -1202  -3084  -4601  -5398  -5262  -4224  -2699  -1376  -668  -410  -239  -41  83  75  8  -12  36  117  221  390  639  896  1057  1099  1074  1034  982  863  637  379  231  258  403  567  690  775  841  890  926  982  1113  1327  1553  1699  1744  1736  1717  1704  1705  1722  1742  1748  1745  1776  1897  2118  2377  2604  2768  2869  2929  2963  2947  2875  2801  2754  2685  2542  2348  2181  2075  1950  1701  1334  969  696  518  399  288  128  -60  -197  -257  -286  -329  -390  -462  -557  -667  -744  -755  -701  -605  -503  -425  -389  -383  -365  -302  -208  -131  -93  -79  -75  -105  -209  -383  -572  -725  -813  -795  -607  -247  140  381  450  420  335  195  24  -134  -278  -435  -572  -619  -591  -559  -553  -560  -546  -486  -385  -280  -201  -163  -154  -155  -149  -136  -129  -162  -266  -410  -510  -501  -390  -260  -192  -188  -205  -247  -346  -474  -545  -507  -385  -246  -136  -75  -60  -85  -147  -227  -284  -289  -250  -195  -156  -141  -137  -141  -170  -248  -374  -499  -551  -493  -356  -217  -126  -83  -70  -92  -162  -261  -341  -379  -387  -387  -402  -450  -517  -548  -512  -447  -427  -478  -580  -704  -832  -935  -942  -758  -468  -423  -771  -1158  -1137  -450  937  2596  3797  4098  3521  2280  628  -1084  -2596  -3825  -4666  -5025  -4895  -4272  -3242  -2148  -1410  -1120  -1068  -1068  -1062  -1027  -943  -825  -725  -646  -538  -406  -315  -307  -389  -544  -733  -898  -966  -910  -790  -702  -683  -687  -669  -623  -572  -539  -532  -539  -540  -519  -475  -443  -439  -398  -275  -142  -79  -87  -132  -188  -239  -265  -219  -36  266  549  693  712  690  664  617  539  461  405  346  247  126  40  5  -25  -123  -315  -522  -666  -831  -1184  -1703  -2147  -2358  -2392  -2340  -2208  -1968  -1644  -1318  -1073  -948  -941  -1004  -1099  -1244  -1418  -1504  -1413  -1182  -929  -749  -668  -633  -569  -458  -352  -322  -394  -485  -479  -379  -281  -213  -109  84  316  477  529  522  514  529  558  594  676  853  1085  1249  1252  1097  877  707  624  600  618  687  796  911  1023  1135  1223  1271  1290  1293  1274  1206  1062  865  694  595  558  573  639  739  867  999  1091  1128  1141  1154  1169  1175  1153  1087  998  927  874  804  699  596  540  524  493  425  374  420  558  696  766  780  774  761  727  676  652  673  710  756  816  867  910  970  1036  1031  894  681  507  420  388  385  393  366  250  52  -156  -321  -439  -512  -546  -558  -566  -575  -577  -552  -469  -309  -162  -232  -656  -1291  -1725  -1558  -624  967  2807  4247  4718  4109  2767  1133  -530  -2107  -3498  -4526  -4929  -4609  -3798  -2900  -2200  -1768  -1515  -1308  -1077  -857  -696  -601  -550  -493  -402  -336  -362  -436  -462  -410  -321  -255  -234  -239  -246  -243  -225  -200  -183  -180  -182  -173  -144  -102  -62  -22  45  202  505  879  1143  1223  1193  1139  1089  1042  1028  1092  1220  1343  1430  1514  1646  1842  2050  2191  2239  2243  2263  2337  2457  2577  2644  2594  2360  1985  1639  1408  1203  936  635  376  202  97  15  -82  -204  -337  -451  -520  -549  -577  -651  -804  -1008  -1185  -1286  -1309  -1281  -1240  -1220  -1238  -1299  -1378  -1434  -1453  -1463  -1491  -1536  -1581  -1611  -1619  -1573  -1441  -1257  -1110  -1046  -1068  -1185  -1387  -1621  -1832  -1988  -2077  -2067  -1927  -1708  -1526  -1449  -1467  -1559  -1694  -1814  -1862  -1824  -1726  -1609  -1508  -1443  -1422  -1438  -1484  -1567  -1662  -1725  -1743  -1743  -1740  -1728  -1687  -1615  -1539  -1494  -1482  -1477  -1470  -1475  -1496  -1506  -1483  -1436  -1391  -1360  -1331  -1298  -1252  -1166  -996  -734  -421  -103  195  429  550  572  555  535  524  531  580  681  787  867  951  1042  1136  1274  1446  1576  1632  1647  1656  1646  1556  1342  1087  979  1152  1541  1925  2133  2167  2106  1988  1792  1509  1240  1145  1245  1395  1479  1490  1470  1447  1440  1482  1594  1731  1821  1849  1844  1823  1794  1767  1760  1801  1890  1982  2029  2021  1978  1919  1865  1836  1838  1851  1834  1737  1562  1382  1281  1286  1382  1515  1589  1552  1521  1794  2593  3801  5116  6190  6581  6131  5121  3774  2079  189  -1471  -2497  -2668  -2004  -835  343  1177  1642  1911  2124  2341  2575  2803  3003  3158  3251  3294  3335  3427  3568  3697  3770  3801  3810  3770  3647  3465  3283  3115  2937  2751  2566  2389  2255  2172  2099  2023  1956  1879  1766  1611  1442  1318  1275  1294  1347  1410  1475  1537  1586  1605  1585  1538  1500  1496  1539  1620  1711  1780  1821  1843  1844  1788  1640  1430  1216  1015  804  585  388  222  35  -257  -676  -1126  -1464  -1646  -1758  -1890  -2043  -2184  -2307  -2412  -2478  -2497  -2491  -2486  -2505  -2560  -2632  -2680  -2693  -2700  -2738  -2813  -2888  -2921  -2901  -2850  -2797  -2757  -2738  -2739  -2754  -2767  -2734  -2606  -2398  -2209  -2134  -2199  -2361  -2529  -2625  -2637  -2599  -2551  -2507  -2428  -2268  -2081  -2019  -2169  -2456  -2738  -2926  -2996  -2968  -2892  -2804  -2694  -2564  -2449  -2375  -2357  -2406  -2500  -2589  -2616  -2557  -2457  -2375  -2315  -2238  -2108  -1949  -1831  -1782  -1778  -1783  -1773  -1739  -1687  -1643  -1630  -1648  -1680  -1696  -1684  -1665  -1635  -1538  -1297  -931  -588  -393  -317  -273  -255  -257  -202  -75  37  91  114  130  152  196  261  312  284  126  -122  -330  -375  -240  -28  126  177  170  151  131  111  94  85  80  76  72  50  -7  -92  -166  -211  -236  -253  -236  -163  -79  -51  -80  -121  -143  -144  -134  -129  -153  -229  -334  -413  -444  -443  -418  -360  -284  -225  -200  -189  -153  -88  -51  -88  -167  -240  -325  -450  -588  -684  -740  -802  -868  -881  -810  -713  -656  -637  -628  -622  -619  -621  -622  -607  -569  -505  -392  -246  -182  -211  -87  485  1594  2926  3915  4100  3287  1699  -139  -1865  -3328  -4313  -4629  -4384  -3848  -3153  -2369  -1630  -1065  -688  -419  -204  -45  58  104  94  54  26  58  191  400  589  677  628  444  199  19  -40  -11  90  294  581  849  1017  1078  1065  1039  1044  1087  1173  1321  1514  1700  1852  1990  2120  2222  2317  2472  2717  3020  3303  3491  3566  3554  3483  3373  3239  3094  2929  2712  2469  2283  2195  2172  2169  2155  2101  1997  1858  1712  1555  1353  1063  681  293  24  -87  -99  -75  -60  -82  -121  -111  -33  46  39  -119  -415  -724  -922  -979  -924  -795  -624  -447  -293  -171  -71  5  40  14  -67  -186  -332  -492  -611  -627  -548  -437  -320  -186  -58  15  36  40  26  -36  -157  -298  -387  -402  -395  -411  -439  -427  -328  -168  -47  -6  -2  -8  -69  -238  -474  -674  -802  -879  -870  -726  -486  -277  -189  -245  -427  -659  -830  -904  -931  -968  -1020  -1021  -910  -726  -576  -535  -600  -702  -774  -808  -823  -832  -835  -837  -840  -836  -808  -746  -681  -655  -679  -739  -812  -858  -862  -855  -864  -889  -929  -992  -1072  -1148  -1207  -1247  -1269  -1283  -1308  -1343  -1370  -1372  -1350  -1316  -1294  -1303  -1355  -1428  -1492  -1541  -1587  -1613  -1558  -1372  -1110  -909  -830  -831  -852  -865  -867  -861  -841  -796  -724  -633  -534  -450  -387  -337  -301  -300  -364  -510  -712  -901  -1037  -1132  -1190  -1172  -1071  -939  -819  -725  -664  -638  -631  -637  -654  -667  -628  -480  -224  31  103  -216  -931  -1667  -1921  -1356  67  1981  3716  4638  4482  3453  2006  549  -768  -2002  -3101  -3832  -3977  -3483  -2519  -1436  -602  -141  89  259  403  501  618  804  985  1104  1197  1287  1351  1384  1406  1422  1410  1350  1250  1166  1148  1209  1345  1512  1637  1720  1832  1997  2153  2237  2253  2234  2208  2196  2227  2321  2452  2579  2701  2823  2899  2916  2938  2999  3068  3162  3342  3582  3778  3880  3935  3995  4058  4090  4073  4017  3939  3852  3736  3556  3344  3184  3084  2938  2646  2234  1841  1563  1384  1235  1085  968  917  919  912  824  635  416  268  222  236  257  263  253  240  233  214  155  55  -47  -123  -169  -194  -206  -213  -220  -224  -217  -186  -131  -90  -143  -351  -649  -886  -986  -979  -917  -829  -741  -678  -640  -609  -586  -602  -685  -820  -954  -1045  -1084  -1090  -1085  -1079  -1069  -1052  -1036  -1039  -1061  -1085  -1108  -1158  -1256  -1366  -1407  -1331  -1173  -1029  -957  -946  -960  -982  -1009  -1036  -1057  -1065  -1064  -1063  -1067  -1071  -1081  -1100  -1126  -1150  -1155  -1140  -1121  -1101  -1062  -1016  -990  -979  -954  -892  -807  -741  -713  -706  -696  -644  -528  -389  -297  -270  -258  -219  -164  -127  -123  -148  -189  -235  -274  -301  -314  -312  -296  -290  -329  -432  -560  -649  -679  -660  -598  -498  -397  -325  -271  -210  -142  -95  -81  -87  -93  -81  -43  8  43  45  22  -29  -130  -261  -357  -366  -277  -128  6  70  72  57  84  186  327  428  456  443  431  414  306  28  -337  -599  -681  -662  -631  -606  -542  -388  -198  -123  -252  -478  -623  -635  -582  -541  -532  -519  -424  -241  -107  -168  -400  -576  -337  540  1953  3480  4506  4543  3537  1846  -56  -1820  -3197  -4017  -4259  -4000  -3376  -2616  -1894  -1184  -476  55  288  325  331  387  485  577  638  682  717  733  728  701  652  589  514  425  352  322  324  356  443  606  801  948  1011  1021  1003  933  780  576  406  320  319  394  539  710  820  832  799  765  752  784  857  970  1148  1355  1499  1555  1569  1583  1620  1674  1723  1733  1666  1490  1232  989  839  777  743  679  524  240  -122  -449  -686  -849  -942  -953  -904  -856  -848  -889  -965  -1055  -1132  -1179  -1185  -1139  -1032  -868  -687  -535  -413  -267  -90  53  136  194  258  318  348  320  215  42  -140  -266  -314  -318  -322  -329  -288  -150  43  183  215  165  89  25  -24  -66  -86  -79  -63  -55  -47  -34  -31  -68  -156  -244  -271  -245  -203  -165  -146  -158  -189  -240  -326  -424  -485  -498  -488  -491  -550  -671  -795  -872  -895  -887  -874  -847  -771  -661  -602  -651  -763  -840  -833  -768  -689  -619  -564  -522  -490  -471  -464  -459  -457  -474  -530  -620  -714  -781  -807  -785  -716  -608  -489  -402  -388  -447  -534  -593  -611  -608  -591  -544  -460  -361  -270  -207  -178  -166  -147  -131  -176  -336  -572  -776  -861  -824  -725  -609  -496  -427  -458  -609  -818  -970  -1022  -1007  -960  -901  -850  -825  -820  -782  -647  -443  -283  -232  -275  -391  -568  -750  -828  -731  -510  -290  -143  -61  -36  -72  -139  -222  -331  -437  -496  -517  -531  -538  -538  -556  -634  -774  -918  -1000  -1014  -993  -966  -951  -949  -962  -986  -1008  -1014  -976  -855  -669  -567  -704  -1051  -1413  -1455  -805  573  2274  3714  4345  3878  2523  772  -1032  -2663  -3916  -4735  -5063  -4824  -4159  -3298  -2401  -1641  -1129  -835  -689  -628  -586  -534  -487  -455  -419  -351  -261  -177  -80  92  338  558  678  729  789  907  1067  1225  1366  1486  1554  1551  1510  1511  1626  1834  2036  2181  2290  2390  2487  2585  2677  2746  2811  2917  3100  3343  3585  3767  3867  3907  3924  3929  3913  3875  3842  3846  3877  3899  3907  3951  4088  4293  4447  4471  4381  4150  3710  3120  2578  2241  2112  2083  2038  1938  1790  1591  1338  1092  937  889  900  950  1059  1238  1426  1524  1507  1431  1336  1242  1149  1037  922  864  904  1020  1146  1238  1285  1273  1191  1045  833  582  365  232  136  -36  -332  -661  -904  -1035  -1100  -1156  -1223  -1305  -1424  -1598  -1798  -1978  -2113  -2185  -2209  -2244  -2332  -2461  -2597  -2713  -2794  -2852  -2915  -2986  -3036  -3044  -3022  -2998  -2989  -2991  -2994  -2986  -2959  -2935  -2951  -2998  -3010  -2969  -2904  -2819  -2705  -2576  -2450  -2356  -2309  -2294  -2287  -2292  -2315  -2327  -2257  -2062  -1803  -1598  -1505  -1487  -1474  -1424  -1350  -1292  -1249  -1182  -1085  -1000  -948  -913  -884  -859  -827  -781  -751  -756  -769  -734  -642  -554  -513  -496  -467  -418  -364  -323  -311  -337  -392  -444  -477  -506  -533  -545  -539  -494  -398  -288  -193  -108  -29  39  85  87  54  19  1  -8  -11  21  126  288  458  623  788  928  1011  1030  972  822  629  495  458  464  441  361  274  243  260  280  300  342  409  469  488  447  354  254  192  177  179  159  98  49  106  253  352  317  222  315  901  2077  3592  4844  5189  4453  2918  961  -994  -2508  -3351  -3550  -3242  -2651  -1986  -1303  -654  -203  -33  -33  -46  3  107  246  450  753  1081  1284  1294  1181  1051  969  941  945  987  1081  1196  1279  1328  1328  1249  1140  1083  1092  1133  1166  1176  1191  1260  1400  1559  1662  1697  1706  1719  1744  1767  1793  1840  1912  2027  2208  2404  2529  2564  2552  2534  2522  2517  2530  2570  2627  2669  2673  2640  2577  2488  2361  2183  1961  1712  1454  1240  1116  1040  855  440  -86  -458  -569  -524  -448  -407  -460  -644  -899  -1096  -1177  -1181  -1162  -1148  -1128  -1086  -1040  -1019  -1024  -1042  -1064  -1100  -1162  -1238  -1334  -1478  -1633  -1704  -1660  -1565  -1499  -1470  -1436  -1382  -1332  -1312  -1326  -1361  -1379  -1375  -1417  -1536  -1652  -1660  -1529  -1345  -1243  -1259  -1315  -1343  -1348  -1373  -1441  -1517  -1547  -1561  -1627  -1727  -1781  -1746  -1621  -1448  -1279  -1168  -1169  -1261  -1351  -1389  -1387  -1371  -1356  -1341  -1331  -1346  -1401  -1468  -1480  -1408  -1307  -1255  -1256  -1272  -1298  -1349  -1419  -1475  -1503  -1493  -1427  -1301  -1160  -1063  -1051  -1108  -1141  -1085  -1002  -965  -985  -1047  -1112  -1156  -1202  -1266  -1324  -1338  -1297  -1222  -1117  -957  -756  -586  -475  -377  -265  -163  -88  -26  51  155  285  436  579  692  801  958  1147  1271  1225  979  642  401  331  362  408  450  553  782  1073  1269  1297  1209  1081  959  872  831  864  1020  1303  1607  1752  1632  1302  923  752  1091  2074  3546  5096  6174  6338  5502  3954  2150  432  -1031  -2080  -2566  -2495  -2086  -1657  -1396  -1313  -1392  -1610  -1868  -2039  -2063  -1970  -1816  -1584  -1202  -659  -46  505  880  1060  1131  1186  1253  1322  1392  1460  1509  1532  1535  1539  1593  1747  1962  2142  2261  2367  2494  2647  2829  3033  3228  3379  3473  3513  3526  3541  3590  3731  4028  4429  4780  4984  5087  5180  5279  5328  5314  5286  5308  5394  5453  5370  5142  4848  4586  4421  4298  4084  3728  3286  2842  2465  2143  1811  1469  1162  852  470  36  -340  -559  -640  -706  -856  -1109  -1426  -1730  -1956  -2101  -2219  -2349  -2476  -2585  -2717  -2906  -3103  -3261  -3413  -3592  -3778  -3969  -4196  -4466  -4740  -4953  -5070  -5133  -5223  -5358  -5489  -5598  -5732  -5903  -6069  -6209  -6324  -6398  -6439  -6497  -6608  -6759  -6913  -7037  -7149  -7285  -7397  -7360  -7150  -6914  -6796  -6797  -6825  -6816  -6783  -6740  -6634  -6413  -6114  -5819  -5565  -5349  -5148  -4912  -4628  -4357  -4162  -4052  -3928  -3656  -3244  -2868  -2666  -2617  -2619  -2597  -2536  -2449  -2341  -2221  -2095  -1960  -1819  -1671  -1492  -1272  -1045  -856  -706  -567  -429  -307  -214  -137  -43  78  199  286  344  396  438  445  407  351  309  291  289  313  384  493  599  685  748  740  616  448  380  488  704  885  954  942  902  855  803  759  729  718  732  775  849  968  1132  1299  1420  1497  1549  1573  1574  1568  1558  1536  1497  1452  1415  1398  1412  1456  1522  1588  1626  1634  1645  1696  1790  1891  1966  2016  2050  2050  1949  1708  1416  1221  1189  1347  1799  2692  4028  5576  6912  7541  7202  6100  4650  3119  1631  322  -633  -1068  -835  36  1208  2247  2938  3294  3444  3549  3726  3996  4272  4455  4545  4623  4731  4854  4969  5059  5108  5119  5122  5153  5217  5274  5286  5269  5255  5255  5257  5235  5174  5101  5053  5040  5052  5079  5115  5166  5277  5501  5802  6061  6217  6321  6420  6503  6560  6611  6696  6876  7153  7426  7591  7641  7637  7630  7633  7626  7593  7571  7605  7661  7672  7607  7466  7261  7013  6726  6395  6048  5709  5312  4774  4169  3649  3231  2840  2437  1982  1422  792  205  -288  -712  -1049  -1252  -1322  -1300  -1228  -1144  -1077  -1023  -965  -933  -1019  -1298  -1680  -1960  -2050  -2027  -1983  -1981  -2076  -2308  -2653  -3021  -3339  -3604  -3810  -3927  -3961  -3952  -3921  -3879  -3840  -3823  -3831  -3852  -3893  -3975  -4102  -4250  -4396  -4521  -4618  -4682  -4713  -4716  -4707  -4694  -4674  -4644  -4617  -4604  -4589  -4567  -4542  -4491  -4373  -4192  -4010  -3875  -3786  -3741  -3739  -3749  -3711  -3582  -3380  -3157  -2952  -2795  -2696  -2630  -2560  -2477  -2402  -2343  -2259  -2105  -1884  -1655  -1516  -1518  -1635  -1788  -1914  -2003  -2047  -2040  -2004  -1977  -1972  -1969  -1937  -1871  -1803  -1717  -1575  -1440  -1416  -1518  -1671  -1786  -1814  -1743  -1569  -1347  -1184  -1144  -1211  -1348  -1500  -1616  -1673  -1679  -1650  -1588  -1483  -1356  -1245  -1159  -1111  -1169  -1396  -1725  -1977  -2032  -1940  -1823  -1735  -1673  -1644  -1657  -1693  -1710  -1669  -1563  -1435  -1346  -1316  -1345  -1440  -1588  -1740  -1853  -1922  -1973  -2033  -2098  -2142  -2157  -2158  -2159  -2168  -2187  -2209  -2226  -2242  -2269  -2308  -2317  -2206  -1935  -1644  -1532  -1668  -1999  -2219  -1828  -657  971  2504  3373  3270  2321  918  -578  -2048  -3525  -4833  -5601  -5668  -5139  -4239  -3319  -2716  -2484  -2416  -2308  -2105  -1857  -1619  -1434  -1347  -1356  -1410  -1468  -1511  -1543  -1581  -1624  -1667  -1705  -1727  -1710  -1641  -1545  -1469  -1432  -1421  -1413  -1388  -1342  -1300  -1275  -1233  -1102  -825  -441  -83  160  329  494  652  759  844  1007  1295  1618  1853  2004  2168  2378  2600  2806  2997  3154  3241  3262  3270  3310  3374  3425  3443  3437  3408  3334  3173  2910  2600  2343  2193  2109  2014  1887  1774  1700  1624  1501  1348  1234  1190  1190  1200  1208  1212  1213  1200  1164  1113  1070  1044  1030  1026  1031  1052  1098  1156  1194  1193  1165  1145  1144  1145  1142  1142  1121  1060  989  937  926  990  1161  1396  1585  1653  1589  1412  1194  1049  1040  1150  1305  1418  1457  1453  1446  1451  1461  1463  1465  1496  1580  1681  1718  1645  1509  1405  1366  1370  1396  1443  1504  1547  1524  1384  1141  883  703  626  628  674  736  774  769  731  668  572  460  372  329  353  437  518  521  421  248  80  -14  -40  -49  -78  -143  -230  -319  -423  -586  -810  -1024  -1134  -1117  -1043  -999  -999  -1007  -989  -942  -872  -797  -739  -707  -695  -695  -701  -705  -670  -561  -406  -286  -249  -288  -373  -455  -509  -548  -569  -565  -566  -597  -665  -772  -890  -967  -968  -881  -711  -482  -238  -47  43  50  25  1  -12  -20  -24  -25  -23  -21  -25  -57  -138  -247  -327  -357  -357  -357  -371  -396  -415  -384  -268  -91  71  171  149  -94  -560  -1069  -1427  -1500  -1135  -205  1246  2946  4424  5102  4612  3185  1440  -231  -1764  -3120  -4183  -4732  -4531  -3614  -2324  -1045  -49  550  821  903  920  948  1004  1071  1136  1197  1259  1319  1371  1408  1437  1465  1485  1488  1470  1388  1177  866  578  400  350  403  484  517  493  442  402  390  399  400  368  292  200  135  103  80  71  140  344  621  847  997  1139  1290  1411  1483  1530  1578  1622  1647  1637  1596  1562  1563  1578  1527  1316  958  596  355  234  157  66  -74  -274  -489  -641  -704  -726  -771  -880  -1057  -1231  -1305  -1248  -1122  -1012  -941  -889  -844  -807  -772  -744  -746  -785  -824  -825  -769  -668  -550  -430  -319  -251  -251  -310  -381  -426  -444  -449  -432  -351  -198  -35  63  91  92  93  68  -34  -218  -405  -514  -539  -526  -516  -537  -597  -653  -622  -483  -317  -209  -131  12  246  497  685  784  848  962  1135  1293  1378  1398  1376  1323  1256  1210  1211  1261  1333  1389  1419  1436  1453  1464  1465  1467  1470  1455  1406  1342  1320  1376  1460  1517  1552  1571  1565  1530  1467  1385  1309  1246  1146  932  627  351  172  71  9  -39  -86  -123  -150  -179  -234  -322  -422  -517  -607  -672  -697  -692  -683  -708  -809  -985  -1173  -1298  -1345  -1346  -1336  -1324  -1307  -1292  -1296  -1320  -1353  -1379  -1391  -1391  -1381  -1374  -1401  -1490  -1617  -1706  -1712  -1668  -1618  -1585  -1571  -1598  -1734  -2026  -2378  -2628  -2736  -2771  -2787  -2798  -2809  -2819  -2827  -2826  -2803  -2737  -2620  -2486  -2388  -2345  -2353  -2442  -2641  -2894  -3163  -3425  -3473  -3035  -2035  -602  899  1910  2011  1174  -320  -2071  -3803  -5432  -6791  -7587  -7694  -7122  -5978  -4688  -3765  -3311  -3085  -2909  -2774  -2697  -2635  -2542  -2435  -2351  -2277  -2168  -2008  -1825  -1651  -1516  -1442  -1401  -1329  -1192  -1030  -909  -823  -679  -390  12  376  580  625  585  536  513  511  518  549  677  1000  1476  1890  2085  2101  2075  2104  2213  2367  2528  2692  2851  2973  3042  3091  3211  3487  3874  4193  4311  4242  4087  3943  3830  3704  3527  3297  3053  2843  2643  2362  1980  1611  1389  1312  1270  1188  1080  992  954  963  987  991  984  1008  1041  993  808  566  413  376  387  411  447  487  544  633  730  781  761  701  647  622  618  605  557  490  454  467  502  525  531  534  551  587  626  641  615  553  488  448  439  440  423  378  333  337  391  454  491  508  522  536  548  553  531  454  328  208  142  136  163  180  173  164  170  182  172  137  110  141  228  317  373  401  414  406  355  243  109  20  -8  0  29  59  76  98  148  221  275  277  247  224  228  244  243  204  127  36  -16  4  68  140  206  265  325  376  388  359  328  327  361  399  411  407  413  434  473  534  595  628  644  662  695  751  809  841  846  847  860  882  872  792  683  630  647  655  603  517  452  426  408  356  269  161  49  -27  -51  -50  -69  -132  -213  -256  -246  -212  -142  37  303  398  91  -441  -735  -349  896  2738  4536  5664  5841  5113  3687  1816  -259  -2229  -3698  -4433  -4414  -3781  -2861  -1994  -1322  -869  -623  -492  -340  -106  138  266  254  208  204  220  241  311  434  529  517  363  68  -292  -583  -719  -736  -727  -762  -850  -970  -1081  -1136  -1113  -1052  -995  -951  -922  -915  -943  -1018  -1118  -1190  -1177  -1050  -839  -642  -531  -495  -492  -492  -457  -332  -119  81  157  107  49  110  318  611  895  1101  1195  1165  1019  827  694  660  678  667  547  288  -42  -324  -492  -576  -680  -894  -1203  -1502  -1704  -1797  -1820  -1796  -1700  -1510  -1260  -1025  -869  -802  -794  -834  -933  -1069  -1166  -1143  -966  -690  -414  -155  142  448  652  725  745  799  904  1011  1080  1134  1224  1364  1522  1629  1644  1594  1542  1513  1483  1437  1394  1388  1438  1543  1678  1795  1856  1862  1821  1738  1628  1539  1504  1519  1553  1544  1441  1276  1149  1107  1117  1140  1160  1174  1184  1191  1194  1185  1154  1105  1056  1020  993  964  923  845  705  538  404  331  305  302  305  310  330  373  442  517  574  608  624  587  436  178  -76  -223  -256  -223  -158  -87  -57  -98  -187  -276  -332  -357  -366  -352  -324  -307  -309  -313  -316  -335  -388  -466  -527  -524  -424  -238  -24  152  274  355  410  448  471  484  481  437  322  143  -46  -206  -359  -518  -637  -694  -740  -809  -880  -905  -862  -781  -716  -693  -706  -753  -830  -929  -1044  -1158  -1232  -1268  -1355  -1507  -1510  -1075  -46  1470  3007  3940  3909  2912  1188  -796  -2577  -4022  -5134  -5748  -5756  -5212  -4188  -2966  -2011  -1479  -1179  -958  -812  -755  -755  -776  -799  -818  -836  -860  -877  -871  -850  -825  -783  -706  -620  -566  -554  -564  -579  -595  -631  -712  -810  -841  -749  -584  -464  -445  -483  -511  -498  -437  -346  -250  -144  -19  111  243  373  495  601  698  829  1042  1298  1492  1597  1685  1797  1891  1921  1892  1837  1787  1749  1704  1632  1538  1438  1346  1268  1178  1020  784  526  282  52  -127  -212  -220  -233  -329  -509  -688  -786  -804  -792  -786  -796  -805  -787  -739  -686  -647  -624  -618  -627  -648  -681  -734  -805  -874  -929  -974  -1003  -1019  -1033  -1038  -983  -819  -589  -415  -360  -383  -428  -477  -538  -618  -704  -763  -764  -711  -646  -615  -612  -612  -631  -683  -745  -792  -808  -788  -743  -697  -661  -626  -576  -545  -570  -626  -662  -669  -663  -667  -701  -784  -905  -1002  -1028  -1021  -1044  -1103  -1173  -1260  -1384  -1510  -1581  -1577  -1510  -1397  -1241  -1043  -847  -723  -684  -687  -689  -678  -667  -676  -712  -775  -864  -961  -1037  -1078  -1085  -1055  -994  -931  -900  -895  -863  -748  -573  -424  -362  -380  -454  -548  -615  -643  -644  -614  -531  -402  -268  -166  -108  -92  -125  -228  -390  -556  -674  -711  -661  -557  -453  -379  -336  -309  -282  -244  -208  -196  -205  -196  -143  -78  -40  -30  -35  -53  -108  -289  -622  -882  -803  -328  568  1906  3407  4570  4976  4433  3121  1518  -4  -1364  -2597  -3626  -4212  -4124  -3381  -2382  -1592  -1099  -691  -263  118  426  683  868  952  941  877  822  803  807  814  829  896  1049  1227  1307  1230  1069  955  941  985  1033  1068  1101  1143  1209  1286  1338  1360  1391  1472  1601  1749  1902  2057  2198  2308  2412  2540  2666  2707  2621  2468  2347  2306  2344  2448  2573  2669  2734  2805  2887  2945  2963  2947  2904  2813  2646  2412  2149  1884  1650  1474  1309  1077  770  441  125  -160  -384  -519  -574  -580  -582  -624  -697  -718  -622  -474  -378  -355  -369  -398  -448  -520  -608  -695  -730  -681  -598  -562  -615  -732  -809  -769  -670  -598  -566  -551  -546  -570  -651  -782  -909  -994  -1032  -1027  -961  -808  -584  -362  -222  -184  -222  -279  -292  -262  -242  -265  -316  -339  -315  -282  -291  -347  -414  -471  -530  -592  -651  -706  -723  -660  -544  -437  -373  -335  -287  -221  -162  -138  -165  -240  -329  -386  -401  -385  -330  -206  -16  164  264  290  267  176  -3  -173  -157  58  300  432  459  443  444  499  608  733  839  929  1036  1157  1244  1272  1266  1253  1253  1281  1340  1418  1524  1688  1876  1964  1888  1734  1608  1508  1383  1253  1171  1146  1148  1150  1142  1120  1085  1054  1047  1060  1063  999  834  633  503  474  504  567  675  760  639  289  47  312  1215  2566  3896  4636  4506  3637  2331  825  -792  -2446  -3839  -4529  -4322  -3417  -2227  -1234  -717  -561  -466  -271  -24  165  258  283  278  279  317  401  460  400  229  47  -70  -129  -149  -121  -30  96  201  262  284  250  120  -90  -266  -284  -170  -51  0  3  -12  -45  -95  -149  -176  -109  113  434  692  797  796  766  743  756  848  1030  1233  1356  1333  1167  940  776  720  732  774  830  841  706  392  -13  -397  -738  -1085  -1435  -1714  -1887  -1998  -2084  -2148  -2192  -2222  -2263  -2374  -2602  -2885  -3071  -3056  -2842  -2531  -2276  -2163  -2173  -2244  -2313  -2343  -2336  -2283  -2158  -1982  -1829  -1724  -1645  -1592  -1583  -1610  -1645  -1671  -1691  -1701  -1669  -1571  -1444  -1354  -1327  -1329  -1295  -1175  -996  -839  -731  -629  -493  -342  -227  -168  -144  -125  -94  -54  -12  15  2  -71  -175  -251  -278  -271  -216  -85  90  229  287  291  272  238  192  149  128  129  145  168  183  178  150  113  87  79  81  79  68  61  93  189  291  293  196  108  86  96  86  32  -38  -79  -72  -33  10  49  118  258  434  557  600  597  580  546  492  437  419  464  563  658  709  717  710  704  706  714  728  757  811  882  933  925  848  731  625  553  507  478  443  367  230  82  3  5  34  52  59  90  161  244  299  298  241  215  292  371  239  -195  -683  -736  19  1602  3467  4654  4549  3262  1358  -469  -1816  -2754  -3435  -3727  -3427  -2659  -1817  -1199  -870  -704  -516  -258  -18  140  240  314  367  399  429  473  523  563  576  557  519  483  454  424  396  394  453  580  725  826  869  885  899  909  915  919  920  912  895  886  918  1015  1146  1250  1305  1331  1341  1337  1320  1308  1355  1511  1752  1979  2122  2178  2187  2202  2245  2277  2236  2139  2049  1958  1787  1531  1274  1078  943  802  550  192  -155  -433  -663  -841  -951  -1023  -1089  -1144  -1181  -1215  -1251  -1267  -1234  -1149  -1049  -978  -938  -919  -923  -967  -1055  -1173  -1284  -1350  -1368  -1359  -1341  -1308  -1224  -1082  -977  -991  -1066  -1115  -1125  -1125  -1128  -1135  -1133  -1097  -1016  -922  -834  -735  -640  -582  -552  -532  -521  -519  -516  -503  -490  -501  -529  -521  -466  -409  -386  -389  -396  -389  -351  -266  -137  0  108  156  118  -25  -230  -392  -451  -430  -385  -351  -341  -358  -406  -474  -519  -479  -319  -100  57  108  108  114  137  159  172  180  189  182  128  15  -118  -216  -256  -260  -250  -224  -173  -99  -28  10  17  20  60  155  249  250  155  54  0  -42  -111  -196  -260  -283  -255  -166  -40  69  134  162  160  132  100  88  91  83  60  45  61  92  115  123  121  117  115  125  152  187  221  269  351  456  549  607  634  635  600  509  360  179  10  -123  -224  -303  -371  -472  -647  -853  -1000  -1058  -1065  -1061  -1064  -1074  -1088  -1088  -1065  -1029  -1008  -1018  -1020  -996  -1105  -1448  -1749  -1610  -892  277  1638  2829  3435  3239  2337  910  -815  -2460  -3711  -4440  -4582  -4247  -3707  -3095  -2426  -1791  -1329  -1090  -1002  -952  -875  -783  -719  -700  -705  -713  -705  -666  -571  -392  -149  65  174  195  206  259  345  420  449  399  243  26  -146  -207  -124  123  459  719  824  824  805  843  987  1217  1450  1612  1694  1763  1909  2147  2400  2589  2679  2690  2672  2658  2655  2663  2685  2713  2733  2743  2751  2758  2744  2684  2590  2470  2272  1940  1528  1156  892  740  661  597  527  487  498  519  475  323  102  -98  -216  -243  -186  -56  94  188  164  8  -211  -365  -361  -196  41  239  361  417  390  291  204  224  357  513  612  655  669  669  636  550  436  354  328  335  346  340  306  251  208  221  317  466  584  587  465  318  263  294  325  320  296  276  251  194  102  7  -71  -150  -234  -292  -311  -312  -317  -328  -334  -324  -304  -285  -276  -287  -331  -409  -504  -588  -640  -662  -660  -618  -513  -377  -277  -245  -259  -297  -352  -410  -448  -457  -451  -452  -474  -526  -599  -668  -695  -666  -608  -564  -541  -521  -494  -475  -479  -497  -510  -513  -512  -514  -519  -525  -522  -511  -502  -499  -495  -491  -510  -579  -693  -811  -887  -879  -755  -551  -370  -281  -269  -285  -299  -304  -296  -273  -240  -219  -237  -310  -413  -493  -523  -501  -429  -318  -189  -46  90  181  211  191  128  41  -34  -65  -19  94  206  240  155  -76  -448  -853  -1110  -1077  -744  -279  48  87  -127  -435  -659  -737  -728  -693  -658  -637  -675  -828  -1041  -1089  -872  -670  -690  -663  -157  1040  2717  4176  4645  3880  2306  587  -886  -2108  -3177  -4030  -4454  -4285  -3613  -2752  -1952  -1284  -761  -423  -272  -214  -150  -56  44  135  206  253  281  297  301  313  361  440  514  555  577  611  662  699  688  626  548  489  464  489  559  636  711  805  893  919  909  927  978  1062  1213  1419  1599  1708  1770  1830  1920  2044  2173  2298  2440  2581  2677  2718  2733  2734  2699  2604  2476  2375  2333  2327  2297  2168  1911  1574  1241  957  710  459  196  -29  -184  -294  -408  -537  -656  -740  -810  -892  -978  -1022  -945  -708  -417  -238  -272  -521  -867  -1112  -1131  -934  -639  -406  -311  -321  -391  -495  -597  -658  -675  -673  -667  -662  -653  -651  -681  -766  -862  -885  -820  -740  -711  -739  -777  -792  -779  -739  -683  -639  -617  -606  -595  -578  -554  -520  -473  -437  -444  -485  -548  -635  -719  -773  -841  -983  -1161  -1252  -1200  -1070  -968  -933  -935  -945  -961  -984  -985  -927  -827  -730  -633  -515  -389  -264  -141  -40  -4  -69  -234  -427  -556  -601  -603  -592  -569  -534  -497  -473  -455  -422  -366  -296  -217  -145  -108  -120  -165  -201  -207  -205  -221  -247  -260  -251  -237  -221  -177  -80  37  116  140  141  143  133  89  12  -70  -130  -157  -144  -86  21  148  230  200  36  -193  -364  -417  -366  -243  -97  19  107  184  217  203  245  392  555  654  694  709  718  702  615  439  225  48  -55  -94  -86  -49  2  50  67  5  -177  -425  -604  -649  -598  -521  -471  -461  -477  -490  -539  -751  -1093  -1268  -995  -111  1340  2934  4031  4211  3499  2247  760  -838  -2451  -3864  -4806  -5112  -4765  -3889  -2772  -1740  -964  -452  -177  -108  -191  -346  -503  -625  -696  -694  -590  -396  -190  -60  -17  -18  -31  -51  -77  -97  -79  10  170  356  507  561  500  381  286  246  242  271  376  583  827  991  1041  1037  1039  1063  1115  1219  1379  1564  1735  1854  1913  1976  2128  2349  2533  2621  2639  2624  2591  2550  2520  2506  2500  2486  2440  2331  2135  1880  1608  1306  952  605  329  108  -98  -305  -476  -558  -555  -538  -554  -600  -667  -740  -812  -883  -938  -959  -922  -806  -638  -495  -444  -497  -605  -704  -776  -827  -854  -848  -818  -791  -758  -687  -607  -555  -526  -492  -428  -346  -286  -262  -257  -261  -296  -380  -476  -510  -471  -419  -396  -396  -397  -389  -372  -350  -330  -332  -392  -495  -558  -518  -416  -335  -305  -303  -304  -312  -346  -385  -354  -224  -78  -19  -55  -126  -187  -247  -320  -396  -456  -496  -521  -534  -518  -418  -198  69  255  301  235  91  -98  -254  -281  -185  -70  -11  -9  -42  -101  -170  -230  -270  -293  -305  -290  -210  -57  101  165  103  -7  -53  -8  32  -5  -85  -179  -329  -529  -670  -629  -366  2  269  323  198  -6  -201  -333  -375  -327  -254  -201  -154  -95  -47  -32  -36  -27  16  83  136  158  157  148  150  181  252  355  451  474  388  247  133  62  -24  -174  -356  -483  -510  -484  -465  -461  -445  -394  -348  -406  -559  -662  -667  -633  -582  -573  -677  -858  -1007  -946  -417  700  2239  3845  4987  5169  4294  2587  437  -1667  -3424  -4704  -5263  -4919  -3899  -2706  -1791  -1330  -1170  -1021  -721  -340  -39  134  213  200  115  26  -20  -21  37  176  356  492  550  568  579  592  602  601  582  552  550  602  677  726  744  769  843  967  1094  1179  1220  1236  1237  1231  1231  1249  1309  1439  1641  1874  2089  2251  2336  2354  2335  2306  2294  2333  2480  2740  3021  3217  3299  3271  3145  2944  2670  2299  1864  1456  1120  844  625  451  306  192  88  -58  -239  -380  -471  -564  -648  -671  -635  -584  -546  -523  -495  -436  -363  -322  -340  -424  -582  -773  -919  -996  -1031  -1039  -1018  -959  -875  -802  -754  -708  -647  -584  -541  -529  -532  -525  -498  -449  -401  -406  -481  -587  -679  -730  -746  -744  -722  -669  -594  -529  -493  -491  -518  -551  -567  -563  -545  -515  -473  -419  -370  -351  -345  -336  -357  -448  -584  -713  -809  -837  -753  -591  -453  -388  -374  -377  -389  -419  -488  -608  -737  -794  -736  -606  -488  -420  -390  -377  -372  -369  -365  -362  -361  -361  -358  -348  -336  -335  -359  -396  -424  -422  -367  -249  -105  2  42  -4  -153  -382  -624  -797  -834  -717  -486  -232  -95  -145  -286  -383  -405  -381  -317  -195  -39  70  89  33  -49  -111  -133  -119  -67  16  116  219  300  327  316  287  223  141  102  133  204  240  205  167  194  258  299  283  195  42  -137  -282  -345  -337  -310  -290  -254  -158  26  225  299  240  146  195  659  1654  2993  4171  4569  3924  2360  182  -2081  -3830  -4794  -5097  -4865  -4091  -2988  -1949  -1181  -703  -499  -494  -553  -527  -291  152  616  882  858  568  149  -188  -337  -349  -291  -161  56  306  481  534  505  421  265  55  -126  -224  -224  -71  297  790  1179  1351  1362  1299  1190  1050  938  895  903  945  1034  1184  1353  1467  1512  1535  1584  1710  1964  2288  2526  2611  2590  2507  2378  2245  2160  2127  2102  2037  1911  1721  1474  1187  892  605  318  46  -183  -391  -592  -748  -829  -844  -817  -785  -778  -800  -821  -818  -813  -834  -873  -886  -817  -639  -396  -211  -178  -287  -464  -636  -754  -815  -845  -848  -781  -609  -392  -258  -281  -411  -510  -508  -480  -458  -394  -305  -256  -272  -343  -437  -506  -531  -517  -467  -393  -324  -297  -341  -466  -625  -734  -739  -641  -488  -360  -310  -332  -393  -475  -593  -766  -955  -1073  -1048  -870  -618  -420  -333  -326  -365  -434  -509  -549  -528  -460  -386  -341  -328  -325  -307  -274  -243  -224  -217  -216  -230  -277  -327  -302  -197  -116  -75  4  107  137  49  -101  -215  -246  -230  -213  -211  -215  -216  -219  -239  -282  -330  -367  -400  -428  -446  -456  -458  -459  -468  -480  -479  -455  -420  -369  -289  -241  -310  -463  -493  -17  1156  2714  4107  4789  4338  2753  491  -1791  -3561  -4527  -4632  -4174  -3623  -3178  -2768  -2263  -1595  -872  -325  -74  -26  -29  -7  46  107  153  177  166  136  115  96  70  51  51  80  143  228  288  300  307  362  462  560  611  617  609  621  670  739  795  843  917  1013  1107  1215  1365  1537  1694  1830  1946  2029  2065  2049  1997  1965  2046  2300  2659  2958  3106  3141  3141  3146  3131  3021  2756  2359  1955  1686  1547  1379  1058  668  380  221  98  -54  -250  -470  -665  -796  -856  -869  -862  -847  -820  -786  -762  -755  -759  -761  -750  -722  -692  -685  -699  -725  -758  -788  -785  -727  -621  -516  -456  -440  -443  -448  -458  -475  -494  -507  -510  -508  -503  -497  -495  -494  -492  -482  -466  -448  -434  -425  -418  -416  -435  -495  -581  -643  -649  -603  -519  -417  -338  -302  -296  -299  -306  -335  -401  -484  -544  -576  -615  -687  -778  -853  -884  -829  -636  -331  -53  65  10  -133  -267  -349  -390  -395  -346  -223  -42  132  266  368  405  350  255  188  153  123  77  16  -45  -107  -172  -218  -238  -255  -302  -375  -451  -531  -612  -673  -705  -717  -730  -748  -729  -662  -667  -802  -854  -577  46  974  2153  3232  3728  3517  2753  1525  -79  -1813  -3339  -4377  -4760  -4431  -3509  -2398  -1589  -1223  -1096  -1002  -853  -653  -468  -343  -254  -158  -46  54  114  130  132  147  172  190  196  202  225  260  289  292  249  171  127  187  335  498  641  776  908  996  1012  971  912  868  854  870  917  993  1095  1228  1393  1575  1736  1830  1854  1849  1857  1900  1999  2158  2358  2562  2718  2776  2701  2478  2174  1918  1758  1616  1422  1165  844  498  216  40  -73  -187  -311  -433  -575  -747  -922  -1061  -1084  -929  -671  -463  -373  -363  -373  -378  -394  -447  -537  -633  -702  -734  -739  -733  -728  -723  -709  -675  -626  -597  -612  -646  -656  -626  -591  -588  -609  -625  -628  -628  -631  -633  -619  -578  -517  -447  -361  -266  -202  -208  -287  -401  -502  -567  -595  -591  -557  -488  -397  -321  -278  -254  -240  -249  -293  -356  -387  -354  -289  -251  -269  -321  -365  -369  -327  -276  -246  -234  -239  -263  -310  -389  -486  -547  -523  -412  -273  -178  -151  -166  -193  -217  -235  -257  -280  -292  -276  -219  -136  -65  -31  -30  -35  -24  2  37  74  96  69  -36  -197  -356  -487  -606  -712  -780  -798  -789  -786  -808  -854  -915  -992  -1072  -1125  -1142  -1140  -1133  -1121  -1105  -1096  -1096  -1113  -1169  -1244  -1306  -1361  -1341  -1123  -584  419  1806  3041  3534  3097  1913  375  -1125  -2439  -3564  -4444  -4965  -4997  -4492  -3597  -2578  -1693  -1101  -819  -738  -730  -729  -719  -691  -623  -492  -306  -104  58  112  12  -190  -369  -433  -382  -231  40  371  603  655  575  460  382  356  357  362  364  361  355  352  369  422  503  598  736  952  1211  1430  1567  1635  1670  1711  1783  1879  1964  2026  2102  2236  2420  2593  2699  2746  2777  2796  2795  2784  2721  2482  2026  1535  1237  1164  1173  1105  906  655  463  345  240  83  -118  -270  -317  -310  -308  -315  -316  -284  -192  -56  57  100  84  67  88  133  156  142  132  168  231  273  276  265  260  279  365  541  746  879  918  915  916  921  916  904  885  837  722  511  249  0]
