reading_id,reading_time,wire_id,result_classification,heart_rate,heart_rate_alert,firmware_version,device_app_version,hardware_version,waveform_samples
e22c64a0-6443-11ed-8080-808080808080,Mon Nov 14 17:43:43 UTC 2022,a101e3b72739,NSR,56,NONE,20001.171.50,2.10.0,Charge 5,[-5929  -5958  -5988  -5973  -5868  -5710  -5547  -5288  -4665  -3439  -1716  -18  1146  1793  2317  2948  3648  4459  5697  7566  9732  11619  13041  14264  15457  16436  17050  17459  17851  18202  18423  18517  18550  18554  18453  18119  17577  17018  16526  15983  15329  14669  14166  13922  13884  13903  13905  13889  13906  14045  14330  14651  14862  14925  14912  14891  14875  14848  14795  14718  14676  14720  14743  14593  14316  14074  13914  13720  13330  12755  12170  11692  11410  11447  11743  12041  12184  12207  12192  12182  12191  12210  12195  12077  11825  11506  11214  10940  10609  10244  9960  9722  9311  8601  7777  7119  6643  6224  5872  5598  5245  4672  3988  3418  3066  2896  2834  2831  2856  2864  2768  2516  2195  1916  1696  1534  1421  1285  1100  904  729  589  494  426  317  157  128  347  643  832  854  701  480  375  457  610  464  -369  -1786  -3239  -4173  -4179  -3197  -1663  -150  1093  2044  2638  2839  2656  2011  974  -64  -787  -1244  -1587  -1822  -1915  -1920  -1954  -2106  -2352  -2588  -2745  -2846  -2957  -3116  -3290  -3425  -3487  -3490  -3484  -3522  -3623  -3752  -3844  -3874  -3870  -3868  -3877  -3888  -3895  -3915  -3982  -4097  -4217  -4296  -4328  -4345  -4386  -4454  -4524  -4576  -4609  -4628  -4663  -4800  -5107  -5473  -5716  -5802  -5757  -5565  -5280  -4996  -4755  -4591  -4535  -4547  -4568  -4578  -4581  -4556  -4476  -4354  -4248  -4178  -4081  -3892  -3642  -3423  -3275  -3163  -3013  -2770  -2458  -2179  -2002  -1912  -1875  -1887  -1943  -2018  -2092  -2154  -2188  -2193  -2184  -2176  -2171  -2132  -2017  -1847  -1694  -1595  -1543  -1520  -1510  -1499  -1506  -1566  -1674  -1776  -1844  -1904  -1985  -2071  -2112  -2083  -2008  -1923  -1844  -1779  -1724  -1668  -1601  -1526  -1456  -1395  -1308  -1134  -905  -764  -796  -911  -988  -1007  -1008  -1017  -1014  -961  -891  -892  -969  -1062  -1125  -1100  -983  -868  -819  -819  -836  -862  -892  -918  -935  -944  -931  -874  -797  -786  -852  -894  -873  -848  -850  -863  -854  -784  -646  -530  -561  -724  -882  -959  -978  -967  -917  -818  -700  -620  -592  -594  -602  -619  -661  -727  -792  -827  -832  -825  -820  -815  -799  -772  -748  -743  -758  -758  -706  -617  -527  -471  -471  -512  -570  -663  -790  -901  -948  -938  -919  -922  -946  -966  -915  -710  -353  16  249  310  200  -87  -463  -756  -895  -909  -787  -480  -77  189  158  -131  -502  -767  -863  -832  -706  -514  -332  -229  -212  -253  -366  -570  -814  -1001  -1076  -1061  -994  -872  -709  -583  -548  -562  -533  -394  -157  95  267  294  210  115  64  46  36  30  54  115  188  271  396  512  465  213  -74  -222  -189  11  302  455  197  -522  -1557  -2575  -2993  -2396  -939  904  2633  3742  4020  3824  3608  3405  3017  2424  1796  1258  842  555  385  311  299  309  319  324  317  290  244  190  148  122  80  -27  -169  -233  -155  -15  40  -26  -94  -56  42  105  104  39  -87  -264  -460  -620  -713  -755  -778  -800  -810  -800  -776  -741  -705  -689  -724  -822  -925  -955  -927  -910  -949  -1093  -1394  -1793  -2134  -2313  -2331  -2233  -2083  -1940  -1822  -1717  -1606  -1442  -1204  -937  -705  -514  -313  -69  159  299  358  389  414  423  396  328  258  235  257  308  391  495  591  664  714  738  734  711  679  640  589  545  539  563  587  605  628  649  618  472  208  -54  -179  -139  -24  64  102  134  185  234  260  267  263  249  224  197  161  77  -71  -255  -418  -516  -539  -508  -434  -306  -129  42  141  153  104  26  -74  -190  -280  -269  -84  267  641  879  966  968  926  874  855  888  962  1034  1045  957  776  560  410  370  381  392  394  383  354  302  234  163  113  129  252  439  600  698  745  729  633  505  445  491  593  723  890  1040  1108  1117  1112  1107  1096  1075  1045  992  889  752  641  586  572  577  582  570  545  535  590  742  939  1081  1129  1123  1105  1081  1044  980  873  735  604  485  354  230  170  210  319  444  557  642  685  694  705  753  831  888  857  704  468  235  40  -115  -218  -247  -191  -54  101  171  123  39  11  35  67  94  124  153  173  177  167  157  177  253  365  459  506  494  399  255  170  208  322  378  278  131  152  349  476  224  -648  -1957  -3015  -3240  -2503  -1031  605  1834  2579  3067  3364  3426  3253  2857  2266  1584  994  625  448  352  262  141  -30  -250  -463  -598  -643  -642  -636  -636  -634  -622  -604  -594  -615  -692  -806  -902  -943  -941  -921  -883  -807  -702  -601  -534  -529  -574  -599  -564  -516  -529  -641  -817  -986  -1113  -1220  -1326  -1433  -1537  -1621  -1663  -1668  -1663  -1681  -1738  -1813  -1867  -1884  -1885  -1892  -1905  -1884  -1781  -1620  -1503  -1493  -1552  -1610  -1609  -1494  -1220  -824  -429  -150  -29  -21  -47  -71  -105  -139  -99  88  369  597  709  735  701  634  575  542  527  515  489  440  383  310  206  110  68  68  78  92  128  190  231  228  233  285  337  340  314  301  310  329  353  394  464  546  598  590  504  362  228  149  128  137  143  116  57  16  46  123  172  181  202  267  366  467  536  542  472  340  207  129  110  115  126  145  178  213  235  239  241  260  291  315  310  270  215  189  213  264  305  328  349  374  386  378  355  326  307  306  321  363  432  493  518  520  518  512  487  433  378  361  376  387  373  347  351  417  515  584  609  607  587  538  469  406  356  309  294  336  401  438  439  419  385  345  305  267  214  115  -22  -143  -214  -245  -233  -192  -161  -150  -152  -167  -188  -207  -224  -232  -207  -130  -24  56  95  117  141  161  167  152  131  139  164  186  198  156  80  60  137  315  439  187  -570  -1682  -2769  -3230  -2648  -1162  686  2256  3130  3370  3333  3278  3218  3023  2615  2109  1672  1284  837  405  145  82  116  178  265  371  456  477  416  292  154  58  35  77  138  165  129  42  -49  -121  -195  -278  -371  -464  -503  -458  -409  -438  -519  -608  -705  -788  -827  -829  -815  -797  -802  -879  -1059  -1297  -1505  -1654  -1754  -1807  -1827  -1850  -1905  -1991  -2084  -2150  -2178  -2185  -2172  -2101  -1933  -1686  -1447  -1295  -1223  -1181  -1108  -949  -721  -515  -375  -282  -202  -105  24  198  415  594  626  529  381  208  61  -10  -31  -37  -10  92  267  428  496  485  443  398  375  385  408  434  463  480  472  447  409  358  304  260  238  237  249  262  253  221  198  203  207  169  85  7  -18  -6  7  11  11  10  9  2  -7  -9  -2  -6  -30  -44  9  157  337  451  470  432  386  358  330  261  147  38  -29  -64  -84  -100  -114  -118  -110  -88  -46  -6  -5  -52  -92  -23  157  319  360  308  250  222  179  63  -95  -199  -197  -135  -81  -63  -73  -96  -119  -142  -171  -195  -175  -87  41  144  188  191  180  170  160  146  130  119  118  126  138  150  154  138  100  61  52  80  136  199  244  268  291  300  240  108  -12  -48  11  124  202  208  183  109  -53  -223  -312  -332  -329  -321  -307  -291  -281  -281  -288  -284  -241  -148  -36  46  98  137  160  156  143  184  332  542  700  756  748  715  658  597  592  649  668  622  565  512  505  580  659  633  322  -435  -1493  -2511  -3186  -3075  -1858  83  1996  3470  4415  4818  4795  4516  4063  3501  2873  2115  1247  506  96  -21  -6  25  37  37  35  36  40  43  39  22  -5  -43  -91  -139  -190  -252  -320  -385  -447  -513  -587  -659  -717  -767  -809  -826  -802  -725  -610  -507  -470  -527  -683  -917  -1167  -1341  -1403  -1397  -1388  -1435  -1565  -1731  -1842  -1869  -1856  -1863  -1922  -2012  -2076  -2081  -2053  -2013  -1948  -1866  -1808  -1795  -1794  -1731  -1542  -1265  -1003  -786  -596  -455  -393  -383  -370  -311  -213  -118  -43  54  195  332  414  445  461  491  538  558  519  453  413  428  493  560  586  548  420  218  26  -96  -153  -172  -163  -78  124  365  521  573  590  607  587  484  313  142  42  20  29  19  -26  -86  -136  -178  -213  -232  -220  -152  -22  133  262  334  348  321  267  216  182  158  140  127  117  111  113  124  132  136  158  220  303  360  374  365  356  356  357  342  287  197  101  9  -81  -155  -179  -148  -85  -13  38  55  65  117  216  309  352  359  361  368  364  325  244  152  81  33  -1  -24  -30  -25  -10  15  58  118  159  157  136  135  172  230  272  276  241  191  152  135  136  143  137  92  11  -32  21  138  240  290  299  295  296  298  284  237  160  70  -5  -56  -91  -130  -173  -199  -191  -161  -132  -123  -139  -184  -252  -325  -384  -407  -377  -299  -194  -84  6  57  50  -9  -92  -157  -180  -156  -83  18  107  158  174  166  148  139  149  168  184  201  220  235  241  230  199  157  118  64  -79  -446  -1156  -2132  -2930  -2948  -1907  -141  1668  3031  3813  4141  4277  4351  4212  3641  2620  1443  542  123  44  61  19  -106  -194  -119  31  87  3  -182  -405  -580  -670  -683  -632  -539  -425  -316  -245  -216  -201  -199  -241  -333  -417  -445  -439  -469  -585  -749  -879  -951  -984  -994  -982  -954  -930  -945  -1034  -1207  -1407  -1546  -1606  -1641  -1689  -1747  -1795  -1822  -1839  -1864  -1908  -1964  -1998  -2029  -2104  -2199  -2231  -2140  -1895  -1513  -1081  -704  -443  -296  -216  -155  -83  15  128  208  234  231  230  238  245  250  273  333  422  508  561  578  589  622  673  712  713  657  546  410  297  234  203  170  142  171  282  423  515  541  534  525  515  493  462  439  434  448  468  476  478  496  526  543  536  513  488  466  441  419  413  426  444  441  393  301  214  219  322  425  468  478  501  540  571  573  552  525  493  442  385  350  346  362  384  407  449  532  638  718  750  744  711  646  550  437  336  272  258  287  325  330  301  267  241  225  224  241  263  258  217  186  203  240  246  198  114  26  -49  -108  -134  -123  -89  -50  -2  63  145  231  308  362  382  367  323  267  226  198  167  132  111  112  117  86  -11  -131  -162  -32  186  353  408  394  361  336  315  252  109  -49  -89  15  154  227  227  190  146  113  86  60  48  67  103  127  127  107  68  -2  -95  -167  -194  -189  -184  -211  -285  -377  -440  -462  -465  -463  -442  -361  -189  38  218  275  220  123  52  20  6  4  28  81  158  239  283  246  143  103  194  288  261  168  112  113  181  308  342  106  -489  -1413  -2366  -2880  -2639  -1600  0  1680  2954  3598  3730  3645  3507  3243  2741  2054  1361  792  388  140  0  -83  -136  -155  -141  -112  -78  -36  -3  -30  -144  -301  -416  -459  -473  -484  -466  -397  -311  -255  -238  -248  -266  -292  -347  -445  -560  -640  -664  -655  -639  -637  -672  -754  -851  -923  -981  -1053  -1133  -1229  -1384  -1575  -1722  -1796  -1816  -1816  -1829  -1873  -1962  -2096  -2241  -2338  -2336  -2214  -2005  -1800  -1667  -1593  -1539  -1496  -1458  -1400  -1294  -1114  -860  -608  -446  -389  -384  -358  -266  -71  236  572  777  774  628  464  391  417  440  394  329  296  291  296  309  335  366  390  419  462  463  366  230  147  128  135  149  175  217  255  280  294  298  291  276  260  250  246  230  183  115  59  31  26  36  51  62  65  61  53  31  -24  -105  -158  -113  61  287  429  452  414  352  273  197  175  218  254  240  196  137  56  -61  -169  -164  -44  75  139  187  252  311  313  233  102  -16  -81  -68  34  193  328  392  404  402  399  400  412  442  482  508  513  507  502  502  508  513  501  452  365  266  191  163  189  255  339  431  514  547  470  259  -8  -200  -251  -172  15  254  438  517  527  516  493  441  356  251  123  -36  -197  -299  -342  -384  -467  -580  -670  -681  -613  -500  -356  -201  -86  -28  -1  34  96  141  124  75  43  37  39  40  38  37  40  55  100  185  295  416  524  611  723  786  665  465  302  151  94  176  146  -236  -911  -1702  -2334  -2311  -1371  155  1766  3110  3949  4237  4074  3517  2711  2003  1606  1381  1103  757  458  258  135  76  72  89  94  81  65  47  -9  -134  -296  -434  -519  -555  -542  -458  -305  -147  -73  -107  -196  -266  -292  -298  -314  -356  -436  -537  -608  -651  -736  -879  -1002  -1016  -925  -820  -763  -766  -848  -1029  -1261  -1440  -1519  -1551  -1608  -1709  -1823  -1919  -1985  -1999  -1930  -1800  -1679  -1609  -1570  -1543  -1523  -1500  -1460  -1366  -1175  -911  -636  -375  -159  -41  -2  36  110  218  341  437  491  522  550  576  585  546  432  281  169  128  127  143  192  283  385  451  471  467  453  429  398  378  376  386  394  372  290  159  41  -1  44  142  231  287  328  341  292  190  94  48  62  127  234  344  391  361  305  263  255  278  301  278  177  10  -164  -268  -261  -153  -4  105  142  138  127  121  125  141  165  189  207  220  223  207  162  103  62  45  22  -16  -48  -46  -19  -1  -15  -43  -55  -34  24  97  137  123  75  6  -74  -139  -164  -151  -113  -70  -31  34  167  339  479  547  546  483  361  211  80  -5  -53  -71  -50  40  195  344  407  376  310  240  152  58  5  31  156  340  479  479  318  82  -92  -153  -147  -129  -122  -131  -148  -164  -181  -209  -244  -267  -268  -256  -247  -230  -183  -103  3  118  206  256  272  273  276  280  271  255  249  269  309  327  304  296  331  348  339  306  231  278  598  954  1040  846  363  -440  -1364  -2145  -2567  -2358  -1399  46  1539  2752  3524  3863  3928  3870  3723  3451  3025  2452  1831  1292  860  518  289  152  13  -166  -332  -434  -474  -481  -483  -483  -449  -354  -236  -165  -161  -193  -235  -268  -300  -366  -479  -587  -583  -412  -193  -112  -200  -354  -487  -561  -585  -603  -627  -638  -629  -621  -659  -783  -993  -1242  -1461  -1589  -1621  -1603  -1588  -1634  -1788  -2016  -2213  -2314  -2331  -2298  -2225  -2124  -2038  -1999  -2013  -2059  -2079  -1952  -1567  -1023  -590  -415  -414  -444  -425  -350  -259  -194  -142  -62  45  137  185  202  214  229  259  324  415  479  477  422  366  355  378  402  413  412  395  353  292  230  182  152  142  167  243  340  380  299  116  -72  -162  -152  -137  -149  -136  -82  -15  27  26  -9  -54  -72  -44  10  63  105  143  188  255  327  357  302  175  51  -6  -7  3  16  34  54  63  55  34  7  -14  -16  20  99  191  252  265  258  271  328  412  478  501  479  412  323  254  223  217  224  258  330  409  453  441  373  285  229  213  211  208  215  262  358  449  460  390  299  218  148  99  79  77  73  61  52  66  117  205  309  386  411  396  366  330  301  288  284  270  247  247  304  408  471  438  375  355  367  376  366  346  321  276  210  116  -12  -143  -221  -224  -180  -152  -176  -211  -202  -156  -117  -107  -119  -137  -137  -76  77  278  425  478  476  464  457  457  463  474  480  452  394  373  394  351  249  204  201  214  321  510  679  663  216  -690  -1747  -2562  -2755  -2140  -867  751  2334  3544  4262  4562  4551  4252  3615  2661  1605  785  382  287  280  246  183  120  61  -12  -108  -207  -269  -271  -219  -147  -96  -84  -104  -142  -181  -203  -208  -236  -340  -520  -707  -845  -943  -1025  -1080  -1092  -1055  -989  -945  -955  -981  -988  -976  -951  -918  -885  -861  -877  -990  -1243  -1605  -1969  -2225  -2348  -2389  -2384  -2341  -2272  -2218  -2207  -2247  -2321  -2374  -2326  -2126  -1789  -1427  -1170  -1024  -915  -822  -762  -691  -536  -310  -107  23  99  134  143  155  185  226  283  375  482  550  570  566  557  544  533  553  587  549  417  283  217  209  216  217  215  236  302  391  453  470  464  460  462  464  463  445  375  243  114  58  62  75  103  196  372  565  665  631  535  432  313  191  123  129  167  188  195  205  199  157  114  135  216  291  315  298  257  191  88  -24  -80  -34  87  232  356  439  482  490  458  381  265  149  90  95  101  79  57  61  86  102  95  95  129  188  249  299  326  331  321  301  262  213  182  194  252  324  346  287  183  89  35  24  33  54  87  122  147  164  184  211  242  272  269  183  50  -19  -4  30  43  39  34  49  96  159  205  218  213  209  228  274  333  373  363  263  53  -206  -389  -424  -325  -153  7  99  126  122  118  125  129  79  -70  -283  -447  -500  -469  -393  -292  -186  -89  -4  89  216  354  448  480  476  454  408  313  200  192  325  432  406  319  224  111  49  152  417  748  1065  1184  784  -161  -1343  -2451  -3058  -2721  -1472  222  1887  3217  4023  4301  4217  3908  3455  2925  2323  1611  847  227  -95  -168  -140  -111  -105  -107  -100  -88  -101  -143  -178  -198  -260  -406  -566  -614  -539  -430  -346  -306  -311  -338  -370  -398  -425  -463  -503  -538  -583  -649  -725  -789  -817  -808  -795  -813  -865  -915  -929  -932  -1001  -1167  -1362  -1485  -1519  -1556  -1685  -1886  -2067  -2191  -2265  -2278  -2240  -2189  -2143  -2100  -2037  -1912  -1738  -1592  -1518  -1471  -1357  -1120  -769  -391  -101  56  131  169  179  163  144  146  188  284  413  523  584  612  642  663  641  617  656  734  791  802  776  732  681  623  568  517  460  407  380  378  386  394  394  377  333  274  221  180  147  137  164  213  261  311  392  497  581  623  639  654  678  687  644  522  320  78  -128  -255  -304  -273  -159  -1  151  262  317  327  320  313  302  273  237  222  269  404  589  734  785  747  633  479  331  185  43  -49  -67  -18  86  213  304  334  327  303  266  216  169  143  143  141  102  17  -76  -138  -126  -24  120  226  278  321  380  429  440  408  351  291  239  212  212  205  167  114  78  67  69  72  73  74  78  79  72  56  38  24  15  8  0  -14  -25  -13  41  119  127  18  -120  -190  -199  -191  -186  -186  -185  -175  -173  -230  -394  -605  -705  -604  -391  -216  -126  -57  40  154  239  278  275  237  169  92  42  50  126  240  342  410  431  374  242  109  27  -76  -189  -110  123  185  -168  -1043  -2200  -2918  -2621  -1354  423  2074  3071  3405  3451  3449  3376  3099  2532  1794  1125  667  423  322  267  203  123  47  0  -11  -2  8  -1  -55  -151  -252  -317  -341  -346  -351  -377  -451  -559  -637  -636  -571  -512  -510  -543  -566  -570  -572  -592  -629  -678  -732  -779  -805  -805  -781  -751  -759  -887  -1180  -1534  -1765  -1821  -1790  -1742  -1687  -1617  -1550  -1542  -1624  -1776  -1939  -2049  -2086  -2074  -2032  -1960  -1857  -1715  -1520  -1279  -1033  -835  -707  -645  -638  -653  -602  -389  -27  345  597  700  708  685  660  637  615  591  566  550  547  551  558  566  564  537  487  448  445  476  527  569  569  527  480  457  451  434  392  335  268  189  121  86  71  66  88  173  322  500  659  762  792  750  644  517  430  403  407  413  419  437  464  476  458  442  468  524  570  589  594  593  569  502  411  343  318  321  337  362  385  386  366  346  338  337  335  331  339  369  411  446  453  411  346  323  348  369  359  348  384  458  506  507  486  458  407  297  130  2  -33  -38  -36  19  125  243  349  416  425  388  328  263  204  180  218  300  382  436  449  402  267  61  -123  -220  -245  -241  -208  -112  33  150  184  159  122  87  54  21  -24  -100  -189  -229  -177  -68  21  51  43  33  31  32  18  -17  -51  -41  32  132  208  251  291  345  408  473  521  539  518  434  253  -20  -367  -822  -1467  -2280  -2915  -2829  -1832  -252  1392  2671  3429  3758  3807  3643  3292  2799  2102  1158  236  -358  -582  -527  -389  -371  -470  -583  -684  -764  -800  -788  -753  -733  -735  -719  -664  -599  -551  -520  -512  -566  -721  -929  -1079  -1123  -1106  -1083  -1074  -1081  -1103  -1132  -1154  -1165  -1164  -1143  -1089  -998  -891  -793  -745  -775  -837  -866  -865  -881  -934  -1008  -1087  -1190  -1327  -1451  -1516  -1528  -1521  -1516  -1512  -1497  -1466  -1415  -1343  -1241  -1098  -907  -675  -414  -118  192  435  547  558  533  519  555  664  810  916  952  946  934  928  922  908  893  900  922  908  837  734  666  727  906  1072  1146  1157  1146  1105  1002  840  666  504  355  246  208  250  361  491  576  577  489  342  197  105  72  71  79  83  88  116  210  381  530  532  405  272  212  237  327  423  467  438  340  214  123  82  51  9  -22  -19  23  81  119  129  137  178  248  292  276  235  213  213  212  194  167  139  107  80  73  86  108  122  124  122  127  152  196  242  250  208  167  170  209  297  453  610  680  619  419  158  -24  -83  -91  -121  -169  -179  -127  -76  -94  -155  -197  -179  -89  50  191  300  389  478  554  567  479  302  122  17  -9  -3  4  7  8  11  16  14  -3  -29  -32  4  55  78  55  -9  -120  -254  -354  -389  -382  -368  -371  -394  -412  -405  -401  -412  -375  -232  -23  152  230  232  223  240  269  290  313  392  540  642  538  291  123  100  146  187  145  5  -76  21  56  -334  -1191  -2205  -2834  -2555  -1312  463  2226  3534  4156  4218  4056  3812  3376  2732  2067  1492  960  495  225  167  202  227  205  130  -8  -198  -383  -513  -587  -610  -555  -423  -278  -190  -164  -165  -186  -245  -350  -468  -555  -595  -596  -574  -548  -549  -599  -672  -723  -737  -728  -712  -710  -763  -916  -1139  -1328  -1414  -1421  -1414  -1431  -1472  -1511  -1530  -1560  -1681  -1939  -2235  -2386  -2319  -2145  -2021  -1990  -2006  -2027  -2039  -2021  -1944  -1805  -1631  -1455  -1278  -1054  -749  -422  -186  -85  -72  -85  -99  -119  -149  -180  -197  -167  -24  266  600  786  752  579  379  241  179  136  86  62  99  205  336  437  481  460  405  379  392  402  385  350  315  282  251  229  218  214  210  208  209  224  263  308  311  230  93  -25  -76  -63  -6  63  111  128  129  131  134  135  135  134  134  141  153  158  127  59  -4  -20  28  120  172  129  46  0  -4  12  53  141  267  408  572  742  823  730  493  245  101  68  103  176  259  307  301  268  251  269  308  338  350  352  357  373  394  397  361  293  215  143  80  24  -34  -78  -61  42  189  301  335  306  254  204  165  143  157  239  390  543  623  613  553  489  433  376  326  333  420  529  590  594  567  519  442  324  216  179  204  234  253  271  305  358  397  384  302  131  -113  -343  -478  -521  -496  -397  -235  -75  25  67  98  151  209  257  292  286  248  235  258  294  346  430  529  560  418  123  -68  41  327  562  637  542  397  397  619  867  764  39  -1223  -2555  -3286  -2920  -1496  369  1960  3006  3621  3944  4048  3927  3519  2869  2160  1542  1055  671  386  231  193  208  232  248  227  114  -102  -344  -505  -559  -549  -505  -429  -336  -270  -257  -298  -393  -545  -706  -776  -745  -677  -607  -555  -543  -565  -618  -717  -868  -1030  -1137  -1174  -1176  -1174  -1177  -1183  -1187  -1189  -1185  -1179  -1184  -1233  -1366  -1604  -1908  -2182  -2340  -2379  -2359  -2317  -2267  -2220  -2190  -2158  -2077  -1923  -1716  -1473  -1202  -948  -776  -689  -622  -531  -430  -353  -302  -234  -127  -6  95  178  247  303  338  350  350  353  358  352  330  301  288  307  347  379  385  376  380  433  527  574  511  379  243  128  53  25  32  79  178  305  415  481  498  456  357  228  115  53  58  111  166  201  221  237  247  238  198  124  49  22  46  84  116  148  182  212  234  263  309  376  451  505  522  514  483  420  339  276  242  220  198  191  226  308  409  498  532  492  421  373  353  350  351  342  314  274  247  239  233  211  173  117  31  -73  -150  -171  -133  -49  42  100  115  110  108  117  135  157  189  230  258  239  151  21  -91  -156  -170  -143  -97  -58  -47  -75  -123  -157  -173  -207  -277  -320  -246  -75  71  121  87  -5  -162  -381  -591  -686  -595  -333  7  299  462  510  506  498  492  468  418  359  283  173  63  -8  -59  -100  -100  21  305  607  690  401  -281  -1237  -2179  -2688  -2390  -1286  219  1686  2813  3431  3594  3495  3240  2867  2452  2064  1704  1319  888  499  255  165  155  161  165  174  179  157  109  60  -9  -149  -336  -472  -513  -499  -475  -462  -475  -527  -593  -617  -562  -464  -389  -362  -364  -372  -385  -408  -442  -469  -452  -376  -303  -354  -581  -876  -1105  -1252  -1353  -1430  -1502  -1589  -1688  -1759  -1773  -1752  -1733  -1731  -1756  -1803  -1835  -1818  -1766  -1711  -1648  -1552  -1434  -1341  -1280  -1208  -1078  -865  -580  -281  -52  57  73  60  71  126  198  244  254  271  332  404  421  388  361  343  303  228  157  158  257  412  562  651  672  663  654  639  577  430  238  87  6  -31  -39  -32  -24  -16  -4  4  24  84  186  289  350  364  340  279  200  144  140  182  241  281  290  281  279  312  395  496  563  573  538  480  404  298  175  84  46  56  124  264  448  621  735  745  656  549  494  474  427  322  208  144  129  133  139  141  139  134  138  175  263  378  476  548  606  656  710  771  780  652  425  234  148  133  142  151  146  127  108  103  111  117  99  34  -69  -180  -260  -272  -196  -69  41  101  119  113  101  90  84  82  92  122  167  208  239  274  309  328  347  411  501  499  352  215  212  241  193  111  64  46  -124  -709  -1689  -2667  -3102  -2612  -1237  518  2050  3115  3782  4093  4047  3694  3149  2576  2035  1473  912  462  170  2  -88  -134  -153  -156  -152  -148  -147  -147  -147  -144  -139  -137  -153  -199  -264  -322  -362  -401  -458  -535  -593  -592  -525  -430  -365  -359  -389  -427  -464  -500  -538  -593  -680  -777  -859  -931  -1008  -1109  -1273  -1490  -1677  -1773  -1797  -1787  -1758  -1733  -1757  -1875  -2075  -2269  -2374  -2373  -2297  -2182  -2061  -1945  -1821  -1672  -1507  -1353  -1222  -1090  -896  -621  -314  -54  120  227  287  290  240  176  140  150  208  329  522  721  815  766  615  430  279  203  190  216  302  475  651  704  641  553  465  381  303  216  134  69  -1  -81  -129  -98  24  204  386  511  573  616  662  688  682  666  655  640  596  511  411  340  307  301  309  300  269  248  256  289  323  339  351  385  444  500  533  553  540  469  383  336  319  285  185  15  -157  -244  -199  -61  81  180  239  252  242  244  241  239  276  343  423  506  528  438  280  144  82  72  68  68  95  129  125  76  16  -27  -51  -58  -37  30  134  225  267  272  264  259  262  272  282  275  226  122  -4  -95  -130  -127  -103  -59  -2  29  3  -60  -135  -226  -313  -346  -283  -106  131  342  485  571  605  599  572  519  423  301  215  206  268  354  415  436  437  433  411  344  166  -231  -902  -1717  -2430  -2741  -2365  -1301  161  1720  3088  4089  4725  4939  4670  4013  3096  2086  1221  642  308  160  159  197  192  148  67  -62  -217  -346  -413  -436  -463  -510  -540  -520  -455  -362  -249  -135  -46  -8  -30  -102  -213  -334  -411  -435  -454  -521  -622  -706  -752  -775  -789  -786  -769  -749  -748  -796  -926  -1131  -1333  -1444  -1459  -1449  -1465  -1528  -1651  -1811  -1954  -2063  -2172  -2293  -2388  -2418  -2387  -2327  -2281  -2257  -2176  -1908  -1456  -1004  -700  -497  -288  -64  104  184  200  188  156  98  25  -26  -11  101  288  463  559  579  553  493  412  343  313  326  359  401  447  489  508  459  306  99  -38  -36  66  187  260  281  276  267  258  243  219  197  172  116  9  -97  -113  -37  55  130  199  279  343  337  261  148  46  26  105  207  265  283  284  273  231  136  25  -22  28  139  250  321  346  331  266  148  15  -78  -123  -143  -147  -109  -7  139  264  321  320  290  256  222  184  146  104  56  22  11  22  75  159  224  243  224  183  144  124  117  111  110  136  212  313  382  395  383  371  355  314  232  130  57  33  37  42  38  31  28  31  32  9  -55  -160  -270  -322  -276  -154  -10  109  176  193  178  133  53  -62  -197  -317  -389  -406  -385  -348  -303  -245  -179  -126  -73  12  124  219  271  290  305  332  359  383  404  402  380  379  408  439  448  446  462  511  539  472  323  170  25  -215  -689  -1424  -2255  -2878  -2875  -1915  -147  1863  3576  4651  5021  4891  4527  4079  3541  2795  1812  814  97  -212  -161  87  331  441  413  331  241  112  -57  -202  -277  -304  -331  -364  -381  -379  -369  -357  -347  -339  -335  -331  -323  -318  -344  -428  -556  -679  -792  -920  -1071  -1207  -1269  -1235  -1153  -1086  -1053  -1041  -1057  -1129  -1251  -1366  -1419  -1411  -1387  -1396  -1467  -1610  -1809  -2012  -2159  -2219  -2170  -1987  -1735  -1549  -1499  -1537  -1550  -1451  -1219  -910  -645  -513  -488  -487  -430  -254  29  303  448  460  421  383  351  324  318  350  416  499  575  622  638  640  637  615  558  487  440  432  438  423  364  277  210  186  209  274  358  417  433  430  443  495  565  611  623  619  614  615  633  686  763  805  776  721  698  703  684  591  435  300  250  281  359  443  523  609  680  708  681  598  485  390  335  319  340  384  441  500  537  535  501  460  421  349  223  100  38  -9  -79  -124  -96  -16  76  172  257  296  275  222  182  171  180  187  166  96  -3  -97  -178  -253  -309  -333  -332  -317  -287  -245  -192  -126  -55  -12  -9  -9  7  18  7  -19  -45  -58  -67  -75  -74  -72  -90  -137  -204  -276  -338  -387  -419  -413  -370  -322  -304  -320  -345  -334  -248  -75  123  258  301  296  280  255  211  162  129  118  119  132  159  190  202  189  158  114  57  -7  -65  -130  -286  -661  -1326  -2117  -2578  -2298  -1234  419  2319  3883  4705  4824  4316  3364  2422  1720  1256  1073  1023  836  514  249  126  83  41  -10  -86  -226  -401  -515  -519  -460  -406  -386  -401  -447  -511  -561  -580  -576  -557  -526  -492  -469  -467  -486  -523  -581  -662  -731  -740  -682  -582  -472  -407  -410  -473  -626  -879  -1179  -1441  -1603  -1661  -1659  -1645  -1641  -1654  -1682  -1727  -1799  -1905  -2019  -2099  -2137  -2165  -2199  -2178  -2002  -1651  -1250  -949  -783  -681  -565  -433  -343  -323  -349  -367  -334  -245  -125  -13  58  100  141  175  170  130  104  147  268  409  501  529  528  527  537  548  523  410  218  56  27  121  243  328  377  421  472  514  539  549  544  515  450  360  278  237  243  280  318  338  347  355  351  307  222  146  126  153  187  205  210  209  207  205  201  197  208  252  330  418  487  511  487  440  396  373  373  372  320  198  57  -26  -37  -7  27  45  52  75  132  198  234  223  179  136  116  115  116  116  125  153  191  218  226  223  220  218  208  177  117  50  33  121  298  464  527  491  412  324  216  85  -37  -123  -173  -190  -172  -123  -59  -6  -3  -40  -56  -20  27  32  -6  -42  -44  -20  9  47  96  148  194  221  222  200  184  237  410  620  702  656  589  491  403  416  422  314  227  225  95  -409  -1330  -2426  -3207  -3120  -1939  -57  1829  3307  4233  4567  4504  4295  3903  3192  2281  1478  946  633  434  279  145  41  -15  -32  -28  -15  -2  -17  -100  -260  -436  -546  -566  -515  -414  -300  -225  -221  -279  -359  -415  -431  -425  -418  -426  -472  -580  -730  -847  -889  -890  -901  -947  -1023  -1119  -1240  -1364  -1448  -1495  -1551  -1628  -1703  -1766  -1821  -1864  -1908  -1964  -2002  -1991  -1964  -1968  -2002  -2045  -2070  -2072  -2066  -2034  -1915  -1701  -1464  -1265  -1100  -943  -779  -605  -440  -326  -279  -266  -224  -108  76  264  381  420  424  420  408  384  369  394  461  535  550  479  383  318  264  176  47  -54  -32  139  412  696  863  853  734  591  484  430  406  392  386  387  390  389  388  388  389  371  317  244  196  201  255  328  386  413  421  420  408  376  334  305  300  308  311  296  263  224  195  185  195  238  324  424  480  472  435  410  395  381  365  353  336  305  268  243  234  229  222  229  281  370  446  477  475  464  446  411  367  331  291  218  120  43  13  14  23  34  60  111  150  119  20  -63  -57  55  215  327  350  308  250  208  190  182  185  207  240  262  265  257  235  184  113  53  30  36  45  57  81  103  75  -36  -191  -294  -292  -223  -189  -253  -354  -378  -263  -51  154  291  373  429  460  466  448  353  133  -129  -261  -191  -17  118  192  306  494  578  394  83  -54  114  471  790  915  788  427  -137  -970  -2048  -3012  -3295  -2525  -890  1008  2618  3631  4031  4086  4057  3919  3453  2597  1670  1039  717  511  331  205  143  111  87  79  81  44  -63  -218  -390  -550  -653  -676  -637  -575  -519  -477  -451  -450  -483  -538  -564  -531  -473  -423  -378  -332  -306  -350  -500  -715  -889  -968  -975  -959  -973  -1067  -1237  -1413  -1529  -1574  -1575  -1560  -1548  -1557  -1604  -1673  -1723  -1737  -1732  -1727  -1745  -1800  -1885  -1977  -2056  -2088  -2058  -2017  -1998  -1937  -1696  -1206  -630  -243  -123  -136  -149  -128  -88  -18  106  262  374  402  354  260  160  95  76  88  107  123  143  179  211  203  171  180  266  393  488  502  440  341  246  180  143  124  125  152  198  236  249  255  270  289  302  309  314  310  283  252  235  233  232  219  188  157  145  150  154  153  158  183  226  267  297  328  361  378  353  267  149  70  57  70  66  42  25  41  87  130  142  132  116  103  93  74  47  24  18  31  56  85  114  136  140  144  196  323  449  444  290  116  56  132  253  338  384  406  398  360  323  318  333  333  318  319  327  266  129  23  35  127  161  54  -110  -210  -195  -83  40  119  181  263  368  482  568  589  538  446  382  375  375  343  293  237  184  152  145  150  157  176  233  332  446  542  576  498  294  48  -124  -186  -188  -184  -182  -158  -107  -58  -33  -32  -43  -59  -60  -13  107  263  375  412  409  402  398  386  373  377  387  382  364  319  268  312  423  431  350  343  432  481  248  -458  -1537  -2634  -3254  -2906  -1588  149  1762  2975  3682  3953  3973  3832  3466  2830  2038  1321  848  588  416  272  156  70  4  -59  -120  -174  -241  -323  -397  -444  -464  -470  -472  -459  -410  -331  -263  -240  -243  -235  -192  -118  -46  -51  -211  -487  -726  -834  -827  -771  -719  -687  -674  -698  -778  -888  -967  -995  -1007  -1042  -1120  -1231  -1348  -1463  -1602  -1775  -1943  -2059  -2120  -2148  -2162  -2173  -2192  -2229  -2276  -2307  -2263  -2099  -1823  -1472  -1117  -859  -716  -628  -576  -574  -590  -586  -560  -498  -374  -179  56  273  411  461  463  455  450  442  416  355  255  155  130  212  330  395  395  374  358  334  287  227  171  130  126  177  269  361  418  418  378  332  302  285  276  269  253  231  221  236  253  243  213  187  179  182  185  182  175  178  202  245  281  291  300  337  387  402  346  230  108  36  57  190  382  529  587  569  493  391  311  273  265  270  274  269  244  194  137  86  51  57  111  173  209  216  207  213  239  268  346  508  651  639  446  175  -19  -71  -23  72  175  244  266  260  244  222  203  195  193  180  162  179  259  353  394  383  363  358  360  351  318  265  198  112  9  -77  -126  -136  -111  -48  34  93  111  102  89  81  74  94  185  334  473  542  524  453  380  334  315  314  322  337  348  330  246  98  5  95  259  308  241  119  23  90  244  113  -546  -1528  -2328  -2431  -1587  -92  1416  2516  3183  3554  3711  3648  3332  2810  2214  1655  1193  863  665  570  531  484  378  233  111  41  -2  -63  -152  -241  -296  -311  -298  -269  -241  -220  -207  -216  -260  -319  -357  -364  -371  -419  -527  -677  -829  -943  -1001  -1018  -1015  -989  -942  -904  -910  -972  -1077  -1188  -1262  -1291  -1304  -1347  -1455  -1606  -1732  -1795  -1822  -1853  -1913  -2001  -2095  -2167  -2207  -2227  -2242  -2238  -2172  -2020  -1833  -1692  -1600  -1459  -1188  -816  -457  -172  39  146  127  55  23  70  165  247  287  302  301  295  317  384  463  512  529  538  551  552  511  412  274  165  167  271  386  442  424  375  354  338  269  184  139  118  97  86  99  134  173  193  196  198  212  235  239  198  135  103  96  67  24  2  5  14  18  17  15  16  27  58  106  160  210  224  165  60  2  38  114  155  165  186  195  153  89  74  130  208  253  260  250  243  240  236  217  177  133  140  223  325  373  327  165  -77  -286  -352  -259  -67  135  269  314  310  282  230  163  109  90  121  214  338  409  363  208  28  -85  -92  2  171  362  515  579  549  460  329  176  82  122  274  438  521  504  439  379  326  271  234  236  257  260  230  185  142  96  54  33  44  87  142  182  196  193  187  180  180  207  275  365  430  451  447  442  444  453  443  384  305  272  271  247  209  186  223  377  557  550  189  -565  -1511  -2304  -2636  -2261  -1135  443  2016  3223  3909  4148  4111  3881  3447  2834  2160  1553  1048  618  278  64  -23  -25  11  43  69  114  161  157  72  -63  -186  -272  -342  -390  -401  -393  -389  -396  -405  -422  -456  -492  -503  -457  -328  -170  -80  -80  -125  -171  -185  -166  -163  -282  -588  -972  -1233  -1314  -1337  -1422  -1566  -1695  -1767  -1774  -1736  -1692  -1684  -1758  -1896  -2015  -2071  -2085  -2094  -2115  -2148  -2155  -2051  -1775  -1387  -1040  -839  -761  -712  -627  -496  -367  -285  -235  -163  -61  45  156  269  353  394  417  434  421  361  269  190  159  182  234  282  306  312  315  321  302  228  122  53  60  125  200  246  258  257  272  303  316  287  242  218  222  229  200  108  -16  -100  -108  -61  -10  28  86  192  314  392  409  392  362  317  268  252  299  393  473  493  463  416  360  289  217  169  153  154  159  170  189  209  235  286  356  405  416  405  394  385  365  326  270  221  204  229  277  310  304  271  242  211  137  55  40  82  116  123  118  124  155  202  244  267  271  275  300  305  248  178  152  150  137  108  78  50  14  -25  -48  -32  19  62  58  30  20  29  43  61  89  129  185  245  277  258  188  65  -106  -283  -401  -445  -426  -323  -93  253  593  754  700  554  433  374  358  340  289  196  66  -87  -260  -471  -690  -797  -725  -523  -270  -49  70  97  96  128  210  295  305  242  187  163  126  67  6  -37  -61  -68  -39  55  187  283  305  269  214  213  355  526  395  -213  -1215  -2410  -3270  -3124  -1897  -77  1826  3369  4266  4579  4537  4230  3644  2875  2103  1414  851  492  330  247  143  18  -68  -92  -82  -72  -78  -111  -170  -232  -270  -275  -260  -238  -221  -211  -210  -231  -301  -431  -576  -653  -642  -615  -631  -665  -668  -636  -596  -572  -572  -607  -691  -822  -974  -1138  -1293  -1393  -1421  -1411  -1397  -1407  -1458  -1553  -1688  -1850  -1998  -2086  -2113  -2112  -2116  -2137  -2146  -2056  -1790  -1427  -1162  -1071  -1077  -1092  -1082  -1047  -995  -937  -870  -760  -551  -250  43  232  309  326  328  333  344  368  419  493  570  620  638  626  573  471  337  221  176  223  317  397  448  486  503  484  448  413  367  311  271  261  266  272  280  305  341  335  230  48  -110  -165  -112  -16  64  139  260  426  568  633  618  539  432  343  297  280  257  204  136  90  68  51  36  31  45  80  131  205  314  434  516  536  507  451  393  354  337  333  330  315  282  245  226  234  253  262  257  264  301  354  392  388  332  248  183  164  188  243  297  316  299  270  244  226  216  211  207  214  248  321  405  443  403  328  281  270  271  266  262  268  290  321  350  369  375  343  245  102  -18  -74  -76  -46  24  106  114  49  -11  -46  -51  -10  50  88  104  120  153  200  238  258  277  312  352  360  301  198  110  75  79  104  148  219  319  440  519  506  494  598  744  740  573  456  469  383  -21  -818  -1937  -2943  -3171  -2346  -790  953  2460  3492  4015  4174  4088  3719  3021  2155  1410  917  573  266  22  -113  -161  -159  -140  -124  -108  -104  -161  -323  -537  -692  -747  -746  -726  -672  -558  -408  -290  -239  -246  -294  -379  -497  -621  -702  -712  -659  -578  -503  -458  -458  -523  -642  -770  -865  -927  -969  -988  -989  -1021  -1157  -1420  -1719  -1921  -1990  -1984  -1966  -1952  -1937  -1912  -1886  -1875  -1857  -1788  -1673  -1575  -1531  -1523  -1519  -1484  -1394  -1238  -1037  -846  -693  -537  -324  -74  130  244  299  336  371  405  449  496  534  565  585  581  536  423  251  88  0  -5  56  161  285  404  488  515  497  463  438  421  392  336  271  231  230  245  254  253  249  247  242  239  267  335  407  450  454  414  327  211  100  26  7  41  90  108  86  58  65  128  225  315  370  392  399  400  389  346  285  279  373  497  568  581  570  552  528  493  437  348  246  185  190  233  274  305  347  407  467  497  452  309  116  -36  -109  -127  -130  -127  -78  55  237  371  419  418  410  403  383  344  299  257  207  159  128  116  131  182  247  289  257  117  -87  -261  -357  -397  -402  -352  -217  -31  114  176  181  170  167  190  253  345  430  474  479  458  416  361  318  315  340  360  381  417  408  244  -106  -582  -1150  -1842  -2495  -2618  -1811  -241  1574  3190  4287  4728  4657  4318  3820  3150  2272  1271  408  -98  -241  -120  113  244  174  24  -69  -99  -109  -120  -134  -154  -187  -240  -308  -372  -412  -423  -422  -421  -424  -421  -410  -399  -395  -392  -380  -358  -353  -388  -439  -472  -512  -612  -755  -843  -839  -834  -909  -1035  -1146  -1222  -1272  -1327  -1425  -1580  -1756  -1899  -1972  -1984  -1969  -1951  -1932  -1899  -1850  -1814  -1809  -1801  -1757  -1660  -1472  -1188  -879  -638  -500  -430  -381  -326  -247  -142  -32  63  131  158  164  212  355  554  708  765  761  742  725  700  662  624  594  563  532  513  505  482  409  282  134  -1  -103  -151  -113  26  217  353  376  307  206  137  135  193  276  339  359  335  268  186  145  171  232  266  252  218  181  131  69  29  45  104  127  69  1  5  67  123  143  143  145  160  188  222  251  259  214  100  -28  -106  -136  -144  -115  -32  108  263  345  336  298  279  279  267  213  122  39  0  0]
