reading_id,reading_time,wire_id,result_classification,heart_rate,heart_rate_alert,firmware_version,device_app_version,hardware_version,waveform_samples
830bac30-63c9-11ed-8080-808080808080,Mon Nov 14 03:07:45 UTC 2022,a101e3b72739,NSR,64,NONE,20001.171.50,2.10.0,Charge 5,[-16387  -16508  -16466  -16008  -15037  -13905  -13168  -13125  -13773  -14851  -15855  -16375  -16313  -15752  -14943  -14275  -13957  -13874  -13847  -13822  -13813  -13811  -13769  -13639  -13448  -13249  -13040  -12797  -12467  -11921  -11174  -10464  -9903  -9221  -7882  -5506  -2320  921  3554  5610  7817  10996  15502  20854  25817  29177  30411  29744  27844  25414  22959  20685  18594  16814  15594  14988  14825  14874  14975  15093  15352  15992  17078  18291  19236  19795  20098  20331  20583  20827  21042  21225  21339  21376  21379  21377  21347  21247  21157  21477  22813  25457  29270  32767  32767  32767  32767  32767  32767  32767  32767  32767  32767  32767  32767  32767  32767  32767  32767  32767  32767  32767  32767  32767  32767  32767  32767  32767  31502  29461  27591  26174  25390  25114  24942  24520  23777  22962  22368  22059  21941  21918  21942  22011  22120  22201  22072  21544  20671  19756  19020  18392  17613  16493  15029  13405  11988  11031  10395  9826  9235  8563  7768  7017  6574  6502  6689  7024  7460  7988  8550  9037  9388  9667  9971  10239  10275  10025  9618  9192  8789  8401  8023  7660  7309  7008  6821  6742  6718  6774  7017  7471  7951  8221  8253  8199  8194  8245  8295  8333  8356  8257  7877  7201  6391  5628  4994  4415  3686  2700  1568  186  -2123  -5874  -10582  -15335  -19651  -23379  -26441  -28754  -30206  -30880  -31064  -31030  -30950  -30947  -31128  -31585  -32382  -32768  -32768  -32768  -32768  -32768  -32768  -32768  -32768  -32768  -32768  -32768  -32768  -32768  -32768  -32768  -32768  -32768  -32768  -32768  -32768  -32768  -32768  -32768  -32768  -32768  -32768  -32768  -32768  -32316  -31887  -31511  -31134  -30701  -30178  -29623  -29179  -28881  -28594  -28157  -27564  -27004  -26670  -26566  -26513  -26293  -25777  -25005  -24125  -23259  -22500  -21898  -21334  -20666  -20005  -19591  -19437  -19354  -19203  -18970  -18689  -18370  -17926  -17200  -16116  -14852  -13733  -12957  -12407  -11683  -10473  -8847  -7116  -5558  -4259  -2945  -1205  960  3318  5960  9161  13146  17966  23171  28109  32585  32767  32767  32767  32767  32767  32767  32767  32767  32767  32767  30159  26051  22342  19140  16508  14227  12117  10305  8873  7775  7080  6814  6795  6823  6824  6811  6856  7118  7763  8735  9761  10702  11634  12514  13097  13257  13100  12702  11908  10522  8681  6896  5575  4675  3956  3360  2911  2453  1821  1104  528  193  -24  -328  -808  -1370  -1848  -2177  -2400  -2591  -2814  -3123  -3618  -4397  -5336  -6093  -6472  -6576  -6611  -6706  -6910  -7236  -7645  -8046  -8380  -8613  -8689  -8560  -8280  -7991  -7804  -7704  -7610  -7489  -7367  -7273  -7207  -7129  -6972  -6709  -6382  -6054  -5760  -5525  -5370  -5263  -5149  -5038  -4955  -4798  -4420  -3899  -3505  -3365  -3378  -3423  -3457  -3461  -3388  -3189  -2895  -2610  -2377  -2149  -1924  -1774  -1741  -1787  -1857  -1913  -1945  -1934  -1819  -1531  -1097  -804  -1022  -1651  -2086  -1717  -367  1558  3343  4360  4416  3775  2722  1362  -396  -2545  -4447  -5256  -4740  -3316  -1638  -233  662  1076  1229  1364  1577  1798  1887  1774  1579  1551  1850  2379  2879  3160  3229  3210  3200  3221  3240  3246  3307  3507  3846  4253  4641  4908  4967  4823  4593  4418  4331  4287  4287  4355  4453  4523  4559  4593  4641  4698  4753  4839  4995  5177  5350  5528  5661  5654  5502  5347  5354  5519  5685  5762  5767  5714  5562  5310  5046  4859  4765  4719  4620  4312  3705  2968  2424  2192  2118  2022  1873  1739  1671  1669  1698  1728  1747  1756  1743  1684  1565  1405  1237  1086  981  929  890  815  727  705  804  983  1079  950  656  381  238  212  231  246  271  349  485  616  636  483  207  -71  -271  -370  -402  -416  -432  -440  -424  -385  -352  -354  -386  -434  -488  -522  -520  -495  -477  -483  -490  -491  -527  -641  -792  -878  -862  -804  -771  -783  -828  -878  -919  -963  -1023  -1123  -1302  -1536  -1710  -1709  -1480  -1116  -886  -951  -1168  -1349  -1463  -1515  -1425  -1096  -595  -152  86  130  -25  -427  -975  -1412  -1572  -1463  -1165  -803  -504  -303  -179  -156  -266  -454  -613  -683  -654  -536  -380  -285  -306  -422  -589  -763  -881  -902  -854  -792  -740  -697  -680  -745  -938  -1204  -1418  -1487  -1336  -917  -366  39  172  136  94  119  192  301  436  527  508  358  104  -152  -306  -349  -345  -336  -321  -276  -187  -12  404  1285  2635  4071  5049  5116  4078  2205  87  -1878  -3508  -4517  -4723  -4242  -3235  -1962  -841  -130  212  352  416  467  519  569  623  679  723  748  774  827  903  968  997  970  855  659  450  301  234  227  231  181  29  -205  -435  -593  -690  -756  -803  -823  -788  -649  -407  -143  64  203  278  289  243  172  101  48  45  101  224  428  636  754  807  864  961  1102  1271  1492  1784  2062  2216  2207  2059  1816  1487  1031  514  114  -104  -244  -389  -559  -770  -1019  -1240  -1365  -1386  -1324  -1173  -952  -721  -542  -440  -395  -392  -439  -532  -637  -719  -762  -773  -778  -807  -877  -982  -1091  -1170  -1219  -1269  -1358  -1475  -1534  -1459  -1294  -1135  -1034  -983  -961  -957  -980  -1039  -1110  -1146  -1117  -996  -772  -545  -490  -686  -1005  -1244  -1350  -1391  -1358  -1182  -907  -666  -539  -530  -593  -655  -675  -684  -746  -879  -1007  -1022  -937  -858  -823  -759  -604  -442  -434  -587  -745  -815  -823  -812  -773  -678  -561  -517  -605  -766  -877  -881  -806  -708  -629  -599  -631  -700  -767  -795  -728  -509  -180  128  323  395  383  360  415  594  842  1036  1112  1099  1035  920  758  593  475  422  411  409  410  444  542  671  746  712  611  539  541  572  587  618  736  908  957  868  826  837  884  1213  2032  3247  4444  5023  4604  3237  1299  -666  -2264  -3490  -4357  -4616  -4105  -2971  -1623  -562  -7  212  321  392  430  463  553  727  923  1054  1106  1115  1068  906  631  359  205  166  165  169  210  304  360  296  174  104  139  266  430  592  750  864  885  827  754  733  774  868  1039  1282  1502  1613  1624  1597  1592  1659  1796  1869  1731  1468  1290  1234  1216  1229  1351  1632  1990  2261  2365  2328  2202  1992  1694  1349  1006  674  356  98  -51  -102  -102  -94  -112  -170  -239  -261  -228  -190  -214  -333  -500  -625  -666  -653  -616  -573  -547  -565  -643  -756  -852  -911  -921  -844  -652  -440  -400  -613  -919  -1091  -1051  -869  -693  -612  -574  -494  -371  -245  -111  20  75  42  0  -18  -112  -382  -759  -1046  -1157  -1149  -1065  -894  -678  -519  -457  -450  -474  -545  -671  -809  -886  -875  -817  -769  -747  -730  -715  -738  -829  -954  -1014  -916  -688  -464  -335  -268  -180  -10  216  411  509  510  441  322  179  59  24  103  246  369  443  464  407  253  26  -194  -312  -311  -271  -253  -220  -98  131  389  568  628  597  526  469  447  419  336  208  102  60  71  108  147  177  184  149  78  16  -11  -24  -44  -79  -106  -50  164  441  476  117  -351  -518  -184  730  2031  3080  3358  2855  1772  431  -742  -1673  -2601  -3448  -3787  -3473  -2765  -1965  -1255  -704  -310  -76  4  0  -9  2  24  52  109  209  309  356  362  381  453  567  668  710  686  618  530  448  411  443  516  591  646  656  578  389  143  -30  -26  184  527  867  1128  1305  1400  1426  1418  1400  1383  1385  1455  1634  1874  2062  2141  2144  2115  2053  1930  1759  1617  1556  1559  1590  1625  1621  1478  1119  647  295  164  166  205  262  326  294  31  -413  -810  -1010  -1052  -1037  -1027  -1030  -1029  -1007  -964  -914  -873  -847  -833  -824  -808  -774  -722  -640  -499  -324  -212  -240  -393  -576  -698  -744  -763  -816  -941  -1113  -1250  -1300  -1232  -1027  -753  -562  -551  -698  -882  -969  -938  -875  -843  -853  -909  -1026  -1194  -1350  -1436  -1456  -1448  -1432  -1402  -1356  -1309  -1275  -1265  -1271  -1251  -1150  -968  -776  -685  -749  -891  -1021  -1135  -1214  -1222  -1180  -1121  -1076  -1070  -1082  -1049  -908  -679  -463  -342  -322  -382  -491  -620  -759  -873  -917  -881  -778  -655  -563  -535  -574  -651  -730  -813  -916  -1006  -1026  -967  -841  -624  -324  -35  162  278  348  379  324  120  -201  -489  -619  -584  -455  -330  -241  -135  50  348  705  983  1104  1096  1006  849  653  504  449  419  369  330  314  304  292  286  309  362  393  355  278  214  165  99  -11  -163  -302  -391  -475  -600  -729  -750  -462  294  1389  2547  3577  4185  4007  3002  1443  -417  -2292  -3697  -4255  -4123  -3744  -3279  -2667  -1991  -1414  -935  -462  -9  326  511  590  612  606  586  573  598  672  751  792  808  804  748  624  485  397  370  370  378  400  438  447  391  300  224  190  185  171  146  141  181  326  648  1102  1507  1731  1835  1968  2152  2286  2302  2226  2123  2013  1869  1708  1607  1625  1759  1946  2093  2167  2193  2216  2255  2281  2196  1929  1544  1159  781  392  74  -93  -140  -138  -121  -95  -84  -153  -367  -672  -918  -1027  -1025  -952  -819  -663  -572  -569  -557  -478  -391  -349  -338  -341  -375  -471  -609  -722  -763  -703  -516  -239  25  197  244  161  -6  -172  -278  -319  -303  -206  -21  186  326  371  328  187  -40  -296  -513  -669  -795  -915  -998  -1023  -1009  -980  -928  -812  -596  -315  -68  71  100  58  3  -21  -19  -13  -4  12  25  -5  -125  -314  -492  -608  -654  -643  -606  -558  -496  -414  -310  -201  -122  -54  62  238  401  451  307  13  -223  -265  -181  -104  -106  -181  -277  -344  -369  -355  -284  -140  38  186  274  315  321  279  182  64  -22  -64  -72  -69  -89  -168  -292  -401  -466  -511  -554  -593  -616  -600  -506  -321  -106  39  90  106  125  107  21  -51  -40  -9  -26  -84  -166  -266  -399  -589  -794  -932  -967  -930  -877  -822  -738  -631  -538  -466  -361  -216  -208  -569  -1212  -1552  -954  682  2872  4735  5267  4146  2049  -187  -2085  -3400  -4127  -4411  -4357  -4004  -3418  -2760  -2181  -1652  -1034  -329  258  556  605  546  459  391  418  596  856  1051  1127  1128  1080  958  762  549  383  312  343  415  451  452  462  490  512  504  463  400  344  318  320  349  419  516  586  603  605  659  826  1120  1464  1744  1900  1970  2037  2135  2225  2270  2285  2289  2266  2188  2051  1908  1829  1813  1778  1646  1430  1195  934  616  301  83  -21  -33  34  141  204  154  16  -112  -174  -181  -170  -156  -142  -145  -197  -292  -375  -396  -338  -220  -102  -39  -27  -41  -74  -140  -254  -383  -445  -387  -242  -85  26  62  22  -51  -106  -125  -124  -118  -107  -89  -80  -101  -144  -180  -193  -197  -206  -216  -203  -144  -58  9  34  16  -43  -136  -248  -355  -388  -288  -94  93  179  123  5  -90  -184  -291  -384  -451  -491  -506  -506  -486  -436  -366  -308  -278  -271  -283  -322  -380  -414  -360  -192  42  250  354  318  122  -185  -466  -610  -625  -566  -468  -352  -246  -202  -243  -317  -383  -471  -587  -696  -778  -811  -758  -602  -365  -102  103  202  204  141  27  -138  -322  -451  -485  -459  -421  -392  -376  -382  -431  -531  -638  -675  -595  -447  -381  -518  -767  -793  -331  526  1587  2773  3745  3963  3291  1883  -157  -2455  -4363  -5486  -5768  -5376  -4573  -3565  -2573  -1809  -1289  -866  -448  -107  58  79  58  46  35  21  3  -27  -83  -183  -320  -436  -492  -490  -422  -257  31  404  727  894  928  919  916  920  937  974  1013  1018  934  741  521  441  616  983  1332  1517  1587  1685  1878  2129  2363  2514  2564  2539  2464  2365  2302  2347  2539  2807  2998  3032  2944  2815  2672  2438  2044  1593  1265  1098  979  782  483  180  -4  -54  -37  -8  19  19  -54  -194  -318  -378  -405  -428  -445  -449  -443  -434  -423  -408  -396  -399  -418  -443  -462  -492  -573  -707  -845  -939  -967  -935  -865  -792  -740  -697  -644  -587  -531  -464  -412  -423  -511  -630  -708  -701  -623  -517  -421  -333  -226  -120  -109  -266  -528  -744  -827  -788  -670  -515  -373  -277  -232  -240  -355  -628  -983  -1233  -1267  -1116  -903  -749  -689  -679  -684  -691  -692  -655  -548  -398  -266  -177  -120  -113  -163  -229  -274  -301  -320  -339  -351  -344  -316  -261  -164  -33  89  163  189  198  214  231  206  91  -116  -345  -500  -548  -524  -461  -380  -310  -273  -271  -298  -331  -315  -200  -28  106  178  239  328  424  488  509  498  448  327  123  -124  -359  -549  -674  -715  -674  -595  -524  -462  -373  -248  -122  -31  12  20  11  2  6  39  72  -15  -311  -680  -855  -629  142  1405  2675  3338  3162  2273  847  -894  -2579  -3840  -4481  -4422  -3753  -2813  -1967  -1358  -943  -636  -400  -233  -129  -80  -74  -92  -100  -32  160  420  610  673  665  647  636  625  613  593  540  406  169  -91  -242  -232  -89  156  421  615  712  699  600  477  396  446  634  838  973  1031  1045  1084  1170  1253  1296  1304  1301  1322  1402  1545  1700  1798  1825  1824  1826  1821  1777  1682  1550  1381  1206  1088  1033  976  887  786  682  544  339  51  -314  -726  -1102  -1337  -1406  -1331  -1125  -850  -633  -540  -538  -570  -596  -609  -620  -647  -680  -688  -667  -675  -744  -825  -864  -859  -862  -918  -1002  -1071  -1114  -1134  -1132  -1121  -1104  -1064  -996  -922  -861  -808  -762  -732  -723  -725  -726  -727  -732  -736  -708  -624  -511  -423  -385  -383  -415  -497  -614  -720  -783  -814  -846  -892  -915  -873  -780  -672  -584  -534  -520  -526  -547  -587  -639  -677  -666  -577  -429  -290  -214  -194  -199  -233  -313  -421  -500  -527  -525  -522  -519  -483  -346  -65  280  513  502  247  -108  -367  -450  -404  -277  -100  73  186  225  220  209  215  236  250  234  204  210  263  329  400  510  648  745  736  613  435  289  213  193  211  258  349  489  632  719  745  742  737  742  775  852  963  1059  1106  1092  1021  937  881  826  767  728  709  678  611  518  433  369  332  342  390  432  421  335  201  102  86  113  118  95  74  30  -143  -461  -650  -401  173  562  379  -154  -349  371  2029  3911  5001  4797  3445  1507  -305  -1664  -2633  -3207  -3342  -3102  -2562  -1807  -1055  -527  -232  -54  90  252  455  699  935  1075  1086  1020  945  903  879  831  731  602  500  474  541  694  890  1043  1098  1078  1050  1056  1085  1114  1134  1146  1149  1146  1138  1131  1143  1205  1321  1453  1572  1678  1765  1809  1812  1812  1857  1983  2195  2429  2580  2611  2581  2547  2501  2402  2239  2056  1895  1749  1622  1547  1520  1476  1355  1165  946  739  573  436  264  2  -310  -567  -737  -849  -911  -922  -904  -878  -855  -831  -811  -827  -877  -888  -789  -624  -513  -521  -617  -747  -876  -980  -1046  -1078  -1090  -1089  -1085  -1089  -1116  -1178  -1269  -1359  -1409  -1377  -1256  -1108  -1018  -1010  -1042  -1071  -1089  -1116  -1163  -1214  -1243  -1260  -1326  -1457  -1562  -1563  -1496  -1429  -1392  -1384  -1397  -1418  -1439  -1450  -1453  -1453  -1453  -1449  -1434  -1415  -1421  -1487  -1595  -1684  -1724  -1735  -1756  -1814  -1894  -1932  -1874  -1730  -1570  -1441  -1339  -1272  -1268  -1282  -1255  -1231  -1263  -1328  -1372  -1376  -1366  -1387  -1463  -1582  -1712  -1817  -1866  -1852  -1807  -1769  -1756  -1752  -1724  -1653  -1596  -1672  -1845  -1883  -1701  -1478  -1361  -1331  -1341  -1407  -1566  -1786  -1968  -2039  -2012  -1946  -1873  -1797  -1745  -1746  -1782  -1814  -1827  -1827  -1827  -1817  -1755  -1623  -1521  -1547  -1618  -1636  -1660  -1702  -1669  -1573  -1482  -1390  -1254  -1086  -955  -889  -852  -817  -789  -773  -747  -696  -632  -572  -504  -391  -186  131  478  715  815  896  1022  1138  1191  1206  1210  1174  1033  800  625  617  639  520  418  710  1634  3062  4499  5373  5247  3985  1946  -238  -2070  -3287  -3856  -3899  -3478  -2576  -1239  364  1873  2890  3370  3617  3900  4269  4620  4840  4932  4971  4985  4915  4742  4591  4512  4353  4071  3818  3661  3541  3425  3323  3256  3237  3270  3348  3434  3478  3442  3313  3142  3018  2973  2970  2976  3016  3150  3400  3684  3866  3871  3722  3517  3375  3334  3345  3345  3301  3219  3119  2999  2865  2754  2687  2647  2608  2557  2499  2450  2418  2377  2270  2034  1663  1229  814  465  201  8  -161  -350  -576  -796  -934  -973  -962  -955  -998  -1111  -1250  -1342  -1366  -1358  -1351  -1345  -1329  -1301  -1289  -1320  -1380  -1441  -1486  -1512  -1539  -1596  -1680  -1753  -1789  -1800  -1821  -1882  -1969  -2023  -1996  -1891  -1740  -1583  -1450  -1358  -1309  -1296  -1308  -1336  -1375  -1413  -1437  -1456  -1514  -1629  -1758  -1885  -2035  -2159  -2170  -2066  -1926  -1826  -1758  -1666  -1562  -1525  -1575  -1657  -1724  -1756  -1753  -1739  -1721  -1679  -1618  -1570  -1552  -1554  -1567  -1593  -1618  -1612  -1569  -1525  -1513  -1499  -1417  -1235  -1010  -867  -868  -943  -1015  -1079  -1148  -1208  -1233  -1214  -1178  -1138  -1076  -988  -899  -836  -806  -807  -832  -870  -908  -936  -949  -932  -850  -672  -435  -218  -70  2  11  -24  -106  -271  -490  -594  -451  -156  85  193  216  195  144  111  173  341  527  639  661  645  629  607  533  370  161  -4  -102  -178  -257  -318  -348  -362  -374  -388  -402  -391  -333  -246  -179  -152  -152  -175  -231  -291  -313  -371  -551  -718  -639  -196  637  1790  2996  3857  4001  3166  1423  -717  -2673  -4069  -4700  -4576  -3889  -2941  -2062  -1369  -785  -306  8  168  252  330  429  538  607  606  581  572  571  565  559  568  601  631  621  570  501  427  351  296  336  532  841  1138  1320  1343  1188  887  561  343  281  380  635  954  1188  1287  1309  1305  1302  1318  1382  1535  1798  2091  2299  2379  2374  2332  2276  2228  2209  2218  2235  2244  2246  2226  2139  1954  1693  1433  1251  1150  1100  1069  991  795  506  233  44  -90  -242  -419  -542  -561  -515  -480  -503  -564  -617  -649  -670  -688  -699  -697  -690  -679  -649  -587  -509  -394  -212  -26  42  -28  -151  -216  -214  -234  -309  -355  -316  -242  -210  -248  -332  -437  -543  -609  -621  -612  -603  -573  -489  -364  -235  -111  -15  -10  -129  -344  -588  -767  -831  -786  -664  -513  -384  -294  -244  -226  -227  -257  -332  -435  -512  -544  -544  -511  -434  -336  -266  -236  -238  -265  -307  -386  -546  -761  -930  -997  -994  -976  -974  -976  -936  -806  -602  -407  -296  -270  -266  -224  -133  -36  12  -8  -92  -227  -379  -498  -560  -584  -584  -563  -546  -564  -625  -715  -804  -844  -793  -654  -489  -377  -330  -316  -329  -399  -540  -707  -823  -877  -928  -989  -1011  -987  -981  -1072  -1236  -1267  -1059  -794  -579  -316  104  842  1898  2835  3164  2761  1725  172  -1651  -3339  -4548  -5073  -4818  -4005  -3152  -2533  -2009  -1509  -1126  -869  -675  -490  -300  -134  -20  37  57  67  76  73  46  12  12  44  67  81  122  207  319  431  512  533  485  401  370  450  581  669  701  715  738  777  836  915  989  1040  1121  1311  1583  1807  1907  1899  1842  1812  1848  1914  1959  1975  1975  1944  1860  1745  1658  1639  1690  1789  1897  1965  1927  1694  1240  725  388  296  317  311  245  155  57  -91  -311  -531  -697  -831  -912  -893  -799  -689  -588  -480  -362  -303  -362  -492  -587  -600  -559  -507  -469  -447  -435  -420  -405  -399  -402  -406  -410  -444  -562  -772  -908  -743  -316  73  246  245  172  71  -50  -174  -266  -314  -316  -248  -89  119  289  370  381  356  297  185  4  -260  -557  -745  -743  -593  -391  -230  -125  -26  68  124  166  237  305  262  87  -86  -201  -355  -550  -682  -716  -690  -645  -585  -474  -281  -35  210  422  571  641  647  618  563  483  385  284  190  113  38  -58  -149  -195  -211  -236  -274  -277  -203  -77  43  127  161  125  17  -113  -244  -424  -640  -749  -525  270  1647  3188  4180  4070  2839  961  -943  -2483  -3608  -4368  -4639  -4246  -3342  -2343  -1496  -786  -211  129  234  239  261  318  377  401  361  269  201  214  282  344  376  383  381  375  365  358  389  502  685  875  1012  1078  1088  1074  1058  1058  1080  1112  1147  1201  1286  1381  1454  1508  1583  1707  1888  2121  2355  2495  2468  2265  1983  1783  1766  1921  2157  2356  2451  2449  2393  2321  2240  2148  2052  1944  1814  1676  1525  1349  1129  832  497  230  75  -24  -140  -307  -497  -647  -728  -754  -752  -739  -721  -705  -703  -716  -735  -738  -715  -684  -665  -662  -666  -669  -661  -636  -605  -594  -611  -641  -671  -705  -726  -695  -587  -445  -351  -335  -369  -429  -499  -562  -606  -615  -589  -564  -589  -677  -804  -927  -1004  -1026  -1022  -1014  -1014  -1021  -1028  -1022  -973  -856  -704  -592  -547  -515  -448  -370  -352  -401  -456  -467  -442  -438  -556  -863  -1251  -1495  -1498  -1361  -1223  -1119  -989  -779  -534  -380  -385  -494  -579  -584  -570  -547  -470  -385  -358  -387  -442  -484  -482  -442  -400  -381  -373  -353  -331  -333  -371  -472  -659  -890  -1069  -1136  -1082  -916  -680  -475  -370  -353  -379  -424  -490  -591  -704  -759  -738  -676  -553  -351  -245  -502  -1058  -1454  -1189  -21  1749  3290  3797  3002  1269  -686  -2317  -3438  -3946  -3911  -3715  -3510  -3045  -2292  -1578  -1082  -694  -336  -92  -34  -119  -245  -329  -345  -312  -248  -156  -35  91  190  239  242  212  168  164  244  375  471  500  509  578  754  982  1142  1182  1151  1125  1137  1148  1104  1017  967  1018  1143  1260  1335  1397  1457  1495  1509  1541  1658  1905  2216  2445  2512  2421  2207  1974  1873  1933  2010  1967  1817  1630  1446  1289  1147  992  827  649  436  209  33  -68  -170  -349  -567  -728  -802  -827  -843  -844  -814  -764  -721  -693  -667  -624  -558  -488  -434  -407  -399  -374  -300  -193  -109  -88  -154  -314  -516  -657  -703  -698  -694  -704  -723  -741  -739  -674  -489  -171  172  351  273  47  -148  -220  -181  -85  8  32  -65  -264  -464  -576  -603  -596  -581  -537  -434  -320  -328  -538  -817  -915  -760  -523  -401  -439  -553  -637  -662  -669  -710  -802  -903  -944  -878  -722  -517  -317  -188  -146  -146  -148  -146  -149  -175  -235  -321  -407  -458  -463  -437  -402  -377  -377  -426  -509  -578  -609  -617  -609  -564  -466  -332  -217  -154  -109  -49  3  26  27  14  -14  -52  -75  -71  -48  -34  -38  -44  -38  -39  -53  -43  38  178  297  350  363  348  217  -132  -522  -514  -25  514  788  885  1165  2017  3355  4491  4691  3673  1680  -678  -2728  -4058  -4596  -4459  -3774  -2705  -1537  -585  -31  168  209  220  222  228  284  406  550  672  721  662  507  282  41  -121  -173  -179  -203  -257  -313  -329  -248  8  468  980  1241  1080  641  265  179  322  495  602  658  681  678  668  689  777  920  1075  1242  1451  1679  1876  2053  2256  2465  2599  2607  2498  2306  2106  1997  2030  2143  2180  2034  1789  1591  1447  1255  990  740  563  405  196  -33  -190  -252  -284  -370  -545  -759  -935  -1040  -1068  -1021  -917  -793  -692  -649  -675  -754  -864  -989  -1109  -1194  -1218  -1216  -1218  -1189  -1096  -955  -785  -578  -345  -141  -19  30  31  -61  -315  -672  -961  -1087  -1071  -980  -884  -851  -887  -890  -797  -688  -614  -515  -357  -190  -68  2  29  -43  -264  -567  -829  -988  -1051  -1059  -1055  -1059  -1053  -1007  -944  -912  -883  -802  -703  -648  -650  -693  -735  -751  -758  -771  -745  -608  -386  -201  -116  -99  -102  -123  -215  -401  -595  -689  -664  -567  -467  -408  -386  -385  -387  -361  -281  -169  -87  -59  -62  -73  -88  -104  -118  -124  -113  -76  -20  21  14  -57  -162  -238  -262  -263  -255  -222  -160  -99  -73  -86  -115  -142  -167  -185  -192  -205  -250  -317  -365  -370  -359  -342  -281  -139  24  87  0  -152  -246  -251  -232  -243  -234  -135  -22  14  143  647  1581  2750  3745  4057  3430  2083  502  -988  -2326  -3447  -4160  -4271  -3734  -2762  -1779  -1087  -650  -328  -113  -30  -25  -24  -9  -2  -2  62  266  561  793  888  902  907  925  959  1000  1029  1030  998  942  870  788  713  671  670  694  721  739  772  855  981  1096  1168  1228  1309  1383  1403  1400  1442  1540  1693  1924  2186  2362  2398  2350  2293  2256  2234  2228  2249  2315  2442  2591  2659  2562  2356  2182  2065  1872  1487  964  492  191  34  -93  -284  -454  -409  -116  222  410  434  379  274  93  -133  -313  -412  -467  -504  -516  -509  -500  -508  -547  -639  -764  -859  -849  -691  -418  -154  0  51  62  64  54  17  -69  -227  -418  -559  -633  -692  -763  -814  -825  -806  -769  -703  -622  -566  -553  -550  -529  -491  -452  -422  -399  -379  -364  -358  -368  -397  -435  -454  -441  -407  -387  -424  -537  -688  -805  -846  -808  -700  -561  -443  -372  -344  -359  -417  -498  -564  -595  -602  -592  -556  -490  -398  -315  -322  -454  -623  -720  -703  -573  -390  -266  -269  -375  -485  -518  -486  -411  -275  -101  27  56  -6  -134  -297  -444  -502  -436  -299  -175  -116  -120  -157  -167  -106  2  119  246  370  424  359  211  67  -30  -103  -166  -178  -134  -116  -166  -225  -256  -289  -365  -487  -606  -669  -686  -725  -830  -945  -983  -979  -1012  -973  -685  -212  165  283  386  914  1882  2880  3505  3419  2488  949  -845  -2638  -4167  -5141  -5363  -4858  -3880  -2807  -1905  -1233  -795  -574  -474  -378  -231  -51  106  221  312  399  477  528  544  529  485  428  381  339  271  174  82  30  21  38  68  124  230  375  519  629  695  728  765  837  937  1027  1082  1100  1097  1091  1101  1137  1188  1243  1331  1498  1704  1848  1899  1909  1945  2038  2180  2317  2397  2406  2363  2296  2228  2133  1934  1598  1213  899  675  494  322  147  -21  -158  -254  -346  -478  -647  -810  -926  -981  -991  -987  -973  -941  -890  -824  -732  -590  -392  -190  -64  -26  -32  -56  -101  -150  -138  -72  -57  -130  -248  -399  -564  -663  -628  -493  -369  -317  -316  -325  -330  -336  -351  -372  -389  -404  -424  -442  -438  -399  -336  -284  -263  -271  -296  -334  -381  -441  -505  -550  -571  -579  -578  -555  -497  -410  -312  -217  -136  -65  10  96  161  164  97  9  -61  -116  -162  -204  -256  -329  -396  -416  -373  -306  -243  -176  -113  -66  -30  2  33  72  112  138  147  144  134  111  52  -44  -158  -263  -330  -342  -328  -358  -487  -682  -837  -869  -774  -598  -414  -296  -269  -310  -393  -497  -570  -537  -374  -155  8  71  64  28  -35  -159  -323  -447  -486  -455  -386  -314  -263  -230  -187  -110  4  133  249  337  378  340  219  63  -56  -110  -115  -110  -152  -288  -477  -605  -610  -528  -433  -388  -390  -383  -354  -347  -369  -381  -344  -295  -393  -729  -1094  -1071  -321  1092  2610  3625  3830  3113  1659  -50  -1702  -3244  -4514  -5217  -5187  -4422  -3178  -1965  -1153  -707  -435  -276  -226  -237  -268  -311  -362  -407  -431  -408  -302  -119  65  185  229  224  208  211  243  304  383  467  570  694  808  882  911  911  904  914  952  1005  1041  1044  1033  1040  1068  1084  1069  1045  1053  1112  1225  1357  1458  1549  1714  1992  2289  2451  2420  2288  2180  2143  2157  2199  2249  2280  2271  2216  2140  2052  1881  1542  1087  654  307  48  -108  -173  -190  -194  -192  -183  -177  -199  -241  -263  -258  -271  -338  -437  -512  -532  -505  -447  -367  -273  -188  -149  -205  -397  -670  -888  -951  -801  -420  49  373  473  458  431  415  376  276  108  -77  -211  -286  -341  -355  -280  -140  -20  -29  -218  -487  -674  -726  -698  -638  -516  -283  -15  106  4  -229  -451  -554  -510  -372  -218  -119  -88  -94  -121  -196  -342  -510  -597  -556  -448  -370  -354  -354  -283  -104  73  84  -64  -207  -264  -282  -318  -373  -423  -445  -431  -405  -413  -475  -542  -534  -447  -362  -333  -342  -335  -263  -137  -68  -133  -254  -323  -336  -340  -359  -383  -390  -360  -300  -264  -279  -295  -271  -216  -141  -72  -37  -45  -98  -204  -362  -545  -695  -753  -717  -649  -604  -585  -581  -582  -579  -559  -518  -460  -386  -277  -142  -44  -41  -151  -321  -454  -505  -503  -490  -495  -535  -613  -727  -860  -969  -1009  -971  -870  -747  -642  -560  -491  -444  -431  -458  -475  -387  -229  -179  -299  -485  -536  -102  966  2260  3140  3189  2324  815  -847  -2253  -3253  -3879  -4168  -4118  -3709  -2969  -1998  -1016  -302  55  191  245  280  305  301  262  208  146  78  43  78  154  233  300  347  373  406  473  565  653  719  760  782  793  809  826  821  784  741  737  772  804  811  819  882  1024  1231  1469  1684  1814  1847  1828  1809  1831  1923  2067  2209  2327  2429  2497  2522  2525  2535  2545  2510  2389  2183  1932  1672  1432  1222  1038  901  818  755  652  473  249  36  -166  -363  -517  -610  -663  -686  -680  -647  -567  -443  -342  -332  -433  -604  -754  -800  -729  -581  -424  -318  -277  -269  -251  -213  -189  -229  -348  -527  -693  -754  -713  -626  -520  -431  -396  -402  -411  -377  -297  -218  -176  -161  -165  -215  -345  -521  -655  -689  -620  -456  -230  -42  -4  -100  -238  -366  -469  -544  -601  -632  -619  -569  -511  -459  -402  -352  -328  -318  -300  -283  -296  -346  -417  -493  -545  -567  -599  -648  -668  -647  -616  -590  -568  -537  -490  -444  -404  -354  -300  -265  -245  -218  -181  -164  -199  -288  -412  -537  -623  -666  -693  -720  -715  -638  -498  -376  -335  -349  -348  -293  -209  -147  -109  -59  18  101  159  161  78  -60  -199  -326  -455  -565  -617  -592  -524  -436  -308  -149  -28  -8  -80  -180  -266  -348  -417  -461  -500  -553  -626  -746  -959  -1227  -1412  -1360  -959  -215  682  1542  2321  2927  3140  2825  1980  580  -1256  -3065  -4400  -5079  -5045  -4396  -3395  -2301  -1305  -573  -179  -33  -7  -28  -55  -66  -60  -53  -71  -139  -238  -287  -217  -54  113  236  315  391  529  744  956  1077  1105  1091  1079  1063  1023  956  889  853  859  886  920  961  1007  1042  1065  1086  1142  1285  1517  1771  1983  2146  2292  2467  2694  2918  3039  3037  2989  2948  2896  2766  2502  2154  1848  1651  1549  1496  1438  1338  1202  1063  919  746  567  428  326  221  83  -82  -230  -325  -384  -430  -471  -516  -573  -637  -702  -763  -805  -819  -814  -805  -783  -715  -582  -427  -320  -270  -243  -215  -198  -230  -343  -499  -614  -654  -646  -618  -570  -504  -446  -429  -439  -432  -408  -405  -439  -491  -546  -596  -626  -616  -556  -466  -378  -301  -223  -149  -115  -141  -208  -276  -329  -387  -494  -634  -705  -640  -507  -403  -335  -260  -172  -130  -175  -267  -379  -517  -639  -695  -686  -593  -405  -190  -22  55  -14  -269  -615  -865  -916  -811  -644  -499  -398  -327  -285  -287  -322  -362  -387  -399  -406  -408  -400  -397  -430  -521  -631  -693  -688  -649  -610  -578  -516  -360  -78  252  471  473  278  28  -108  -96  -30  12  18  -24  -132  -274  -381  -435  -465  -465  -396  -277  -197  -219  -320  -420  -457  -457  -481  -528  -556  -536  -477  -471  -632  -960  -1268  -1265  -727  433  2050  3551  4274  3910  2554  640  -1238  -2710  -3732  -4273  -4242  -3767  -3085  -2259  -1392  -734  -403  -273  -175  -54  92  279  476  609  655  655  647  642  640  643  650  650  641  623  606  594  587  578  571  587  655  780  943  1132  1319  1454  1513  1517  1483  1418  1348  1298  1271  1252  1240  1241  1258  1296  1408  1675  2084  2506  2840  3063  3155  3111  2986  2872  2828  2846  2878  2892  2863  2740  2484  2159  1882  1674  1478  1258  1013  770  567  419  323  245  125  -65  -286  -479  -611  -680  -703  -708  -705  -685  -639  -590  -560  -521  -445  -349  -254  -166  -101  -78  -107  -205  -359  -524  -663  -755  -812  -878  -952  -977  -892  -700  -492  -362  -330  -355  -372  -342  -280  -230  -216  -224  -231  -228  -223  -228  -244  -260  -269  -279  -308  -366  -462  -607  -769  -882  -928  -939  -944  -957  -978  -984  -925  -761  -547  -433  -508  -693  -841  -896  -901  -895  -858  -748  -578  -425  -342  -308  -286  -277  -314  -408  -519  -589  -612  -626  -656  -680  -667  -610  -514  -400  -312  -273  -272  -287  -296  -282  -247  -213  -194  -190  -191  -193  -199  -202  -173  -81  55  184  274  336  377  355  196  -87  -369  -530  -564  -539  -504  -475  -455  -441  -433  -446  -503  -597  -680  -725  -745  -741  -669  -499  -276  -100  -52  -159  -360  -483  -297  394  1585  2867  3672  3758  3119  1802  155  -1420  -2824  -3937  -4519  -4512  -4066  -3348  -2487  -1588  -792  -219  182  525  787  885  816  676  560  448  267  42  -124  -190  -182  -87  131  414  635  750  808  836  809  706  567  469  445  464  481  474  452  438  470  588  793  1022  1193  1269  1272  1244  1223  1266  1428  1680  1903  2014  2035  2027  2024  2060  2172  2334  2463  2518  2520  2487  2423  2350  2297  2245  2123  1890  1589  1300  1060  843  603  363  198  145  157  155  52  -199  -527  -782  -892  -886  -823  -729  -615  -518  -484  -526  -610  -646  -563  -427  -363  -397  -462  -497  -486  -423  -316  -198  -110  -68  -66  -107  -204  -349  -501  -618  -681  -698  -680  -616  -480  -280  -67  104  203  244  269  280  243  156  29  -129  -246  -239  -177  -179  -235  -287  -314  -316  -312  -312  -314  -324  -342  -363  -361  -272  -39  279  504  451  53  -533  -1001  -1193  -1199  -1148  -1066  -913  -715  -556  -463  -401  -346  -303  -283  -281  -280  -249  -164  -53  6  -21  -100  -162  -182  -173  -158  -163  -223  -349  -493  -584  -591  -528  -422  -294  -142  14  118  144  130  128  169  235  276  255  176  39  -163  -396  -572  -653  -664  -628  -558  -470  -391  -345  -343  -395  -497  -622  -736  -831  -910  -889  -681  -487  -604  -968  -1225  -976  31  1657  3347  4441  4546  3670  2090  187  -1662  -3210  -4324  -4817  -4589  -3897  -3083  -2295  -1604  -1012  -498  -136  29  65  58  49  54  74  97  108  121  163  248  348  430  483  513  534  547  532  479  408  332  263  235  289  434  608  713  733  748  795  828  826  820  830  844  840  824  847  967  1180  1418  1622  1771  1866  1936  2037  2218  2494  2799  3023  3129  3162  3129  2964  2664  2341  2080  1856  1604  1285  923  600  381  262  200  135  14  -157  -297  -328  -277  -237  -269  -367  -488  -590  -650  -670  -661  -629  -586  -549  -534  -569  -677  -813  -862  -754  -557  -404  -345  -337  -351  -418  -539  -599  -512  -380  -372  -545  -804  -996  -1048  -983  -839  -668  -539  -476  -454  -452  -447  -423  -389  -347  -294  -272  -351  -551  -795  -970  -1050  -1080  -1093  -1098  -1102  -1105  -1095  -1049  -959  -841  -737  -695  -734  -817  -882  -908  -912  -888  -794  -610  -389  -234  -211  -289  -374  -410  -414  -420  -430  -423  -387  -333  -290  -269  -261  -241  -194  -131  -88  -92  -146  -224  -290  -321  -297  -204  -81  -13  -49  -151  -213  -168  -64  29  95  132  133  90  2  -122  -277  -433  -539  -574  -560  -532  -505  -485  -475  -472  -472  -472  -475  -480  -494  -559  -729  -984  -1180  -1134  -712  220  1632  3149  4244  4430  3495  1740  -273  -2109  -3508  -4338  -4621  -4531  -4152  -3420  -2400  -1388  -671  -327  -225  -195  -149  -84  -22  55  194  389  566  650  612  453  240  71  -17  -47  -24  42  108  136  134  153  251  464  742  950  984  869  710  584  516  512  586  740  934  1120  1293  1451  1567  1632  1671  1737  1867  2052  2251  2439  2608  2740  2812  2824  2773  2644  2474  2351  2334  2364  2311  2140  1943  1747  1481  1153  863  644  476  357  299  292  299  244  59  -230  -497  -652  -708  -722  -725  -727  -718  -694  -656  -608  -562  -541  -544  -558  -567  -549  -470  -308  -107  28  23  -127  -346  -527  -630  -657  -608  -497  -379  -332  -391  -500  -566  -552  -496  -453  -437  -423  -387  -319  -239  -189  -218  -340  -492  -570  -537  -455  -402  -392  -390  -411  -506  -653  -770  -790  -704  -564  -427  -309  -225  -170  -101  -22  11  -50  -228  -470  -669  -781  -818  -785  -661  -423  -135  61  113  74  4  -63  -107  -147  -217  -303  -347  -328  -302  -325  -382  -419  -382  -246  -32  186  322  341  277  160  18  -96  -148  -152  -141  -134  -140  -162  -193  -221  -245  -270  -288  -292  -280  -266  -263  -261  -240  -196  -158  -143  -136  -137  -161  -208  -263  -334  -429  -501  -523  -596  -785  -915  -720  -60  1062  2508  3869  4550  4220  2950  997  -1197  -3098  -4351  -4874  -4741  -4118  -3272  -2453  -1724  -1099  -670  -450  -308  -160  -48  -11  -25  -54  -73  -56  12  116  209  256  263  251  238  239  283  392  539  655  696  680  651  632  623  634  694  817  973  1125  1227  1204  1068  983  1044  1168  1276  1364  1462  1606  1789  1956  2083  2169  2195  2165  2121  2092  2080  2076  2076  2077  2076  2078  2083  2077  2019  1889  1732  1622  1573  1532  1433  1255  1037  815  549  202  -143  -359  -431  -459  -528  -659  -815  -924  -937  -888  -837  -807  -788  -738  -609  -421  -258  -169  -140  -140  -148  -165  -197  -246  -302  -350  -416  -546  -720  -852  -885  -817  -674  -520  -428  -431  -519  -635  -709  -696  -589  -421  -261  -174  -175  -240  -331  -405  -458  -557  -767  -1032  -1206  -1226  -1139  -1014  -890  -769  -647  -542  -470  -429  -405  -386  -373  -404  -517  -677  -790  -788  -672  -506  -377  -319  -312  -328  -378  -485  -623  -717  -714  -613  -471  -366  -335  -369  -446  -528  -586  -628  -643  -614  -563  -517  -472  -438  -437  -471  -499  -457  -323  -160  -48  -2  0  -60  -220  -442  -616  -685  -685  -661  -629  -595  -573  -565  -567  -577  -592  -590  -533  -425  -323  -291  -350  -448  -508  -529  -586  -675  -675  -579  -603  -857  -1109  -946  -2  1779  3792  4903  4403  2526  28  -2232  -3664  -4267  -4398  -4303  -4006  -3483  -2806  -2103  -1459  -895  -442  -162  -54  -36  -37  -34  -32  -35  -43  -46  -44  -35  -20  1  26  47  89  186  319  423  462  456  435  425  445  502  571  621  650  684  728  765  790  821  856  869  853  853  967  1262  1667  2004  2165  2179  2153  2164  2219  2276  2303  2314  2374  2531  2737  2879  2895  2804  2678  2594  2568  2535  2413  2182  1899  1623  1351  1044  737  525  424  375  365  414  481  496  431  326  249  224  232  242  232  193  137  98  89  96  101  100  97  91  81  55  10  -48  -117  -174  -192  -175  -144  -92  -8  116  262  353  321  179  5  -117  -173  -200  -220  -225  -217  -214  -226  -236  -218  -170  -113  -68  -45  -41  -54  -95  -161  -237  -307  -358  -379  -373  -350  -327  -308  -285  -257  -235  -237  -275  -344  -424  -503  -583  -659  -691  -631  -493  -345  -247  -210  -212  -238  -288  -362  -439  -481  -475  -442  -407  -363  -283  -147  27  164  154  -59  -389  -654  -766  -781  -783  -804  -832  -831  -757  -620  -523  -533  -585  -599  -559  -471  -339  -150  77  226  207  81  -25  -66  -66  -49  -9  50  72  13  -86  -156  -174  -165  -159  -170  -180  -146  -48  45  28  -123  -356  -585  -730  -779  -782  -773  -758  -739  -728  -726  -712  -659  -563  -454  -374  -358  -403  -425  -318  -135  -137  -434  -807  -1079  -1260  -1227  -654  598  2184  3451  3873  3291  1919  209  -1426  -2826  -3953  -4663  -4711  -4071  -3102  -2196  -1494  -979  -583  -279  -98  -39  -38  -44  -46  -52  -54  -32  21  107  235  395  544  629  638  592  525  465  428  417  433  476  536  596  637  651  649  639  623  604  591  600  654  773  927  1034  1065  1082  1165  1332  1533  1706  1821  1871  1881  1882  1888  1898  1930  2034  2233  2457  2609  2670  2675  2607  2407  2097  1797  1581  1425  1291  1143  918  612  302  43  -166  -329  -422  -451  -455  -471  -498  -519  -528  -531  -531  -514  -465  -395  -337  -307  -301  -312  -328  -342  -358  -389  -448  -520  -570  -586  -598  -636  -688  -695  -602  -427  -242  -106  -30  -13  -79  -248  -459  -609  -673  -710  -757  -800  -823  -832  -814  -740  -592  -390  -201  -92  -64  -70  -88  -119  -160  -203  -239  -262  -295  -402  -648  -959  -1147  -1113  -918  -691  -546  -492  -410  -184  118  278  166  -99  -308  -380  -372  -351  -336  -328  -328  -342  -371  -409  -438  -436  -413  -412  -441  -469  -479  -481  -493  -516  -538  -551  -550  -516  -440  -370  -359  -371  -332  -251  -196  -212  -293  -384  -447  -481  -478  -423  -310  -174  -85  -114  -280  -512  -689  -761  -769  -748  -691  -599  -517  -495  -525  -563  -557  -493  -411  -354  -330  -338  -337  -274  -161  -51  30  76  94  85  29  -99  -265  -386  -430  -431  -428  -435  -448  -454  -436  -379  -300  -239  -221  -242  -291  -343  -374  -367  -324  -316  -414  -565  -657  -642  -543  -423  -327  -289  -372  -559  -726  -801  -813  -797  -760  -695  -579  -382  -117  27  -204  -758  -1220  -1177  -442  963  2741  4228  4718  3954  2265  312  -1378  -2628  -3433  -3851  -3993  -3825  -3159  -2079  -1015  -328  -54  -12  -40  -61  -27  91  262  395  443  433  413  434  525  655  787  960  1150  1209  1093  928  808  727  676  658  666  680  694  722  783  876  978  1049  1073  1069  1058  1054  1072  1136  1249  1387  1551  1785  2070  2306  2435  2474  2457  2413  2382  2393  2431  2470  2509  2545  2566  2568  2563  2566  2587  2624  2668  2704  2676  2494  2131  1705  1360  1074  718  268  -142  -369  -417  -393  -371  -365  -366  -365  -363  -361  -358  -347  -324  -305  -305  -313  -306  -291  -301  -369  -492  -617  -698  -723  -685  -578  -448  -372  -389  -456  -521  -569  -613  -648  -650  -580  -419  -209  -26  92  149  169  167  120  -3  -168  -280  -297  -271  -290  -408  -588  -736  -790  -720  -507  -216  4  88  87  72  67  53  -6  -116  -235  -309  -329  -327  -328  -331  -317  -284  -253  -240  -240  -248  -267  -290  -303  -302  -295  -293  -311  -356  -416  -462  -477  -461  -414  -364  -373  -487  -665  -810  -864  -820  -681  -497  -361  -331  -412  -575  -748  -852  -857  -786  -661  -491  -345  -357  -549  -820  -1113  -1377  -1491  -1386  -1143  -881  -632  -437  -392  -494  -613  -665  -669  -664  -658  -629  -555  -446  -373  -415  -546  -673  -740  -736  -675  -589  -499  -418  -367  -354  -346  -269  -73  171  320  306  188  48  -79  -194  -295  -364  -391  -408  -456  -544  -634  -680  -669  -637  -632  -664  -708  -732  -745  -774  -801  -760  -669  -689  -881  -1087  -1168  -1084  -801  -211  794  2103  3341  4008  3713  2517  879  -772  -2263  -3541  -4475  -4913  -4817  -4170  -3018  -1738  -849  -510  -503  -578  -618  -598  -522  -376  -136  136  321  374  360  351  385  458  546  630  692  714  699  654  581  514  492  525  599  693  789  871  926  959  982  997  1003  1004  1012  1043  1116  1221  1336  1473  1648  1802  1866  1870  1899  1973  2055  2139  2260  2418  2555  2639  2688  2702  2661  2571  2466  2379  2330  2316  2290  2167  1880  1449  1015  731  606  536  443  324  216  137  66  -8  -56  -59  -34  -21  -46  -97  -159  -221  -249  -223  -185  -177  -189  -194  -185  -144  -43  89  172  162  82  -37  -187  -310  -304  -162  13  138  202  227  222  147  -41  -288  -453  -468  -379  -274  -218  -227  -268  -295  -292  -275  -275  -285  -281  -260  -230  -188  -133  -60  44  152  163  14  -220  -393  -452  -446  -426  -404  -379  -367  -369  -356  -316  -276  -246  -208  -156  -104  -61  -24  0  4  2  11  32  46  28  -28  -99  -158  -208  -256  -307  -379  -475  -558  -575  -516  -415  -295  -176  -91  -45  -25  -23  -24  23  166  369  521  539  417  208  9  -108  -136  -75  59  212  305  296  211  124  73  25  -39  -69  -14  76  130  133  113  83  23  -108  -299  -460  -517  -458  -326  -203  -163  -194  -237  -214  4  608  1681  2926  3809  3988  3353  2020  351  -1334  -2890  -4107  -4667  -4418  -3593  -2609  -1726  -1026  -552  -303  -163  23  287  525  626  553  379  238  193  212  247  281  331  410  507  593  644  673  725  841  1007  1160  1258  1287  1204  1037  902  848  837  839  885  1025  1243  1446  1549  1553  1514  1480  1459  1425  1358  1268  1192  1175  1260  1475  1772  2035  2210  2327  2403  2431  2424  2409  2377  2290  2108  1839  1548  1287  1073  898  717  473  182  -68  -245  -407  -575  -701  -794  -929  -1105  -1222  -1224  -1156  -1090  -1057  -1050  -1056  -1070  -1094  -1132  -1187  -1253  -1311  -1337  -1307  -1222  -1130  -1078  -1066  -1054  -980  -798  -558  -391  -359  -395  -412  -365  -219  43  346  552  616  600  575  575  612  690  798  912  986  955  764  448  145  -37  -108  -137  -209  -392  -652  -885  -1036  -1126  -1181  -1224  -1290  -1384  -1472  -1523  -1543  -1555  -1582  -1646  -1760  -1892  -1986  -2019  -2032  -2083  -2212  -2399  -2555  -2603  -2567  -2514  -2470  -2438  -2418  -2419  -2468  -2570  -2685  -2778  -2845  -2874  -2830  -2694  -2489  -2270  -2053  -1749  -1248  -557  138  604  794  852  898  951  988  1002  1023  1074  1117  1106  1052  990  940  901  864]
