reading_id,reading_time,wire_id,result_classification,heart_rate,heart_rate_alert,firmware_version,device_app_version,hardware_version,waveform_samples
299ed030-7028-11ed-8080-808080808080,Tue Nov 29 20:55:31 UTC 2022,a101e3b72739,UNCLASSIFIABLE,49,LOW_HR,20001.171.50,2.10.0,Charge 5,[-2918  -2925  -2942  -2957  -2913  -2746  -2465  -2159  -1907  -1726  -1545  -1246  -811  -396  -149  -51  7  84  161  208  212  168  61  -128  -402  -734  -1070  -1359  -1587  -1764  -1896  -2017  -2177  -2371  -2542  -2679  -2821  -2961  -3054  -3081  -3065  -3045  -3039  -3040  -3032  -3011  -2999  -3000  -2975  -2876  -2667  -2390  -2166  -2012  -1869  -1771  -1802  -1972  -2226  -2476  -2663  -2756  -2733  -2582  -2335  -2074  -1876  -1766  -1700  -1605  -1487  -1436  -1526  -1735  -2003  -2296  -2564  -2764  -2946  -3206  -3525  -3770  -3873  -3871  -3773  -3516  -3087  -2619  -2276  -2044  -1764  -1338  -796  -214  341  847  1329  1789  2203  2595  3002  3395  3707  3941  4135  4276  4327  4274  4125  3936  3788  3722  3736  3836  4014  4200  4317  4373  4427  4504  4587  4668  4746  4810  4890  5068  5398  5791  6051  6075  5953  5887  6009  6186  6112  5747  5504  5830  6868  8332  9366  9131  7625  5389  2981  956  -384  -1124  -1356  -1103  -521  261  1258  2285  2979  3314  3555  3824  4048  4175  4260  4416  4744  5266  5941  6664  7285  7716  8003  8273  8603  8938  9161  9189  8951  8421  7758  7227  6900  6573  5971  5046  4092  3476  3253  3189  3060  2749  2249  1685  1206  833  526  295  150  36  -100  -255  -402  -514  -571  -587  -595  -604  -604  -574  -489  -338  -139  66  253  425  587  719  775  730  613  447  214  -59  -296  -444  -505  -511  -492  -473  -473  -509  -584  -654  -632  -484  -262  -51  82  143  177  214  256  301  353  398  416  435  496  609  761  921  1042  1093  1092  1072  1085  1238  1630  2191  2712  3074  3319  3523  3679  3749  3732  3652  3567  3528  3510  3437  3256  3006  2810  2749  2786  2838  2834  2734  2536  2264  1957  1687  1508  1391  1254  1023  700  333  -114  -740  -1508  -2187  -2579  -2713  -2749  -2819  -2979  -3204  -3403  -3504  -3488  -3355  -3136  -2919  -2782  -2732  -2728  -2733  -2737  -2747  -2779  -2842  -2928  -3006  -3055  -3095  -3161  -3302  -3561  -3870  -4114  -4224  -4183  -4051  -3938  -3856  -3713  -3472  -3200  -2974  -2851  -2878  -3009  -3093  -3021  -2825  -2625  -2523  -2527  -2571  -2608  -2658  -2758  -2890  -2980  -2952  -2770  -2456  -2117  -1883  -1782  -1745  -1686  -1556  -1391  -1270  -1225  -1230  -1267  -1343  -1437  -1489  -1463  -1372  -1264  -1187  -1158  -1165  -1206  -1274  -1322  -1292  -1176  -996  -805  -669  -581  -489  -398  -349  -348  -387  -453  -514  -557  -590  -614  -631  -635  -625  -615  -626  -697  -877  -1157  -1431  -1592  -1633  -1600  -1511  -1372  -1224  -1100  -986  -873  -796  -765  -747  -725  -746  -875  -1083  -1279  -1426  -1518  -1540  -1577  -1766  -2035  -2085  -1659  -683  743  2255  3219  3124  1979  155  -1979  -4026  -5568  -6421  -6572  -6047  -5050  -3984  -3117  -2464  -1984  -1639  -1386  -1219  -1136  -1092  -1026  -925  -814  -710  -623  -568  -534  -451  -261  -14  161  218  206  189  196  234  286  334  377  428  475  511  583  759  1013  1235  1372  1446  1480  1496  1528  1609  1749  1915  2049  2127  2164  2220  2360  2571  2775  2918  2987  3010  3063  3223  3460  3649  3728  3754  3832  4003  4178  4232  4103  3831  3562  3408  3319  3178  2916  2563  2213  1887  1509  1084  743  569  471  307  77  -106  -182  -200  -251  -408  -658  -908  -1090  -1204  -1284  -1362  -1445  -1514  -1557  -1574  -1570  -1544  -1493  -1433  -1387  -1368  -1370  -1382  -1383  -1333  -1219  -1106  -1073  -1105  -1139  -1158  -1170  -1161  -1080  -906  -741  -733  -878  -1036  -1117  -1127  -1057  -876  -634  -457  -424  -517  -669  -810  -894  -916  -897  -873  -862  -846  -805  -776  -792  -821  -827  -817  -811  -809  -804  -791  -760  -702  -608  -517  -517  -635  -775  -845  -854  -831  -766  -637  -479  -369  -338  -347  -363  -391  -448  -518  -556  -544  -506  -453  -365  -261  -190  -171  -174  -164  -131  -85  -50  -33  -24  -21  -23  -26  -34  -45  -50  -48  -50  -91  -193  -315  -383  -375  -328  -276  -194  -44  141  287  361  394  441  532  645  690  573  331  117  28  28  36  -1  -69  -66  87  317  480  539  536  473  319  108  -63  -145  -162  -143  -105  -56  26  176  306  276  128  13  -17  17  76  125  158  174  174  180  204  222  219  213  251  369  531  643  649  571  472  411  398  396  389  398  451  545  646  729  799  864  916  948  961  949  901  830  766  734  732  747  769  800  838  856  774  520  158  -126  -229  -201  -144  -114  -106  -106  -108  -111  -108  -86  -46  -4  55  156  235  230  141  -68  -274  -103  653  1906  3416  4714  5160  4436  2755  549  -1701  -3527  -4724  -5295  -5260  -4703  -3769  -2651  -1603  -820  -361  -160  -83  -7  94  180  225  233  219  209  225  269  317  308  231  156  133  146  160  155  145  171  264  412  553  634  665  694  750  820  866  852  770  659  572  530  517  528  589  725  909  1086  1249  1412  1570  1733  1930  2155  2364  2509  2592  2669  2805  3019  3242  3336  3202  2880  2546  2355  2318  2355  2388  2349  2175  1880  1566  1303  1036  679  282  12  -81  -124  -248  -471  -705  -849  -887  -875  -862  -866  -884  -898  -875  -803  -712  -643  -607  -596  -603  -625  -672  -740  -799  -824  -815  -792  -774  -760  -717  -621  -501  -416  -391  -417  -495  -617  -745  -825  -848  -840  -830  -830  -855  -902  -932  -888  -783  -666  -561  -499  -475  -441  -394  -371  -395  -457  -519  -549  -551  -548  -553  -563  -573  -579  -581  -568  -531  -480  -440  -422  -424  -454  -515  -565  -553  -486  -381  -234  -78  23  27  -67  -188  -262  -287  -292  -299  -313  -329  -335  -324  -301  -283  -282  -289  -272  -202  -91  34  153  229  248  231  206  184  172  171  175  165  123  59  7  -17  -35  -69  -123  -187  -248  -293  -313  -290  -203  -75  37  97  108  90  48  -28  -129  -216  -276  -338  -435  -547  -597  -551  -460  -372  -301  -252  -217  -182  -169  -202  -260  -309  -338  -352  -371  -428  -547  -690  -766  -751  -709  -702  -729  -749  -730  -686  -650  -627  -590  -525  -468  -466  -501  -519  -491  -422  -346  -288  -247  -214  -197  -205  -231  -262  -295  -352  -445  -548  -626  -666  -682  -675  -614  -463  -238  -26  99  147  166  184  202  217  229  235  222  186  147  118  70  -35  -165  -226  -188  -136  -157  -256  -405  -564  -665  -660  -572  -458  -334  -217  -177  -237  -351  -491  -603  -630  -570  -492  -519  -709  -920  -897  -388  786  2450  3995  4794  4472  2996  804  -1495  -3510  -5002  -5818  -5924  -5379  -4339  -3096  -2006  -1269  -823  -509  -269  -117  -25  47  100  122  127  133  168  255  376  475  528  548  533  467  373  295  256  245  241  231  226  269  397  583  746  848  929  1050  1204  1317  1344  1312  1266  1242  1270  1365  1492  1653  1895  2157  2317  2362  2360  2363  2385  2433  2531  2701  2903  3055  3118  3124  3117  3117  3118  3093  3022  2907  2764  2589  2372  2111  1816  1510  1215  930  658  428  269  174  106  35  -52  -164  -296  -448  -619  -779  -886  -931  -933  -917  -902  -901  -921  -958  -992  -1001  -994  -990  -979  -939  -868  -791  -744  -724  -713  -714  -730  -730  -677  -579  -475  -388  -330  -329  -403  -533  -675  -764  -749  -623  -442  -301  -241  -240  -278  -361  -459  -500  -444  -331  -242  -208  -206  -208  -216  -248  -296  -328  -334  -327  -324  -325  -327  -318  -280  -209  -133  -95  -104  -125  -135  -137  -146  -172  -211  -263  -328  -390  -413  -357  -245  -152  -115  -127  -179  -252  -334  -401  -420  -392  -350  -301  -254  -221  -199  -181  -164  -144  -123  -100  -76  -76  -157  -360  -623  -813  -878  -861  -817  -786  -780  -768  -739  -723  -730  -731  -684  -589  -520  -535  -586  -611  -610  -611  -624  -644  -667  -700  -760  -863  -983  -1056  -1041  -944  -808  -704  -658  -636  -597  -520  -404  -276  -174  -110  -50  51  180  257  226  127  47  11  -35  -122  -193  -178  -111  -91  -167  -274  -331  -329  -297  -259  -220  -167  -66  104  309  472  547  553  538  531  534  531  506  454  386  336  304  254  163  59  -16  -56  -75  -82  -80  -52  18  119  210  249  213  122  29  -26  -52  -92  -191  -310  -392  -514  -751  -945  -830  -239  848  2260  3580  4292  4107  3046  1277  -873  -2947  -4576  -5580  -5882  -5505  -4636  -3545  -2475  -1564  -843  -324  -15  133  192  201  180  157  170  233  316  384  430  454  443  396  345  316  308  310  319  343  368  351  273  194  189  295  491  710  884  975  987  953  910  890  936  1061  1202  1292  1324  1344  1387  1441  1487  1563  1743  2036  2368  2644  2800  2842  2831  2821  2829  2849  2869  2887  2893  2850  2719  2532  2382  2315  2285  2194  1964  1579  1097  598  175  -91  -199  -222  -222  -228  -269  -374  -539  -720  -868  -954  -981  -969  -932  -868  -777  -679  -605  -583  -624  -703  -772  -806  -816  -828  -864  -932  -1010  -1050  -1025  -943  -838  -741  -658  -575  -498  -435  -373  -307  -258  -236  -228  -236  -284  -378  -474  -548  -625  -674  -645  -577  -533  -514  -490  -453  -428  -439  -470  -481  -443  -357  -283  -291  -368  -442  -475  -488  -513  -563  -627  -681  -710  -716  -710  -696  -669  -613  -531  -456  -423  -437  -483  -537  -589  -634  -635  -565  -464  -367  -256  -152  -108  -158  -303  -483  -604  -645  -648  -643  -620  -560  -475  -407  -378  -371  -358  -331  -308  -314  -343  -345  -292  -226  -194  -194  -198  -183  -152  -136  -152  -151  -123  -154  -261  -337  -302  -156  18  102  83  57  50  25  -16  -52  -77  -97  -116  -117  -88  -54  -39  -39  -32  -9  22  60  118  213  323  398  412  397  384  377  366  351  337  329  324  321  310  263  147  -11  -138  -195  -204  -195  -179  -150  -112  -93  -136  -261  -423  -544  -586  -578  -557  -519  -419  -263  -162  -196  -352  -623  -899  -850  -136  1295  3072  4443  4655  3491  1380  -1006  -3089  -4582  -5503  -5901  -5762  -5101  -4013  -2746  -1639  -913  -557  -406  -300  -195  -118  -85  -76  -71  -55  -15  55  141  203  230  261  337  455  567  632  646  628  586  531  481  443  415  405  429  488  553  610  673  741  793  823  832  845  892  983  1118  1275  1423  1541  1617  1643  1644  1696  1862  2103  2305  2414  2455  2475  2513  2569  2618  2637  2625  2590  2539  2467  2384  2323  2297  2260  2131  1827  1328  760  315  34  -169  -345  -463  -505  -504  -530  -635  -769  -796  -670  -507  -421  -415  -444  -469  -476  -475  -491  -536  -590  -621  -625  -619  -613  -608  -605  -604  -604  -605  -608  -612  -609  -584  -530  -446  -338  -228  -147  -87  -29  -3  -40  -99  -129  -133  -138  -172  -246  -338  -403  -423  -420  -416  -419  -430  -447  -461  -460  -429  -372  -313  -280  -269  -249  -204  -161  -160  -196  -229  -233  -194  -106  -9  35  14  -50  -122  -176  -209  -209  -179  -128  -55  29  106  179  240  245  148  -32  -213  -349  -455  -500  -462  -395  -354  -343  -344  -347  -352  -365  -381  -393  -400  -400  -396  -390  -379  -351  -303  -237  -164  -118  -133  -193  -244  -261  -263  -279  -321  -390  -461  -494  -479  -447  -417  -371  -285  -164  -63  -45  -81  -98  -87  -64  -32  3  28  14  -41  -113  -186  -255  -304  -352  -441  -555  -617  -582  -490  -406  -333  -239  -141  -51  47  135  163  127  59  2  -25  -31  -35  -42  -55  -79  -108  -131  -147  -154  -122  -22  119  229  281  305  327  350  392  473  551  533  387  184  11  -116  -221  -295  -316  -286  -240  -232  -289  -388  -493  -538  -466  -299  -125  -20  2  -31  -121  -281  -470  -616  -676  -644  -522  -201  572  1848  3279  4306  4348  3174  1233  -760  -2432  -3746  -4738  -5364  -5486  -4957  -3837  -2556  -1600  -1051  -707  -431  -220  -108  -84  -99  -116  -121  -98  -42  18  50  49  35  11  -19  -29  54  293  610  840  917  904  871  847  839  849  873  887  866  804  725  663  636  649  724  899  1141  1349  1469  1556  1699  1920  2170  2353  2403  2383  2392  2465  2617  2824  2979  3016  2963  2890  2843  2823  2813  2817  2847  2901  2948  2919  2735  2385  1991  1715  1565  1389  1077  687  362  167  32  -128  -312  -466  -567  -619  -640  -668  -736  -843  -944  -988  -951  -866  -797  -774  -781  -790  -777  -729  -663  -615  -596  -591  -590  -610  -680  -790  -883  -886  -759  -540  -336  -228  -202  -212  -236  -271  -304  -312  -294  -278  -281  -293  -301  -293  -288  -318  -366  -394  -390  -362  -322  -287  -264  -247  -229  -208  -183  -161  -140  -116  -104  -147  -270  -430  -543  -579  -571  -559  -549  -540  -532  -533  -523  -484  -438  -415  -401  -366  -315  -285  -299  -336  -357  -353  -345  -356  -390  -432  -461  -469  -465  -453  -440  -432  -438  -458  -473  -443  -330  -148  25  125  130  30  -170  -388  -495  -444  -312  -211  -188  -220  -278  -340  -387  -406  -396  -377  -381  -438  -523  -566  -527  -450  -394  -370  -355  -336  -314  -292  -277  -269  -276  -317  -413  -547  -660  -706  -688  -643  -590  -528  -458  -381  -300  -226  -164  -112  -92  -115  -159  -225  -317  -396  -434  -417  -341  -262  -233  -240  -249  -254  -262  -270  -262  -234  -198  -175  -169  -164  -147  -120  -99  -92  -93  -95  -95  -93  -88  -85  -73  -18  113  290  431  498  521  537  553  554  524  459  370  265  137  -39  -263  -469  -581  -592  -551  -491  -417  -340  -289  -273  -277  -284  -289  -283  -255  -203  -148  -138  -213  -358  -551  -806  -1033  -946  -247  1133  2939  4510  5062  4328  2651  534  -1568  -3367  -4795  -5737  -5963  -5473  -4474  -3208  -2012  -1151  -643  -380  -253  -170  -93  -35  -11  -10  -18  -28  -32  -5  73  182  275  345  420  508  587  635  650  649  647  646  653  677  726  790  850  895  923  931  912  882  872  913  1033  1215  1400  1527  1589  1624  1681  1775  1890  2003  2107  2208  2315  2428  2533  2613  2659  2680  2702  2744  2784  2788  2771  2769  2787  2792  2729  2557  2301  2038  1811  1597  1365  1112  852  600  344  54  -255  -536  -756  -885  -913  -881  -832  -774  -718  -677  -657  -658  -672  -681  -664  -609  -536  -493  -515  -586  -633  -614  -583  -583  -581  -544  -501  -524  -627  -741  -807  -827  -812  -734  -561  -336  -167  -99  -90  -103  -149  -237  -331  -401  -452  -500  -535  -545  -532  -502  -468  -443  -431  -430  -450  -504  -578  -630  -641  -621  -592  -560  -520  -469  -423  -406  -422  -448  -457  -443  -427  -439  -493  -568  -624  -646  -648  -644  -628  -589  -534  -481  -439  -407  -385  -375  -372  -374  -373  -357  -315  -270  -267  -311  -358  -380  -385  -388  -394  -399  -398  -394  -386  -363  -330  -297  -215  -19  246  443  513  511  493  452  353  181  5  -68  -13  97  177  181  123  52  0  -33  -41  5  140  325  458  488  441  372  325  311  311  314  325  352  387  398  355  262  148  38  -53  -112  -140  -152  -146  -113  -67  -37  -21  7  55  73  17  -75  -151  -205  -261  -328  -377  -371  -331  -326  -384  -463  -502  -484  -444  -415  -400  -395  -383  -358  -349  -368  -354  -254  -93  56  144  171  156  99  -8  -149  -283  -380  -440  -453  -417  -366  -347  -370  -420  -471  -523  -589  -652  -683  -687  -687  -704  -742  -791  -831  -846  -822  -736  -590  -418  -283  -321  -594  -828  -596  350  1903  3477  4304  3968  2582  612  -1459  -3378  -4988  -6056  -6351  -5808  -4625  -3253  -2110  -1338  -909  -730  -662  -579  -425  -218  -16  110  135  110  97  104  118  137  167  214  268  304  311  300  296  334  430  526  546  502  455  428  429  472  575  748  935  1056  1100  1103  1103  1128  1207  1349  1509  1616  1653  1665  1708  1845  2131  2536  2896  3051  3009  2939  2962  3047  3121  3171  3220  3273  3301  3266  3170  3025  2837  2624  2428  2296  2221  2086  1754  1254  771  431  215  78  -2  -53  -91  -121  -167  -244  -361  -503  -619  -672  -683  -693  -721  -757  -777  -770  -753  -743  -732  -707  -675  -664  -688  -727  -745  -738  -719  -679  -595  -496  -437  -430  -467  -545  -618  -613  -504  -348  -236  -205  -215  -212  -159  -72  -13  -43  -142  -244  -309  -348  -396  -471  -556  -635  -704  -738  -714  -652  -568  -466  -378  -333  -346  -399  -440  -455  -486  -530  -555  -561  -567  -578  -596  -618  -634  -639  -639  -641  -646  -644  -612  -541  -460  -398  -347  -306  -280  -267  -263  -274  -297  -317  -329  -343  -360  -370  -367  -356  -345  -340  -338  -338  -344  -364  -390  -410  -412  -393  -361  -318  -260  -181  -97  -44  -29  -27  -9  24  52  58  50  18  -61  -182  -290  -335  -303  -222  -133  -70  -42  -40  -48  -63  -79  -93  -106  -126  -151  -153  -104  -35  -14  -79  -188  -271  -304  -316  -327  -326  -292  -219  -132  -68  -41  -34  -25  -5  -4  -40  -89  -117  -129  -138  -145  -148  -151  -163  -189  -220  -239  -246  -267  -331  -428  -513  -559  -587  -628  -682  -719  -733  -748  -765  -725  -639  -607  -596  -424  39  857  1984  3117  3785  3598  2490  774  -1135  -2985  -4566  -5648  -6106  -5886  -5039  -3888  -2785  -1857  -1164  -760  -596  -555  -541  -508  -457  -411  -383  -369  -371  -379  -346  -222  -12  216  395  490  516  515  515  516  506  472  423  382  358  354  392  503  659  762  763  717  711  776  880  961  994  1004  1021  1055  1101  1150  1226  1382  1626  1891  2099  2223  2299  2376  2476  2591  2704  2806  2885  2922  2910  2861  2800  2745  2695  2635  2557  2444  2250  1933  1523  1145  873  654  416  174  -27  -164  -246  -304  -350  -376  -403  -460  -528  -580  -625  -660  -643  -523  -315  -106  21  63  55  31  16  40  108  182  213  186  134  70  -20  -109  -156  -174  -190  -208  -216  -200  -152  -86  -31  -1  6  -5  -39  -83  -115  -128  -126  -113  -86  -62  -67  -106  -153  -174  -163  -140  -125  -120  -118  -114  -108  -99  -89  -81  -81  -95  -139  -216  -311  -404  -484  -539  -559  -522  -400  -218  -60  7  -13  -105  -255  -418  -522  -534  -486  -431  -390  -342  -274  -196  -146  -171  -251  -315  -338  -350  -372  -397  -407  -410  -414  -424  -440  -456  -471  -492  -518  -536  -543  -545  -548  -544  -508  -426  -324  -256  -244  -274  -317  -345  -347  -324  -291  -269  -269  -291  -322  -345  -360  -374  -383  -378  -365  -370  -416  -473  -476  -409  -332  -294  -279  -251  -205  -157  -117  -84  -59  -35  -15  -12  -34  -78  -129  -173  -194  -188  -163  -131  -93  -32  73  203  283  270  202  131  66  -2  -83  -168  -229  -264  -299  -343  -387  -428  -465  -489  -500  -520  -573  -654  -722  -745  -741  -737  -722  -641  -478  -349  -403  -627  -871  -905  -473  521  1919  3336  4258  4226  3083  1140  -1069  -3145  -4768  -5710  -5994  -5695  -4830  -3620  -2413  -1421  -756  -433  -313  -249  -204  -185  -183  -188  -192  -181  -140  -55  64  186  271  312  340  379  437  526  628  692  700  678  645  607  607  691  827  935  978  979  954  902  835  785  761  756  778  870  1064  1300  1467  1541  1613  1774  2016  2243  2387  2465  2542  2651  2762  2837  2873  2885  2884  2878  2867  2852  2826  2765  2653  2512  2377  2237  2027  1709  1352  1066  879  737  610  497  359  147  -123  -409  -678  -893  -1012  -1040  -1031  -1029  -1021  -972  -879  -775  -700  -669  -666  -669  -664  -652  -642  -640  -648  -665  -689  -712  -722  -714  -696  -684  -684  -688  -677  -634  -564  -494  -431  -359  -281  -219  -184  -176  -209  -308  -432  -494  -475  -443  -447  -474  -487  -477  -468  -473  -473  -450  -406  -361  -328  -313  -312  -312  -300  -277  -264  -281  -310  -321  -297  -249  -211  -210  -241  -280  -305  -313  -322  -350  -384  -383  -320  -228  -188  -231  -293  -286  -228  -199  -217  -243  -252  -243  -233  -240  -254  -251  -213  -133  -30  40  30  -68  -207  -316  -367  -385  -402  -434  -461  -426  -294  -120  -7  6  -36  -98  -159  -201  -218  -219  -195  -133  -53  -1  0  -26  -47  -48  -45  -68  -132  -204  -226  -196  -148  -109  -96  -88  -49  -1  17  9  -12  -34  -49  -67  -101  -155  -209  -235  -220  -182  -153  -143  -144  -148  -155  -170  -200  -244  -289  -305  -276  -221  -181  -165  -152  -120  -83  -71  -106  -189  -275  -314  -307  -288  -276  -264  -240  -193  -119  -26  61  114  127  125  143  204  290  353  368  344  308  284  281  294  314  317  248  62  -184  -363  -422  -414  -408  -441  -512  -601  -677  -704  -655  -534  -397  -309  -285  -307  -361  -426  -471  -489  -530  -670  -907  -1116  -1187  -1092  -761  -41  1116  2516  3748  4311  3834  2374  378  -1679  -3505  -4939  -5833  -6022  -5465  -4354  -3063  -1983  -1311  -956  -703  -447  -237  -137  -130  -142  -129  -92  -52  -15  33  93  121  94  64  92  177  296  429  551  632  666  672  664  651  644  650  658  661  668  704  783  890  985  1035  1049  1075  1165  1313  1447  1510  1512  1506  1552  1719  2044  2426  2686  2767  2753  2729  2716  2712  2730  2791  2892  3012  3129  3214  3246  3221  3125  2965  2769  2532  2219  1846  1481  1184  970  793  580  292  -29  -288  -414  -434  -424  -439  -504  -603  -688  -739  -780  -825  -858  -857  -827  -791  -744  -669  -590  -553  -570  -624  -658  -646  -628  -636  -657  -671  -659  -626  -597  -583  -583  -594  -601  -583  -534  -477  -438  -426  -428  -432  -434  -433  -432  -429  -424  -415  -411  -441  -529  -645  -711  -684  -601  -530  -503  -504  -511  -515  -518  -517  -508  -487  -469  -466  -475  -488  -498  -510  -532  -564  -592  -600  -568  -492  -409  -361  -350  -379  -455  -524  -531  -486  -417  -336  -261  -210  -187  -195  -240  -314  -398  -470  -515  -523  -486  -414  -346  -292  -225  -157  -124  -126  -142  -153  -151  -140  -136  -150  -175  -197  -211  -212  -202  -190  -174  -161  -161  -182  -218  -253  -272  -285  -311  -349  -374  -371  -347  -329  -335  -362  -403  -455  -497  -502  -443  -314  -153  -27  17  -14  -74  -121  -154  -205  -301  -400  -430  -392  -344  -321  -330  -356  -375  -384  -391  -401  -408  -398  -365  -320  -286  -271  -265  -256  -236  -204  -158  -89  -15  32  46  51  46  -12  -153  -295  -296  -147  24  138  207  251  258  234  203  175  153  129  114  101  27  -143  -352  -516  -600  -619  -612  -606  -607  -608  -591  -540  -468  -412  -396  -410  -440  -464  -466  -451  -447  -476  -513  -549  -630  -672  -363  555  2000  3541  4550  4488  3291  1380  -709  -2606  -4113  -5125  -5625  -5586  -4971  -3898  -2617  -1462  -748  -494  -451  -407  -294  -117  71  208  287  359  455  548  603  626  645  665  660  609  533  484  486  521  572  641  719  774  792  788  780  778  800  879  1016  1149  1230  1288  1367  1458  1523  1553  1579  1631  1703  1756  1776  1789  1854  2028  2293  2544  2714  2848  2987  3107  3179  3212  3236  3276  3321  3349  3348  3310  3235  3120  2944  2686  2388  2130  1917  1676  1369  1007  587  148  -179  -317  -319  -280  -259  -283  -371  -509  -657  -775  -837  -836  -797  -741  -689  -653  -632  -618  -607  -602  -602  -601  -598  -591  -583  -563  -510  -431  -368  -347  -351  -352  -332  -292  -256  -250  -285  -339  -377  -394  -414  -450  -466  -424  -364  -356  -405  -479  -539  -559  -541  -504  -468  -433  -380  -330  -327  -383  -468  -534  -567  -587  -629  -687  -675  -543  -372  -242  -149  -88  -94  -194  -350  -476  -540  -585  -647  -728  -807  -853  -845  -779  -681  -593  -541  -522  -522  -525  -523  -516  -515  -523  -518  -473  -402  -340  -300  -276  -260  -247  -243  -251  -267  -284  -301  -317  -336  -366  -410  -451  -468  -445  -394  -337  -276  -208  -130  -39  30  26  -44  -140  -245  -344  -406  -432  -441  -433  -390  -291  -171  -103  -122  -197  -272  -304  -287  -251  -221  -191  -145  -88  -35  7  23  -14  -102  -198  -262  -286  -284  -250  -171  -79  -38  -53  -46  11  58  49  6  -38  -74  -100  -119  -133  -123  -59  71  231  357  412  407  376  342  311  274  213  135  76  49  28  -11  -78  -169  -266  -335  -355  -345  -330  -319  -316  -328  -371  -440  -504  -539  -550  -555  -551  -535  -520  -543  -599  -623  -620  -703  -875  -885  -383  756  2301  3741  4424  3948  2468  409  -1802  -3749  -5133  -5813  -5752  -5078  -4061  -2982  -2037  -1298  -749  -375  -178  -107  -65  33  212  401  500  503  471  425  376  354  374  432  496  531  537  546  582  640  692  716  720  726  753  811  886  949  990  1019  1049  1110  1227  1369  1476  1522  1539  1578  1661  1757  1821  1834  1819  1832  1948  2194  2479  2675  2754  2773  2778  2771  2757  2775  2854  2976  3094  3164  3157  3050  2843  2585  2355  2208  2122  1981  1669  1189  662  224  -55  -188  -228  -242  -286  -368  -459  -530  -574  -597  -614  -654  -741  -846  -903  -880  -812  -761  -748  -752  -737  -679  -595  -530  -504  -499  -499  -509  -550  -635  -732  -785  -779  -724  -634  -553  -518  -515  -514  -512  -512  -513  -510  -501  -487  -475  -470  -477  -504  -553  -618  -680  -721  -747  -783  -837  -881  -881  -824  -721  -608  -517  -461  -441  -453  -482  -531  -601  -662  -687  -689  -693  -706  -715  -706  -686  -659  -615  -560  -514  -489  -479  -475  -475  -477  -482  -488  -493  -498  -498  -483  -444  -393  -353  -341  -364  -424  -506  -574  -610  -617  -603  -585  -576  -575  -577  -580  -584  -589  -591  -578  -532  -451  -350  -259  -206  -191  -196  -202  -205  -204  -197  -185  -183  -206  -259  -348  -474  -592  -637  -608  -555  -503  -436  -356  -286  -238  -212  -205  -214  -234  -250  -256  -260  -261  -247  -220  -197  -190  -201  -222  -243  -250  -216  -116  29  154  219  262  339  447  530  551  499  360  158  -29  -140  -185  -203  -216  -238  -266  -304  -362  -427  -503  -605  -691  -692  -612  -517  -454  -424  -408  -395  -361  -300  -279  -388  -615  -710  -265  857  2344  3682  4303  3823  2362  374  -1684  -3490  -4845  -5587  -5655  -5178  -4345  -3342  -2349  -1502  -869  -462  -260  -199  -184  -132  -11  157  313  392  382  321  253  208  206  264  382  517  609  638  630  609  581  545  516  518  578  695  822  902  923  916  930  995  1097  1198  1283  1357  1424  1478  1503  1499  1495  1527  1620  1776  1973  2159  2291  2373  2463  2592  2726  2836  2938  3052  3157  3226  3255  3258  3238  3170  3024  2770  2422  2073  1802  1557  1238  865  549  346  204  47  -120  -242  -306  -358  -434  -529  -617  -670  -680  -665  -650  -659  -689  -702  -679  -640  -601  -559  -501  -415  -316  -243  -212  -205  -211  -244  -322  -424  -499  -523  -516  -504  -501  -516  -554  -600  -638  -654  -626  -558  -479  -445  -501  -588  -603  -563  -534  -532  -545  -560  -567  -563  -548  -528  -503  -470  -439  -424  -438  -492  -572  -644  -683  -681  -632  -549  -457  -374  -319  -306  -318  -327  -323  -312  -305  -305  -300  -279  -250  -235  -250  -272  -272  -257  -256  -284  -316  -329  -322  -306  -294  -282  -245  -168  -80  -52  -131  -280  -405  -456  -455  -439  -431  -437  -448  -438  -397  -338  -285  -255  -249  -250  -251  -255  -270  -297  -331  -355  -362  -362  -360  -360  -356  -344  -318  -277  -229  -197  -219  -322  -462  -558  -570  -517  -443  -379  -317  -240  -161  -115  -123  -181  -256  -307  -323  -319  -309  -298  -285  -273  -265  -261  -258  -257  -263  -278  -302  -329  -344  -330  -273  -193  -132  -103  -89  -80  -90  -133  -199  -228  -180  -102  -32  48  137  196  216  216  210  198  179  163  161  173  186  189  162  77  -78  -258  -386  -435  -434  -422  -410  -393  -367  -349  -356  -380  -404  -420  -434  -451  -465  -462  -433  -377  -330  -359  -468  -615  -715  -537  164  1398  2891  4106  4418  3538  1726  -441  -2470  -4101  -5193  -5708  -5707  -5206  -4224  -2957  -1729  -801  -256  -35  -10  -51  -88  -96  -48  73  232  350  388  357  275  181  149  220  348  445  479  476  465  453  437  423  419  406  371  351  390  475  576  697  828  918  941  932  959  1067  1231  1393  1536  1667  1780  1879  1967  2044  2128  2237  2367  2495  2597  2662  2715  2794  2905  3025  3117  3161  3165  3150  3119  3041  2874  2640  2423  2258  2073  1763  1340  964  747  622  454  205  -38  -191  -286  -412  -570  -672  -676  -625  -574  -550  -553  -578  -629  -692  -738  -759  -761  -744  -697  -628  -564  -522  -500  -493  -504  -539  -584  -609  -596  -556  -517  -495  -469  -418  -356  -311  -286  -264  -245  -244  -272  -319  -359  -376  -377  -374  -373  -373  -376  -384  -404  -448  -507  -524  -473  -423  -427  -477  -532  -532  -462  -387  -354  -353  -358  -359  -365  -390  -431  -466  -479  -471  -462  -461  -455  -426  -402  -417  -452  -471  -469  -460  -451  -412  -305  -166  -81  -96  -179  -250  -282  -324  -382  -406  -382  -360  -407  -505  -558  -542  -509  -483  -450  -400  -354  -334  -333  -331  -313  -274  -233  -210  -201  -196  -188  -182  -188  -202  -221  -249  -286  -320  -333  -310  -248  -172  -117  -91  -80  -76  -80  -80  -54  -11  7  -27  -97  -148  -159  -160  -173  -190  -195  -188  -177  -174  -175  -175  -170  -156  -126  -88  -57  -41  -33  -24  -17  -33  -97  -204  -301  -339  -321  -269  -209  -153  -104  -67  -49  -46  -47  -50  -68  -110  -161  -207  -260  -316  -351  -330  -224  -37  158  279  314  312  302  284  259  238  215  158  42  -111  -239  -307  -334  -348  -357  -360  -355  -351  -377  -447  -547  -651  -729  -746  -691  -599  -526  -491  -480  -498  -545  -561  -500  -449  -519  -638  -501  225  1621  3285  4468  4554  3399  1331  -1046  -3222  -4963  -6128  -6594  -6348  -5465  -4121  -2649  -1414  -641  -323  -275  -308  -330  -317  -263  -186  -110  -50  -10  1  -6  -12  -4  1  -19  -59  -50  63  229  346  378  362  343  369  473  630  764  828  860  922  1023  1124  1193  1241  1312  1435  1574  1665  1688  1686  1718  1813  1938  2024  2049  2055  2096  2223  2441  2689  2889  3019  3140  3318  3524  3675  3740  3746  3711  3619  3463  3265  3033  2774  2510  2226  1903  1559  1222  924  684  463  215  -44  -252  -360  -383  -371  -352  -325  -295  -274  -267  -263  -251  -232  -219  -221  -233  -244  -266  -321  -397  -472  -536  -573  -571  -549  -508  -432  -336  -257  -207  -174  -152  -133  -112  -100  -108  -129  -148  -158  -161  -155  -138  -116  -96  -85  -85  -104  -148  -220  -300  -351  -342  -269  -167  -84  -35  0  37  50  -5  -121  -231  -302  -359  -417  -462  -487  -494  -474  -406  -302  -200  -131  -112  -143  -201  -250  -274  -276  -271  -275  -302  -361  -442  -520  -553  -520  -451  -386  -343  -320  -308  -293  -264  -218  -168  -145  -177  -251  -349  -451  -530  -573  -581  -553  -499  -444  -411  -403  -409  -414  -404  -373  -329  -296  -285  -289  -303  -322  -338  -347  -350  -346  -332  -302  -267  -247  -249  -267  -299  -335  -364  -383  -394  -389  -357  -284  -190  -124  -138  -244  -394  -507  -554  -562  -559  -537  -478  -395  -336  -311  -265  -139  32  148  152  77  -17  -91  -131  -151  -177  -216  -245  -244  -215  -176  -153  -148  -151  -152  -155  -166  -183  -185  -164  -149  -173  -237  -303  -324  -262  -123  -3  17  -16  -28  -6  35  77  114  167  258  369  443  451  412  363  358  387  345  196  33  -77  -168  -285  -425  -540  -590  -574  -520  -467  -415  -340  -268  -262  -336  -447  -530  -573  -612  -661  -687  -674  -637  -542  -395  -349  -490  -660  -597  -44  1121  2655  3964  4418  3693  2004  -111  -2185  -3961  -5304  -6066  -6120  -5522  -4528  -3438  -2465  -1698  -1132  -718  -397  -149  -7  30  18  -1  -18  -24  6  106  264  416  502  528  527  521  508  483  450  431  462  573  726  853  924  923  866  803  771  780  814  850  903  1013  1159  1260  1284  1278  1323  1466  1678  1877  2011  2099  2173  2236  2276  2322  2427  2590  2747  2869  2986  3107  3197  3238  3243  3220  3157  3061  2971  2904  2813  2609  2227  1726  1290  1042  904  715  411  63  -237  -444  -548  -589  -624  -678  -733  -760  -756  -744  -760  -833  -957  -1096  -1213  -1282  -1308  -1314  -1295  -1218  -1074  -910  -786  -715  -668  -633  -612  -604  -602  -613  -650  -702  -736  -742  -760  -841  -988  -1132  -1196  -1156  -1041  -894  -733  -585  -505  -517  -579  -628  -637  -628  -649  -752  -924  -1083  -1156  -1146  -1094  -1017  -909  -805  -767  -804  -891  -1015  -1131  -1180  -1132  -989  -811  -690  -653  -661  -676  -682  -667  -622  -559  -508  -481  -478  -523  -643  -800  -908  -934  -915  -898  -917  -985  -1086  -1166  -1173  -1130  -1100  -1091  -1046  -936  -834  -834  -909  -964  -935  -809  -636  -497  -430  -420  -452  -520  -604  -672  -713  -739  -741  -688  -580  -486  -470  -509  -544  -553  -541  -505  -442  -369  -317  -295  -290  -289  -302  -331  -336  -281  -206  -170  -182  -217  -246  -273  -317  -361  -384  -382  -359  -330  -315  -312  -316  -328  -344  -338  -276  -168  -69  -8  32  70  119  178  248  335  439  544  640  712  709  577  343  113  -38  -129  -197  -225  -193  -129  -65  -4  43  61  47  21  4  -2  -10  -15  -9  0  0  -8  -3  13  -23  -157  -236  50  868  2064  3343  4313  4485  3675  2168  322  -1604  -3348  -4675  -5403  -5405  -4741  -3654  -2405  -1250  -433  -34  80  116  207  373  545  654  726  842  1012  1154  1197  1147  1070  1028  1063  1181  1305  1354  1356  1363  1373  1373  1368  1384  1435  1499  1545  1565  1568  1568  1586  1630  1680  1722  1780  1883  2016  2139  2223  2280  2344  2436  2551  2701  2883  3044  3145  3203  3246  3287  3329  3375  3449  3573  3734  3902  4043  4126  4129  4021  3795  3523  3312  3164  2972  2658  2261  1884  1601  1437  1324  1133  802  406  57  -177  -285  -301  -285  -274  -269  -265  -264  -272  -300  -347  -393  -411  -397  -379  -387  -418  -434  -414  -370  -338  -348  -401  -475  -544  -593  -626  -646  -640  -606  -559  -514  -467  -410  -348  -302  -298  -357  -488  -650  -777  -834  -828  -778  -704  -630  -575  -547  -558  -634  -781  -939  -1012  -980  -904  -842  -813  -805  -800  -798  -825  -904  -990  -1000  -922  -830  -777  -747  -719  -716  -752  -788  -794  -797  -818  -843  -855  -846  -823  -795  -770  -751  -733  -720  -721  -739  -765  -787  -800  -808  -812  -806  -786  -758  -745  -761  -790  -833  -914  -1018  -1090  -1099  -1067  -1024  -973  -885  -757  -641  -595  -628  -702  -767  -804  -820  -824  -809  -766  -715  -691  -707  -725  -706  -654  -601  -567  -557  -573  -620  -693  -763  -807  -812  -781  -718  -639  -627  -743  -914  -1015  -1009  -941  -892  -894  -911  -896  -854  -817  -790  -725  -594  -451  -353  -298  -257  -223  -207  -215  -242  -271  -303  -367  -498  -682  -845  -930  -940  -918  -894  -877  -863  -844  -820  -800  -787  -780  -792  -838  -906  -962  -987  -982  -940  -860  -776  -748  -848  -1081  -1281  -1190  -553  776  2546  4028  4474  3629  1820  -363  -2410  -4050  -5237  -5883  -5860  -5229  -4168  -2892  -1743  -1023  -725  -599  -443  -236  -50  59  92  90  111  197  334  458  542  620  706  770  793  792  784  772  762  777  836  919  1003  1090  1175  1233  1253  1255  1254  1245  1221  1194  1199  1257  1351  1450  1549  1676  1835  1978  2073  2134  2202  2313  2468  2632  2773  2923  3139  3416  3676  3858  3958  3986  3948  3862  3768  3702  3663  3605  3480  3275  3010  2719  2414  2062  1659  1298  1063  917  752  490  166  -93  -209  -218  -191  -167  -165  -191  -233  -282  -347  -433  -518  -585  -625  -634  -623  -615  -613  -591  -523  -420  -331  -291  -304  -350  -385  -378  -353  -336  -333  -343  -357  -371  -394  -430  -460  -461  -436  -409  -387  -361  -336  -332  -350  -371  -371  -347  -310  -281  -270  -284  -327  -388  -441  -470  -479  -482  -487  -491  -474  -415  -329  -259  -229  -233  -260  -316  -396  -470  -514  -530  -531  -526  -521  -528  -560  -607  -611  -544  -457  -402  -371  -340  -304  -275  -267  -311  -428  -582  -697  -739  -733  -732  -756  -778  -764  -722  -682  -672  -698  -731  -738  -709  -649  -562  -446  -325  -250  -249  -315  -409  -482  -521  -545  -554  -534  -475  -386  -289  -211  -172  -185  -234  -279  -311  -347  -365  -326  -239  -144  -79  -60  -89  -138  -175  -187  -185  -181  -180  -182  -186  -188  -174  -129  -63  -2  26  21  0  -23  -42  -53  -54  -51  -50  -60  -93  -152  -209  -217  -173  -119  -85  -67  -49  -16  33  92  141  170  193  227  263  288  303  304  291  276  269  273  281  267  179  -19  -288  -513  -620  -633  -621  -639  -712  -814  -879  -872  -812  -747  -701  -671  -670  -715  -809  -931  -1022  -1042  -1017  -1002  -1032  -1100  -1190  -1252  -1059  -299  1091  2787  4163  4592  3833  2134  -2  -2137  -4025  -5501  -6367  -6483  -5850  -4572  -3007  -1713  -974  -643  -497  -426  -362  -252  -70  158  351  433  419  380  356  344  341  372  470  620  763  855  894  900  901  909  914  894  828  738  663  623  611  615  626  656  721  834  1013  1222  1372  1428  1443  1482  1565  1678  1806  1934  2029  2093  2171  2303  2476  2634  2730  2765  2784  2823  2874  2907  2919  2936  2974  3000  2976  2900  2783  2631  2430  2125  1695  1205  721  309  51  -40  -47  -72  -195  -451  -776  -1031  -1141  -1143  -1103  -1056  -1005  -946  -892  -848  -793  -715  -620  -531  -499  -564  -713  -884  -997  -1030  -1023  -1014  -1016  -1020  -1006  -965  -898  -815  -731  -653  -559  -444  -345  -285  -261  -288  -369  -472  -561  -619  -649  -673  -694  -703  -701  -701  -704  -709  -719  -752  -812  -858  -828  -710  -583  -559  -649  -767  -840  -861  -860  -852  -817  -731  -621  -552  -560  -623  -691  -731  -736  -710  -648  -553  -448  -371  -335  -334  -374  -468  -579  -639  -630  -597  -579  -579  -584  -581  -558  -514  -450  -360  -241  -126  -78  -131  -251  -359  -402  -370  -295  -222  -191  -212  -258  -295  -309  -305  -284  -249  -210  -189  -208  -278  -376  -455  -498  -508  -467  -347  -182  -53  9  35  45  16  -73  -196  -289  -325  -325  -303  -253  -186  -135  -136  -209  -336  -460  -528  -540  -528  -514  -501  -474  -415  -320  -207  -108  -53  -70  -172  -330  -480  -563  -564  -494  -374  -238  -124  -53  -13  39  143  291  430  519  565  580  519  325  50  -144  -177  -130  -98  -94  -98  -106  -121  -139  -153  -159  -162  -164  -152  -114  -55  0  23  -20  -156  -363  -591  -776  -864  -855  -686  -192  709  1946  3239  4104  4136  3265  1732  -107  -1989  -3724  -5075  -5781  -5732  -5036  -3968  -2857  -1902  -1143  -592  -241  3  223  381  431  409  372  352  351  365  382  390  382  381  400  398  385  440  571  688  745  772  799  830  856  868  845  778  705  694  773  914  1068  1189  1254  1274  1293  1376  1540  1728  1862  1930  1959  1974  1996  2052  2163  2315  2455  2536  2565  2581  2623  2718  2886  3109  3318  3452  3515  3525  3435  3168  2786  2474  2325  2238  2046  1659  1155  727  481  343  197  7  -193  -349  -455  -550  -647  -718  -756  -776  -793  -805  -782  -699  -585  -504  -477  -474  -464  -450  -452  -472  -497  -531  -584  -653  -721  -777  -801  -752  -607  -411  -259  -196  -203  -266  -389  -537  -640  -674  -673  -675  -678  -659  -629  -644  -714  -778  -780  -721  -658  -628  -584  -484  -390  -363  -384  -412  -420  -402  -381  -376  -393  -426  -488  -597  -730  -813  -809  -758  -708  -656  -588  -536  -542  -588  -627  -645  -646  -639  -638  -649  -682  -749  -844  -930  -958  -922  -848  -743  -625  -540  -513  -534  -590  -656  -699  -718  -736  -760  -757  -694  -604  -543  -528  -535  -529  -492  -432  -363  -290  -225  -167  -102  -44  -23  -27  -19  36  132  208  206  147  88  59  46  14  -79  -235  -400  -508  -530  -517  -536  -585  -630  -664  -674  -613  -447  -253  -170  -223  -310  -352  -362  -374  -390  -377  -345  -390  -542  -598  -229  741  2202  3697  4498  4135  2742  736  -1430  -3329  -4725  -5556  -5773  -5369  -4443  -3220  -1999  -1046  -480  -251  -199  -164  -73  62  190  265  283  273  258  247  258  327  458  597  682  705  701  700  704  706  705  708  738  809  897  958  993  1026  1059  1089  1130  1169  1186  1186  1194  1236  1320  1427  1530  1629  1741  1861  1970  2070  2171  2278  2407  2575  2782  3011  3220  3354  3406  3416  3420  3430  3454  3475  3416  3182  2795  2433  2237  2154  1995  1614  1078  622  393  328  243  -4  -357  -624  -715  -699  -655  -617  -599  -621  -685  -760  -829  -908  -982  -1017  -1017  -1017  -1030  -1044  -1045  -1028  -1002  -981  -974  -979  -982  -957  -893  -819  -754  -683  -609  -549  -501  -463  -427  -386  -367  -400  -470  -535  -560  -541  -523  -549  -610  -659  -681  -694  -721  -764  -806  -833  -849  -860  -846  -768  -637  -537  -520  -553  -582  -602  -626  -649  -644  -600  -541  -504  -500  -514  -526  -528  -530  -542  -566  -576  -557  -531  -537  -596  -681  -743  -757  -734  -696  -656  -619  -596  -587  -572  -541  -508  -495  -508  -535  -553  -551  -516  -445  -364  -317  -314  -332  -362  -394  -417  -423  -422  -422  -429  -442  -460  -485  -505  -494  -442  -373  -315  -267  -196  -78  58  155  198  227  259  268  228  160  112  99  92  46  -66  -223  -351  -398  -388  -396  -461  -552  -625  -665  -670  -642  -568  -450  -360  -389  -507  -621  -693  -694  -627  -506  -322  -187  -215  -215  198  1191  2573  3910  4602  4120  2478  241  -1969  -3744  -4886  -5416  -5456  -5034  -4089  -2751  -1471  -655  -280  -92  30  97  158  297  509  694  781  789  772  765  769  757  704  630  599  660  789  913  983  1004  1001  992  988  1006  1063  1140  1196  1217  1230  1259  1294  1327  1383  1476  1566  1619  1647  1667  1691  1731  1792  1871  1960  2061  2196  2400  2677  2947  3107  3148  3136  3122  3118  3135  3174  3210  3218  3214  3220  3225  3184  3028  2717  2314  1914  1561  1252  961  669  430  310  287  258  137  -63  -271  -435  -542  -615  -704  -816  -925  -1018  -1078  -1103  -1114  -1111  -1056  -916  -743  -634  -604  -602  -612  -637  -662  -661  -621  -594  -649  -773  -899  -986  -1047  -1113  -1163  -1152  -1087  -1017  -971  -919  -809  -660  -549  -500  -472  -436  -402  -383  -390  -442  -550  -671  -750  -775  -775  -766  -730  -650  -536  -411  -292  -209  -186  -216  -260  -282  -311  -393  -489  -535  -536  -521  -513  -536  -610  -704  -737  -652  -482  -308  -197  -166  -207  -312  -458  -598  -707  -770  -723  -564  -417  -376  -429  -514  -576  -604  -608  -581  -507  -409  -347  -357  -427  -526  -625  -691  -704  -683  -659  -638  -607  -570  -548  -538  -514  -453  -381  -353  -376  -417  -450  -476  -500  -521  -541  -555  -546  -507  -462  -441  -451  -470  -456  -403  -357  -343  -344  -342  -343  -372  -444  -522  -543  -511  -477  -466  -462  -460  -458  -428  -330  -186  -78  -40  -28  4  55  94  109  89  12  -126  -290  -427  -514  -555  -572  -598  -652  -693  -662  -572  -506  -503  -538  -594  -675  -771  -841  -870  -883  -905  -906  -784  -496  -224  -223  -472  -627  -337  581  2064  3590  4306  3696  2002  -140  -2204  -3848  -4946  -5552  -5644  -5061  -3891  -2624  -1675  -1093  -770  -587  -452  -334  -234  -147  -77  -45  -65  -102  -109  -67  14  102  163  190  190  194  242  327  425  528  622  688  731  756  756  736  712  716  767  840  885  882  857  859  918  1029  1186  1373  1547  1689  1817  1957  2098  2213  2299  2358  2389  2415  2454  2479  2456  2439  2548  2814  3114  3320  3423  3461  3429  3279  3001  2698  2487  2352  2160  1825  1396  989  699  548  477  395  229  -27  -298  -507  -636  -693  -683  -619  -536  -476  -450  -441  -440  -460  -504  -532  -510  -459  -421  -409  -410  -415  -436  -494  -586  -670  -709  -710  -683  -601  -432  -218  -69  -47  -129  -246  -326  -343  -320  -291  -269  -250  -235  -233  -248  -282  -343  -436  -538  -612  -634  -579  -427  -214  -24  87  115  72  -6  -89  -183  -318  -470  -584  -632  -617  -546  -433  -315  -242  -245  -323  -433  -509  -514  -452  -360  -273  -200  -151  -156  -209  -257  -265  -241  -216  -213  -238  -302  -379  -400  -351  -290  -262  -259  -262  -270  -293  -315  -281  -211  -216  -311  -420  -500  -521  -467  -386  -315  -252  -185  -115  -77  -95  -121  -110  -77  2  142  263  270  130  -106  -326  -448  -479  -445  -349  -205  -53  63  132  172  196  200  178  132  74  26  -20  -92  -174  -190  -102  14  39  -45  -145  -189  -185  -172  -170  -181  -200  -221  -238  -252  -270  -278  -243  -147  -32  33  32  1  -52  -148  -240  -234  -94  115  295  392  413  401  381  357  323  290  292  320  307  220  101]
