reading_id,reading_time,wire_id,result_classification,heart_rate,heart_rate_alert,firmware_version,device_app_version,hardware_version,waveform_samples
4090a570-6f33-11ed-8080-808080808080,Mon Nov 28 15:42:23 UTC 2022,a101e3b72739,NSR,59,NONE,20001.171.50,2.10.0,Charge 5,[-20015  -20685  -21082  -21194  -21168  -21085  -20923  -20647  -20238  -19707  -19118  -18457  -17578  -16454  -15238  -14042  -12871  -11782  -10929  -10387  -10032  -9692  -9290  -8780  -8190  -7754  -7653  -7809  -8110  -8458  -8721  -8886  -9003  -9057  -8973  -8694  -8316  -7990  -7709  -7312  -6667  -5869  -5137  -4430  -3417  -1844  313  2955  5885  8810  11322  13041  13919  14226  14273  14226  14111  13945  13798  13740  13779  13862  13953  14086  14315  14645  15046  15433  15686  15776  15778  15751  15689  15564  15409  15303  15273  15286  15305  15287  15154  14850  14448  14117  13940  13877  13858  13846  13834  13867  14040  14468  15181  15989  16551  16535  15659  13927  11837  9981  8680  8032  7902  8002  8137  8240  8273  8218  8101  7988  7929  7921  7929  7894  7764  7559  7367  7249  7202  7198  7213  7224  7221  7213  7211  7211  7195  7152  7101  7076  7094  7155  7244  7327  7373  7360  7263  7086  6903  6793  6763  6770  6781  6787  6794  6797  6763  6642  6420  6172  5993  5874  5711  5463  5189  4953  4763  4576  4333  3999  3642  3404  3340  3386  3461  3520  3547  3517  3392  3179  2970  2852  2798  2653  2273  1732  1278  1043  961  918  829  664  460  289  183  95  -62  -324  -601  -772  -806  -766  -716  -678  -657  -652  -661  -685  -722  -765  -814  -861  -890  -892  -880  -889  -958  -1111  -1331  -1552  -1699  -1772  -1842  -1948  -2042  -2054  -1985  -1899  -1837  -1793  -1762  -1743  -1723  -1678  -1603  -1520  -1460  -1410  -1340  -1255  -1189  -1156  -1142  -1130  -1112  -1079  -1031  -975  -917  -875  -868  -890  -912  -918  -920  -944  -1003  -1076  -1123  -1118  -1059  -947  -797  -650  -551  -505  -478  -443  -429  -475  -568  -662  -728  -764  -778  -780  -783  -790  -796  -807  -849  -946  -1105  -1290  -1429  -1477  -1444  -1366  -1285  -1225  -1185  -1140  -1080  -1039  -1079  -1199  -1333  -1442  -1525  -1587  -1637  -1714  -1849  -2017  -2174  -2306  -2433  -2580  -2763  -2975  -3190  -3357  -3414  -3355  -3240  -3124  -3017  -2890  -2741  -2635  -2622  -2678  -2733  -2625  -2127  -1141  232  1687  2703  2845  2059  565  -1289  -3051  -4371  -5135  -5349  -5086  -4516  -3811  -3067  -2372  -1869  -1621  -1518  -1410  -1257  -1113  -997  -891  -802  -755  -745  -743  -725  -689  -652  -632  -630  -638  -651  -665  -671  -650  -581  -469  -345  -231  -127  -39  16  30  22  59  234  576  970  1272  1458  1590  1695  1769  1834  1927  2054  2195  2320  2412  2463  2479  2484  2489  2479  2419  2289  2108  1889  1618  1313  1025  775  545  325  115  -87  -277  -426  -519  -580  -655  -746  -815  -841  -833  -797  -730  -633  -533  -473  -486  -570  -670  -711  -680  -623  -569  -522  -488  -473  -471  -483  -512  -539  -537  -500  -454  -423  -409  -386  -329  -247  -174  -125  -109  -141  -229  -358  -493  -596  -667  -728  -782  -814  -820  -815  -810  -813  -827  -838  -801  -663  -434  -192  -13  56  28  -37  -92  -131  -157  -168  -171  -173  -173  -168  -166  -182  -224  -266  -280  -288  -319  -349  -331  -242  -83  96  210  223  173  121  109  133  160  172  176  182  187  182  158  125  100  92  95  97  87  67  49  42  39  37  42  53  34  -61  -240  -443  -600  -695  -753  -795  -821  -829  -824  -812  -792  -764  -716  -638  -530  -408  -276  -136  -11  82  173  294  425  504  497  434  371  325  272  195  113  45  -29  -136  -253  -340  -368  -341  -288  -241  -213  -194  -152  -65  49  157  260  356  384  294  113  -77  -107  235  1036  2201  3460  4321  4307  3351  1749  -123  -1917  -3288  -4039  -4200  -3846  -3099  -2246  -1492  -843  -339  -51  62  129  243  387  469  443  355  277  229  197  180  187  222  271  310  337  366  405  446  483  522  569  619  669  742  861  1011  1153  1254  1313  1349  1381  1439  1556  1729  1899  2007  2070  2143  2248  2369  2476  2537  2552  2564  2618  2704  2762  2747  2673  2578  2464  2299  2059  1795  1573  1374  1139  863  607  430  330  252  137  -29  -216  -369  -457  -487  -479  -450  -413  -383  -370  -376  -415  -494  -588  -659  -678  -633  -540  -424  -292  -163  -78  -49  -46  -49  -76  -152  -256  -334  -359  -353  -339  -333  -354  -434  -582  -753  -879  -927  -923  -910  -911  -921  -933  -947  -988  -1085  -1228  -1367  -1466  -1513  -1517  -1510  -1534  -1614  -1726  -1809  -1835  -1826  -1822  -1843  -1894  -1958  -2007  -2038  -2073  -2114  -2144  -2157  -2163  -2163  -2138  -2055  -1913  -1759  -1651  -1600  -1572  -1528  -1455  -1388  -1369  -1387  -1396  -1385  -1375  -1373  -1375  -1372  -1359  -1333  -1291  -1235  -1181  -1132  -1063  -968  -863  -793  -819  -930  -1037  -1084  -1086  -1070  -1048  -1032  -1026  -1025  -1013  -964  -859  -717  -583  -469  -356  -230  -99  49  238  446  621  733  782  789  783  776  757  712  650  598  572  568  586  629  689  739  764  777  784  758  686  616  600  645  719  784  823  849  864  854  855  870  811  701  788  1323  2330  3545  4468  4615  3899  2596  1008  -643  -2136  -3269  -3884  -3876  -3297  -2400  -1488  -765  -274  40  227  325  390  453  504  529  553  602  663  703  711  707  699  689  681  700  752  787  760  704  672  666  666  660  661  694  755  811  859  937  1060  1190  1287  1360  1450  1589  1770  1942  2063  2142  2208  2266  2298  2301  2287  2273  2257  2207  2088  1925  1772  1622  1434  1225  1042  858  596  226  -175  -497  -694  -809  -908  -1017  -1107  -1150  -1156  -1150  -1146  -1142  -1137  -1136  -1147  -1160  -1156  -1122  -1068  -1031  -1025  -1029  -1010  -974  -946  -941  -948  -937  -874  -747  -598  -496  -457  -450  -459  -499  -562  -597  -568  -497  -421  -364  -332  -309  -279  -239  -190  -144  -116  -109  -118  -133  -144  -140  -115  -58  22  102  155  160  108  24  -57  -124  -173  -178  -128  -88  -131  -238  -330  -371  -379  -373  -347  -290  -216  -154  -113  -88  -77  -75  -60  -11  50  65  -13  -159  -289  -355  -383  -415  -455  -462  -391  -260  -135  -57  -37  -72  -127  -162  -173  -174  -166  -126  -21  132  267  334  343  322  296  278  262  229  180  115  40  -22  -56  -67  -67  -63  -50  -32  -19  -19  -27  -40  -47  -43  -35  -25  -10  13  42  52  -3  -120  -147  120  790  1810  2914  3607  3475  2490  952  -704  -2158  -3305  -4087  -4396  -4193  -3537  -2577  -1593  -896  -591  -502  -405  -241  -86  2  43  84  146  206  239  245  241  239  244  257  270  275  277  297  357  448  531  584  624  681  759  839  915  1011  1120  1191  1202  1197  1244  1390  1598  1774  1880  1945  2002  2066  2137  2201  2242  2259  2267  2270  2263  2241  2201  2141  2051  1906  1693  1419  1091  743  446  215  10  -195  -408  -611  -772  -886  -968  -1027  -1073  -1112  -1137  -1147  -1146  -1140  -1137  -1134  -1123  -1093  -1058  -1046  -1050  -1039  -1018  -1010  -1021  -1046  -1069  -1081  -1074  -1007  -846  -654  -528  -491  -507  -536  -556  -564  -586  -646  -736  -818  -862  -866  -859  -873  -909  -942  -950  -936  -919  -914  -919  -924  -911  -865  -794  -737  -714  -713  -719  -739  -772  -796  -782  -742  -703  -673  -654  -648  -649  -645  -632  -626  -639  -660  -680  -703  -728  -745  -749  -750  -755  -758  -734  -662  -569  -526  -579  -697  -813  -884  -911  -915  -928  -963  -997  -1006  -1005  -1025  -1062  -1083  -1063  -1017  -975  -944  -904  -842  -772  -718  -692  -682  -652  -570  -424  -241  -88  -8  18  33  54  70  70  55  41  37  40  28  -24  -107  -178  -224  -254  -243  -189  -116  -38  14  22  3  -27  -74  -152  -268  -391  -444  -379  -282  -274  -294  -117  427  1395  2700  3941  4523  4137  2948  1324  -341  -1791  -2932  -3630  -3757  -3368  -2580  -1583  -693  -106  208  346  382  385  394  433  521  647  767  859  946  1046  1142  1199  1214  1212  1213  1221  1231  1237  1241  1258  1298  1352  1404  1439  1461  1482  1532  1629  1761  1885  1974  2057  2187  2359  2510  2611  2678  2727  2770  2844  2974  3126  3246  3313  3343  3353  3337  3283  3199  3100  2981  2835  2684  2530  2312  1998  1626  1220  795  437  240  187  187  171  122  48  -33  -104  -145  -158  -156  -147  -135  -124  -129  -180  -283  -405  -498  -548  -568  -573  -567  -553  -544  -550  -560  -545  -473  -345  -216  -144  -128  -126  -99  -47  0  25  35  44  57  70  83  105  139  174  195  202  206  218  231  233  222  203  172  120  24  -138  -335  -490  -567  -604  -634  -661  -678  -693  -726  -791  -881  -970  -1030  -1070  -1127  -1203  -1260  -1273  -1253  -1225  -1209  -1202  -1187  -1152  -1123  -1142  -1204  -1258  -1280  -1286  -1297  -1309  -1319  -1333  -1352  -1367  -1380  -1392  -1402  -1410  -1414  -1413  -1409  -1410  -1428  -1471  -1516  -1537  -1538  -1537  -1523  -1479  -1405  -1313  -1230  -1182  -1171  -1175  -1180  -1181  -1172  -1131  -1034  -907  -807  -743  -676  -584  -484  -401  -357  -375  -463  -589  -690  -733  -729  -695  -636  -572  -532  -535  -576  -642  -710  -763  -788  -782  -760  -745  -743  -743  -743  -737  -714  -709  -766  -847  -799  -401  462  1663  2828  3458  3236  2232  750  -884  -2396  -3608  -4378  -4546  -4121  -3321  -2373  -1487  -858  -502  -279  -98  28  87  106  103  89  100  187  346  486  525  485  439  415  394  374  392  477  617  789  956  1069  1117  1142  1193  1268  1331  1366  1383  1401  1439  1520  1673  1865  2011  2082  2128  2198  2295  2399  2504  2621  2760  2916  3080  3211  3265  3252  3212  3140  3008  2839  2668  2474  2237  1988  1744  1494  1225  928  637  413  246  81  -88  -204  -239  -219  -179  -144  -127  -136  -180  -258  -339  -379  -369  -339  -315  -294  -276  -274  -289  -305  -294  -238  -152  -76  -46  -79  -159  -245  -299  -317  -320  -322  -327  -328  -323  -312  -294  -272  -274  -296  -294  -255  -207  -170  -151  -146  -142  -126  -104  -88  -83  -83  -78  -67  -76  -136  -228  -313  -374  -414  -423  -402  -369  -345  -331  -312  -289  -271  -262  -251  -234  -216  -203  -195  -182  -154  -121  -103  -95  -78  -51  -39  -72  -168  -316  -480  -618  -704  -753  -803  -887  -1003  -1112  -1176  -1192  -1165  -1100  -1019  -963  -946  -937  -902  -833  -750  -669  -587  -506  -429  -356  -272  -190  -151  -181  -245  -297  -336  -398  -492  -582  -638  -664  -678  -696  -719  -734  -735  -729  -725  -726  -729  -730  -716  -683  -640  -605  -584  -562  -525  -502  -569  -737  -879  -775  -197  914  2259  3285  3532  2877  1552  -29  -1543  -2847  -3807  -4257  -4156  -3620  -2826  -1977  -1250  -721  -377  -189  -114  -85  -37  64  197  297  335  341  339  340  358  404  466  508  516  513  537  613  723  819  873  896  910  921  933  956  989  1021  1066  1147  1252  1344  1415  1484  1548  1593  1629  1689  1795  1923  2024  2076  2094  2101  2114  2140  2166  2163  2110  2016  1913  1812  1672  1422  1055  675  377  145  -50  -186  -269  -362  -493  -639  -757  -825  -850  -862  -883  -906  -916  -919  -936  -968  -983  -948  -882  -822  -782  -758  -754  -781  -821  -838  -812  -761  -711  -662  -603  -549  -518  -511  -514  -519  -523  -528  -534  -539  -540  -524  -482  -436  -425  -464  -525  -569  -584  -582  -561  -522  -477  -427  -355  -269  -202  -164  -140  -117  -100  -94  -100  -117  -135  -142  -148  -188  -293  -434  -546  -595  -582  -515  -409  -304  -246  -243  -255  -247  -214  -182  -177  -194  -212  -243  -298  -348  -349  -290  -201  -139  -139  -197  -276  -348  -413  -479  -521  -510  -433  -307  -185  -116  -100  -106  -110  -110  -108  -108  -115  -137  -171  -203  -219  -208  -157  -65  35  104  132  139  142  148  164  199  259  324  367  376  368  362  360  357  339  281  157  -4  -124  -160  -139  -99  -50  0  35  48  44  25  -2  -26  -30  -15  0  2  -3  -1  7  11  -7  -54  -131  -180  -12  542  1518  2797  3966  4453  3960  2634  890  -838  -2266  -3264  -3784  -3788  -3280  -2422  -1509  -786  -346  -138  -50  -2  43  101  173  250  325  386  420  431  435  456  512  588  646  672  677  669  646  603  555  530  530  538  549  582  670  815  968  1076  1132  1165  1201  1256  1352  1507  1713  1925  2090  2182  2227  2273  2344  2428  2499  2548  2587  2613  2605  2555  2483  2402  2291  2117  1871  1562  1204  825  495  287  177  77  -62  -239  -433  -612  -743  -808  -826  -838  -866  -894  -905  -916  -930  -928  -896  -840  -770  -708  -670  -655  -656  -678  -721  -760  -759  -717  -669  -629  -590  -555  -530  -516  -511  -511  -509  -500  -484  -469  -458  -445  -427  -412  -407  -405  -388  -347  -293  -244  -210  -191  -187  -198  -224  -255  -277  -302  -342  -379  -388  -379  -381  -416  -468  -503  -513  -506  -490  -464  -421  -370  -343  -369  -435  -515  -585  -631  -651  -652  -632  -586  -525  -479  -464  -473  -482  -473  -442  -403  -375  -361  -352  -335  -317  -313  -330  -371  -427  -481  -530  -594  -659  -694  -692  -659  -614  -584  -574  -572  -567  -563  -567  -574  -578  -573  -556  -541  -543  -556  -562  -545  -496  -420  -341  -290  -283  -311  -350  -383  -405  -423  -434  -433  -419  -400  -383  -363  -337  -318  -319  -328  -333  -336  -337  -332  -320  -307  -297  -282  -251  -210  -180  -174  -184  -182  -148  -94  -46  -17  -2  6  13  9  -14  -55  -112  -183  -247  -283  -288  -275  -257  -237  -217  -200  -183  -164  -155  -167  -187  -197  -202  -218  -245  -264  -263  -257  -249  -242  -272  -356  -442  -388  0  846  2073  3331  4080  3930  2923  1408  -254  -1802  -3067  -3928  -4266  -4025  -3307  -2347  -1407  -715  -376  -295  -304  -311  -276  -174  -27  95  155  168  157  123  76  39  28  40  71  125  191  238  252  247  241  249  280  327  380  434  494  565  658  782  934  1092  1227  1323  1390  1459  1550  1645  1720  1795  1920  2103  2293  2442  2534  2575  2587  2586  2570  2526  2450  2340  2171  1929  1633  1343  1126  969  775  482  152  -103  -253  -348  -438  -522  -575  -591  -589  -585  -574  -547  -511  -487  -480  -479  -468  -446  -423  -403  -385  -367  -352  -335  -307  -272  -240  -213  -185  -163  -173  -234  -325  -395  -426  -437  -443  -426  -371  -310  -289  -292  -282  -257  -241  -243  -240  -215  -172  -111  -41  14  48  74  102  128  142  149  146  125  81  24  -33  -76  -104  -135  -182  -233  -264  -275  -284  -314  -361  -396  -397  -356  -285  -219  -183  -172  -170  -168  -165  -163  -163  -171  -194  -228  -248  -243  -229  -235  -272  -322  -350  -351  -339  -309  -245  -162  -102  -82  -79  -66  -40  -11  17  52  89  114  114  84  27  -32  -74  -94  -96  -72  -20  43  87  101  98  90  82  72  60  51  48  47  49  55  66  72  58  31  19  29  48  63  72  78  76  57  15  -36  -77  -96  -102  -110  -118  -120  -114  -101  -82  -56  -22  15  41  36  2  -34  -57  -64  -64  -61  -53  -46  -42  -31  2  42  72  95  109  99  55  -9  -71  -114  -142  -160  -161  -147  -147  -191  -257  -293  -279  -246  -239  -263  -299  -335  -368  -391  -398  -395  -383  -358  -331  -326  -354  -431  -550  -565  -215  658  1967  3304  4071  3862  2749  1144  -531  -2023  -3187  -3903  -4110  -3833  -3180  -2355  -1583  -1028  -721  -558  -430  -322  -258  -235  -229  -211  -160  -71  32  110  141  141  133  137  170  234  307  351  351  319  294  315  388  472  535  586  645  709  778  859  939  996  1036  1079  1132  1196  1284  1412  1573  1743  1895  2002  2063  2106  2162  2237  2312  2365  2391  2373  2278  2090  1857  1653  1493  1323  1088  776  425  110  -107  -226  -302  -373  -446  -519  -593  -655  -694  -708  -707  -702  -705  -730  -776  -820  -832  -812  -788  -780  -777  -760  -733  -709  -693  -671  -640  -610  -590  -581  -582  -587  -584  -584  -584  -567  -531  -489  -446  -410  -386  -373  -368  -365  -372  -400  -445  -480  -477  -430  -364  -316  -299  -298  -300  -306  -329  -378  -437  -476  -476  -438  -383  -339  -319  -325  -359  -425  -500  -548  -553  -517  -456  -382  -291  -200  -142  -142  -198  -281  -359  -420  -454  -451  -431  -436  -483  -542  -564  -537  -474  -395  -339  -343  -405  -487  -545  -566  -566  -560  -536  -491  -452  -449  -471  -487  -489  -483  -482  -502  -551  -594  -583  -524  -476  -463  -466  -465  -459  -468  -501  -534  -538  -512  -466  -410  -355  -300  -239  -180  -141  -120  -93  -54  -13  33  97  172  225  242  231  201  165  139  133  140  147  136  88  13  -55  -99  -126  -149  -169  -184  -193  -199  -207  -216  -222  -226  -228  -220  -178  -90  3  37  -46  -253  -444  -372  174  1228  2529  3559  3805  3104  1698  0  -1615  -2881  -3668  -3965  -3826  -3298  -2479  -1598  -880  -397  -117  35  131  202  259  310  354  388  418  448  470  478  480  481  482  487  506  537  566  575  570  570  597  655  733  810  866  903  944  1016  1132  1276  1404  1489  1535  1573  1641  1749  1873  1991  2095  2173  2227  2284  2375  2508  2653  2752  2787  2769  2707  2612  2510  2406  2254  2016  1705  1326  883  451  129  -65  -189  -278  -345  -408  -466  -503  -514  -525  -559  -609  -645  -653  -649  -650  -657  -660  -656  -649  -646  -651  -660  -666  -663  -652  -633  -607  -577  -548  -528  -514  -502  -492  -476  -453  -432  -423  -425  -433  -438  -447  -462  -467  -442  -395  -360  -348  -337  -304  -255  -216  -203  -212  -238  -271  -298  -313  -320  -321  -322  -338  -384  -454  -518  -555  -564  -556  -526  -463  -379  -306  -268  -256  -256  -266  -284  -309  -340  -356  -340  -308  -281  -262  -248  -235  -217  -198  -187  -192  -209  -228  -244  -259  -273  -278  -277  -271  -255  -218  -166  -117  -86  -73  -85  -128  -187  -229  -240  -230  -212  -192  -176  -161  -148  -145  -158  -177  -191  -201  -208  -213  -218  -234  -268  -303  -315  -299  -266  -226  -197  -187  -184  -176  -162  -144  -126  -109  -97  -78  -31  43  125  196  243  257  245  223  208  204  198  170  97  -29  -171  -271  -310  -306  -277  -233  -192  -175  -189  -215  -229  -233  -235  -228  -208  -186  -176  -182  -202  -247  -357  -528  -638  -514  1  974  2228  3380  3994  3771  2759  1269  -389  -1949  -3162  -3883  -4064  -3736  -3030  -2152  -1302  -631  -223  -37  49  117  167  191  196  200  210  223  231  236  239  245  262  298  349  402  437  454  467  484  504  529  556  579  605  647  712  788  864  936  994  1031  1061  1128  1261  1441  1615  1732  1788  1819  1869  1964  2101  2252  2379  2456  2487  2503  2525  2547  2542  2479  2328  2108  1861  1587  1273  947  647  401  197  7  -173  -325  -439  -518  -569  -598  -609  -608  -602  -598  -604  -624  -650  -671  -684  -701  -720  -717  -679  -635  -624  -649  -689  -718  -718  -691  -651  -616  -592  -579  -577  -584  -592  -594  -595  -607  -623  -624  -601  -559  -519  -496  -487  -482  -480  -481  -485  -489  -493  -495  -485  -455  -411  -383  -388  -416  -438  -445  -448  -464  -492  -516  -529  -539  -564  -608  -656  -683  -663  -592  -506  -440  -402  -384  -384  -383  -340  -240  -152  -175  -291  -386  -413  -406  -397  -392  -391  -398  -420  -451  -478  -490  -478  -432  -366  -311  -286  -282  -288  -313  -374  -449  -495  -495  -475  -462  -463  -474  -495  -531  -574  -606  -618  -616  -602  -576  -546  -529  -530  -535  -513  -441  -342  -271  -253  -272  -303  -334  -362  -390  -421  -436  -422  -392  -365  -345  -336  -332  -322  -296  -258  -222  -198  -176  -132  -58  27  106  166  204  228  238  224  182  127  76  38  6  -36  -97  -160  -211  -240  -259  -285  -323  -356  -365  -354  -344  -343  -347  -366  -423  -491  -489  -405  -310  -243  -177  -86  -41  -167  -412  -491  -115  841  2247  3619  4322  4034  2917  1333  -370  -1905  -3090  -3810  -3982  -3618  -2881  -1994  -1147  -482  -56  162  251  289  318  344  367  390  418  446  466  477  491  521  566  613  641  650  666  709  767  807  825  849  894  943  981  1018  1073  1140  1193  1226  1246  1263  1291  1350  1449  1582  1744  1908  2029  2109  2205  2350  2515  2650  2726  2750  2749  2741  2729  2717  2707  2668  2556  2367  2137  1873  1568  1260  1022  876  756  573  330  108  -33  -108  -162  -242  -371  -509  -598  -623  -602  -549  -490  -466  -505  -587  -663  -702  -712  -717  -723  -726  -724  -719  -714  -703  -670  -608  -524  -434  -358  -323  -338  -379  -418  -445  -469  -499  -531  -553  -561  -561  -558  -553  -547  -541  -539  -538  -530  -522  -521  -524  -530  -541  -557  -574  -586  -590  -585  -570  -550  -535  -528  -527  -527  -524  -521  -518  -516  -515  -514  -517  -530  -556  -583  -607  -626  -627  -604  -581  -579  -603  -640  -666  -664  -636  -596  -569  -562  -562  -546  -500  -435  -390  -383  -401  -419  -426  -429  -431  -433  -433  -432  -420  -393  -358  -333  -323  -321  -323  -336  -369  -405  -412  -383  -342  -309  -285  -270  -261  -247  -221  -194  -184  -192  -206  -214  -216  -219  -226  -234  -243  -254  -266  -265  -243  -215  -201  -196  -193  -190  -194  -201  -190  -133  -23  102  187  214  210  220  269  340  386  378  326  261  189  91  -29  -143  -225  -273  -303  -333  -369  -399  -415  -424  -444  -485  -520  -503  -437  -379  -371  -415  -480  -533  -561  -559  -546  -568  -634  -648  -444  140  1154  2419  3484  3820  3216  1894  243  -1368  -2678  -3571  -3999  -3945  -3466  -2694  -1820  -1047  -509  -230  -129  -86  -26  78  218  347  420  441  436  414  364  299  257  275  349  437  509  567  591  572  529  474  426  407  414  437  472  510  540  563  614  727  873  974  1018  1090  1267  1531  1790  1967  2056  2087  2105  2155  2262  2397  2496  2531  2522  2499  2478  2460  2426  2332  2139  1868  1577  1307  1052  785  516  298  128  -53  -244  -375  -421  -434  -473  -538  -587  -600  -592  -583  -580  -578  -572  -560  -548  -543  -539  -527  -507  -488  -475  -465  -452  -436  -422  -420  -425  -427  -426  -424  -420  -411  -394  -372  -356  -346  -338  -327  -309  -286  -274  -280  -270  -227  -175  -145  -143  -162  -193  -232  -270  -297  -309  -311  -311  -311  -306  -290  -266  -244  -232  -229  -229  -216  -180  -130  -96  -92  -114  -146  -170  -181  -185  -194  -216  -252  -291  -317  -325  -323  -318  -312  -311  -327  -371  -424  -439  -393  -313  -251  -227  -223  -225  -229  -232  -232  -228  -221  -225  -252  -294  -336  -366  -379  -375  -354  -323  -286  -232  -155  -68  0  44  75  95  87  24  -93  -221  -306  -344  -364  -385  -402  -405  -399  -396  -406  -428  -454  -482  -518  -565  -612  -648  -672  -690  -701  -705  -711  -730  -761  -792  -827  -879  -842  -482  346  1539  2768  3546  3445  2423  842  -843  -2312  -3417  -4096  -4303  -4041  -3388  -2499  -1601  -898  -458  -226  -115  -64  -39  -14  34  114  200  270  318  333  307  259  228  236  278  343  416  484  533  561  579  598  625  671  736  797  838  875  947  1053  1159  1233  1270  1287  1306  1338  1389  1482  1638  1837  2012  2135  2241  2366  2498  2609  2685  2724  2732  2713  2650  2514  2303  2054  1787  1492  1178  886  646  428  192  -34  -200  -319  -435  -548  -629  -674  -693  -698  -701  -704  -706  -702  -694  -695  -711  -733  -758  -782  -804  -816  -807  -769  -712  -671  -661  -674  -692  -702  -707  -725  -773  -829  -845  -798  -731  -700  -710  -727  -718  -661  -567  -472  -410  -393  -403  -408  -403  -398  -395  -390  -381  -369  -357  -353  -361  -365  -351  -324  -304  -298  -302  -303  -285  -243  -194  -159  -144  -141  -142  -148  -156  -166  -178  -191  -187  -153  -102  -64  -51  -52  -56  -60  -67  -81  -96  -98  -70  -18  37  81  107  116  115  120  146  187  226  252  257  224  145  43  -32  -63  -67  -71  -89  -108  -118  -127  -129  -109  -75  -43  -18  7  33  50  58  74  113  168  214  216  141  -5  -181  -336  -435  -470  -459  -421  -375  -341  -329  -333  -349  -369  -382  -382  -380  -391  -429  -481  -518  -520  -500  -483  -476  -499  -597  -740  -707  -215  829  2243  3579  4207  3727  2337  564  -1159  -2588  -3641  -4288  -4457  -4121  -3370  -2439  -1631  -1099  -799  -617  -451  -275  -134  -52  -12  18  59  104  144  185  230  278  321  346  352  354  374  428  500  552  565  560  569  613  680  743  794  843  889  927  957  991  1051  1165  1341  1534  1670  1736  1797  1905  2038  2140  2211  2319  2490  2657  2746  2754  2723  2676  2628  2576  2481  2297  2021  1697  1368  1064  810  601  402  200  9  -178  -366  -514  -594  -638  -698  -778  -839  -861  -860  -858  -858  -853  -830  -791  -750  -721  -703  -687  -664  -634  -612  -604  -607  -618  -638  -663  -682  -688  -681  -661  -636  -621  -625  -642  -660  -671  -667  -634  -558  -450  -346  -288  -293  -354  -436  -492  -497  -457  -400  -356  -335  -328  -328  -333  -337  -338  -335  -333  -342  -370  -413  -450  -474  -489  -499  -505  -506  -496  -463  -408  -354  -331  -339  -350  -343  -328  -317  -302  -265  -206  -147  -111  -112  -146  -196  -238  -262  -270  -273  -275  -276  -285  -317  -368  -406  -403  -361  -316  -293  -292  -321  -378  -425  -432  -409  -379  -354  -326  -306  -317  -365  -409  -395  -325  -252  -203  -172  -157  -151  -139  -107  -47  31  110  166  190  190  179  171  170  171  144  64  -52  -153  -208  -227  -227  -225  -226  -232  -238  -244  -258  -291  -333  -361  -357  -323  -278  -252  -276  -358  -469  -524  -462  -365  -365  -478  -551  -284  587  1999  3468  4324  4104  2871  1095  -725  -2287  -3466  -4173  -4346  -4013  -3286  -2356  -1488  -874  -533  -389  -349  -331  -294  -225  -136  -59  -8  39  102  167  219  262  302  327  319  279  228  185  176  240  374  503  575  599  614  652  732  834  915  966  1019  1090  1173  1283  1436  1601  1730  1805  1841  1863  1916  2033  2185  2316  2415  2508  2590  2642  2661  2658  2640  2579  2427  2181  1907  1662  1443  1198  889  545  267  118  70  47  8  -40  -76  -97  -110  -113  -87  -13  65  53  -53  -159  -216  -240  -246  -231  -194  -144  -88  -27  31  68  80  76  62  40  11  -20  -46  -62  -66  -63  -68  -102  -167  -224  -228  -188  -159  -171  -201  -206  -180  -153  -142  -142  -143  -142  -145  -164  -214  -292  -368  -414  -426  -425  -432  -458  -491  -502  -473  -419  -372  -342  -323  -315  -332  -386  -460  -515  -533  -527  -512  -499  -494  -497  -504  -510  -511  -494  -452  -397  -354  -334  -328  -332  -358  -406  -450  -462  -455  -455  -467  -481  -498  -512  -517  -514  -507  -498  -487  -474  -463  -454  -451  -459  -481  -511  -539  -557  -568  -573  -567  -537  -482  -429  -419  -441  -465  -487  -505  -513  -510  -503  -497  -494  -493  -493  -492  -489  -487  -491  -508  -537  -560  -556  -524  -482  -449  -421  -388  -363  -377  -437  -502  -504  -428  -313  -195  -91  -15  36  73  86  66  32  4  -26  -108  -284  -512  -685  -756  -763  -757  -760  -765  -763  -755  -745  -732  -707  -672  -640  -620  -613  -622  -646  -680  -723  -759  -740  -652  -571  -590  -703  -710  -298  693  2107  3458  4138  3802  2585  920  -787  -2282  -3399  -4022  -4075  -3599  -2793  -1920  -1200  -710  -399  -186  -3  164  283  343  372  389  404  425  444  452  445  433  423  419  430  475  560  655  715  728  720  726  780  888  1032  1186  1324  1431  1514  1587  1648  1693  1738  1797  1867  1951  2072  2225  2371  2504  2651  2808  2925  2979  2997  3028  3106  3219  3297  3282  3176  3026  2878  2730  2532  2260  1970  1740  1569  1388  1159  911  688  486  293  128  6  -86  -167  -243  -309  -361  -414  -479  -540  -577  -594  -609  -635  -676  -720  -750  -759  -759  -758  -758  -748  -718  -680  -656  -648  -648  -651  -666  -700  -732  -723  -662  -578  -503  -453  -430  -424  -427  -443  -477  -512  -524  -523  -537  -561  -571  -562  -544  -531  -524  -523  -532  -558  -592  -617  -617  -592  -556  -531  -527  -544  -571  -594  -606  -612  -619  -626  -632  -645  -664  -692  -724  -731  -699  -652  -618  -605  -609  -622  -643  -665  -679  -681  -678  -679  -680  -678  -672  -665  -655  -638  -622  -619  -629  -639  -624  -576  -521  -498  -518  -558  -589  -600  -601  -595  -577  -543  -501  -458  -422  -403  -404  -417  -428  -425  -406  -373  -329  -290  -265  -255  -255  -260  -263  -263  -256  -238  -201  -128  -20  92  150  123  43  -35  -106  -197  -308  -403  -452  -464  -461  -457  -455  -453  -450  -450  -458  -470  -485  -498  -507  -510  -513  -509  -485  -445  -438  -488  -515  -472  -442  -434  -277  206  1088  2264  3354  3824  3386  2199  637  -961  -2376  -3465  -4116  -4238  -3820  -2984  -2000  -1148  -558  -216  -53  19  73  128  181  223  257  293  329  352  355  352  364  408  468  512  524  519  523  549  597  651  698  730  748  761  779  805  829  854  905  995  1105  1209  1301  1396  1498  1595  1688  1795  1917  2039  2139  2223  2314  2418  2505  2564  2609  2647  2669  2656  2592  2467  2286  2062  1820  1594  1401  1185  887  546  262  77  -49  -187  -339  -447  -485  -486  -491  -505  -521  -541  -571  -601  -620  -626  -628  -629  -619  -582  -523  -475  -464  -495  -546  -583  -598  -601  -600  -597  -582  -548  -501  -457  -424  -394  -350  -285  -222  -193  -200  -211  -202  -185  -183  -200  -208  -179  -125  -90  -113  -179  -239  -265  -267  -265  -271  -278  -268  -220  -140  -71  -51  -89  -154  -210  -250  -279  -296  -300  -301  -321  -376  -445  -472  -425  -337  -274  -262  -284  -324  -381  -437  -462  -452  -427  -403  -393  -401  -415  -423  -423  -420  -413  -403  -391  -382  -380  -378  -370  -359  -351  -347  -347  -355  -379  -414  -442  -441  -396  -325  -269  -246  -244  -250  -264  -286  -314  -326  -315  -301  -287  -262  -228  -194  -169  -169  -189  -203  -198  -182  -171  -174  -186  -203  -224  -247  -272  -294  -299  -250  -133  8  109  144  143  143  160  194  229  239  202  107  -38  -195  -325  -415  -463  -475  -453  -402  -342  -303  -294  -314  -365  -430  -480  -504  -507  -500  -484  -444  -369  -284  -230  -214  -287  -478  -627  -488  92  1140  2469  3631  4115  3676  2447  791  -915  -2394  -3485  -4100  -4196  -3801  -3029  -2093  -1263  -681  -322  -116  -11  35  66  104  145  176  196  214  233  264  321  391  437  441  420  399  391  401  431  475  519  566  627  690  733  754  766  785  825  900  1015  1158  1290  1374  1406  1414  1442  1532  1685  1854  2007  2153  2294  2401  2471  2540  2628  2715  2771  2795  2794  2741  2598  2376  2154  1976  1785  1487  1071  641  311  103  -19  -92  -137  -177  -239  -340  -447  -515  -533  -527  -517  -509  -510  -530  -564  -599  -622  -611  -565  -529  -538  -567  -581  -573  -562  -556  -545  -513  -468  -432  -417  -417  -421  -424  -424  -419  -407  -390  -375  -359  -337  -306  -263  -211  -164  -141  -144  -158  -170  -181  -199  -234  -285  -337  -375  -393  -398  -399  -399  -397  -392  -380  -370  -373  -389  -406  -415  -406  -381  -345  -312  -296  -305  -326  -343  -350  -350  -349  -349  -349  -349  -347  -343  -343  -359  -388  -422  -453  -483  -505  -518  -523  -510  -463  -375  -277  -207  -183  -192  -217  -243  -263  -285  -307  -318  -321  -325  -339  -364  -385  -397  -396  -382  -366  -356  -353  -348  -335  -317  -304  -306  -328  -364  -397  -407  -383  -330  -271  -235  -235  -271  -328  -379  -404  -400  -373  -336  -312  -317  -357  -415  -456  -456  -413  -350  -300  -279  -274  -270  -251  -214  -167  -128  -99  -73  -36  9  55  94  115  115  107  109  118  115  98  59  -22  -138  -247  -312  -333  -331  -323  -318  -313  -307  -308  -341  -423  -534  -622  -662  -669  -664  -646  -604  -549  -514  -510  -521  -521  -511  -532  -573  -444  116  1192  2575  3773  4196  3590  2203  497  -1155  -2538  -3563  -4163  -4232  -3755  -2883  -1850  -930  -345  -111  -69  -70  -57  -37  -17  6  36  74  132  211  278  310  318  333  369  423  487  548  587  600  589  559  528  531  591  686  781  869  949  1003  1031  1073  1173  1331  1490  1588  1631  1681  1788  1951  2119  2239  2309  2368  2439  2521  2600  2662  2696  2706  2707  2703  2677  2580  2380  2122  1903  1751  1593  1346  1002  633  327  115  -41  -180  -288  -348  -375  -398  -436  -481  -515  -531  -534  -536  -543  -555  -553  -528  -510  -525  -541  -530  -507  -497  -497  -493  -468  -421  -361  -305  -269  -257  -262  -281  -312  -353  -383  -395  -406  -443  -503  -535  -495  -403  -313  -259  -238  -240  -261  -299  -341  -366  -370  -366  -372  -402  -449  -491  -512  -517  -518  -517  -513  -507  -510  -530  -555  -567  -538  -447  -321  -222  -186  -201  -250  -313  -365  -388  -386  -373  -365  -363  -355  -334  -315  -316  -343  -381  -408  -419  -427  -440  -451  -437  -379  -288  -208  -164  -144  -125  -105  -95  -119  -206  -341  -467  -543  -570  -567  -547  -507  -440  -357  -296  -283  -310  -356  -401  -446  -503  -550  -542  -463  -333  -200  -110  -79  -87  -116  -169  -239  -304  -347  -366  -369  -368  -367  -369  -373  -377  -378  -367  -337  -283  -226  -195  -196  -204  -172  -66  81  190  226  216  190  157  120  86  65  47  -9  -139  -312  -446  -500  -498  -483  -471  -463  -454  -447  -444  -444  -443  -444  -454  -478  -517  -566  -610  -633  -590  -451  -319  -370  -600  -784  -641  56  1295  2654  3522  3502  2598  1104  -586  -2146  -3380  -4182  -4498  -4338  -3778  -2971  -2130  -1416  -894  -566  -373  -231  -98  11  83  127  156  190  245  312  366  392  397  394  390  381  367  364  389  453  567  717  855  946  1002  1053  1101  1133  1159  1206  1275  1340  1396  1453  1503  1534  1564  1641  1801  2013  2198  2310  2372  2416  2448  2473  2501  2536  2571  2590  2585  2562  2532  2497  2426  2269  2017  1718  1413  1088  729  393  166  38  -95  -279  -447  -534  -553  -554  -567  -585  -587  -568  -549  -554  -601  -694  -803  -877  -889  -850  -790  -738  -705  -682  -656  -618  -571  -531  -507  -497  -487  -472  -459  -453  -452  -446  -420  -368  -309  -281  -301  -338  -355  -351  -345  -344  -345  -345  -343  -341  -340  -344  -355  -360  -342  -294  -230  -178  -156  -172  -231  -315  -384  -422  -432  -425  -409  -404  -419  -445  -457  -437  -388  -325  -276  -272  -301  -324  -329  -327  -326  -332  -340  -347  -353  -359  -365  -373  -384  -398  -400  -367  -292  -224  -220  -271  -319  -330  -313  -294  -301  -336  -374  -403  -425  -437  -418  -348  -247  -157  -92  -35  22  76  123  155  156  100  -22  -173  -291  -349  -370  -389  -430  -474  -492  -490  -484  -472  -447  -425  -425  -450  -489  -522  -546  -564  -574  -566  -532  -476  -422  -400  -461  -613  -702  -476  223  1374  2711  3703  3849  3067  1645  -70  -1784  -3208  -4122  -4454  -4248  -3616  -2775  -1972  -1313  -812  -492  -324  -203  -67  53  126  149  131  101  98  128  162  183  201  239  310  402  473  502  496  477  462  471  510  562  607  645  699  780  878  964  1020  1052  1094  1176  1296  1419  1510  1590  1724  1932  2141  2283  2355  2395  2448  2552  2707  2857  2925  2888  2792  2689  2576  2419  2209  1969  1711  1406  1069  789  606  456  271  51  -145  -261  -299  -309  -330  -363  -404  -468  -561  -653  -710  -730  -731  -727  -711  -667  -599  -536  -504  -497  -501  -503  -504  -501  -494  -487  -491  -511  -532  -536  -517  -477  -429  -389  -375  -402  -465  -536  -584  -605  -612  -612  -591  -537  -460  -406  -410  -451  -476  -464  -433  -417  -429  -451  -460  -459  -468  -487  -503  -503  -484  -469  -487  -534  -583  -597  -563  -513  -483  -475  -479  -481  -468  -448  -438  -436  -426  -403  -375  -349  -336  -358  -433  -537  -618  -649  -640  -616  -585  -552  -526  -513  -509  -508  -499  -478  -451  -420  -385  -364  -373  -400  -423  -433  -437  -446  -462  -473  -474  -473  -477  -480  -474  -454  -422  -377  -320  -265  -229  -202  -167  -131  -105  -80  -32  32  82  84  27  -69  -171  -255  -316  -359  -383  -391  -392  -388  -379  -363  -350  -345  -350  -356  -361  -364  -363  -351  -322  -284  -265  -292  -361  -435  -463  -449  -461  -487  -322  240  1252  2576  3777  4259  3734  2415  742  -903  -2296  -3354  -4015  -4167  -3786  -3012  -2072  -1210  -609  -286  -134  -58  0  72  146  188  196  204  253  343  434  487  496  475  438  397  371  366  374  381  384  407  481  606  729  807  845  871  895  922  954  983  1011  1050  1113  1221  1377  1554  1721  1887  2071  2263  2431  2541  2596  2633  2674  2711  2736  2753  2765  2766  2753  2694  2546  2311  2034  1758  1497  1216  877  522  259  137  110  95  38  -59  -160  -226  -255  -267  -291  -346  -434  -527  -588  -608  -600  -574  -525  -460  -402  -360  -323  -294  -283  -285  -289  -287  -275  -251  -222  -195  -179  -179  -198  -234  -276  -303  -311  -312  -308  -284  -236  -187  -160  -149  -149  -184  -256  -318  -342  -336  -315  -280  -234  -190  -166  -166  -191  -236  -288  -332  -370  -405  -435  -455  -462  -461  -461  -460  -442  -398  -347  -322  -333  -359  -379  -387  -389  -389  -391  -391  -392  -391  -389  -391  -408  -440  -457  -432  -377  -321  -281  -255  -237  -244  -289  -346  -393  -437  -474  -488  -488  -489  -498  -508  -509  -493  -471  -451  -436  -423  -408  -404  -425  -467  -507  -525  -518  -495  -468  -447  -444  -456  -470  -471  -447  -413  -391  -376  -359  -348  -349  -356  -354  -322  -248  -135  -9  79  108  95  61  23  -15  -54  -85  -110  -152  -238  -348  -430  -459  -458  -452  -450  -441  -417  -388  -376  -388  -408  -416  -416  -421  -433  -446  -463  -476  -468  -469  -541  -684  -777  -581  127  1359  2823  3961  4212  3438  1969  246  -1400  -2762  -3728  -4211  -4145  -3602  -2772  -1885  -1153  -658  -329  -106  6  30  18  9  13  27  51  84  133  217  332  445  522  535  469  355  264  232  250  296  348  392  439  500  573  647  722  820  957  1100  1198  1246  1268  1293  1346  1441  1580  1743  1901  2029  2104  2131  2154  2225  2369  2540  2673  2744  2758  2709  2583  2407  2237  2107  1996  1873  1712  1485  1175  795  420  164  51  -6  -86  -186  -269  -333  -400  -472  -540  -603  -660  -696  -706  -698  -675  -646  -623  -615  -614  -615  -611  -606  -602  -600  -599  -599  -601  -610  -627  -641  -630  -571  -480  -404  -365  -350  -343  -342  -345  -349  -355  -359  -360  -351  -327  -296  -271  -261  -272  -300  -337  -378  -414  -430  -427  -420  -419  -424  -426  -425  -425  -426  -427  -421  -404  -380  -359  -354  -377  -433  -511  -579  -615  -620  -611  -598  -587  -580  -578  -573  -546  -484  -407  -359  -350  -357  -363  -365  -365  -367  -378  -404  -437  -457  -434  -358  -261  -204  -208  -246  -286  -311  -322  -323  -319  -316  -312  -308  -312  -339  -391  -448  -482  -473  -434  -400  -390  -398  -402  -375  -292  -172  -65  -6  11  9  3  -1  -5  -6  -2  1  -9  -56  -137  -233  -314  -359  -378  -424  -519  -598  -604  -561  -523  -508  -504  -501  -506  -524  -551  -585  -628  -667  -665  -624  -612  -670  -695  -484  148  1264  2641  3772  4104  3427  1997  234  -1504  -2940  -3890  -4282  -4156  -3619  -2831  -1999  -1298  -796  -454  -228  -106  -64  -49  -18  32  92  145  182  205  219  227  232  236  243  258  280  302  316  320  320  338  393  474  549  612  685  772  857  941  1032  1125  1205  1270  1323  1393  1510  1654  1778  1873  1966  2064  2161  2265  2381  2491  2570  2608  2616  2610  2592  2558  2499  2402  2235  1960  1619  1322  1113  947  778  589  389  201  29  -128  -260  -366  -463  -554  -625  -663  -667  -645  -611  -582  -563  -553  -553  -562  -575  -583  -582  -577  -574  -567  -546  -502  -434  -359  -314  -338  -435  -547  -587  -538  -462  -411  -384  -362  -336  -307  -277  -246  -226  -220  -222  -221  -212  -198  -185  -179  -186  -213  -262  -317  -356  -371  -366  -344  -324  -321  -332  -343  -348  -348  -351  -366  -399  -438  -462  -466  -465  -463  -449  -412  -363  -324  -296  -270  -242  -220  -209  -211  -220  -233  -249  -274  -313  -353  -380  -392  -392  -381  -355  -321  -294  -277  -256  -225  -210  -250  -331  -383  -378  -352  -338  -339  -340  -325  -291  -257  -236  -219  -183  -104  14  128  202  252  295  320  306  250  165  77  7  -42  -94  -164  -250  -335  -399  -435  -457  -474  -487  -492  -492  -494  -501  -507  -508  -504  -500  -494  -482  -453  -399  -344  -349  -433  -491  -327  233  1253  2562  3694  4076  3414  1920  82  -1694  -3135  -4070  -4485  -4438  -3973  -3196  -2297  -1493  -938  -640  -503  -447  -415  -364  -292  -235  -210  -204  -191  -156  -110  -80  -67  -41  22  119  211  267  289  305  332  366  411  472  538  583  598  604  627  684  782  902  1013  1106  1195  1290  1399  1536  1692  1824  1917  1998  2079  2137  2174  2239  2366  2527  2653  2704  2698  2666  2619  2525  2333  2024  1641  1270  984  797  664  520  341  154  -2  -117  -192  -244  -287  -335  -399  -481  -558  -604  -620  -627  -641  -658  -666  -655  -620  -571  -527  -499  -479  -446  -389  -338  -335  -372  -411  -429  -435  -444  -450  -432  -371  -284  -219  -202  -227  -271  -294  -273  -230  -196  -185  -195  -210  -222  -237  -261  -286  -296  -288  -278  -280  -291  -302  -316  -334  -358  -389  -420  -447  -471  -481  -459  -402  -330  -285  -292  -329  -367  -399  -422  -434  -438  -437  -436  -435  -435  -434  -434  -437  -447  -464  -475  -470  -450  -422  -392  -371  -362  -356  -346  -329  -313  -313  -340  -383  -414  -417  -399  -378  -361  -343  -326  -316  -310  -303  -292  -283  -283  -289  -291  -288  -285  -285  -285  -279  -265  -247  -240  -250  -258  -250  -230  -199  -149  -92  -63  -75  -115  -141  -130  -96  -51  20  119  224  308  340  307  230  144  65  -6  -80  -161  -240  -307  -368  -440  -528  -625  -694  -691  -622  -543  -500  -488  -480  -465  -436  -388  -331  -280  -258  -295  -365  -434  -523  -609  -538  -93  845  2140  3372  4020  3745  2619  1025  -661  -2198  -3397  -4128  -4290  -3851  -2981  -1993  -1162  -607  -297  -152  -106  -97  -68  9  120  219  282  326  368  400  413  406  388  365  352  364  398  432  465  521  610  703  755  764  772  809  868  922  953  969  1002  1093  1251  1425  1541  1580  1594  1646  1753  1882  1993  2073  2150  2264  2405  2518  2569  2576  2564  2542  2513  2486  2466  2429  2319  2098  1787  1447  1134  874  642  411  197  25  -109  -240  -382  -509  -596  -642  -663  -668  -656  -622  -569  -520  -502  -524  -579  -635  -661  -649  -607  -556  -518  -501  -491  -478  -464  -455  -455  -466  -479  -488  -491  -498  -514  -525  -513  -477  -442  -427  -429  -429  -417  -397  -373  -347  -327  -317  -315  -320  -329  -339  -349  -353  -348  -335  -319  -306  -300  -308  -338  -385  -429  -454  -460  -454  -446  -440  -439  -437  -410  -349  -300  -329  -428  -518  -553  -552  -544  -543  -553  -569  -579  -576  -559  -525  -473  -403  -328  -274  -253  -252  -262  -286  -328  -372  -394  -384  -353  -323  -307  -311  -338  -376  -410  -427  -406  -348  -297  -275  -273  -275  -277  -289  -315  -343  -353  -330  -272  -204  -156  -133  -129  -148  -202  -283  -358  -396  -391  -358  -324  -322  -361  -425  -488  -524  -504  -412  -280  -173  -127  -124  -134  -143  -145  -136  -108  -61  -6  42  79  112  133  128  106  77  34  -26  -93  -156  -203  -230  -244  -251  -255  -253  -246  -252  -293  -366  -447  -507  -526  -503  -463  -434  -424  -426  -444  -473  -482  -463  -456  -490  -508  -350  207  1275  2654  3857  4318  3744  2350  623  -1082  -2566  -3627  -4150  -4154  -3674  -2820  -1845  -1020  -492  -244  -156  -108  -46  30  99  143  156  156  159  173  216  311  440  548  603  621  630  651  696  758  804  804  771  756  795  866  918  932  926  933  984  1093  1239  1377  1483  1575  1683  1801  1894  1951  2010  2121  2277  2420  2510  2552  2569  2589  2632  2692  2738  2754  2756  2756  2695  2476  2101  1707  1406  1216  1091  934  660  331  90  -23  -73  -113  -167  -243  -326  -391  -434  -477  -532  -577  -595  -596  -596  -595  -590  -579  -569  -562  -551  -524  -483  -452  -447  -458  -468  -472  -473  -472  -468  -458  -448  -444  -444  -439  -428  -418  -419  -433  -454  -466  -461  -437  -397  -350  -315  -302  -304  -311  -317  -316  -309  -296  -279  -265  -267  -302  -382  -484  -560  -593  -603  -607  -607  -603  -599  -595  -587  -575  -564  -560  -560  -559  -546  -514  -474  -444  -430  -436  -465  -510  -569  -639  -699  -737  -768  -793  -793  -760  -710  -667  -648  -647  -648  -640  -623  -609  -602  -584  -518  -396  -245]
