reading_id,reading_time,wire_id,result_classification,heart_rate,heart_rate_alert,firmware_version,device_app_version,hardware_version,waveform_samples
956f0dd0-7329-11ed-8080-808080808080,Sat Dec 03 16:43:15 UTC 2022,a101e3b72739,NSR,63,NONE,20001.171.50,2.10.0,Charge 5,[-2964  -3163  -3366  -3544  -3674  -3766  -3829  -3861  -3865  -3863  -3885  -3928  -3958  -3946  -3887  -3752  -3501  -3190  -2943  -2813  -2756  -2712  -2648  -2549  -2431  -2326  -2229  -2110  -1981  -1892  -1858  -1855  -1854  -1846  -1823  -1757  -1627  -1468  -1349  -1296  -1270  -1228  -1173  -1130  -1098  -1018  -834  -586  -390  -310  -305  -314  -313  -317  -339  -354  -335  -297  -271  -269  -295  -343  -375  -341  -208  5  226  373  433  454  489  544  589  615  641  684  733  774  815  864  915  960  1004  1062  1144  1234  1298  1326  1338  1346  1350  1352  1346  1322  1269  1204  1166  1174  1213  1254  1290  1328  1361  1376  1373  1365  1362  1382  1433  1484  1496  1476  1460  1475  1522  1573  1601  1608  1607  1604  1606  1610  1607  1600  1604  1623  1658  1711  1782  1850  1891  1899  1888  1873  1859  1837  1795  1725  1632  1537  1459  1372  1231  1039  855  734  690  690  701  716  738  766  820  956  1176  1371  1425  1401  1538  2094  3196  4676  5947  6324  5513  3725  1464  -768  -2618  -3846  -4355  -4199  -3473  -2349  -1161  -223  351  654  849  1023  1152  1197  1175  1127  1077  1029  984  935  867  795  756  760  778  788  794  806  826  846  859  870  891  928  967  997  1022  1045  1053  1035  983  901  813  764  835  1093  1482  1832  2037  2108  2119  2146  2238  2402  2599  2759  2845  2898  3011  3275  3666  4038  4264  4326  4279  4178  4028  3775  3352  2774  2141  1566  1118  790  496  171  -135  -370  -594  -896  -1227  -1452  -1530  -1532  -1538  -1563  -1576  -1552  -1509  -1475  -1438  -1368  -1277  -1209  -1165  -1071  -831  -452  -63  214  365  444  503  574  670  785  895  954  937  875  834  855  936  1049  1158  1231  1260  1261  1235  1179  1122  1114  1173  1274  1377  1439  1445  1430  1427  1431  1401  1292  1122  971  887  829  732  575  368  124  -106  -244  -243  -123  41  154  159  69  -51  -129  -155  -200  -334  -528  -682  -750  -768  -778  -794  -825  -891  -995  -1101  -1164  -1185  -1204  -1255  -1323  -1380  -1420  -1446  -1435  -1345  -1186  -1026  -927  -888  -882  -883  -868  -821  -746  -682  -668  -699  -753  -842  -986  -1155  -1283  -1349  -1375  -1380  -1355  -1292  -1223  -1182  -1159  -1143  -1137  -1139  -1135  -1112  -1068  -1014  -966  -950  -994  -1085  -1115  -1008  -898  -923  -899  -469  544  2021  3488  4236  3800  2323  331  -1694  -3433  -4662  -5292  -5337  -4792  -3757  -2573  -1556  -819  -366  -153  -84  -53  6  79  91  27  -47  -81  -76  -53  -25  9  48  74  68  42  3  -58  -146  -240  -303  -329  -335  -318  -240  -80  81  122  40  -46  -62  -22  31  70  109  189  333  524  735  945  1124  1259  1372  1491  1628  1784  1931  2023  2051  2051  2048  2034  1977  1859  1703  1535  1336  1082  793  496  168  -199  -539  -780  -925  -1008  -1050  -1080  -1116  -1156  -1175  -1162  -1135  -1109  -1088  -1082  -1111  -1180  -1249  -1283  -1294  -1293  -1264  -1216  -1175  -1145  -1127  -1123  -1136  -1160  -1180  -1169  -1105  -982  -838  -737  -699  -694  -698  -708  -735  -777  -821  -856  -886  -911  -934  -947  -932  -883  -813  -734  -652  -579  -524  -478  -430  -383  -357  -363  -390  -408  -404  -392  -371  -331  -290  -280  -314  -381  -453  -509  -538  -539  -526  -515  -509  -507  -519  -544  -569  -555  -467  -339  -249  -225  -232  -240  -245  -258  -289  -341  -407  -469  -498  -450  -286  -52  132  199  170  95  12  -50  -83  -90  -80  -49  3  60  89  72  24  -7  12  81  177  273  338  365  391  440  491  497  451  392  342  310  297  277  206  67  -109  -272  -367  -379  -333  -264  -187  -90  22  113  159  151  80  -28  -122  -200  -286  -368  -453  -561  -596  -351  379  1661  3295  4797  5497  4972  3398  1241  -1081  -3165  -4658  -5353  -5198  -4372  -3232  -2117  -1241  -667  -332  -150  -53  19  108  214  307  372  433  501  548  548  496  417  354  328  330  348  380  421  466  527  628  760  869  912  895  874  902  991  1118  1246  1353  1436  1502  1570  1647  1731  1831  1946  2050  2126  2205  2325  2477  2633  2765  2864  2947  3033  3117  3185  3229  3248  3240  3174  2981  2622  2196  1844  1571  1282  957  646  394  194  0  -202  -391  -546  -662  -737  -769  -773  -767  -769  -796  -858  -920  -927  -880  -826  -788  -770  -771  -782  -790  -792  -791  -790  -791  -792  -797  -809  -821  -807  -735  -601  -452  -342  -287  -265  -252  -238  -227  -219  -215  -219  -237  -268  -309  -361  -419  -471  -515  -555  -584  -599  -595  -568  -519  -457  -401  -356  -306  -244  -193  -193  -264  -374  -451  -463  -442  -422  -403  -371  -321  -272  -257  -293  -356  -403  -417  -413  -413  -429  -462  -505  -560  -619  -661  -659  -592  -466  -320  -201  -128  -101  -100  -106  -105  -98  -98  -118  -147  -164  -164  -154  -146  -151  -170  -199  -229  -249  -260  -265  -250  -195  -100  -8  48  87  144  217  268  288  302  318  309  239  89  -108  -289  -432  -566  -699  -797  -840  -843  -838  -839  -840  -814  -743  -651  -588  -574  -591  -627  -693  -782  -852  -893  -925  -927  -785  -272  753  2059  3183  3690  3228  1734  -422  -2698  -4614  -5777  -6010  -5491  -4575  -3541  -2565  -1799  -1302  -992  -768  -592  -460  -372  -317  -271  -210  -119  -12  82  158  227  289  337  367  376  369  357  348  340  333  348  411  529  675  806  886  919  944  997  1080  1174  1251  1305  1359  1449  1594  1771  1922  1997  2019  2084  2276  2556  2782  2875  2884  2884  2900  2916  2906  2867  2805  2724  2637  2552  2432  2207  1825  1336  899  615  385  69  -307  -617  -810  -938  -1052  -1154  -1215  -1222  -1196  -1166  -1139  -1129  -1133  -1125  -1091  -1053  -1029  -1013  -996  -961  -890  -795  -710  -650  -613  -600  -606  -620  -635  -647  -656  -666  -677  -686  -698  -723  -756  -775  -750  -668  -549  -437  -346  -275  -233  -219  -215  -204  -193  -208  -261  -335  -398  -433  -445  -455  -478  -519  -577  -627  -625  -557  -456  -368  -318  -308  -321  -342  -354  -328  -243  -128  -35  7  -14  -82  -147  -180  -198  -212  -211  -179  -121  -67  -29  6  31  20  -19  -58  -77  -72  -46  -7  32  61  81  90  88  84  90  102  112  130  166  205  228  233  229  214  171  98  19  -37  -65  -80  -101  -136  -179  -212  -219  -205  -178  -138  -98  -89  -134  -209  -269  -299  -309  -294  -233  -154  -168  -321  -417  -129  725  2082  3606  4687  4760  3734  1943  -172  -2211  -3842  -4873  -5216  -4834  -3856  -2653  -1595  -824  -329  -63  38  56  57  75  116  176  250  325  403  485  557  603  619  620  619  631  666  727  795  840  846  819  779  750  751  796  884  1007  1157  1304  1403  1442  1458  1491  1547  1614  1706  1867  2092  2308  2462  2561  2633  2686  2728  2778  2853  2930  2975  2979  2963  2947  2934  2906  2840  2703  2477  2171  1807  1408  1002  627  325  85  -139  -354  -517  -617  -685  -746  -808  -895  -1025  -1162  -1249  -1263  -1207  -1089  -945  -830  -799  -863  -967  -1027  -1025  -998  -984  -973  -936  -860  -770  -699  -659  -648  -654  -657  -652  -652  -664  -703  -764  -808  -817  -808  -794  -780  -769  -759  -752  -754  -790  -882  -997  -1052  -997  -879  -781  -737  -730  -742  -774  -823  -871  -896  -893  -866  -829  -797  -765  -734  -739  -794  -860  -891  -881  -840  -788  -753  -744  -752  -758  -740  -682  -603  -546  -527  -524  -514  -496  -488  -501  -528  -562  -609  -670  -727  -757  -746  -699  -636  -589  -552  -493  -398  -298  -237  -226  -248  -280  -309  -327  -336  -340  -339  -335  -331  -323  -299  -251  -190  -136  -94  -50  5  63  108  136  155  160  110  -31  -226  -370  -412  -388  -355  -333  -319  -311  -317  -342  -381  -424  -471  -509  -520  -520  -529  -510  -441  -413  -518  -663  -531  215  1631  3368  4758  5129  4249  2427  186  -2045  -3973  -5341  -5909  -5584  -4525  -3123  -1828  -930  -457  -257  -166  -104  -50  11  83  144  170  175  191  237  291  320  346  413  513  589  616  613  603  593  584  592  643  739  845  921  965  998  1019  1025  1033  1082  1187  1311  1400  1440  1469  1545  1697  1896  2086  2225  2301  2338  2394  2499  2627  2744  2859  2984  3084  3107  3056  2960  2816  2600  2300  1935  1574  1282  1055  859  668  449  184  -106  -381  -594  -726  -804  -860  -908  -939  -943  -933  -933  -929  -879  -785  -693  -638  -619  -633  -678  -736  -778  -793  -789  -774  -746  -700  -633  -552  -467  -382  -311  -260  -231  -230  -262  -329  -422  -517  -571  -550  -441  -280  -149  -97  -115  -179  -270  -370  -455  -512  -538  -543  -541  -539  -535  -526  -514  -503  -492  -473  -450  -433  -428  -431  -435  -435  -432  -432  -450  -495  -554  -596  -612  -614  -607  -585  -553  -522  -494  -461  -413  -365  -339  -334  -332  -319  -287  -234  -167  -111  -80  -69  -69  -90  -159  -285  -402  -405  -290  -151  -51  11  47  81  145  242  336  396  421  420  388  314  215  129  76  42  13  -13  -56  -129  -209  -279  -340  -364  -345  -330  -339  -357  -365  -361  -346  -321  -287  -247  -195  -158  -233  -474  -774  -933  -723  72  1445  2993  4107  4280  3393  1767  -179  -2129  -3786  -4893  -5328  -5105  -4379  -3411  -2428  -1537  -818  -382  -227  -201  -175  -145  -150  -161  -115  0  137  248  299  290  250  211  196  233  351  520  664  742  766  764  748  724  709  734  812  925  1033  1111  1155  1173  1176  1180  1225  1349  1527  1694  1846  2025  2231  2410  2523  2575  2597  2628  2688  2765  2826  2858  2869  2865  2829  2742  2597  2400  2155  1868  1557  1245  956  698  465  234  -33  -344  -643  -864  -994  -1058  -1075  -1057  -1032  -1050  -1150  -1291  -1389  -1400  -1349  -1288  -1247  -1200  -1095  -923  -738  -605  -551  -562  -605  -662  -734  -793  -817  -811  -774  -699  -625  -585  -568  -543  -499  -445  -396  -362  -351  -361  -380  -391  -378  -333  -264  -195  -164  -207  -301  -378  -389  -336  -247  -163  -107  -91  -127  -206  -294  -349  -366  -362  -352  -339  -327  -332  -370  -429  -474  -489  -488  -499  -550  -646  -765  -862  -897  -875  -839  -814  -789  -744  -683  -635  -619  -630  -663  -703  -726  -718  -684  -642  -612  -595  -549  -416  -204  -2  119  162  157  113  19  -115  -254  -349  -387  -388  -379  -373  -380  -403  -435  -460  -468  -468  -486  -539  -612  -665  -683  -684  -691  -698  -683  -648  -627  -638  -693  -796  -835  -603  84  1301  2835  4147  4685  4162  2658  577  -1611  -3558  -4950  -5549  -5334  -4476  -3310  -2188  -1305  -740  -463  -340  -251  -145  -10  131  243  317  366  403  438  471  491  498  508  541  593  639  670  690  709  736  780  833  873  893  902  909  934  1008  1165  1398  1634  1795  1883  1956  2044  2131  2205  2276  2354  2441  2538  2656  2797  2946  3084  3199  3281  3327  3347  3358  3369  3361  3283  3099  2847  2611  2415  2198  1892  1482  1016  595  279  44  -142  -285  -387  -474  -568  -667  -747  -789  -802  -802  -798  -784  -747  -697  -664  -672  -716  -770  -802  -808  -801  -797  -802  -808  -799  -766  -728  -706  -698  -692  -676  -653  -632  -617  -612  -630  -666  -696  -700  -687  -671  -662  -651  -622  -561  -478  -405  -363  -347  -347  -359  -386  -430  -479  -517  -527  -510  -496  -524  -592  -652  -676  -664  -607  -494  -349  -234  -186  -183  -193  -198  -199  -197  -196  -193  -189  -189  -203  -246  -314  -414  -562  -734  -845  -833  -708  -543  -425  -382  -380  -384  -387  -412  -476  -555  -607  -619  -602  -577  -573  -621  -725  -839  -883  -842  -780  -747  -744  -754  -756  -722  -645  -578  -568  -587  -576  -521  -459  -424  -396  -343  -264  -185  -130  -101  -90  -85  -75  -67  -104  -228  -418  -586  -683  -729  -754  -778  -830  -913  -998  -1052  -1071  -1070  -1067  -1059  -1030  -966  -872  -776  -703  -707  -859  -1060  -1016  -470  665  2226  3685  4373  3988  2718  927  -1054  -2979  -4630  -5727  -6015  -5453  -4267  -2872  -1657  -825  -403  -261  -221  -184  -136  -72  17  117  186  213  227  250  300  389  498  574  601  611  633  654  662  683  759  871  952  972  959  951  978  1062  1187  1300  1360  1371  1366  1396  1506  1702  1934  2128  2252  2348  2476  2636  2772  2857  2897  2912  2942  3023  3144  3250  3308  3310  3235  3058  2816  2584  2373  2114  1781  1422  1089  807  596  442  284  88  -106  -246  -317  -342  -354  -390  -472  -574  -644  -674  -701  -743  -784  -805  -810  -818  -839  -861  -861  -834  -801  -776  -749  -695  -599  -492  -421  -398  -396  -395  -403  -442  -523  -618  -685  -711  -715  -707  -688  -648  -591  -528  -461  -392  -342  -325  -350  -425  -523  -591  -600  -566  -528  -499  -471  -449  -451  -483  -533  -575  -589  -580  -557  -515  -459  -420  -429  -494  -584  -649  -674  -680  -676  -649  -586  -518  -498  -537  -597  -648  -665  -630  -545  -445  -373  -341  -334  -340  -356  -380  -399  -407  -407  -405  -402  -395  -378  -353  -319  -280  -242  -218  -205  -197  -191  -188  -188  -176  -137  -91  -69  -76  -102  -126  -138  -142  -145  -149  -146  -129  -104  -86  -82  -87  -95  -91  -55  26  134  241  343  433  494  514  493  429  333  238  163  100  38  -16  -62  -109  -176  -252  -308  -327  -326  -331  -350  -380  -417  -467  -519  -562  -589  -618  -653  -626  -494  -389  -468  -656  -626  -59  1133  2724  4166  4778  4176  2535  362  -1860  -3734  -4935  -5333  -5028  -4251  -3273  -2318  -1514  -897  -470  -236  -149  -115  -60  37  147  226  258  261  259  275  329  411  490  540  552  534  513  519  561  628  701  760  800  839  929  1113  1347  1521  1588  1592  1580  1571  1574  1604  1686  1815  1946  2035  2104  2215  2400  2616  2792  2901  2964  3007  3053  3111  3175  3240  3301  3336  3309  3194  3011  2791  2507  2127  1706  1361  1155  1029  873  630  338  71  -151  -373  -588  -732  -784  -789  -789  -796  -805  -807  -807  -815  -839  -873  -899  -913  -920  -926  -926  -907  -852  -777  -721  -710  -732  -760  -753  -675  -540  -413  -345  -331  -347  -384  -438  -499  -553  -596  -630  -660  -684  -705  -719  -717  -676  -578  -442  -336  -300  -319  -360  -404  -455  -520  -586  -623  -624  -604  -588  -591  -606  -617  -623  -640  -687  -750  -790  -789  -765  -744  -736  -733  -734  -744  -766  -785  -780  -748  -706  -669  -633  -592  -548  -508  -493  -522  -595  -691  -781  -836  -851  -846  -841  -846  -852  -838  -793  -738  -697  -678  -673  -672  -670  -673  -685  -703  -716  -720  -720  -715  -690  -636  -574  -534  -521  -514  -490  -440  -382  -329  -255  -120  46  167  213  214  192  124  -19  -205  -356  -429  -447  -448  -461  -519  -629  -725  -730  -633  -491  -389  -363  -386  -423  -459  -494  -531  -568  -599  -631  -676  -631  -266  570  1825  3213  4193  4247  3267  1504  -652  -2744  -4379  -5294  -5391  -4802  -3779  -2582  -1482  -693  -261  -89  -37  -17  -8  -6  3  44  130  249  363  435  462  480  518  573  624  682  777  896  980  1008  1017  1049  1101  1141  1151  1146  1159  1220  1324  1434  1525  1614  1715  1815  1900  1960  1984  1984  2011  2128  2341  2570  2728  2800  2831  2861  2906  2972  3060  3151  3219  3255  3266  3242  3146  2951  2687  2398  2072  1718  1386  1078  770  486  240  19  -180  -350  -471  -538  -577  -619  -665  -699  -706  -684  -640  -589  -547  -513  -487  -481  -505  -536  -537  -509  -478  -465  -464  -463  -455  -439  -423  -411  -406  -399  -390  -401  -456  -548  -626  -650  -610  -527  -430  -351  -318  -341  -392  -430  -445  -445  -443  -437  -421  -401  -396  -416  -451  -472  -462  -438  -423  -420  -422  -425  -433  -452  -479  -496  -482  -428  -358  -313  -307  -317  -325  -327  -327  -325  -319  -310  -301  -292  -278  -259  -245  -264  -335  -430  -494  -506  -486  -458  -434  -414  -397  -391  -400  -413  -413  -384  -332  -299  -322  -391  -458  -499  -522  -537  -544  -542  -539  -537  -539  -537  -515  -466  -403  -349  -313  -286  -254  -212  -173  -159  -169  -178  -162  -128  -97  -70  -41  -15  -2  -5  -25  -70  -162  -316  -487  -600  -631  -618  -594  -575  -565  -562  -559  -563  -596  -682  -796  -876  -899  -902  -935  -1003  -1025  -937  -847  -876  -874  -501  461  1950  3543  4530  4317  2874  689  -1616  -3567  -4919  -5598  -5625  -5073  -4090  -2894  -1773  -1006  -645  -513  -434  -341  -253  -195  -160  -136  -123  -117  -94  -32  50  103  106  86  87  149  285  448  558  575  523  448  397  388  420  479  551  619  668  698  725  798  961  1165  1297  1329  1358  1497  1756  2033  2228  2313  2333  2355  2421  2529  2640  2706  2705  2659  2606  2566  2533  2499  2432  2264  1973  1622  1269  922  600  357  186  6  -223  -461  -655  -797  -903  -996  -1075  -1127  -1152  -1182  -1220  -1219  -1145  -1020  -905  -854  -871  -916  -968  -1025  -1079  -1121  -1144  -1132  -1059  -908  -699  -502  -401  -406  -460  -522  -574  -608  -625  -619  -579  -501  -402  -315  -264  -265  -338  -477  -600  -597  -477  -357  -308  -309  -320  -326  -326  -326  -330  -338  -345  -346  -336  -312  -282  -259  -248  -245  -245  -248  -250  -247  -236  -218  -197  -162  -94  -8  55  79  80  78  80  80  75  68  65  76  110  173  245  281  268  234  199  156  118  94  54  -26  -103  -98  -9  80  120  121  107  100  125  200  302  377  399  388  366  330  264  176  93  23  -33  -64  -60  -40  -19  6  49  95  124  139  144  142  136  128  125  148  229  382  557  675  713  707  689  661  622  575  526  463  372  256  145  63  9  -35  -75  -105  -133  -179  -243  -300  -332  -351  -376  -402  -412  -421  -472  -566  -622  -619  -664  -717  -485  290  1619  3200  4436  4740  3952  2347  330  -1752  -3645  -5149  -5992  -5875  -4832  -3300  -1805  -743  -255  -160  -168  -126  -20  95  166  168  119  75  91  169  262  329  361  377  403  440  469  480  481  481  480  484  534  677  907  1121  1196  1122  994  904  887  929  1020  1186  1418  1628  1745  1787  1834  1951  2125  2276  2362  2427  2536  2690  2828  2900  2914  2908  2906  2903  2868  2771  2628  2491  2352  2135  1807  1466  1219  1046  865  626  310  -66  -430  -692  -820  -849  -838  -828  -831  -847  -879  -923  -987  -1090  -1212  -1297  -1329  -1331  -1320  -1273  -1177  -1064  -990  -965  -956  -925  -859  -783  -744  -768  -832  -887  -900  -878  -842  -812  -792  -775  -760  -763  -800  -850  -869  -835  -775  -730  -715  -721  -744  -788  -842  -871  -852  -803  -748  -696  -657  -628  -592  -542  -493  -454  -431  -421  -418  -419  -437  -484  -544  -589  -607  -608  -597  -565  -512  -448  -392  -357  -338  -317  -284  -243  -223  -252  -325  -415  -498  -556  -574  -543  -476  -404  -335  -266  -226  -253  -328  -400  -441  -437  -403  -388  -404  -408  -370  -297  -210  -151  -146  -172  -193  -196  -191  -189  -204  -241  -291  -335  -365  -377  -363  -313  -241  -188  -173  -173  -145  -62  64  189  258  264  245  223  196  159  122  99  86  70  41  -11  -102  -216  -314  -380  -428  -453  -459  -482  -539  -602  -639  -655  -674  -693  -691  -674  -688  -743  -757  -703  -676  -692  -633  -323  430  1661  3083  4155  4377  3579  1939  -146  -2228  -3937  -5002  -5310  -4964  -4176  -3140  -2044  -1121  -553  -325  -273  -244  -190  -141  -117  -96  -45  50  167  262  317  346  371  389  369  304  274  379  593  766  818  795  764  749  747  764  821  926  1052  1146  1182  1182  1202  1295  1467  1674  1874  2048  2181  2278  2363  2458  2569  2686  2800  2896  2964  3007  3034  3051  3072  3110  3139  3091  2916  2670  2462  2315  2160  1927  1590  1189  809  487  204  -42  -247  -412  -533  -596  -618  -656  -751  -870  -934  -922  -886  -875  -896  -926  -947  -955  -955  -945  -922  -894  -867  -839  -805  -772  -753  -748  -750  -752  -755  -759  -763  -772  -785  -793  -783  -752  -716  -710  -739  -767  -773  -775  -775  -769  -759  -745  -721  -673  -599  -524  -489  -519  -610  -733  -841  -908  -949  -981  -986  -939  -859  -786  -738  -716  -713  -714  -707  -694  -685  -690  -706  -723  -735  -740  -730  -695  -640  -582  -537  -514  -508  -509  -508  -511  -529  -558  -580  -569  -511  -430  -372  -366  -404  -457  -494  -504  -491  -456  -407  -353  -283  -168  -6  145  233  257  250  235  211  182  154  125  49  -132  -405  -649  -764  -738  -604  -431  -305  -259  -267  -302  -351  -407  -457  -488  -496  -486  -462  -393  -243  -64  -8  -137  -217  151  1196  2743  4212  4884  4343  2737  595  -1561  -3432  -4818  -5529  -5454  -4626  -3287  -1874  -780  -165  58  107  157  267  399  495  539  549  545  545  551  553  539  511  496  524  593  677  741  768  775  780  783  780  780  796  840  909  991  1070  1116  1121  1122  1166  1280  1456  1650  1799  1881  1924  1967  2022  2083  2163  2300  2498  2700  2854  2950  2995  3009  3011  3018  3028  3017  2947  2793  2582  2361  2150  1917  1616  1232  784  342  27  -125  -212  -325  -468  -586  -640  -646  -640  -637  -641  -674  -747  -834  -893  -913  -911  -911  -932  -979  -1033  -1060  -1038  -987  -929  -876  -834  -808  -799  -815  -852  -896  -921  -913  -875  -817  -756  -716  -707  -716  -728  -738  -745  -747  -738  -724  -716  -714  -701  -656  -587  -528  -499  -493  -498  -506  -515  -524  -524  -510  -497  -518  -582  -646  -663  -623  -548  -483  -457  -452  -449  -450  -467  -503  -545  -575  -585  -587  -604  -648  -702  -744  -766  -769  -755  -731  -706  -688  -674  -655  -629  -604  -589  -582  -573  -560  -565  -600  -627  -608  -560  -506  -434  -338  -237  -149  -83  -42  -23  -15  2  50  120  177  201  190  154  117  101  110  133  158  179  205  249  316  393  438  409  287  79  -158  -341  -438  -479  -499  -507  -503  -494  -488  -486  -483  -474  -461  -451  -447  -452  -478  -540  -591  -532  -389  -347  -437  -412  42  1102  2637  4110  4771  4165  2452  218  -1987  -3841  -5122  -5633  -5347  -4473  -3314  -2177  -1307  -771  -502  -399  -359  -305  -208  -78  45  132  176  191  189  183  174  164  159  182  250  347  436  497  516  488  446  450  528  645  738  805  904  1065  1234  1342  1388  1403  1413  1445  1512  1622  1770  1942  2097  2187  2210  2211  2252  2371  2537  2684  2798  2924  3082  3239  3340  3355  3278  3107  2867  2613  2365  2097  1790  1453  1122  831  563  297  70  -80  -168  -231  -287  -338  -402  -499  -621  -740  -834  -885  -872  -783  -661  -572  -539  -539  -568  -639  -742  -828  -858  -826  -732  -582  -427  -334  -319  -346  -379  -405  -428  -436  -411  -364  -322  -304  -304  -311  -319  -319  -301  -264  -217  -183  -178  -208  -273  -355  -415  -439  -439  -426  -394  -345  -299  -281  -298  -342  -394  -434  -448  -428  -389  -350  -321  -322  -352  -387  -413  -441  -473  -489  -482  -474  -467  -437  -400  -386  -400  -427  -457  -494  -538  -581  -617  -640  -650  -657  -670  -673  -630  -549  -481  -457  -459  -463  -457  -444  -436  -437  -448  -461  -473  -485  -501  -518  -533  -549  -569  -587  -605  -613  -595  -538  -450  -361  -310  -310  -341  -374  -398  -419  -457  -522  -576  -573  -508  -403  -287  -182  -101  -50  -19  -3  -16  -57  -100  -124  -150  -209  -303  -406  -498  -572  -629  -668  -683  -685  -704  -740  -759  -755  -756  -783  -830  -879  -928  -968  -979  -944  -871  -820  -873  -958  -778  -92  1107  2640  4026  4582  3990  2488  480  -1656  -3561  -4934  -5589  -5463  -4592  -3222  -1860  -926  -425  -172  -62  -22  35  149  272  343  359  370  422  525  649  757  843  916  975  1009  1014  1004  999  1018  1072  1136  1176  1192  1229  1331  1481  1615  1688  1710  1719  1758  1838  1938  2053  2191  2337  2457  2536  2581  2615  2655  2718  2821  2953  3068  3133  3153  3163  3195  3251  3313  3361  3384  3365  3248  2971  2584  2218  1933  1714  1526  1292  979  669  457  322  179  -5  -218  -448  -671  -835  -911  -903  -815  -659  -486  -372  -345  -376  -420  -451  -465  -470  -466  -440  -383  -323  -314  -372  -457  -515  -536  -542  -545  -527  -458  -343  -230  -162  -138  -132  -131  -143  -180  -243  -317  -381  -421  -440  -448  -447  -434  -422  -431  -459  -481  -484  -482  -486  -492  -486  -458  -419  -386  -371  -373  -384  -415  -490  -597  -686  -719  -709  -694  -695  -706  -716  -719  -705  -661  -599  -544  -510  -491  -484  -504  -561  -640  -700  -722  -715  -685  -641  -587  -531  -505  -532  -584  -629  -665  -698  -725  -732  -713  -675  -628  -566  -482  -394  -335  -309  -287  -241  -178  -131  -113  -106  -93  -80  -91  -164  -317  -533  -748  -891  -942  -920  -830  -679  -517  -420  -435  -536  -650  -729  -766  -755  -679  -541  -405  -340  -374  -527  -784  -975  -831  -132  1193  2939  4524  5218  4657  3018  753  -1598  -3528  -4728  -5119  -4774  -3912  -2862  -1888  -1097  -514  -139  59  171  274  376  446  473  466  440  408  380  360  346  342  365  423  493  526  502  450  407  393  412  463  535  605  642  649  657  693  753  800  829  876  960  1057  1146  1226  1294  1346  1388  1440  1525  1654  1795  1896  1950  1999  2077  2177  2269  2331  2353  2340  2299  2212  2008  1633  1154  708  364  92  -188  -512  -815  -1014  -1111  -1189  -1313  -1461  -1570  -1614  -1614  -1611  -1630  -1679  -1751  -1826  -1872  -1856  -1773  -1663  -1589  -1577  -1598  -1617  -1618  -1595  -1545  -1481  -1436  -1435  -1479  -1545  -1595  -1595  -1520  -1372  -1179  -973  -772  -596  -467  -404  -417  -503  -627  -726  -772  -793  -834  -907  -981  -1018  -1010  -982  -948  -900  -842  -801  -809  -881  -993  -1097  -1176  -1258  -1352  -1434  -1496  -1548  -1578  -1555  -1459  -1327  -1232  -1202  -1211  -1222  -1206  -1149  -1068  -1006  -981  -979  -966  -910  -817  -725  -651  -578  -501  -437  -382  -324  -264  -199  -130  -82  -78  -101  -121  -130  -130  -102  -23  97  220  309  351  346  291  198  107  51  29  19  0  -36  -60  -56  -70  -129  -201  -266  -328  -376  -391  -379  -355  -324  -299  -302  -325  -310  -253  -258  -331  -232  386  1676  3355  4774  5279  4579  2917  840  -1217  -3010  -4315  -4940  -4798  -3953  -2702  -1509  -707  -315  -154  -61  32  145  297  495  685  805  866  923  997  1064  1104  1120  1124  1120  1104  1087  1092  1125  1165  1200  1240  1277  1295  1295  1289  1279  1272  1280  1325  1424  1560  1701  1851  2002  2102  2125  2113  2146  2295  2553  2831  3045  3191  3315  3434  3523  3570  3606  3661  3740  3822  3882  3894  3809  3582  3216  2763  2294  1886  1562  1301  1072  867  692  549  424  282  82  -183  -441  -597  -642  -645  -657  -683  -709  -731  -750  -745  -685  -577  -469  -400  -366  -357  -373  -398  -421  -445  -461  -453  -432  -406  -372  -328  -288  -272  -290  -327  -358  -369  -360  -331  -288  -240  -193  -155  -128  -107  -102  -118  -136  -145  -147  -144  -138  -137  -152  -194  -245  -280  -295  -304  -314  -314  -301  -273  -236  -201  -179  -169  -159  -143  -128  -122  -127  -137  -145  -147  -144  -143  -144  -137  -116  -85  -60  -51  -45  -30  4  47  77  87  87  90  97  93  59  -15  -109  -181  -211  -205  -167  -92  -2  60  67  29  -20  -58  -101  -186  -299  -380  -400  -377  -329  -259  -177  -109  -77  -90  -141  -207  -265  -333  -444  -600  -759  -883  -976  -1050  -1106  -1136  -1122  -1064  -993  -949  -946  -990  -1083  -1197  -1285  -1340  -1397  -1459  -1496  -1486  -1448  -1430  -1500  -1705  -1965  -2003  -1487  -316  1272  2777  3569  3225  1861  -62  -2121  -4038  -5602  -6584  -6815  -6280  -5144  -3747  -2494  -1663  -1287  -1170  -1101  -997  -860  -718  -603  -506  -402  -306  -242  -218  -222  -230  -213  -145  -42  45  95  116  137  203  335  494  610  657  668  692  757  854  953  1040  1110  1152  1164  1155  1167  1286  1578  1966  2260  2380  2417  2492  2638  2799  2900  2930  2934  2953  2988  3013  3024  3035  3024  2940  2782  2615  2479  2329  2082  1700  1248  827  480  184  -85  -318  -480  -568  -619  -660  -687  -699  -720  -785  -894  -1006  -1095  -1156  -1177  -1145  -1074  -1002  -967  -977  -1007  -1039  -1074  -1110  -1146  -1188  -1212  -1187  -1122  -1064  -1036  -1021  -990  -928  -851  -797  -782  -788  -792  -781  -759  -733  -711  -712  -739  -774  -802  -824  -841  -852  -856  -830  -749  -632  -532  -476  -456  -469  -506  -547  -576  -596  -612  -617  -602  -575  -548  -538  -534  -516  -478  -431  -393  -375  -375  -380  -380  -374  -366  -359  -351  -339  -325  -319  -321  -326  -332  -342  -357  -372  -367  -335  -295  -269  -255  -250  -252  -257  -256  -228  -164  -88  -36  -19  -22  -28  -33  -39  -53  -90  -149  -204  -226  -199  -138  -77  -32  11  48  65  65  61  57  57  73  113  166  206  222  225  229  246  279  323  376  445  516  565  587  596  593  560  493  409  332  270  219  172  126  87  64  59  65  78  100  127  150  161  160  157  159  179  241  355  463  460  314  141  230  931  2350  4139  5610  6108  5362  3560  1254  -935  -2659  -3761  -4136  -3840  -3090  -2091  -998  -1  734  1188  1430  1542  1582  1590  1598  1628  1715  1883  2086  2242  2328  2388  2454  2513  2535  2516  2477  2439  2398  2344  2288  2248  2226  2228  2237  2228  2218  2222  2227  2215  2200  2213  2265  2332  2388  2429  2454  2462  2467  2482  2497  2503  2505  2519  2544  2578  2650  2790  2973  3135  3231  3223  3079  2839  2600  2416  2265  2103  1875  1519  1046  546  110  -201  -389  -511  -635  -785  -957  -1147  -1342  -1513  -1647  -1754  -1850  -1926  -1969  -1992  -2027  -2075  -2114  -2124  -2107  -2079  -2069  -2101  -2155  -2194  -2209  -2220  -2239  -2272  -2312  -2350  -2380  -2401  -2421  -2447  -2479  -2501  -2506  -2502  -2491  -2467  -2428  -2386  -2355  -2333  -2308  -2277  -2241  -2198  -2147  -2101  -2070  -2056  -2059  -2081  -2130  -2207  -2301  -2387  -2443  -2467  -2478  -2482  -2458  -2394  -2316  -2267  -2257  -2268  -2282  -2296  -2315  -2340  -2362  -2378  -2389  -2393  -2388  -2385  -2394  -2407  -2405  -2364  -2299  -2252  -2233  -2222  -2193  -2105  -1945  -1773  -1654  -1586  -1529  -1452  -1327  -1168  -1032  -925  -792  -611  -437  -325  -253  -172  -74  11  74  118  152  172  147  66  -18  -29  78  256  408  518  632  756  853  907  926  922  914  912  911  899  871  833  796  755  700  644  618  632  655  660  650  641  637  632  624  631  678  766  866  951  971  884  731  606  651  1115  2169  3651  5084  5867  5582  4263  2299  154  -1785  -3234  -4031  -4165  -3720  -2822  -1699  -664  87  540  763  854  903  949  999  1069  1174  1305  1430  1511  1532  1502  1448  1405  1387  1376  1356  1323  1271  1210  1162  1137  1133  1145  1174  1252  1404  1591  1725  1769  1763  1755  1771  1813  1870  1926  1962  1984  2039  2155  2306  2434  2514  2574  2647  2728  2788  2826  2877  2962  3055  3108  3094  3020  2912  2766  2533  2201  1858  1585  1379  1147  805  411  120  -28  -148  -328  -530  -660  -698  -688  -677  -682  -715  -777  -859  -940  -1001  -1013  -961  -857  -748  -684  -676  -696  -716  -731  -746  -758  -744  -688  -609  -551  -535  -552  -582  -608  -626  -639  -645  -639  -629  -622  -621  -635  -679  -750  -818  -853  -853  -841  -832  -826  -819  -818  -823  -827  -812  -771  -725  -710  -726  -757  -795  -827  -845  -853  -857  -851  -832  -806  -783  -770  -767  -770  -766  -744  -711  -688  -680  -679  -679  -680  -686  -696  -706  -722  -759  -823  -903  -980  -1026  -1024  -977  -909  -855  -828  -813  -803  -799  -801  -796  -768  -723  -689  -669  -650  -634  -635  -658  -690  -713  -727  -752  -791  -811  -778  -706  -626  -546  -472  -418  -397  -432  -537  -665  -721  -651  -497  -326  -151  9  94  71  -10  -87  -142  -193  -248  -314  -415  -557  -705  -810  -857  -861  -849  -829  -787  -694  -569  -469  -424  -404  -380  -372  -393  -391  -343  -319  -386  -475  -346  298  1565  3129  4315  4537  3652  1939  -105  -2022  -3575  -4639  -5051  -4763  -3964  -2914  -1816  -827  -57  418  617  650  637  627  623  613  599  590  595  626  684  737  752  736  718  709  708  725  770  832  876  892  894  896  895  881  853  823  804  806  833  901  1015  1145  1252  1337  1421  1514  1598  1650  1693  1809  2058  2378  2630  2756  2800  2826  2864  2913  2957  2975  2951  2883  2763  2590  2379  2131  1829  1501  1222  1020  834  622  414  236  75  -61  -156  -213  -251  -278  -287  -279  -270  -307  -431  -615  -768  -831  -809  -758  -724  -701  -659  -599  -531  -462  -400  -364  -376  -454  -578  -693  -752  -749  -691  -582  -454  -367  -348  -378  -422  -451  -448  -413  -366  -331  -315  -306  -292  -263  -227  -206  -205  -210  -234  -316  -452  -578  -651  -675  -668  -638  -596  -572  -580  -602  -612  -605  -594  -588  -587  -584  -574  -564  -568  -583  -574  -509  -388  -260  -180  -161  -176  -199  -215  -211  -173  -99  -21  11  -19  -92  -181  -276  -365  -421  -437  -428  -406  -370  -330  -300  -289  -289  -294  -300  -298  -271  -209  -141  -114  -147  -203  -235  -238  -232  -227  -219  -211  -214  -246  -318  -432  -550  -607  -553  -407  -242  -123  -52  1  52  89  106  109  105  97  93  112  173  263  329  312  178  -36  -243  -373  -423  -425  -413  -406  -416  -452  -502  -546  -582  -619  -658  -697  -731  -756  -771  -755  -687  -616  -652  -755  -607  126  1446  3030  4370  4865  4182  2533  388  -1853  -3817  -5122  -5576  -5248  -4354  -3200  -2115  -1318  -844  -587  -413  -271  -182  -165  -192  -225  -249  -258  -218  -87  110  284  376  403  401  381  340  287  244  227  229  235  241  255  279  297  292  264  248  315  515  781  970  1032  1041  1085  1182  1290  1391  1520  1705  1908  2067  2149  2170  2187  2262  2404  2554  2641  2653  2631  2610  2581  2510  2379  2219  2070  1918  1722  1449  1077  625  194  -125  -333  -473  -566  -629  -724  -908  -1131  -1274  -1293  -1243  -1194  -1171  -1167  -1162  -1151  -1134  -1121  -1124  -1142  -1157  -1164  -1166  -1172  -1181  -1181  -1150  -1064  -933  -810  -704  -569  -416  -318  -313  -366  -404  -387  -340  -312  -331  -408  -514  -601  -645  -666  -683  -700  -701  -671  -605  -526  -470  -448  -444  -447  -466  -516  -583  -634  -666  -713  -792  -887  -972  -1025  -1036  -1001  -926  -841  -769  -718  -708  -700  -633  -537  -480  -465  -459  -440  -401  -356  -328  -328  -348  -367  -366  -348  -328  -315  -307  -306  -307  -305  -292  -272  -252  -239  -235  -246  -273  -305  -324  -319  -286  -219  -129  -42  19  55  79  102  129  170  234  309  370  408  438  480  532  568  577  574  575  577  549  465  344  238  160  101  62  31  -20  -92  -148  -159  -131  -78  -4  94  209  304  344  295  138  -89  -248  -118  478  1545  2890  4146  4827  4554  3330  1471  -678  -2747  -4290  -5020  -4915  -4137  -2992  -1804  -805  -101  338  602  750  813  824  817  813  814  816  808  784  758  747  750  752  746  741  766  847  965  1067  1121  1139  1138  1132  1134  1158  1225  1345  1492  1611  1680  1714  1730  1738  1765  1842  1961  2078  2160  2214  2270  2338  2405  2468  2551  2663  2782  2890  3002  3116  3189  3188  3141  3096  3068  3015  2878  2624  2275  1888  1501  1120  747  376  13  -283  -455  -523  -560  -605  -652  -683  -706  -747  -812  -892  -989  -1098  -1179  -1199  -1185  -1174  -1173  -1174  -1179  -1195  -1219  -1240  -1250  -1252  -1247  -1237  -1223  -1209  -1193  -1176  -1161  -1148  -1137  -1130  -1126  -1113  -1078  -1015  -945  -897  -875  -873  -891  -934  -984  -1009  -988  -920  -845  -851  -956  -1075  -1143  -1170  -1182  -1185  -1162  -1101  -1020  -959  -932  -925  -926  -928  -926  -918  -905  -894  -890  -896  -911  -929  -942  -949  -953  -952  -937  -904  -868  -841  -808  -758  -713  -696  -702  -711  -719  -734  -773  -826  -862  -864  -836  -789  -736  -689  -660  -651  -643  -607  -524  -417  -329  -271  -221  -163  -105  -56  -32  -39  -65  -103  -164  -250  -340  -403  -428  -433  -429  -424  -422  -428  -456  -512  -585  -652  -699  -723  -736  -753  -761  -699  -544  -404  -414  -536  -528  -59  1015  2514  3984  4808  4499  3093  1016  -1280  -3348  -4772  -5376  -5231  -4549  -3609  -2621  -1700  -965  -505  -286  -205  -169  -134  -77  21  157  292  397  463  494  506  507  499  486  472  457  432  383  313  257  256  328  443  551  643  735  823  883  922  960  1007  1068  1141  1221  1312  1420  1523  1598  1658  1748  1909  2119  2319  2461  2536  2568  2592  2642  2723  2808  2867  2896  2911  2925  2911  2790  2490  2068  1683  1394  1135  867  592  305  46  -110  -166  -200  -269  -363  -445  -492  -510  -515  -525  -549  -590  -647  -715  -783  -834  -864  -874  -855  -783  -661  -529  -431  -383  -374  -381  -388  -397  -406  -416  -425  -432  -438  -443  -441  -429  -415  -405  -394  -362  -294  -215  -170  -169  -182  -182  -158  -116  -75  -48  -38  -36  -34  -45  -85  -147  -204  -240  -242  -211  -168  -128  -94  -71  -64  -70  -88  -111  -121  -97  -38  31  79  81  27  -71  -175  -241  -272  -298  -337  -390  -440  -471  -474  -439  -364  -266  -186  -164  -203  -269  -348  -442  -502  -481  -416  -369  -354  -359  -386  -441  -519  -596  -657  -704  -733  -737  -706  -638  -563  -513  -491  -472  -434  -372  -301  -238  -196  -179  -180  -187  -191  -180  -143  -83  -22  32  88  150  184  161  87  -13  -114  -177  -191  -185  -202  -266  -351  -394  -381  -362  -385  -433  -468  -476  -470  -469  -488  -520  -530  -502  -486  -519  -553  -578  -579  -366  271  1364  2748  3987  4515  4049  2701  790  -1295  -3232  -4771  -5618  -5557  -4705  -3441  -2169  -1211  -670  -380  -150  54  197  273  309  313  278  227  195  192  197  193  185  193  226  280  336  386  440  500  555  598  630  648  660  674  694  727  800  927  1079  1228  1355  1442  1481  1486  1495  1557  1710  1925  2128  2270  2362  2440  2536  2659  2797  2922  3002  3028  3026  3032  3051  3065  3042  2945  2742  2436  2097  1801  1555  1302  1025  732  407  80  -160  -304  -415  -523  -615  -680  -723  -750  -772  -809  -869  -913  -879  -781  -701  -681  -697  -729  -767  -804  -837  -864  -860  -787  -646  -495  -410  -438  -550  -664  -731  -754  -747  -711  -651  -585  -538  -513  -505  -519  -565  -627  -671  -685  -685  -686  -680  -657  -622  -592  -572  -554  -543  -545  -546  -548  -565  -588  -593  -576  -550  -528  -515  -504  -501  -516  -544  -573  -593  -601  -603  -608  -623  -651  -685  -713  -734  -756  -776  -778  -748  -696  -647  -617  -572  -468  -327  -226  -203  -242  -320  -414  -492  -521  -499  -464  -456  -484  -532  -575  -601  -609  -611  -621  -626  -591  -515  -445  -416  -428  -452  -480  -519  -558  -582  -598  -608  -594  -542  -473  -428  -414  -409  -395  -382  -382  -404  -452  -511  -552  -562  -557  -540  -472  -323  -128  44  178  281  335  330  283  231  188  145  105  72  30  -22  -72  -126  -202  -302  -410  -500  -538  -519  -472  -432  -408  -397  -391  -384  -373  -347  -313  -315  -401  -565  -668  -372  633  2230  3833  4768  4573  3214  1177  -872  -2618  -4016  -4910  -5107  -4661  -3774  -2645  -1537  -742  -358  -231  -159  -67  15  57  68  63  52  48  88  217  411  578  662  680  650  589  535  509  503  500  501  526  614  777  961  1094  1155  1180  1205  1248  1302  1349  1367  1356  1361  1456  1679  1948  2144  2261  2374  2511  2640  2740  2825  2925  3058  3221  3371  3462  3487  3470  3419  3321  3181  3035  2901  2747  2530  2226  1837  1410  1016  713  517  390  282  165  6  -198  -396  -527  -588  -611  -612  -592  -567  -564  -590  -625  -643  -650  -665  -697  -735  -742  -696  -623  -562  -521  -511  -554  -637  -711  -754  -781  -808  -828  -836  -837  -826  -797  -760  -734  -714  -675  -612  -552  -526  -538  -567  -594  -617  -633  -638  -629  -620  -651  -748  -878  -979  -1017  -1002  -951  -871  -764  -658  -590  -566  -558  -541  -512  -492  -496  -529  -580  -638  -699  -765  -831  -875  -874  -819  -726  -640  -593  -590  -618  -663  -711  -757  -802  -849  -911  -990  -1058  -1097  -1112  -1101  -1056  -974  -876  -794  -742  -727  -748  -778  -791  -791  -781  -758  -715  -663  -626  -616  -627  -645  -659  -660  -638  -588  -529  -485  -455  -406  -310  -183  -75  -13  11  15  -1  -50  -129  -236  -371  -511  -606  -637  -633  -620  -610  -597  -573  -553  -566  -609  -649  -663  -659  -648  -640  -648  -697  -797  -887  -915  -950  -1030  -1044  -830  -229  828  2170  3434  4159  3969  2843  1054  -1022  -2961  -4417  -5188  -5205  -4600  -3665  -2672  -1791  -1086  -556  -196  -17  17  -5  -22  -6  55  170  312  442  534  592  630  670  724  794  866  913  928  921  906  892  886  904  964  1045  1111  1157  1200  1242  1263  1257  1254  1294  1396  1546  1721  1896  2040  2129  2185  2252  2324  2387  2460  2554  2673  2818  2963  3055  3082  3080  3084  3100  3097  3010  2799  2518  2255  2021  1772  1517  1285  1042  744  444  237  136  70  -26  -151  -252  -301  -308  -301  -301  -315  -341  -372  -391  -382  -339  -266  -184  -124  -79  -6  94  172  202  203  199  197  189  173  155  139  120  100  93  110  147  186  221  266  322  372  405  418  409  372  308  226  137  58  8  -11  -14  -6  6  0  -66  -195  -327  -385  -352  -285  -239  -213  -191  -169  -149  -146  -182  -272  -404  -513  -534  -485  -438  -411  -399  -399  -392  -386  -408  -445  -465  -467  -470  -485  -510  -540  -579  -626  -668  -691  -697  -697  -696  -690  -666  -621  -575  -553  -558  -570  -575  -572  -577  -607  -666  -735  -798  -866  -950  -1029  -1073  -1086  -1086  -1069  -1034  -987  -944  -922  -922  -929  -932  -932  -935  -949  -970  -987  -986  -993  -1086  -1289  -1405  -1143  -398  762  2150  3350  3843  3334  1926  -65  -2287  -4303  -5731  -6394  -6297  -5614  -4662  -3742  -2973  -2352  -1879  -1559  -1374  -1258  -1126  -964  -835  -783  -793  -825  -851  -861  -841  -776  -681  -587  -501  -407  -297  -172  -53  28  83  159  260  336  361  374  436  580  771  939  1064  1157  1220  1259  1301  1371  1482  1635  1798  1935  2080  2295  2555  2760  2859  2890  2920  2973  3033  3077  3100  3114  3136  3162  3126  2917  2501  2022  1662  1454  1273  992  622  276  32  -106  -179  -229  -276  -327  -385  -428  -441  -451  -480  -531  -590  -635  -662  -683  -717  -762  -786  -769  -736  -709  -671  -592  -472  -340  -240  -188  -161  -129  -91  -68  -72  -99  -132  -166  -204  -236  -249  -246  -237  -224  -198  -149  -97  -56  -29  -19  -21  -15  0  13  11  -8  -15  -11  -36  -81  -105  -97  -73  -59  -61  -54  -25  -3  -13  -41  -51  -25  19  47  51  48  47  44  32  8  -23  -44  -38  0  54  95  116  130  138  118  41  -84  -215  -317  -377  -400  -387  -338  -272  -217  -184  -172  -182  -212  -269  -355  -457  -563  -656  -722  -752  -740  -681  -586  -478  -370  -265  -177  -127  -98  -48  12  45  38  10  -22  -69  -132  -192  -235  -269  -310  -367  -432  -497  -558  -612  -648  -656  -638  -613  -601  -600  -595  -596  -627  -669  -686  -662  -602  -550  -570  -665  -794  -850  -567  309  1720  3239  4250  4256  3193  1426  -570  -2472  -4095  -5240  -5704  -5439  -4535  -3209  -1871  -931  -483  -336  -280  -216  -117  7  125  199  220  216  210  208  205  196  187  198  248  325  398  450  483  515  572  669  794  907  972  988  988  1009  1075  1181  1288  1346  1360  1381  1443  1524  1586  1624  1667  1733  1825  1966  2196  2479  2714  2864  2962  3024  3053  3064  3080  3104  3120  3097  2986  2757  2454  2171  1946  1725  1444  1103  748  408  90  -171  -328  -386  -404  -448  -540  -646  -716  -738  -742  -757  -794  -846  -886  -899  -893  -877  -858  -845  -840  -841  -841  -825  -780  -708  -631  -561  -502  -472  -486  -523  -554  -572  -574  -558  -525  -484  -437  -395  -372  -372  -380  -387  -399  -426  -464  -473  -403  -271  -152  -90  -73  -83  -123  -194  -283  -353  -363  -314  -235  -148  -80  -54  -54  -56  -61  -84  -145  -244  -349  -426  -463  -469  -456  -429  -399  -378  -364  -335  -271  -172  -65  11  46  50  33  -4  -62  -127  -183  -216  -228  -229  -215  -169  -91  -13  38  74  127  213  300  337  310  251  204  186  188  203  229  264  305  364  444  524  575  592  590  588  587  565  502  417  349  317  313  320  324  318  308  297  285  271  261  266  286  303  303  292  290  309  342  378  399  380  309  199  85  -2  -74  -180  -325  -452  -517  -535  -535  -531  -532  -559  -643  -775  -905  -992  -1032  -1048  -1059  -1055  -1011  -939  -879  -842  -797  -711  -583  -436]
