reading_id,reading_time,wire_id,result_classification,heart_rate,heart_rate_alert,firmware_version,device_app_version,hardware_version,waveform_samples
23e11f70-62f1-11ed-8080-808080808080,Sun Nov 13 01:18:54 UTC 2022,a101e3b72739,NSR,69,NONE,20001.171.50,2.10.0,Charge 5,[2  -34  -51  -11  129  382  665  739  85  -1831  -4745  -7601  -9594  -10624  -11023  -11203  -11362  -11490  -11555  -11567  -11517  -11374  -11166  -10994  -10981  -11252  -11830  -12496  -12989  -13324  -13714  -14203  -14613  -14822  -14847  -14656  -14102  -13126  -12024  -11267  -11029  -11200  -11735  -12693  -14012  -15318  -16176  -16547  -16687  -16684  -16387  -15674  -14552  -13011  -10942  -8160  -4598  -879  1867  3175  3520  3530  3518  3544  3552  3493  3405  3350  3307  3154  2716  1821  512  -778  -1512  -1321  -49  1934  3693  4385  3623  1496  -1145  -3096  -3902  -3873  -3167  -1551  980  3634  5285  5485  4594  3337  2448  2359  3173  4737  6648  8397  9550  9952  9811  9499  9288  9194  8899  7910  6160  4392  3586  4143  5749  7818  9909  11750  13147  14082  14756  15408  16110  16857  17670  18451  19012  19217  18809  17416  15226  13202  12154  12110  12722  13626  14447  14965  15208  15237  15022  14575  14086  13772  13651  13598  13560  13507  13199  12347  11134  10189  10007  10785  12451  14524  16419  17943  19135  19932  20252  20045  19265  18139  17214  16868  17048  17484  17918  18214  18368  18406  18250  17780  17100  16541  16324  16473  16947  17604  18189  18532  18647  18633  18585  18554  18540  18540  18591  18763  19097  19563  20129  20812  21600  22356  22925  23268  23449  23671  24300  25538  27070  28290  28862  28914  28745  28541  28366  28265  28424  29167  30584  32201  32767  32767  32767  32767  32767  32767  29922  22605  14138  7768  4615  3500  2916  2191  1337  467  -450  -1474  -2504  -3268  -3648  -3854  -4205  -4838  -5589  -6233  -6804  -7472  -8245  -9022  -9788  -10507  -11081  -11541  -11989  -12388  -12633  -12696  -12627  -12524  -12499  -12669  -13094  -13641  -14037  -14172  -14128  -13984  -13788  -13612  -13511  -13481  -13516  -13647  -13893  -14225  -14592  -14947  -15250  -15471  -15592  -15627  -15627  -15629  -15643  -15655  -15615  -15443  -15130  -14806  -14607  -14528  -14493  -14479  -14501  -14552  -14594  -14548  -14262  -13594  -12603  -11625  -11007  -10768  -10685  -10631  -10631  -10653  -10590  -10382  -10069  -9766  -9565  -9405  -9147  -8771  -8410  -8203  -8176  -8281  -8460  -8656  -8827  -8924  -8876  -8668  -8407  -8221  -8159  -8233  -8483  -8908  -9433  -9974  -10476  -10858  -11059  -11104  -11073  -11010  -10880  -10516  -9735  -8695  -7873  -7531  -7564  -7823  -8233  -8715  -9178  -9544  -9781  -9949  -10152  -10400  -10585  -10573  -10287  -9778  -9222  -8798  -8574  -8589  -8986  -9909  -11213  -12418  -13107  -13261  -13077  -12679  -12164  -11619  -11027  -10403  -9883  -9553  -9347  -9135  -8832  -8438  -8033  -7791  -7963  -8715  -9808  -10679  -11062  -11199  -11410  -11746  -12073  -12240  -11974  -10838  -8761  -6442  -4777  -4079  -4198  -5058  -6533  -8054  -8944  -8982  -8375  -7537  -6900  -6647  -6675  -6796  -6837  -6712  -6471  -6209  -5919  -5515  -4978  -4386  -3873  -3556  -3439  -3466  -3650  -3991  -4138  -3359  -1322  1161  2718  2759  1991  1745  2805  4714  5974  5086  1964  -1841  -4475  -4856  -3059  -124  2994  5906  8205  9475  9814  9698  9488  9315  9217  9192  9226  9320  9446  9511  9393  9025  8462  7873  7440  7245  7250  7345  7425  7440  7378  7129  6563  5824  5269  5026  4949  4911  4911  4980  5089  5205  5400  5776  6255  6583  6488  5815  4734  3704  3015  2624  2410  2307  2271  2276  2320  2397  2407  2076  1174  -32  -903  -1120  -863  -467  -171  -30  45  140  248  313  293  177  -70  -555  -1439  -2821  -4503  -5998  -6912  -7230  -7140  -6739  -6078  -5339  -4755  -4378  -4047  -3628  -3174  -2759  -2355  -1912  -1430  -1186  -1901  -4018  -6752  -8470  -7735  -3956  2186  8927  14408  17447  17703  15748  12721  9692  7632  7400  8832  10440  10886  10262  9457  8868  8222  7299  6309  5600  5283  5198  5139  5042  4965  4967  5034  5102  5136  5132  4966  4402  3435  2397  1592  1041  635  328  155  183  488  1103  1963  2879  3572  3913  4002  3921  3557  2812  1850  971  346  -8  -156  -169  -69  115  312  441  477  434  314  118  -174  -634  -1237  -1767  -1979  -1802  -1360  -870  -475  -171  84  285  429  561  721  887  985  939  714  388  163  249  722  1387  1886  2039  1881  1495  1044  761  761  1010  1440  1930  2327  2565  2686  2737  2726  2590  2190  1468  631  -1  -332  -517  -790  -1245  -1595  -1370  -465  753  1823  2559  2995  3119  2852  2063  598  -1478  -3580  -4835  -4833  -3892  -2724  -2006  -1919  -2064  -2029  -1827  -1649  -1560  -1542  -1600  -1763  -2011  -2261  -2408  -2379  -2204  -2025  -2002  -2215  -2597  -2981  -3300  -3632  -3996  -4268  -4341  -4164  -3701  -3032  -2410  -2076  -2080  -2332  -2668  -2893  -2888  -2658  -2340  -2119  -2068  -2117  -2136  -1949  -1426  -675  1  425  632  745  865  1024  1190  1324  1431  1611  2037  2772  3626  4291  4612  4666  4620  4579  4572  4602  4668  4755  4807  4694  4280  3617  2922  2373  2035  1877  1780  1646  1432  1122  779  507  303  85  -188  -518  -862  -1128  -1241  -1159  -866  -468  -190  -215  -562  -1047  -1398  -1516  -1499  -1461  -1441  -1429  -1415  -1400  -1383  -1350  -1291  -1192  -1063  -953  -906  -951  -1116  -1381  -1663  -1876  -1972  -1956  -1882  -1775  -1581  -1295  -1083  -1133  -1475  -2024  -2598  -2972  -2855  -1971  -577  592  1000  454  -867  -2363  -3455  -3896  -3702  -3069  -2171  -1069  59  904  1309  1349  1114  611  -124  -1012  -2003  -2987  -3744  -4174  -4380  -4411  -4099  -3259  -2061  -1009  -439  -273  -288  -401  -652  -997  -1268  -1365  -1330  -1216  -1028  -810  -654  -588  -565  -535  -467  -354  -228  -149  -157  -264  -436  -595  -668  -604  -384  -93  108  156  128  156  395  993  1927  2923  3661  4035  4238  4578  5199  6018  6782  7180  7142  6861  6484  6098  5765  5423  4961  4278  3289  2068  907  9  -718  -1489  -2504  -3750  -4796  -5148  -4726  -3826  -2891  -2306  -2114  -2021  -1713  -1119  -380  358  991  1386  1501  1459  1412  1415  1422  1383  1325  1270  1074  543  -230  -890  -1266  -1469  -1611  -1703  -1759  -1823  -1914  -2008  -2080  -2083  -1877  -1212  129  1945  3536  4374  4556  4466  4339  4228  4134  4064  4025  4003  3981  3957  3929  3873  3778  3663  3567  3527  3544  3579  3600  3608  3611  3582  3451  3164  2737  2266  1879  1646  1532  1435  1263  990  691  467  346  291  265  257  251  194  33  -188  -351  -406  -395  -362  -312  -256  -218  -213  -229  -230  -164  -18  100  -17  -523  -1306  -2000  -2255  -1839  -698  840  2136  2604  2045  733  -782  -2080  -3089  -3819  -4199  -4210  -3828  -3035  -2066  -1345  -1067  -1066  -1120  -1135  -1108  -1089  -1196  -1563  -2189  -2921  -3587  -4053  -4259  -4258  -4149  -4020  -3935  -3905  -3903  -3907  -3929  -3983  -4055  -4112  -4093  -3928  -3670  -3474  -3401  -3395  -3403  -3422  -3477  -3561  -3589  -3437  -3063  -2596  -2254  -2102  -2014  -1847  -1560  -1215  -905  -652  -384  -69  206  343  298  77  -234  -487  -596  -551  -328  80  573  995  1263  1382  1431  1531  1739  2001  2215  2325  2349  2335  2311  2267  2182  2069  1963  1869  1768  1650  1525  1424  1375  1383  1436  1508  1573  1631  1686  1722  1733  1731  1733  1736  1713  1624  1473  1313  1226  1269  1420  1600  1746  1803  1743  1626  1517  1430  1355  1272  1178  1113  1108  1159  1251  1366  1477  1544  1526  1437  1348  1294  1254  1204  1152  1122  1122  1132  1106  1002  836  683  605  606  659  718  726  656  520  358  215  113  50  17  3  -3  -29  -86  -154  -193  -188  -177  -228  -391  -622  -813  -924  -1003  -1080  -1131  -1145  -1161  -1228  -1339  -1413  -1398  -1339  -1288  -1239  -1183  -1135  -1097  -1044  -972  -905  -860  -834  -827  -874  -1017  -1219  -1384  -1470  -1518  -1542  -1528  -1515  -1587  -1742  -1876  -1897  -1783  -1602  -1459  -1389  -1339  -1243  -1084  -932  -873  -874  -877  -940  -1088  -1233  -1312  -1348  -1382  -1430  -1471  -1488  -1485  -1476  -1465  -1449  -1399  -1271  -1045  -742  -423  -139  115  339  470  464  352  211  115  85  95  126  178  266  376  428  358  223  118  84  110  165  227  289  327  300  186  28  -105  -204  -296  -358  -282  -13  226  100  -253  -241  493  1833  3451  4845  5426  4978  3806  2319  678  -982  -2266  -2852  -2779  -2194  -1273  -385  173  477  718  924  1040  1077  1093  1103  1091  1075  1113  1233  1409  1579  1697  1781  1885  2036  2239  2467  2665  2812  2932  3065  3251  3469  3624  3640  3514  3315  3142  3045  3002  2978  2954  2945  2992  3113  3258  3356  3393  3415  3459  3530  3609  3663  3685  3723  3790  3849  3902  3934  3894  3777  3550  3149  2647  2233  2000  1886  1798  1677  1506  1310  1107  923  805  768  780  809  837  856  860  854  840  836  880  1012  1224  1452  1592  1553  1361  1148  1015  958  872  653  348  121  37  28  23  8  -8  -22  -26  -16  4  23  48  121  250  344  303  129  -135  -453  -740  -911  -963  -949  -902  -819  -743  -748  -827  -933  -1057  -1167  -1215  -1209  -1187  -1173  -1176  -1180  -1138  -988  -730  -475  -363  -451  -690  -970  -1193  -1324  -1379  -1389  -1386  -1387  -1394  -1396  -1382  -1343  -1291  -1247  -1219  -1210  -1245  -1358  -1545  -1748  -1922  -2062  -2164  -2211  -2202  -2148  -2067  -1943  -1737  -1486  -1294  -1181  -1087  -988  -896  -819  -754  -711  -703  -708  -699  -679  -661  -641  -607  -528  -369  -163  -7  43  -6  -141  -326  -505  -653  -773  -864  -921  -965  -1029  -1112  -1193  -1273  -1371  -1511  -1662  -1748  -1771  -1802  -1846  -1873  -1895  -1949  -2030  -2106  -2162  -2203  -2211  -2125  -1904  -1654  -1568  -1695  -1892  -1996  -1966  -1883  -1797  -1663  -1448  -1222  -1089  -1107  -1265  -1486  -1672  -1789  -1850  -1859  -1810  -1715  -1613  -1537  -1494  -1498  -1574  -1728  -1933  -2136  -2284  -2347  -2274  -2051  -1914  -2157  -2564  -2611  -2019  -705  1177  2956  3775  3311  1840  -173  -2287  -4155  -5591  -6460  -6539  -5829  -4784  -3856  -3165  -2680  -2323  -1970  -1593  -1288  -1120  -1056  -1063  -1143  -1275  -1412  -1512  -1562  -1569  -1559  -1557  -1592  -1683  -1802  -1893  -1867  -1616  -1208  -885  -754  -693  -563  -372  -226  -171  -141  -41  170  446  723  1000  1311  1667  2085  2552  2971  3231  3324  3313  3268  3236  3230  3226  3237  3304  3419  3509  3469  3221  2811  2369  1982  1674  1432  1236  1094  998  911  830  772  727  703  734  835  1021  1314  1646  1871  1911  1774  1516  1238  1028  881  768  691  655  629  583  518  465  449  469  536  656  797  912  984  1029  1055  1039  953  830  729  667  688  840  1034  1149  1158  1089  1011  977  987  1011  1023  1016  1007  1041  1160  1336  1461  1472  1394  1262  1081  891  772  755  799  851  887  897  877  834  788  758  745  744  754  771  778  750  679  584  505  496  575  671  705  675  617  561  528  517  511  492  459  422  380  321  252  206  201  218  232  240  254  287  344  413  457  440  371  276  181  116  86  71  58  55  74  114  126  0  -344  -799  -1149  -1308  -1353  -1364  -1365  -1355  -1331  -1300  -1280  -1288  -1331  -1391  -1439  -1456  -1435  -1373  -1289  -1227  -1219  -1268  -1365  -1487  -1598  -1657  -1653  -1615  -1580  -1582  -1658  -1839  -2089  -2299  -2390  -2373  -2309  -2258  -2252  -2271  -2274  -2240  -2183  -2118  -2036  -1942  -1898  -2001  -2261  -2527  -2717  -2985  -3417  -3788  -3592  -2382  -318  1874  3405  3699  2795  1329  -228  -1824  -3351  -4552  -5213  -5206  -4512  -3453  -2622  -2284  -2196  -2054  -1753  -1379  -1089  -947  -912  -933  -966  -981  -986  -1007  -1036  -1045  -1017  -945  -818  -619  -359  -104  68  150  244  493  948  1473  1857  2014  2025  2015  2045  2097  2143  2227  2427  2709  2932  3011  2985  2935  2916  2946  3011  3064  3082  3097  3134  3178  3212  3238  3273  3313  3269  2993  2440  1748  1134  745  578  536  532  534  540  557  563  494  307  58  -130  -190  -126  37  243  398  450  398  249  59  -91  -187  -282  -422  -607  -808  -1017  -1240  -1459  -1605  -1599  -1432  -1185  -971  -853  -837  -933  -1154  -1432  -1642  -1739  -1747  -1700  -1648  -1648  -1715  -1779  -1690  -1364  -928  -613  -510  -538  -595  -644  -700  -766  -799  -736  -550  -283  0  255  446  595  774  972  1129  1213  1204  1124  1044  999  985  1027  1180  1451  1763  2038  2254  2409  2485  2493  2501  2595  2815  3087  3273  3330  3339  3380  3459  3546  3638  3735  3808  3858  3967  4207  4508  4714  4771  4751  4725  4683  4604  4535  4522  4532  4522  4488  4429  4357  4287  4203  4062  3874  3717  3631  3553  3401  3204  3065  3024  3001  2830  2383  1787  1355  1211  1218  1223  1172  1062  890  669  385  12  -383  -659  -749  -689  -492  -134  433  1353  2503  3150  2542  622  -2076  -4754  -6488  -6801  -6179  -5446  -4956  -4643  -4362  -4037  -3662  -3261  -2919  -2731  -2687  -2699  -2707  -2712  -2761  -2887  -3045  -3121  -3048  -2869  -2673  -2503  -2351  -2218  -2130  -2100  -2112  -2138  -2141  -2089  -1990  -1872  -1734  -1573  -1420  -1312  -1259  -1249  -1263  -1287  -1297  -1227  -955  -415  231  680  821  792  734  702  704  739  793  847  895  924  848  553  68  -392  -667  -802  -901  -984  -1040  -1100  -1189  -1284  -1345  -1362  -1339  -1278  -1195  -1124  -1079  -1067  -1103  -1170  -1211  -1176  -1059  -895  -726  -599  -573  -696  -938  -1200  -1381  -1439  -1397  -1328  -1285  -1265  -1230  -1130  -947  -713  -497  -367  -327  -334  -362  -431  -560  -721  -881  -1079  -1352  -1627  -1794  -1826  -1768  -1666  -1546  -1435  -1349  -1268  -1171  -1065  -979  -931  -927  -976  -1105  -1336  -1643  -1895  -1957  -1858  -1741  -1691  -1687  -1683  -1658  -1597  -1492  -1367  -1258  -1181  -1111  -1015  -906  -820  -711  -498  -225  -28  67  161  317  502  658  747  763  713  595  422  268  222  283  395  519  589  536  371  175  44  8  23  45  58  66  68  62  54  72  151  293  456  584  652  683  736  849  977  1009  892  695  522  441  458  505  521  505  486  477  474  473  476  498  553  640  736  810  845  835  731  486  164  -88  -120  241  1112  2398  3720  4534  4441  3405  1867  452  -598  -1359  -1864  -2081  -1995  -1635  -1053  -350  272  649  798  833  840  854  891  950  1019  1107  1227  1354  1418  1379  1275  1183  1135  1116  1102  1091  1087  1089  1094  1097  1088  1053  999  963  998  1138  1336  1493  1566  1585  1585  1584  1607  1682  1787  1876  1971  2141  2367  2561  2696  2782  2755  2529  2160  1834  1685  1721  1902  2146  2313  2274  1974  1518  1114  858  682  513  356  252  203  183  175  199  286  410  469  391  215  46  -50  -97  -141  -181  -197  -194  -180  -166  -157  -153  -148  -143  -146  -167  -193  -179  -82  73  185  155  12  -115  -162  -156  -137  -112  -88  -107  -211  -377  -533  -629  -657  -640  -589  -511  -437  -406  -425  -473  -519  -545  -559  -566  -577  -628  -743  -891  -1005  -1045  -983  -792  -531  -329  -281  -393  -581  -739  -842  -922  -1023  -1152  -1251  -1284  -1291  -1287  -1238  -1159  -1094  -1054  -1042  -1074  -1164  -1298  -1423  -1497  -1522  -1524  -1525  -1544  -1586  -1629  -1642  -1595  -1464  -1270  -1107  -1060  -1106  -1168  -1196  -1165  -1113  -1093  -1112  -1172  -1276  -1376  -1435  -1477  -1535  -1608  -1711  -1881  -2079  -2211  -2253  -2246  -2220  -2166  -2078  -2015  -2037  -2112  -2175  -2187  -2105  -1917  -1745  -1796  -2149  -2536  -2481  -1694  -225  1525  2858  3184  2446  1086  -312  -1357  -1952  -2272  -2579  -2884  -2981  -2713  -2057  -1160  -367  60  188  219  246  264  281  337  462  610  685  619  427  182  -25  -139  -146  -36  200  491  697  751  690  579  476  432  470  581  738  909  1058  1149  1177  1184  1218  1309  1443  1582  1703  1828  1993  2205  2418  2586  2703  2798  2876  2905  2856  2740  2585  2395  2167  1941  1789  1753  1833  1971  1995  1776  1436  1188  1078  1019  965  993  1176  1433  1621  1695  1676  1576  1396  1160  920  718  568  482  459  457  418  338  274  262  280  293  286  261  233  212  201  206  213  191  136  65  2  -32  -27  28  122  214  268  278  251  183  61  -123  -345  -549  -705  -792  -778  -681  -593  -600  -722  -901  -1043  -1107  -1121  -1110  -1079  -1023  -961  -924  -940  -1015  -1115  -1189  -1218  -1205  -1168  -1130  -1104  -1092  -1122  -1238  -1432  -1621  -1724  -1717  -1614  -1457  -1314  -1240  -1255  -1372  -1570  -1759  -1842  -1816  -1754  -1698  -1635  -1546  -1433  -1288  -1085  -811  -506  -253  -86  37  155  259  330  367  396  443  508  576  633  654  618  546  473  411  362  335  328  331  338  348  358  367  394  463  549  579  500  349  172  -55  -293  -285  180  848  1132  875  575  777  1679  3077  4311  4658  4001  2840  1614  379  -896  -2157  -3224  -3730  -3459  -2682  -1835  -1111  -542  -159  59  177  245  288  319  347  369  376  376  383  408  446  491  538  567  565  567  619  712  795  839  852  847  838  832  853  919  1015  1103  1159  1171  1134  1071  1008  950  901  887  974  1233  1634  2015  2225  2244  2139  1988  1850  1755  1702  1679  1675  1693  1734  1732  1512  927  143  -446  -669  -661  -588  -513  -458  -459  -546  -686  -811  -879  -893  -862  -800  -728  -674  -649  -650  -672  -709  -748  -774  -759  -695  -605  -505  -373  -217  -113  -81  -46  31  101  121  116  143  241  367  407  286  62  -135  -242  -277  -268  -216  -112  36  204  357  445  429  344  242  142  82  91  136  178  204  189  78  -157  -449  -673  -769  -774  -757  -754  -763  -765  -754  -740  -722  -671  -557  -412  -303  -253  -245  -269  -332  -429  -539  -654  -743  -759  -730  -727  -768  -851  -970  -1078  -1100  -980  -727  -444  -253  -188  -197  -218  -229  -232  -239  -264  -331  -460  -625  -754  -810  -817  -818  -822  -793  -673  -439  -132  139  223  45  -280  -544  -644  -631  -591  -550  -493  -425  -379  -388  -466  -618  -797  -925  -956  -886  -718  -516  -428  -587  -947  -1282  -1464  -1554  -1568  -1431  -1123  -601  230  1328  2379  2944  2737  1809  475  -948  -2268  -3373  -4271  -4934  -5101  -4594  -3617  -2482  -1459  -791  -514  -446  -427  -413  -393  -338  -218  -36  159  305  391  451  497  520  532  556  598  644  682  739  855  1017  1145  1191  1174  1153  1166  1207  1273  1416  1684  2005  2224  2284  2258  2225  2210  2202  2201  2234  2329  2467  2580  2620  2570  2426  2241  2104  2046  2037  2045  2036  1953  1762  1509  1279  1101  942  755  523  296  127  2  -95  -167  -235  -294  -303  -270  -241  -242  -266  -290  -299  -299  -300  -308  -327  -356  -399  -462  -541  -617  -673  -674  -580  -410  -257  -232  -375  -602  -770  -822  -812  -813  -858  -930  -989  -1025  -1050  -1076  -1094  -1074  -990  -873  -792  -779  -809  -844  -874  -912  -951  -971  -954  -894  -794  -676  -617  -733  -996  -1225  -1316  -1315  -1294  -1283  -1283  -1291  -1305  -1307  -1265  -1148  -954  -744  -605  -556  -542  -509  -479  -526  -632  -673  -615  -548  -529  -535  -501  -385  -222  -90  -25  -39  -135  -256  -322  -288  -139  58  194  243  247  231  197  148  94  43  8  15  117  356  660  878  938  867  706  509  354  284  278  302  335  365  395  449  546  674  795  886  899  767  523  300  164  77  -8  -79  -57  144  443  610  634  621  453  128  40  578  1858  3565  4917  5230  4382  2727  866  -817  -2298  -3469  -4065  -3934  -3123  -1894  -718  11  268  298  313  361  436  552  681  757  744  655  545  476  464  492  555  640  718  767  760  680  564  480  464  526  675  916  1195  1409  1495  1462  1340  1186  1080  1053  1079  1118  1149  1168  1190  1273  1469  1721  1899  1961  1975  1996  2011  1984  1928  1868  1773  1587  1320  1052  847  699  530  248  -123  -474  -752  -972  -1151  -1294  -1391  -1435  -1438  -1427  -1421  -1421  -1421  -1419  -1415  -1405  -1391  -1381  -1371  -1352  -1322  -1309  -1335  -1390  -1449  -1497  -1527  -1541  -1552  -1561  -1535  -1438  -1280  -1118  -982  -867  -776  -706  -633  -562  -524  -518  -516  -507  -495  -480  -464  -450  -433  -413  -397  -427  -546  -727  -859  -860  -742  -607  -555  -567  -550  -463  -294  -60  138  187  82  -69  -209  -356  -485  -531  -485  -385  -287  -231  -214  -218  -242  -300  -375  -412  -369  -257  -114  57  269  481  651  804  943  1003  948  829  732  687  670  679  753  921  1122  1243  1254  1204  1140  1093  1067  1013  877  644  358  107  -51  -125  -154  -169  -197  -263  -378  -510  -617  -696  -777  -872  -943  -934  -804  -591  -514  -779  -1227  -1436  -1079  -7  1642  3279  4105  3701  2233  201  -1848  -3470  -4438  -4822  -4808  -4491  -3948  -3292  -2591  -1871  -1217  -751  -517  -424  -334  -198  -71  -7  0  -9  -10  10  28  0  -80  -162  -213  -238  -244  -243  -249  -265  -270  -235  -157  -43  106  269  385  427  420  398  383  416  542  740  909  973  955  927  945  1065  1326  1656  1900  2000  2009  1943  1744  1406  1065  871  825  801  665  372  28  -223  -381  -546  -729  -845  -866  -843  -820  -802  -795  -835  -965  -1150  -1298  -1375  -1418  -1435  -1376  -1192  -936  -727  -604  -535  -510  -543  -612  -655  -590  -362  -25  264  375  284  68  -148  -260  -196  59  405  659  746  715  621  498  377  281  228  219  222  189  99  -8  -94  -134  -96  2  79  97  82  57  34  63  220  519  847  1070  1165  1178  1131  1022  885  812  876  1062  1291  1492  1631  1710  1771  1837  1854  1778  1677  1654  1758  1970  2188  2295  2270  2172  2081  2039  2036  2033  2006  1965  1936  1931  1931  1904  1823  1681  1523  1437  1495  1669  1791  1691  1329  762  220  132  797  2210  4059  5560  5878  4908  3050  733  -1431  -2888  -3564  -3636  -3238  -2516  -1662  -809  -15  642  1106  1409  1619  1755  1820  1868  1954  2083  2246  2437  2612  2711  2730  2715  2697  2675  2645  2634  2693  2821  2935  2982  3004  3069  3212  3402  3569  3672  3725  3778  3872  3987  4074  4115  4130  4147  4154  4076  3842  3520  3272  3161  3133  3114  3035  2845  2559  2241  1970  1810  1737  1611  1304  895  612  519  428  117  -413  -933  -1265  -1450  -1557  -1554  -1444  -1301  -1179  -1093  -1024  -937  -851  -808  -834  -932  -1096  -1316  -1525  -1596  -1510  -1376  -1297  -1338  -1476  -1599  -1652  -1698  -1810  -1967  -2056  -2002  -1842  -1655  -1496  -1401  -1382  -1424  -1500  -1603  -1735  -1875  -1964  -1945  -1789  -1542  -1322  -1203  -1167  -1199  -1350  -1649  -1990  -2210  -2262  -2212  -2123  -2031  -1971  -1956  -1973  -2004  -2038  -2065  -2071  -2047  -2016  -2034  -2165  -2410  -2659  -2798  -2833  -2870  -3011  -3275  -3595  -3881  -4094  -4261  -4425  -4601  -4825  -5128  -5426  -5600  -5641  -5637  -5715  -5952  -6278  -6532  -6632  -6575  -6333  -5878  -5221  -4402  -3575  -3014  -2971  -3666  -5112  -6794  -7990  -8456  -8464  -8347  -8177  -7753  -6940  -6003  -5350  -5065  -4992  -5039  -5153  -5242  -5251  -5207  -5158  -5142  -5189  -5275  -5215  -4771  -3996  -3368  -3285  -3378  -2222  2291  10991  21373  28988  30613  25868  17759  10989  8152  8328  8926  7792  4617  992  -1476  -2635  -3165  -3584  -4163  -5033  -5986  -6679  -7447  -9374  -12893  -16745  -19304  -20477  -21221  -21829  -21793  -20958  -19776  -18543  -17196  -15813  -14708  -14029  -13701  -13520  -13003  -11666  -9691  -7744  -6139  -4772  -3569  -2527  -1582  -751  -203  0  7  -35  -167  -545  -1215  -2032  -2831  -3503  -3936  -4100  -4102  -4086  -4166  -4409  -4732  -4962  -5037  -5028  -5012  -5000  -4958  -4797  -4311  -3271  -1772  -338  586  1071  1533  2295  3303  4218  4790  5077  5359  5847  6461  6974  7303  7516  7666  7755  7809  7902  8053  8143  8077  7926  7759  7492  7034  6493  6117  6038  6204  6494  6798  7071  7335  7589  7773  7853  7863  7835  7763  7655  7566  7565  7691  7928  8249  8707  9358  10026  10438  10761  11588  13251  15478  17552  18583  17980  15951  13401  11213  9757  9053  8927  9089  9383  9793  10227  10521  10622  10563  10336  9895  9248  8527  7919  7481  7126  6784  6430  6044  5676  5436  5358  5344  5215  4782  3963  2856  1682  725  202  64  43  -99  -406  -807  -1243  -1624  -1843  -1910  -1928  -1929  -1847  -1674  -1518  -1432  -1336  -1158  -915  -580  -8  913  2099  3250  4059  4483  4680  4758  4720  4554  4311  4090  3918  3736  3467  3094  2781  2774  3066  3421  3712  3919  3912  3530  2829  2051  1369  860  577  497  546  680  857  1007  1107  1251  1564  2052  2603  3080  3398  3637  4043  4766  5634  6296  6604  6705  6857  7228  7754  8207  8480  8634  8666  8375  7483  6014  4425  3138  2189  1423  634  -371  -1562  -2678  -3508  -4065  -4554  -5189  -6055  -7137  -8314  -9448  -10582  -11781  -12832  -13450  -13612  -13382  -12716  -11650  -10361  -9045  -7935  -7180  -6701  -6383  -6238  -6110  -5595  -4720  -4155  -4462  -5731  -7784  -9922  -10989  -10725  -10056  -9537  -9034  -8617  -8394  -8059  -7239  -6004  -4854  -4249  -4341  -5087  -6190  -7110  -7498  -7423  -7096  -6632  -6054  -5330  -4451  -3595  -3020  -2748  -2619  -2512  -2356  -2132  -1914  -1778  -1696  -1612  -1571  -1652  -1832  -2033  -2230  -2474  -2817  -3186  -3425  -3475  -3396  -3282  -3211  -3234  -3359  -3521  -3627  -3679  -3788  -4072  -4530  -5003  -5355  -5688  -6182  -6794  -7330  -7690  -7901  -7997  -7934  -7615  -7045  -6379  -5713  -5001  -4252  -3618  -3239  -3108  -3117  -3183  -3275  -3306  -3019  -2138  -750  632  1541  1932  2045  2099  2194  2365  2604  2828  2891  2656  2110  1455  979  827  1028  1543  2162  2591  2737  2723  2676  2646  2633  2618  2598  2628  2796  3138  3570  3938  4144  4225  4301  4462  4741  5121  5514  5797  5952  6054  6151  6238  6314  6400  6487  6526  6483  6357  6157  5927  5758  5685  5607  5366  4911  4377  3956  3690  3493  3308  3079  2699  2162  1664  1405  1375  1422  1394  1198  877  585  438  455  639  955  1266  1410  1335  1110  789  348  -156  -531  -708  -672  -182  951  2578  4307  5528  5618  4403  2387  492  -661  -1111  -1053  -664  -244  194  925  1885  2755  3450  4003  4390  4652  4879  5088  5262  5457  5763  6182  6617  6993  7285  7496  7644  7762  7864  7940  8001  8074  8158  8258  8405  8605  8826  9051  9309  9661  10080  10469  10834  11250  11695  12056  12246  12292  12306  12364  12439  12472  12461  12444  12438  12439  12440  12432  12420  12447  12619  13022  13562  14008  14282  14506  14776  15089  15430  15793  16125  16349  16473  16580  16715  16859  16942  16800  16191  15029  13561  12119  10774  9408  7947  6424  4883  3332  1782  193  -1559  -3487  -5358  -6846  -7789  -8328  -8801  -9434  -10149  -10768  -11261  -11702  -12076  -12243  -12104  -11665  -10958  -10057  -9190  -8606  -8338  -8254  -8221  -8118  -7836  -7404  -6978  -6671  -6467  -6291  -6055  -5702  -5245  -4702  -4038  -3309  -2784  -2707  -3092  -3887  -5076  -6643  -8549  -10731  -13225  -16138  -19394  -22735  -25880  -28596  -30676  -31953  -32440  -32480  -32587  -32768  -32768  -32768  -32768  -32768  -32768  -32768  -32768  -32768  -32768  -32768  -32652  -31730  -30715  -29465  -28055  -26658  -25262  -23579  -21191  -17920  -14323  -11455  -9825  -9059  -8622  -8303  -8098  -7951  -7638  -6867  -5498  -3682  -1719  105  1540  2545  3358  4184  4967  5529  5816  5888  5701  5116  4166  3162  2418  1960  1594  1173  701  272  -17  -141  -157  -139  -106  -9  264  822  1657  2711  3936  5209  6368  7349  8162  8776  9130  9245  9231  9192  9182  9232  9355  9515  9643  9661  9451  8902  7986  6782  5550  4588  3888  3207  2352  1177  -332  -1939  -3376  -4507  -5271  -5693  -5865  -5856  -5693  -5380  -4938  -4459  -4079  -3792  -3340  -2449  -1189  3  746  1031  1078  1049  971  840  694  582  516  497  567  768  1039  1267  1463  1741  2149  2613  3018  3329  3645  4128  4844  5714  6583  7266  7641  7753  7739  7684  7570  7265  6634  5717  4713  3845  3292  3077  3056  3087  3118  3173  3327  3632  4059  4558  5131  5751  6283  6594  6646  6434  5996  5393  4618  3651  2619  1787  1339  1217  1228  1245  1247  1264  1361  1627  2119  2772  3459  4093  4602  4918  5038  5026  4940  4794  4566  4230  3789  3307  2885  2524  2075  1374  445  -432  -989  -1220  -1214  -897  -249  379  671  755  891  1302  2261  3858  5735  7282  7988  7437  5514  2855  333  -1700  -3125  -3826  -4011  -4022  -3889  -3474  -2851  -2270  -1885  -1650  -1471  -1359  -1375  -1534  -1759  -1934  -2029  -2088  -2108  -2032  -1844  -1594  -1358  -1175  -1030  -879  -702  -513  -339  -218  -178  -190  -183  -102  21  112  195  434  941  1577  2078  2340  2471  2618  2843  3125  3428  3723  3948  4053  4050  3983  3900  3817  3612  3050  2049  843  -240  -1030  -1525  -1787  -1891  -1918  -1926  -1924  -1872  -1732  -1537  -1379  -1318  -1379  -1576  -1865  -2142  -2331  -2417  -2407  -2294  -2042  -1655  -1219  -826  -472  -60  495  1156  1773  2200  2398  2488  2686  3118  3675  4119  4327  4359  4311  4192  3945  3514  2931  2295  1670  1084  547  1  -609  -1263  -1851  -2228  -2356  -2346  -2308  -2231  -2017  -1629  -1165  -737  -373  37  670  1487  2178  2574  2854  3246  3733  4144  4413  4607  4741  4771  4791  4948  5198  5397  5496  5525  5508  5448  5348  5244  5175  5107  4905  4435  3722  2978  2411  2081  1929  1858  1779  1643  1476  1344  1276  1225  1131  984  803  596  389  202  3  -300  -792  -1386  -1880  -2145  -2197  -2163  -2158  -2178  -2183  -2171  -2155  -2143  -2139  -2141  -2137  -2120  -2085  -2044  -2019  -2020  -2032  -2081  -2243  -2568  -3017  -3497  -3918  -4243  -4476  -4618  -4659  -4614  -4534  -4458  -4350  -4120  -3672  -2917  -1870  -734  256  992  1475  1814  2073  2160  2109  2209  2707  3707  5198  6844  8025  8234  7338  5581  3430  1371  -227  -1170  -1426  -1096  -406  378  1087  1606  1895  2062  2215  2350  2421  2403  2296  2132  1969  1860  1812  1784  1752  1727  1728  1757  1847  2041  2292  2481  2579  2665  2827  3076  3361  3636  3889  4098  4232  4294  4311  4264  4080  3745  3352  2971  2548  1951  1082  15  -971  -1621  -1928  -2136  -2532  -3165  -3788  -4140  -4217  -4176  -4132  -4113  -4109  -4092  -4034  -3938  -3834  -3733  -3635  -3538  -3411  -3161  -2739  -2229  -1791  -1526  -1433  -1471  -1620  -1857  -2126  -2397  -2695  -3037  -3393  -3708  -3942  -4086  -4109  -4013  -3902  -3894  -4002  -4163  -4321  -4464  -4593  -4689  -4746  -4804  -4920  -5114  -5328  -5476  -5525  -5497  -5441  -5385  -5336  -5291  -5223  -5089  -4866  -4576  -4304  -4127  -4046  -4032  -4092  -4252  -4482  -4689  -4766  -4591  -4086  -3425  -2941  -2761  -2760  -2783  -2743  -2609  -2402  -2167  -1942  -1732  -1502  -1210  -893  -652  -537  -546  -729  -1130  -1635  -2047  -2311  -2521  -2755  -2995  -3199  -3414  -3734  -4190  -4721  -5216  -5582  -5829  -6042  -6229  -6306  -6254  -6144  -6013  -5833  -5595  -5297  -4884  -4342  -3840  -3563  -3499  -3509  -3492  -3436  -3339  -3151  -2836  -2487  -2246  -2120  -1976  -1649  -1076  -434  -1  177  306  528  801  1023  1171  1300  1472  1718  2019  2273  2377  2354  2300  2255  2175  1981  1655  1329  1160  1110  952  560  136  116  897  2629  4978  7008  7740  6938  5120  3064  1437  546  328  566  1106  2002  3274  4704  6031  7084  7784  8203  8509  8812  9148  9516  9896  10278  10651  10980  11249  11449  11548  11542  11484  11431  11382  11301  11190  11088  11015  10951  10886  10828  10770  10713  10677  10675  10696  10720  10733  10703  10599  10438  10293  10216  10202  10207  10169  10038  9827  9605  9433  9340  9310  9290  9247  9179  9075  8908  8592  8006  7151  6277  5688  5389  5159  4900  4697  4608  4590  4587  4590  4601  4609  4593  4541  4472  4435  4460  4516  4528  4407  4099  3685  3351  3217  3265  3430  3687  4009  4309  4509  4616  4605  4266  3361  1944  227  -1746  -3954  -6124  -7808  -8658  -8718  -8308  -7752  -7326  -7201  -7371  -7822  -8678  -9958  -11480  -13136  -14835  -16436  -17949  -19391  -20694  -21829  -22722  -23358  -23914  -24445  -24800  -24913  -24849  -24625  -24195  -23547  -22739  -21859  -20965  -20057  -19104  -18055  -16868  -15555  -14139  -12596  -10959  -9383  -8019  -6896  -5935  -5055  -4276  -3601  -2998  -2546  -2353  -2397  -2548  -2699  -2820  -2930  -3035  -3106  -3094  -2952  -2685  -2379  -2121  -1917  -1741  -1620  -1588  -1589  -1547  -1490  -1528  -1724  -1995  -2167  -2181  -2121  -2039  -1908  -1730  -1561  -1422  -1282  -1125  -980  -888  -859  -877  -937  -1040  -1191  -1380  -1568  -1725  -1881  -2102  -2385  -2640  -2772  -2741  -2538  -2226  -1943  -1770  -1700  -1727  -1738  -1442  -578  870  2621  4196  5077  4932  3948  2662  1341  -18  -1337  -2498  -3264  -3229  -2357  -1127  54  1083  1893  2383  2555  2539  2483  2484  2570  2718  2907  3145  3433  3732  3983  4194  4464  4876  5361  5766  6023  6160  6231  6295  6371  6466  6602  6799  7032  7252  7446  7607  7714  7753  7740  7698  7666  7693  7803  7941  8030  8050  8059  8133  8318  8631  9077  9596  10028  10250  10299  10309  10434  10778  11269  11673  11840  11752  11401  10810  10123  9533  9113  8755  8334  7840  7289  6657  6008  5457  4985  4484  3929  3396  2983  2728  2591  2515  2467  2385  2154  1743  1302  1009  879  830  812  811  816  821  828  840  850  854  859  882  951  1072  1201  1289  1321  1291  1167  947  689  446  233  53  -81  -159  -194  -310  -700  -1385  -2095  -2546  -2776  -3044  -3440  -3798  -3973  -4031  -4149  -4418  -4737  -4883  -4750  -4464  -4229  -4116  -4061  -3998  -3907  -3794  -3678  -3562  -3420  -3227  -2956  -2589  -2182  -1827  -1536  -1290  -1126  -1050  -987  -871  -744  -696  -700  -669  -594  -506  -397  -253  -83  79  208  286  310  270  183  104  24  -108  -255  -354  -424  -497  -582  -701  -882  -1110  -1327  -1491  -1593  -1662  -1772  -1991  -2297  -2571  -2719  -2757  -2774  -2834  -2942  -3055  -3123  -3118  -3030  -2876  -2715  -2618  -2601  -2629  -2647  -2633  -2615  -2606  -2573  -2495  -2404  -2362  -2422  -2655  -3126  -3749  -4155  -3840  -2588  -715  1079  1988  1525  -115  -2291  -4410  -6136  -7253  -7637  -7425  -6871  -6113  -5333  -4747  -4334  -3943  -3528  -3117  -2722  -2319  -1841  -1222  -553  -25  327  632  975  1325  1592  1734  1807  1906  2096  2387  2687  2844  2792  2619  2455  2361  2325  2316  2320  2350  2445  2636  2899  3179  3453  3717  3953  4142  4271  4342  4393  4500  4739  5076  5326  5341  5196  5052  4953  4856  4737  4608  4453  4245  4026  3837  3579  3104  2461  1842  1325  910  634  480  343  137  -149  -443  -624  -615  -411  -92  207  432  645  916  1238  1548  1831  2170  2663  3392  4388  5427  6125  6375  6385  6327  6189  5899  5470  4934  4235  3331  2304  1266  246  -836  -2043  -3287  -4432  -5409  -6188  -6809  -7415  -8136  -8969  -9801  -10511  -11060  -11493  -11826  -12017  -12077  -12074  -12026  -11891  -11663  -11405  -11179  -10998  -10843  -10644  -10338  -9920  -9385  -8720  -7925  -7004  -6048  -5179  -4402  -3739  -3305  -3126  -3118  -3225  -3425  -3656  -3825  -3905  -3937  -3950  -3905  -3760  -3574  -3470  -3484  -3543  -3575  -3549  -3438  -3219  -2918  -2610  -2346  -2111  -1845  -1491  -1065  -642  -269  92  493  912  1285  1562  1722  1787  1797  1792  1806  1875  1995  2089  2104  2071  2018  1977  1979  1985  1938  1827  1692  1597  1566  1570  1586  1607  1617  1557  1360  1060  783  629  622  711  805  859  905  958  933  769  623  805  1579  2941  4417  5316  5247  4222  2525  600  -1195  -2624  -3399  -3347  -2593  -1443  -244  716  1319  1647  1839  1945  1972  1957  1938  1932  1933  1932  1928  1921  1913  1904  1899  1896  1876  1818  1736  1675  1661  1676  1696  1702  1693  1686  1725  1851  2047  2252  2446  2648  2843  2991  3100  3194  3245  3233  3211  3246  3341  3455  3590  3796  4054  4262  4367  4402  4398  4334  4153  3861  3543  3248  2924  2505  2014  1577  1296  1122  929  648  292  -96  -445  -660  -738  -753  -751  -688  -495  -192  108  316  412  423  391  340  279  217  176  168  182  196  199  196  201  227  281  375  520  682  811  905  986  1038  1038  985  905  836  793  782  808  860  925  983  1018  1029  1033  1033  1009  949  868  796  741  698  673  668  674  671  630  528  373  213  129  234  597  1092  1457  1583  1555  1463  1329  1157  982  867  854  949  1135  1339  1471  1512  1506  1500  1504  1492  1428  1305  1164  1028  847  480  -172  -962  -1566  -1829  -1845  -1694  -1321  -706  2  592  982  1273  1580  1856  1968  1876  1669  1481  1382  1359  1367  1364  1296  1105  800  495  319  323  477  700  886  952  801  344  -308  -840  -1000  -863  -830  -1155  -1514  -1335  -327  1323  2957  3748  3322  2047  496  -1047  -2484  -3752  -4679  -4958  -4513  -3631  -2713  -2068  -1783  -1739  -1771  -1784  -1743  -1658  -1556  -1457  -1371  -1307  -1247  -1161  -1072  -1060  -1168  -1382  -1668  -1964  -2190  -2313  -2349  -2281  -2061  -1713  -1342  -1006  -695  -378  -13  375  688  894  1061  1287  1632  2080  2530  2853  2993  3005  2979  2953  2923  2884  2846  2830  2876  3014  3196  3283  3170  2879  2525  2217  1976  1698  1283  798  376  4  -391  -787  -1107  -1325  -1473  -1608  -1774  -1996  -2240  -2421  -2497  -2506  -2496  -2481  -2434  -2333  -2236  -2236  -2334  -2435  -2481  -2485  -2460  -2398  -2303  -2220  -2191  -2195  -2142  -1945  -1640  -1372  -1240  -1207  -1186  -1114  -994  -894  -843  -758  -576  -403  -438  -636  -495  468  2159  4083  5503  5604  4246  2084  -165  -2063  -3322  -3865  -3852  -3398  -2539  -1551  -772  -208  261  586  713  722  704  698  701  692  642  542  407  260  123  38  41  142  297  398  383  302  219  136  23  -120  -245  -339  -502  -824  -1198  -1398  -1325  -1108  -936  -877  -882  -898  -915  -940  -966  -973  -968  -1016  -1194  -1444  -1578  -1594  -1719  -1984  -2090  -1662  -537  1001  2297  2760  2254  1011  -639  -2391  -3998  -5252  -5901  -5752  -4885  -3595  -2173  -940  -195  93  240  430  614  734  862  1097  1399  1627  1720  1725  1661  1490  1245  1045  950  923  912  901  915  970  1049  1128  1190  1230  1265  1329  1454  1655  1905  2137  2309  2433  2533  2618  2700  2809  2954  3087  3154  3167  3185  3250  3345  3398  3346  3168  2913  2681  2528  2424  2266  1900  1292  646  182  -115  -350  -529  -610  -583  -470  -326  -215  -164  -153  -153  -149  -152  -192  -284  -360  -317  -147  45  177  239  257  252  202  80  -62  -122  -69  22  49  -104  -498  -998  -1369  -1532  -1583  -1644  -1800  -2023  -2206  -2282  -2278  -2258  -2287  -2397  -2550  -2663  -2701  -2696  -2690  -2700  -2721  -2752  -2798  -2851  -2900  -2935  -2919  -2829  -2696  -2588  -2568  -2638  -2742  -2749  -2456  -1815  -1096  -612  -412  -300  -49  382  813  1046  1051  919  762  643  558  507  506  535  524  366  0  -462  -801  -930  -934  -912  -895  -874  -839  -808  -866  -1102  -1452  -1689  -1590  -1024  -27  1099  1881  1924  1083  -495  -2430  -4345  -5987  -7003  -7065  -6314  -5238  -4277  -3703  -3535  -3512  -3401  -3204  -2958  -2653  -2353  -2161  -2112  -2218  -2497  -2870  -3167  -3311  -3382  -3527  -3827  -4190  -4439  -4518  -4497  -4440  -4354  -4226  -4064  -3915  -3800  -3700  -3614  -3559  -3520  -3414  -3110  -2531  -1793  -1145  -736  -544  -478  -469  -485  -475  -323  56  589  1077  1386  1520  1555  1556  1554  1556  1573  1602  1606  1538  1398  1243  1127  1068  1050  1047  1062  1140  1328  1603  1896  2200  2541  2857  3043  3086  3039  2947  2849  2781  2747  2732  2734  2782  2905  3150  3585  4227  5006  5878  6878  7930  8788  9274  9448  9438  9273  8927  8273  7160  5691  4232  3104  2370  1906  1598  1345  1064  779  563  390  166  -134  -457  -754  -1008  -1187  -1246  -1178  -1044  -927  -859  -811  -740  -648  -566  -498  -426  -344  -252  -151  -62  -9  6  5  9  70  257  568  893  1131  1307  1520  1778  1977  2057  2067  2081  2135  2221  2327  2505  2858  3384  3863  3997  3811  3874  4776  6419  8155  9341  9617  9014  7875  6479  4798  2805  872  -453  -884  -465  456  1406  2074  2375  2386  2279  2167  2047  1912  1806  1816  2058  2576  3251  3932  4576  5183  5723  6155  6443  6585  6583  6406  6068  5668  5266  4764  3936  2664  1207  49  -562  -760  -823  -927  -1075  -1212  -1334  -1456  -1540  -1522  -1381  -1180  -996  -800  -516  -145  229  510  655  697  693  686  693  698  657  521  267  -69  -393  -615  -712  -735  -789  -979  -1310  -1666  -1922  -2061  -2120  -2112  -2026  -1895  -1804  -1790  -1813  -1830  -1832  -1828  -1827  -1834  -1857  -1885  -1859  -1656  -1132  -227  890  1892  2551  2845  2868  2710  2373  1849  1236  597  -138  -961  -1758  -2511  -3210  -3716  -3951  -4141  -4522  -4969  -5264  -5426  -5538  -5613  -5673  -5739  -5805  -5864  -5886  -5793  -5521  -5125  -4759  -4542  -4473  -4474  -4481  -4479  -4448  -4340  -4138  -3889  -3642  -3405  -3185  -2979  -2712  -2310  -1847  -1486  -1272  -1142  -1085  -1153  -1358  -1604  -1762  -1803  -1782  -1748  -1718  -1690  -1654  -1621  -1638  -1740  -1892  -2003  -2042  -2057  -2087  -2123  -2169  -2247  -2330  -2367  -2348  -2466  -3027  -3890  -4422  -4106  -2953  -1505  -532  -586  -1751  -3615  -5548  -7197  -8499  -9256  -9265  -8666  -7607  -6155  -4728  -3772  -3306  -3141  -3124  -3130  -3037  -2763  -2374  -2049  -1874  -1804  -1759  -1675  -1527  -1357  -1243  -1202  -1164  -1068  -923  -781  -669  -577  -486  -393  -307  -244  -207  -175  -87  119  426  740  1005  1232  1423  1568  1695  1916  2361  3013  3690  4270  4760  5179  5494  5694  5841  6016  6256  6538  6781  6925  6994  7040  7060  6980  6722  6325  5912  5522  5081  4525  3908  3361  2948  2637  2407  2269  2194  2083  1860  1543  1206  853  405  -115  -543  -783  -910  -1024  -1149  -1270  -1373  -1428  -1422  -1381  -1336  -1293  -1255  -1220  -1165  -1075  -981  -952  -1016  -1091  -1112  -1150  -1282  -1503  -1703  -1703  -1487  -1249  -1127  -1107  -1139  -1195  -1273  -1359  -1419  -1428  -1391  -1332  -1280  -1250  -1240  -1256  -1322  -1445  -1557  -1550  -1409  -1195  -937  -657  -437  -324  -293  -301  -317  -308  -265  -207  -157  -106  -32  56  122  161  200  243  278  320  405  529  641  719  777  823  835  761  580  355  190  119  105  119  176  312  521  762  1026  1332  1668  2038  2517  3076  3532  3810  4029  4304  4665  5095  5396  5275  4826  4491  4641  5536  7192  9065  10281  10288  9148  7368  5594  4202  3105  2101  1253  786  832  1353  2147  2889  3327  3450  3401  3256  2980  2518  1867  1112  434  -6  -238  -421  -677  -1032  -1444  -1838  -2163  -2423  -2624  -2760  -2832  -2849  -2828  -2790  -2734  -2655  -2555  -2423  -2256  -2094  -2029  -2144  -2403  -2641  -2721  -2631  -2447  -2232  -1963  -1602  -1218  -943  -799  -699  -604  -528  -396  -87  368  824  1234  1607  1870  1967  1928  1797  1570  1229  825  485  282  225  316  512  718  879  1016  1168  1357  1544  1655  1676  1662  1674  1748  1883  2064  2278  2486  2617  2566  2197  1521  817  369  173  71  0  -16  38  128  203  256  300  269  -2  -591  -1265  -1631  -1538  -1178  -791  -458  -239  -255  -471  -682  -764  -758  -759  -823  -930  -1016  -1057  -1082  -1130  -1217  -1320  -1377  -1333  -1165  -870  -462  -39  237  296  189  10  -152  -248  -259  -141  144  510  783  904  994  1260  1806  2465  2919  2919  2332  1206  -135  -1242  -1836  -1960  -1855  -1718  -1656  -1720  -1922  -2217  -2515  -2734  -2861  -2979  -3147  -3328  -3527  -3828  -4268  -4811  -5383  -5905  -6304  -6534  -6622  -6646  -6636  -6539  -6319  -5988  -5577  -5162  -4815  -4518  -4246  -4049  -3963  -3953  -3962  -3959  -3949  -3960  -4018  -4130  -4263  -4332  -4296  -4228  -4214  -4271  -4347  -4370  -4301  -4125  -3835  -3476  -3141  -2860  -2561  -2186  -1697  -1001  7  1466  3424  5585  7349  8067  7367  5468  3088  919  -721  -1771  -2198  -1941  -1013  344  1658  2530  2953  3175  3365  3552  3681  3687  3600  3513  3443  3345  3218  3107  3006  2872  2714  2588  2518  2483  2453  2414  2370  2322  2252  2126  1961  1844  1846  1974  2155  2268  2222  2045  1888  1873  1936  1965  1962  1989  2070  2167  2227  2242  2233  2208  2165  2116  2087  2078  2054  1962  1774  1532  1325  1197  1115  991  722  301  -144  -483  -703  -861  -996  -1140  -1305  -1441  -1521  -1594  -1766  -2144  -2711  -3265  -3601  -3709  -3711  -3719  -3833  -4121  -4543  -4977  -5297  -5414  -5322  -5100  -4827  -4518  -4216  -4021  -3963  -3969  -3950  -3835  -3605  -3336  -3154  -3104  -3131  -3150  -3066  -2796  -2344  -1837  -1429  -1200  -1129  -1147  -1201  -1264  -1314  -1319  -1227  -1014  -759  -591  -540  -507  -368  -88  265  635  1040  1472  1839  2045  2089  2042  1974  1948  2084  2501  3120  3677  3995  4101  4063  3872  3530  3153  2896  2802  2812  2833  2795  2707  2658  2730  2917  3123  3249  3285  3276  3245  3182  3099  3039  3027  3062  3122  3158  3137  3077  3017  2977  2958  2958  2969  2983  2985  2953  2863  2731  2597  2457  2267  2029  1794  1617  1529  1552  1706  1960  2186  2242  2084  1811  1577  1453  1409  1394  1384  1372  1351  1315  1258  1189  1143  1152  1194  1223  1206  1146  1092  1070  1039  984  952  968  947  728  340  128  213  206  -70  -281  -3  1009  2606  4101  4668  4014  2527  789  -861  -2353  -3645  -4636  -5216  -5235  -4645  -3718  -2842  -2227  -1882  -1723  -1649  -1572  -1462  -1348  -1267  -1231  -1223  -1225  -1223  -1200  -1122  -985  -847  -776  -749  -663  -434  -103  199  417  571  680  792  987  1258  1485  1590  1606  1592  1559  1495  1429  1410  1437  1477  1529  1621  1789  2032  2298  2545  2765  2945  3058  3104  3105  3041  2877  2655  2464  2273  1964  1531  1100  768  566  479  426  304  44  -325  -672  -892  -1005  -1071  -1109  -1120  -1121  -1131  -1152  -1177  -1204  -1226  -1231  -1218  -1193  -1162  -1136  -1122  -1109  -1094  -1082  -1072  -1059  -1043  -1034  -1052  -1106  -1174  -1239  -1309  -1366  -1385  -1372  -1347  -1326  -1318  -1315  -1306  -1292  -1303  -1370  -1478  -1571  -1607  -1596  -1583  -1591  -1601  -1581  -1530  -1499  -1543  -1658  -1793  -1891  -1931  -1928  -1903  -1870  -1826  -1763  -1684  -1607  -1538  -1480  -1442  -1421  -1384  -1332  -1312  -1338  -1373  -1389  -1391  -1392  -1394  -1383  -1335  -1235  -1115  -1035  -1013  -1007  -967  -876  -744  -582  -409  -261  -173  -147  -161  -218  -377  -676  -1028  -1282  -1380  -1354  -1240  -1088  -969  -915  -914  -953  -1022  -1072  -1041  -938  -833  -767  -721  -653  -582  -625  -860  -1199  -1489  -1555  -1155  -160  1242  2613  3431  3326  2308  704  -1081  -2669  -3738  -4193  -4172  -3836  -3322  -2742  -2114  -1490  -1005  -709  -538  -411  -276  -143  -74  -103  -192  -274  -305  -237  -32  240  440  506  490  456  437  468  570  707  810  887  1002  1150  1256  1304  1365  1498  1676  1830  1924  1969  1979  1963  1937  1923  1929  1941  1951  1972  2019  2088  2167  2238  2274  2266  2236  2195  2103  1891  1553  1197  926  729  537  337  163  31  -62  -108  -88  2  140  283  400  440  313  -18  -430  -713  -799  -766  -692  -621  -594  -624  -683  -720  -714  -686  -662  -645  -618  -574  -505  -378  -142  180  470  624  652  612  523  386  242  179  243  382  502  565  581  541  411  195]
