reading_id,reading_time,wire_id,result_classification,heart_rate,heart_rate_alert,firmware_version,device_app_version,hardware_version,waveform_samples
5ad87d90-57c3-11ed-8080-808080808080,Sat Oct 29 19:53:27 UTC 2022,410163471e39,UNCLASSIFIABLE,64,NONE,20001.171.50,2.10.0,Charge 5,[-1956  -6290  -8751  -9220  -8632  -7689  -6683  -5706  -4679  -3476  -2178  -1058  -282  207  541  827  1112  1353  1571  1978  2792  3938  5145  6305  7481  8721  10068  11562  13200  15023  17143  19492  21636  23097  23730  23712  23311  22774  22326  22097  22169  22695  23794  25497  27761  30163  31979  32767  32767  32767  32767  32767  32767  32767  32767  32767  32767  32767  32767  32767  32767  31699  28649  24816  20519  16056  11661  7330  3044  -1019  -4845  -8585  -12065  -14942  -17184  -18928  -20270  -21402  -22437  -23213  -23599  -23692  -23569  -23146  -22374  -21321  -19936  -18111  -15961  -13732  -11553  -9352  -6911  -4109  -1046  2103  5146  7926  10328  12071  12907  13038  12934  12908  13114  13799  15285  17582  20290  22992  25565  28084  30497  32599  32767  32767  32767  32767  32767  32767  32767  32767  32767  32767  32767  32767  32767  32767  32767  32767  32767  32767  32767  32767  32767  32767  32767  32767  32767  32767  32767  32767  32767  32767  32767  27172  18874  11065  3856  -2894  -9340  -15459  -20955  -25567  -29356  -32560  -32768  -32768  -32768  -32768  -32768  -32768  -32768  -32768  -32768  -32768  -32768  -32768  -32768  -32768  -32768  -32768  -32768  -32768  -32768  -32768  -32768  -32768  -32768  -32768  -32768  -32768  -32768  -32768  -32768  -32768  -32768  -32768  -32768  -32768  -32768  -32768  -32768  -32768  -32768  -32768  -32768  -32768  -32768  -32768  -32768  -32768  -32768  -32156  -31144  -30083  -28724  -27012  -25294  -23970  -23176  -22853  -22840  -22959  -23095  -23187  -23183  -23023  -22667  -22117  -21438  -20765  -20222  -19828  -19544  -19310  -19035  -18700  -18385  -18139  -17926  -17692  -17379  -16923  -16363  -15850  -15497  -15271  -15032  -14680  -14239  -13751  -13223  -12750  -12467  -12352  -12241  -12008  -11630  -11155  -10674  -10224  -9758  -9283  -8877  -8512  -8048  -7334  -6298  -5127  -4160  -3503  -3024  -2597  -2030  -1115  135  1667  3470  5145  6046  5928  4951  3438  1919  920  566  651  872  1014  1129  1350  1630  1927  2318  2816  3311  3706  3990  4156  4180  4108  4032  4040  4227  4587  4960  5231  5436  5622  5768  5904  6253  7148  8657  10335  11563  12132  12305  12381  12432  12454  12530  12777  13185  13585  13831  13970  14170  14523  14981  15421  15722  15846  15863  15872  15941  16085  16283  16533  16824  17060  17127  17052  16932  16811  16720  16686  16683  16665  16611  16523  16401  16248  16080  15911  15740  15451  14791  13619  12143  10754  9649  8796  8169  7771  7508  7259  7004  6801  6709  6701  6648  6427  6079  5797  5689  5691  5706  5711  5746  5861  6010  6022  5778  5394  5094  4944  4860  4771  4683  4629  4614  4620  4626  4621  4602  4576  4561  4604  4746  4920  4996  4968  4922  4889  4840  4792  4833  4979  5110  5122  5033  4898  4754  4621  4530  4499  4512  4536  4561  4603  4675  4763  4842  4892  4917  4926  4889  4756  4531  4318  4254  4467  5026  5774  6403  6767  6887  6692  6033  5006  3955  3089  2414  1926  1611  1374  1134  912  757  626  419  100  -258  -587  -905  -1247  -1575  -1836  -2061  -2349  -2730  -3111  -3410  -3674  -3964  -4256  -4559  -4970  -5487  -5944  -6231  -6377  -6450  -6533  -6708  -6965  -7199  -7329  -7381  -7435  -7534  -7619  -7593  -7469  -7363  -7342  -7359  -7322  -7168  -6867  -6330  -5407  -4115  -2768  -1748  -1185  -948  -788  -515  -121  291  641  898  1091  1300  1559  1811  1991  2100  2178  2249  2311  2356  2380  2386  2386  2387  2383  2361  2309  2228  2138  2072  2049  2063  2094  2121  2138  2153  2171  2183  2185  2181  2164  2115  2035  1932  1809  1676  1555  1472  1420  1394  1434  1590  1826  2031  2144  2197  2256  2357  2496  2647  2770  2843  2875  2886  2880  2833  2719  2523  2250  1930  1621  1351  1087  767  378  -15  -375  -707  -996  -1208  -1367  -1574  -1919  -2379  -2816  -3106  -3228  -3256  -3274  -3314  -3359  -3390  -3409  -3429  -3450  -3455  -3423  -3340  -3223  -3116  -3042  -2957  -2808  -2620  -2481  -2427  -2419  -2405  -2362  -2284  -2142  -1904  -1574  -1211  -887  -616  -278  283  1028  1692  2045  2072  1863  1511  1101  699  361  142  37  -11  -55  -126  -241  -380  -492  -548  -560  -556  -553  -552  -544  -521  -493  -474  -457  -412  -329  -231  -147  -97  -92  -134  -207  -293  -373  -432  -473  -509  -542  -583  -645  -716  -773  -817  -889  -1041  -1288  -1562  -1750  -1817  -1803  -1721  -1549  -1326  -1152  -1073  -1040  -979  -870  -742  -604  -428  -237  -101  -41  -26  -7  61  205  420  675  910  1081  1181  1196  1046  611  -140  -1070  -2007  -2863  -3533  -3924  -4109  -4245  -4397  -4588  -4852  -5128  -5280  -5304  -5288  -5252  -5193  -5139  -5142  -5271  -5499  -5718  -5819  -5609  -4911  -3745  -2274  -801  229  477  -175  -1639  -3551  -5372  -6650  -7166  -6976  -6364  -5688  -5216  -5007  -4916  -4796  -4623  -4434  -4268  -4140  -4031  -3907  -3757  -3601  -3454  -3318  -3171  -2930  -2382  -1308  183  1610  2533  2899  2955  2958  3002  3070  3140  3208  3255  3271  3276  3311  3410  3579  3814  4083  4306  4424  4465  4479  4517  4624  4794  4967  5089  5156  5208  5297  5420  5524  5570  5565  5534  5498  5476  5472  5474  5461  5421  5365  5305  5215  5040  4726  4268  3745  3257  2843  2493  2165  1772  1312  931  750  738  791  845  886  915  928  897  776  578  389  281  251  259  273  281  277  266  258  259  265  273  311  423  640  943  1263  1519  1666  1715  1699  1649  1588  1542  1540  1633  1863  2210  2607  2977  3217  3174  2683  1713  482  -647  -1406  -1798  -2006  -2176  -2366  -2591  -2824  -3002  -3093  -3126  -3144  -3168  -3167  -3088  -2923  -2745  -2654  -2684  -2780  -2883  -2983  -3081  -3150  -3176  -3185  -3244  -3432  -3756  -4091  -4295  -4327  -4192  -3911  -3591  -3382  -3323  -3343  -3377  -3410  -3446  -3456  -3343  -3013  -2510  -2020  -1689  -1529  -1460  -1392  -1310  -1251  -1236  -1239  -1216  -1121  -939  -704  -486  -350  -300  -297  -288  -230  -112  39  177  260  291  302  296  216  -6  -369  -752  -1010  -1107  -1108  -1077  -1024  -906  -684  -384  -89  108  184  188  176  189  254  375  537  727  926  1094  1191  1220  1226  1275  1490  2025  2931  4138  5499  6772  7603  7620  6619  4734  2463  485  -708  -1043  -822  -491  -289  -193  -126  -69  -31  -9  13  37  14  -107  -297  -463  -552  -573  -552  -463  -184  384  1097  1634  1838  1785  1554  1106  396  -446  -1167  -1628  -1868  -1988  -2071  -2152  -2260  -2441  -2675  -2857  -2926  -2904  -2831  -2725  -2587  -2379  -2055  -1661  -1317  -1041  -704  -233  263  641  877  1059  1293  1580  1834  2043  2278  2551  2842  3215  3710  4207  4567  4776  4902  4995  5060  5107  5148  5109  4778  3976  2861  1869  1291  1097  1123  1275  1537  1860  2135  2291  2347  2357  2360  2370  2389  2437  2534  2643  2701  2709  2750  2916  3208  3540  3820  3972  3935  3685  3322  3035  2903  2891  2981  3132  3268  3411  3587  3785  4108  4615  5076  5126  4571  3534  2299  1096  20  -1019  -2136  -3204  -3984  -4399  -4555  -4662  -4917  -5350  -5836  -6272  -6701  -7195  -7690  -8051  -8260  -8390  -8488  -8587  -8693  -8767  -8768  -8708  -8628  -8436  -7784  -6360  -4362  -2487  -1328  -872  -714  -562  -418  -386  -455  -521  -539  -540  -579  -696  -857  -977  -1020  -1017  -1003  -987  -972  -964  -963  -962  -949  -913  -845  -722  -512  -223  75  314  471  576  698  877  1079  1258  1432  1648  1901  2146  2352  2513  2611  2620  2545  2419  2255  1972  1472  838  308  17  -88  -99  -53  32  126  196  239  289  391  566  774  932  1007  1028  1022  979  898  835  864  1038  1443  2201  3371  4955  6866  8742  10010  10310  9636  8234  6555  4954  3446  1993  743  -112  -507  -532  -388  -267  -271  -429  -706  -984  -1153  -1209  -1225  -1272  -1375  -1527  -1699  -1855  -1974  -2052  -2090  -2103  -2108  -2111  -2113  -2126  -2165  -2235  -2325  -2436  -2591  -2819  -3094  -3349  -3571  -3807  -4100  -4443  -4750  -4926  -4951  -4856  -4661  -4365  -3996  -3645  -3422  -3345  -3325  -3258  -3123  -2992  -2952  -3057  -3318  -3661  -3939  -4068  -4087  -4063  -3995  -3858  -3679  -3542  -3491  -3513  -3588  -3691  -3801  -3915  -4016  -4035  -3910  -3658  -3363  -3105  -2926  -2804  -2681  -2549  -2461  -2444  -2464  -2482  -2494  -2525  -2594  -2684  -2753  -2742  -2576  -2241  -1857  -1578  -1422  -1274  -1028  -706  -439  -341  -435  -663  -903  -1043  -1051  -957  -824  -720  -684  -733  -875  -1060  -1199  -1243  -1185  -1024  -789  -483  -55  469  1016  1552  1998  2312  2680  3246  3737  3661  2717  880  -1504  -3662  -4886  -5084  -4658  -4082  -3645  -3403  -3222  -2954  -2588  -2214  -1907  -1688  -1503  -1194  -598  231  984  1387  1460  1396  1348  1401  1622  2035  2529  2908  3088  3170  3390  3987  4933  5885  6532  6813  6790  6454  5792  4987  4360  4078  4057  4133  4210  4265  4323  4451  4731  5188  5818  6653  7646  8694  9852  11123  12223  12931  13306  13471  13512  13495  13434  13304  13082  12778  12449  12178  12010  11924  11914  12029  12266  12512  12659  12712  12723  12658  12353  11656  10594  9337  7965  6338  4318  2024  -227  -2127  -3450  -4184  -4547  -4739  -4913  -5233  -5672  -6055  -6163  -5568  -4004  -1873  60  1135  913  -592  -2804  -4902  -6235  -6563  -6046  -5116  -4259  -3742  -3518  -3360  -3080  -2646  -2195  -1911  -1861  -2000  -2261  -2576  -2884  -3144  -3354  -3546  -3720  -3790  -3616  -3138  -2490  -1903  -1469  -1110  -723  -254  289  826  1274  1637  1962  2282  2577  2796  2921  3019  3208  3538  3916  4212  4453  4782  5227  5672  6016  6244  6408  6553  6665  6720  6661  6258  5252  3758  2301  1343  932  809  718  588  469  400  375  367  299  53  -421  -1055  -1741  -2412  -3027  -3586  -4141  -4706  -5197  -5514  -5653  -5692  -5698  -5696  -5685  -5661  -5628  -5595  -5555  -5498  -5406  -5256  -5055  -4855  -4713  -4651  -4650  -4680  -4719  -4753  -4775  -4783  -4780  -4764  -4728  -4665  -4609  -4608  -4660  -4717  -4746  -4749  -4714  -4620  -4491  -4386  -4326  -4270  -4180  -4073  -3995  -3964  -3949  -3882  -3708  -3470  -3305  -3331  -3572  -3917  -4175  -4241  -4105  -3802  -3434  -3144  -3001  -2965  -2964  -2952  -2933  -2925  -2941  -2981  -3028  -3064  -3076  -3051  -3009  -2986  -2961  -2889  -2757  -2599  -2452  -2333  -2250  -2224  -2256  -2312  -2351  -2360  -2358  -2372  -2425  -2497  -2528  -2481  -2395  -2336  -2314  -2296  -2253  -2163  -2019  -1845  -1691  -1579  -1505  -1455  -1414  -1377  -1339  -1303  -1262  -1209  -1141  -1062  -973  -890  -836  -816  -821  -837  -853  -863  -869  -891  -944  -1009  -1029  -977  -892  -835  -822  -830  -837  -849  -882  -929  -958  -952  -951  -1046  -1209  -1178  -688  259  1533  3038  4627  6010  6840  6854  5956  4331  2498  1109  553  769  1409  2059  2421  2482  2440  2429  2448  2465  2474  2477  2475  2461  2414  2328  2232  2172  2156  2164  2171  2159  2125  2086  2062  2044  2021  2000  1990  1971  1912  1807  1676  1539  1409  1311  1268  1267  1279  1327  1449  1606  1718  1766  1778  1796  1860  1973  2104  2228  2333  2407  2445  2471  2534  2666  2833  2957  2991  2938  2809  2626  2437  2288  2182  2091  1965  1764  1466  1086  707  431  303  280  278  242  174  109  75  73  88  104  115  112  90  59  33  17  9  6  19  66  145  228  282  297  286  268  276  348  481  615  694  719  717  707  692  675  666  679  724  789  853  890  866  752  588  443  324  197  79  7  -19  -26  -27  -36  -63  -103  -127  -107  -79  -126  -259  -400  -486  -528  -564  -606  -640  -649  -629  -578  -502  -420  -393  -526  -877  -1330  -1668  -1816  -1872  -1930  -1994  -2018  -1968  -1850  -1709  -1588  -1514  -1505  -1596  -1808  -2082  -2305  -2430  -2485  -2522  -2612  -2793  -3001  -3108  -3056  -2916  -2798  -2760  -2792  -2872  -2982  -3096  -3192  -3266  -3336  -3409  -3461  -3476  -3469  -3465  -3487  -3538  -3577  -3550  -3479  -3437  -3429  -3366  -3164  -2866  -2614  -2495  -2474  -2483  -2492  -2503  -2524  -2547  -2549  -2517  -2461  -2385  -2268  -2119  -2002  -1942  -1895  -1812  -1669  -1481  -1287  -1112  -963  -847  -777  -725  -634  -473  -282  -144  -81  7  278  872  1870  3282  5056  6896  8204  8501  7775  6297  4469  2869  1914  1591  1706  2066  2461  2740  2887  2980  3076  3194  3388  3691  4046  4396  4803  5373  6102  6860  7481  7828  7787  7241  6189  4833  3475  2408  1803  1601  1600  1632  1631  1599  1561  1544  1558  1569  1494  1262  945  714  638  643  639  609  609  714  927  1151  1267  1243  1149  1073  1045  1051  1078  1126  1189  1261  1327  1375  1417  1479  1604  1828  2124  2407  2618  2779  2959  3168  3325  3388  3399  3411  3390  3184  2661  1929  1249  737  307  -114  -494  -778  -984  -1175  -1386  -1609  -1848  -2118  -2390  -2616  -2786  -2912  -2996  -3056  -3151  -3327  -3550  -3734  -3840  -3910  -4001  -4112  -4195  -4233  -4254  -4277  -4281  -4249  -4190  -4118  -3998  -3781  -3485  -3196  -2987  -2869  -2797  -2699  -2519  -2270  -2024  -1850  -1764  -1735  -1717  -1667  -1554  -1376  -1168  -989  -890  -868  -882  -896  -875  -774  -582  -365  -202  -113  -92  -134  -200  -257  -312  -371  -417  -404  -288  -56  236  494  643  704  775  942  1210  1534  1854  2127  2349  2516  2611  2633  2633  2708  2958  3368  3771  4004  4062  4032  3961  3846  3729  3732  3935  4248  4485  4602  4737  5042  5619  6508  7535  8346  8721  8561  7684  6130  4480  3366  2863  2666  2560  2506  2516  2586  2682  2756  2776  2717  2557  2346  2188  2114  2041  1886  1682  1515  1329  973  467  -1  -340  -645  -1048  -1535  -1943  -2146  -2178  -2146  -2125  -2180  -2379  -2700  -3004  -3185  -3269  -3339  -3425  -3508  -3575  -3661  -3823  -4094  -4408  -4538  -4264  -3589  -2608  -1399  -150  917  1587  1505  348  -1799  -4344  -6495  -7703  -7924  -7628  -7386  -7385  -7491  -7585  -7654  -7705  -7729  -7724  -7695  -7619  -7470  -7286  -7032  -6352  -4786  -2399  32  1659  2273  2230  1920  1535  1166  861  638  470  299  113  -47  -190  -359  -551  -731  -882  -1004  -1134  -1314  -1513  -1652  -1709  -1725  -1735  -1741  -1739  -1730  -1719  -1684  -1531  -1138  -527  64  431  596  701  788  802  727  614  500  393  301  216  109  -61  -306  -593  -844  -996  -1062  -1106  -1164  -1254  -1402  -1595  -1778  -1937  -2098  -2251  -2354  -2396  -2400  -2388  -2361  -2306  -2225  -2130  -2010  -1831  -1587  -1323  -1096  -934  -828  -760  -730  -717  -644  -445  -158  103  306  508  733  941  1093  1192  1275  1385  1553  1756  1930  2044  2111  2153  2175  2180  2177  2179  2201  2264  2415  2743  3314  4135  5131  6010  6465  6543  6496  6492  6587  6568  5997  4677  2871  1100  -103  -562  -553  -412  -270  -108  130  413  662  856  997  1085  1155  1257  1383  1482  1534  1557  1543  1451  1274  1060  853  655  458  270  112  7  -28  -11  0  -45  -149  -289  -457  -641  -805  -914  -941  -867  -714  -552  -456  -472  -629  -896  -1157  -1339  -1526  -1835  -2217  -2524  -2739  -2971  -3277  -3590  -3801  -3864  -3816  -3719  -3637  -3604  -3578  -3454  -3137  -2653  -2152  -1781  -1554  -1403  -1287  -1201  -1128  -1053  -985  -936  -899  -852  -782  -704  -626  -493  -230  148  566  977  1390  1784  2119  2416  2742  3121  3508  3840  4072  4186  4203  4157  4137  4390  5111  6132  7225  8486  10016  11528  12473  12360  11018  8822  6616  5126  4482  4316  4044  3204  1787  162  -1256  -2223  -2714  -2874  -2886  -2867  -2859  -2848  -2798  -2687  -2537  -2409  -2370  -2446  -2601  -2763  -2880  -2933  -2918  -2834  -2706  -2577  -2474  -2381  -2255  -2104  -1998  -1974  -2002  -2030  -2031  -2008  -1950  -1839  -1701  -1600  -1563  -1548  -1469  -1247  -875  -413  100  635  1100  1411  1612  1819  2058  2243  2323  2339  2343  2354  2362  2357  2340  2315  2277  2224  2157  2084  1996  1878  1736  1594  1435  1203  835  328  -195  -578  -771  -855  -925  -1005  -1084  -1190  -1361  -1554  -1651  -1581  -1359  -1039  -667  -295  0  159  199  189  182  192  216  255  327  433  545  632  676  669  612  525  415  243  -24  -318  -536  -686  -840  -999  -1101  -1103  -1016  -885  -760  -659  -567  -463  -365  -323  -347  -379  -370  -337  -320  -317  -300  -245  -159  -78  -30  -22  -42  -59  -52  -31  -7  28  85  136  152  152  175  213  240  262  300  352  367  280  79  -156  -326  -413  -459  -502  -566  -654  -735  -763  -702  -559  -374  -197  -72  -16  -10  -26  -44  -61  -67  -23  105  281  411  457  451  432  411  405  464  631  849  959  851  573  260  13  -151  -276  -435  -695  -1025  -1323  -1554  -1738  -1872  -1916  -1813  -1529  -1161  -885  -771  -799  -1008  -1444  -1964  -2331  -2482  -2528  -2552  -2586  -2667  -2818  -3007  -3169  -3299  -3458  -3651  -3817  -3933  -4021  -4083  -4112  -4114  -4115  -4131  -4087  -3857  -3421  -2782  -1836  -490  1088  2438  3063  2607  1061  -992  -2660  -3263  -2621  -1055  778  2153  2620  2325  1789  1363  1051  722  303  -165  -595  -935  -1181  -1325  -1372  -1397  -1532  -1859  -2273  -2563  -2648  -2608  -2534  -2459  -2381  -2290  -2201  -2144  -2121  -2098  -2065  -2048  -2056  -2050  -1944  -1652  -1158  -541  53  486  721  849  1006  1293  1731  2209  2573  2785  2942  3137  3362  3557  3741  4012  4376  4705  4882  4927  4913  4864  4744  4532  4265  3996  3764  3587  3437  3264  3047  2798  2566  2412  2341  2307  2266  2169  1968  1668  1372  1193  1141  1147  1150  1125  1072  1024  1033  1124  1272  1461  1720  2056  2382  2597  2692  2721  2730  2756  2826  2942  3072  3181  3276  3426  3704  4062  4372  4566  4670  4730  4767  4788  4766  4660  4491  4363  4353  4458  4628  4812  4990  5152  5278  5291  5011  4261  3148  2054  1245  641  54  -562  -1167  -1726  -2203  -2587  -2908  -3213  -3555  -3961  -4378  -4707  -4933  -5149  -5408  -5655  -5822  -5910  -5960  -6006  -6066  -6138  -6201  -6236  -6251  -6291  -6408  -6603  -6831  -7053  -7236  -7341  -7369  -7365  -7355  -7321  -7232  -7098  -6965  -6848  -6724  -6574  -6420  -6305  -6235  -6177  -6066  -5804  -5372  -4924  -4639  -4544  -4562  -4620  -4696  -4800  -4921  -5018  -5071  -5116  -5199  -5266  -5052  -4167  -2544  -728  583  1182  1313  1271  1188  1058  849  604  407  284  206  176  194  233  357  692  1292  2184  3379  4670  5673  6106  5794  4688  3126  1672  700  336  532  1041  1531  1843  2047  2250  2445  2576  2653  2784  3066  3434  3713  3809  3766  3680  3617  3598  3615  3647  3675  3701  3726  3718  3635  3482  3286  3026  2689  2361  2154  2077  2069  2078  2083  2084  2092  2112  2142  2205  2378  2705  3111  3462  3681  3802  3941  4218  4631  5092  5543  5937  6221  6393  6506  6622  6750  6839  6880  6967  7210  7591  7964  8182  8105  7544  6450  5075  3762  2647  1626  574  -480  -1376  -1987  -2397  -2820  -3304  -3711  -3979  -4187  -4402  -4607  -4757  -4853  -4922  -4966  -4987  -5011  -5067  -5150  -5242  -5316  -5341  -5321  -5294  -5276  -5226  -5100  -4927  -4788  -4717  -4686  -4672  -4671  -4671  -4656  -4619  -4547  -4346  -3894  -3263  -2748  -2535  -2461  -2140  -1227  260  1784  2666  2698  2191  1604  1265  1213  1211  1040  707  404  288  309  322  282  206  123  76  124  298  538  730  863  1011  1181  1311  1382  1434  1505  1607  1753  1929  2081  2164  2181  2189  2290  2564  2962  3342  3656  4003  4459  4950  5333  5552  5645  5644  5510  5199  4804  4520  4449  4580  4865  5189  5414  5508  5534  5491  5203  4423  3145  1761  718  141  -145  -380  -646  -861  -943  -900  -770  -598  -429  -301  -242  -248  -280  -300  -293  -246  -131  44  213  313  355  397  473  587  746  995  1395  1932  2455  2796  2859  2519  1616  193  -1418  -2830  -3865  -4571  -4984  -4959  -4306  -3057  -1625  -718  -897  -2245  -4349  -6482  -7989  -8650  -8685  -8490  -8326  -8259  -8296  -8436  -8635  -8820  -8942  -9000  -9019  -9014  -8982  -8927  -8875  -8845  -8819  -8732  -8533  -8275  -8069  -7943  -7833  -7712  -7615  -7546  -7482  -7414  -7340  -7243  -7129  -7042  -7020  -7039  -6954  -6419  -5071  -3022  -1047  91  380  306  207  150  131  200  434  814  1214  1530  1754  1901  1973  1992  2016  2087  2186  2252  2260  2242  2262  2397  2682  3070  3439  3686  3807  3861  3887  3899  3932  4039  4242  4519  4834  5140  5402  5603  5720  5744  5689  5553  5328  5044  4792  4645  4594  4579  4555  4495  4376  4198  4013  3892  3852  3854  3848  3784  3630  3438  3303  3286  3397  3610  3855  4080  4300  4513  4659  4710  4706  4696  4706  4756  4861  5029  5256  5514  5770  6013  6262  6530  6846  7252  7702  8044  8101  7651  6574  5132  3768  2647  1719  901  60  -885  -1837  -2647  -3292  -3827  -4251  -4556  -4776  -4958  -5143  -5351  -5560  -5747  -5909  -6048  -6159  -6246  -6309  -6338  -6355  -6395  -6446  -6478  -6490  -6488  -6471  -6448  -6421  -6379  -6326  -6284  -6274  -6296  -6327  -6319  -6255  -6190  -6099  -5675  -4531  -2737  -961  133  437  269  -33  -285  -456  -649  -955  -1334  -1681  -1944  -2140  -2261  -2264  -2185  -2087  -1944  -1740  -1528  -1353  -1240  -1190  -1153  -1069  -913  -706  -484  -274  -82  76  171  192  162  113  56  -34  -178  -341  -462  -521  -543  -547  -506  -376  -158  72  263  450  666  859  952  917  785  611  478  521  808  1304  1998  2978  4288  5646  6416  6061  4471  2027  -418  -1998  -2421  -1995  -1271  -724  -517  -519  -557  -561  -518  -424  -275  -90  96  273  486  797  1197  1606  1933  2116  2163  2121  2023  1903  1809  1765  1750  1748  1795  1963  2304  2791  3318  3768  4090  4293  4386  4275  3738  2707  1521  671  325  314  450  681  977  1254  1445  1561  1664  1790  1947  2156  2388  2555  2616  2603  2550  2473  2381  2277  2151  2006  1869  1753  1621  1429  1192  966  776  596  374  67  -289  -606  -837  -1000  -1117  -1190  -1223  -1215  -1171  -1109  -1058  -1009  -925  -791  -643  -530  -469  -438  -408  -376  -338  -207  220  1055  2074  2888  3326  3481  3491  3400  3188  2871  2500  2092  1644  1142  563  -51  -622  -1144  -1645  -2113  -2517  -2831  -3019  -3100  -3164  -3272  -3402  -3508  -3542  -3421  -3065  -2462  -1688  -837  36  859  1524  1957  2129  2052  1698  1013  166  -525  -875  -841  -529  -222  -106  -120  -106  40  300  563  753  889  1011  1117  1182  1180  1088  883  572  185  -264  -751  -1181  -1447  -1537  -1505  -1388  -1223  -1036  -821  -590  -402  -278  -167  4  267  543  711  732  672  616  594  581  561  547  551  573  618  746  1058  1572  2153  2616  2858  2856  2581  2009  1223  445  -85  -293  -303  -270  -257  -252  -239  -228  -243  -292  -352  -370  -351  -387  -514  -648  -724  -754  -794  -887  -967  -847  -407  295  1242  2497  3905  5035  5457  4886  3313  1200  -699  -1847  -2148  -1823  -1255  -808  -610  -540  -442  -264  -50  119  213  257  277  282  266  219  149  92  81  110  137  129  96  44  -43  -160  -277  -378  -462  -537  -633  -763  -893  -1003  -1123  -1290  -1506  -1722  -1872  -1941  -1971  -2000  -2029  -2029  -1992  -1931  -1849  -1752  -1661  -1595  -1551  -1516  -1458  -1337  -1158  -991  -903  -897  -939  -1003  -1079  -1158  -1245  -1360  -1514  -1687  -1848  -1972  -2047  -2086  -2117  -2151  -2166  -2146  -2097  -2043  -1993  -1924  -1809  -1665  -1543  -1442  -1322  -1172  -988  -690  -165  597  1488  2315  2875  3106  3121  3041  2884  2622  2270  1856  1393  949  620  425  309  206  59  -162  -452  -723  -877  -912  -895  -886  -903  -933  -956  -965  -965  -959  -943  -920  -905  -927  -1007  -1125  -1226  -1282  -1299  -1281  -1231  -1163  -1090  -973  -747  -420  -76  183  319  354  327  259  178  123  119  160  218  259  275  278  279  278  269  247  223  197  163  136  150  227  344  444  499  515  515  519  543  584  624  628  572  445  239  -53  -397  -706  -918  -1044  -1148  -1266  -1394  -1533  -1693  -1861  -2029  -2245  -2554  -2916  -3242  -3475  -3621  -3729  -3844  -3968  -4071  -4152  -4266  -4497  -4880  -5264  -5313  -4809  -3865  -2714  -1498  -441  150  21  -1027  -2925  -5149  -6976  -7780  -7345  -6054  -4538  -3187  -2090  -1186  -376  339  848  1125  1345  1691  2127  2420  2316  1689  730  -126  -614  -772  -718  -508  -188  147  433  685  982  1381  1802  2078  2171  2194  2265  2409  2587  2751  2889  3027  3184  3368  3602  3881  4142  4343  4483  4561  4580  4553  4476  4342  4165  3989  3855  3766  3704  3655  3603  3540  3485  3471  3497  3537  3577  3614  3641  3655  3660  3657  3649  3648  3660  3682  3721  3815  3993  4197  4330  4368  4368  4392  4479  4651  4850  4942  4862  4687  4561  4601  4774  4878  4633  3809  2394  622  -1158  -2575  -3328  -3370  -2944  -2426  -2090  -1940  -1815  -1620  -1400  -1227  -1109  -1011  -889  -709  -448  -105  251  510  635  677  685  678  631  470  144  -299  -724  -983  -1013  -819  -432  82  611  1021  1249  1338  1363  1369  1373  1378  1373  1341  1285  1217  1119  931  619  248  -57  -263  -420  -557  -705  -965  -1392  -1879  -2273  -2510  -2577  -2478  -2270  -2056  -1900  -1781  -1650  -1497  -1329  -1121  -892  -732  -690  -729  -790  -840  -872  -893  -915  -938  -952  -937  -876  -771  -640  -479  -282  -39  253  536  714  775  800  844  900  945  973  997  1029  1029  907  620  249  -58  -252  -413  -606  -809  -1001  -1187  -1347  -1443  -1478  -1510  -1620  -1820  -2026  -2154  -2198  -2206  -2230  -2335  -2526  -2652  -2513  -2043  -1273  -188  1196  2636  3633  3703  2620  592  -1661  -3309  -4001  -3932  -3520  -3134  -2899  -2753  -2638  -2540  -2457  -2410  -2408  -2414  -2358  -2191  -1964  -1785  -1695  -1653  -1616  -1540  -1310  -808  -138  401  663  755  788  752  625  420  121  -285  -739  -1146  -1460  -1682  -1817  -1884  -1925  -1994  -2112  -2261  -2418  -2560  -2651  -2680  -2672  -2659  -2646  -2616  -2549  -2422  -2218  -1949  -1643  -1338  -1100  -970  -901  -814  -697  -601  -550  -518  -482  -453  -452  -498  -602  -772  -996  -1221  -1382  -1459  -1477  -1462  -1413  -1323  -1192  -1026  -830  -639  -503  -432  -406  -413  -445  -474  -480  -491  -523  -517  -425  -299  -217  -189  -165  -102  12  163  303  384  397  346  206  -37  -316  -512  -587  -590  -562  -502  -394  -229  -1  244  431  535  631  819  1128  1490  1852  2239  2635  2939  3102  3174  3231  3322  3434  3529  3614  3726  3841  3871  3741  3410  2878  2180  1384  648  170  -5  -1  68  180  329  478  601  732  904  1088  1232  1327  1400  1469  1532  1573  1587  1585  1592  1641  1753  1897  2010  2074  2117  2166  2239  2352  2508  2680  2809  2844  2751  2514  2194  1926  1723  1396  753  -195  -1246  -2096  -2533  -2581  -2407  -2163  -1959  -1834  -1742  -1651  -1586  -1554  -1511  -1411  -1258  -1097  -952  -819  -701  -599  -466  -236  77  397  675  896  1038  1111  1149  1175  1192  1180  1098  901  606  306  110  37  34  56  103  193  299  333  237  58  -106  -210  -268  -320  -391  -475  -552  -640  -763  -894  -1012  -1090  -999  -603  142  1313  2933  4680  5973  6342  5587  3850  1701  -119  -1119  -1231  -767  -178  244  439  492  507  526  515  382  73  -303  -564  -654  -652  -623  -566  -461  -320  -184  -78  -5  42  62  54  36  21  13  22  88  252  491  710  848  911  921  904  889  893  929  998  1080  1148  1186  1194  1194  1239  1379  1587  1791  1942  2043  2115  2105  1826  1133  233  -458  -770  -828  -802  -775  -762  -760  -781  -841  -929  -1021  -1133  -1309  -1525  -1705  -1847  -2043  -2361  -2748  -3077  -3276  -3379  -3441  -3487  -3528  -3551  -3513  -3355  -3055  -2679  -2347  -2128  -1998  -1891  -1769  -1632  -1478  -1301  -1111  -927  -769  -652  -578  -550  -585  -705  -918  -1167  -1344  -1381  -1263  -1008  -684  -393  -191  -80  -30  -3  24  43  28  -22  -122  -364  -867  -1590  -2316  -2846  -3138  -3280  -3359  -3383  -3317  -3143  -2920  -2740  -2628  -2536  -2427  -2310  -2208  -2124  -2019  -1850  -1627  -1423  -1291  -1225  -1169  -1072  -942  -824  -720  -584  -382  -110  193  453  627  735  832  964  1145  1332  1453  1491  1494  1509  1530  1511  1423  1282  1124  966  813  665  528  424  371  357  366  394  452  540  636  700  721  710  678  628  581  565  590  631  636  566  442  321  243  219  233  261  320  527  1052  1932  2983  3955  4685  5136  5429  5703  5917  5845  5208  3953  2424  1100  265  -82  -128  -39  123  319  478  565  597  597  578  563  592  692  865  1075  1269  1405  1465  1460  1409  1333  1215  979  548  -119  -976  -1722  -1920  -1399  -273  1343  3298  5165  6370  6520  5497  3520  1271  -458  -1292  -1340  -990  -619  -402  -323  -287  -223  -118  2  95  143  171  197  211  187  123  47  -29  -125  -226  -297  -324  -302  -245  -173  -91  1  72  88  64  -14  -212  -526  -845  -1058  -1133  -1093  -978  -830  -691  -582  -487  -375  -248  -146  -86  -34  39  126  211  312  461  674  912  1109  1246  1372  1530  1694  1798  1802  1740  1679  1621  1481  1199  843  559  410  331  210  -21  -317  -569  -727  -813  -853  -864  -867  -882  -912  -936  -936  -913  -856  -750  -622  -519  -416  -248  -29  149  247  293  316  323  325  329  332  339  368  411  442  447  429  399  378  384  422  473  511  528  538  543  508  379  148  -97  -247  -271  -213  -136  -77  -38  5  82  209  366  495  553  505  329  80  -107  -148  -84  -13  21  30  24  -7  -67  -178  -357  -454  -195  552  1705  2989  3958  4233  3821  3060  2280  1602  1007  424  -217  -886  -1443  -1808  -2050  -2259  -2463  -2666  -2867  -3068  -3279  -3521  -3805  -4123  -4454  -4761  -5006  -5192  -5379  -5625  -5885  -6045  -6067  -6011  -5929  -5837  -5746  -5685  -5697  -5788  -5916  -6045  -6183  -6360  -6570  -6770  -6913  -6978  -6981  -6947  -6881  -6791  -6698  -6616  -6541  -6445  -6304  -6119  -5914  -5717  -5539  -5366  -5181  -4978  -4802  -4762  -4864  -4941  -4835  -4468  -3776  -2744  -1403  153  1561  2284  2027  856  -834  -2395  -3308  -3496  -3154  -2538  -1886  -1345  -942  -650  -458  -341  -213  19  358  709  994  1202  1368  1522  1671  1830  2043  2341  2665  2924  3087  3210  3373  3603  3837  4011  4150  4296  4416  4455  4412  4317  4212  4148  4137  4146  4149  4150  4179  4262  4381  4495  4615  4790  5039  5317  5546  5670  5702  5716  5796  5970  6178  6335  6410  6427  6422  6412  6395  6377  6374  6388  6396  6359  6215  5922  5497  5009  4536  4183  4052  4176  4493  4891  5252  5486  5502  5150  4337  3276  2417  2018  1984  2115  2300  2487  2642  2773  2932  3150  3378  3531  3593  3620  3669  3767  3886  3953  3893  3664  3289  2870  2528  2314  2184  2067  1898  1647  1365  1135  941  690  310  -257  -1058  -1990  -2760  -3189  -3400  -3584  -3775  -3914  -3969  -3957  -3917  -3883  -3860  -3817  -3715  -3551  -3360  -3194  -3074  -2966  -2814  -2607  -2403  -2274  -2232  -2222  -2190  -2112  -1994  -1858  -1720  -1567  -1408  -1290  -1225  -1177  -1120  -1046  -963  -871  -758  -568  -204  375  1113  1856  2406  2671  2642  2209  1258  -35  -1239  -2015  -2312  -2242  -1886  -1343  -833  -542  -467  -489  -522  -556  -616  -712  -818  -917  -1037  -1186  -1332  -1436  -1487  -1470  -1372  -1215  -1060  -935  -820  -714  -650  -645  -683  -780  -1019  -1439  -1921  -2331  -2675  -2918  -2842  -2305  -1363  -94  1332  2535  3133  2905  1791  -23  -2065  -3724  -4567  -4597  -4142  -3565  -3135  -2951  -2943  -3003  -3065  -3082  -3049  -3003  -2966  -2905  -2778  -2588  -2371  -2146  -1922  -1736  -1632  -1605  -1613  -1630  -1660  -1707  -1761  -1799  -1798  -1723  -1563  -1373  -1236  -1163  -1108  -1054  -1015  -993  -960  -868  -691  -477  -305  -185  -52  138  368  583  737  833  916  1021  1145  1273  1395  1505  1596  1651  1665  1636  1560  1459  1358  1230  1030  784  569  441  393  377  320  175  -18  -164  -221  -236  -285  -436  -687  -960  -1174  -1299  -1348  -1332  -1256  -1153  -1078  -1051  -1014  -875  -596  -253  37  224  310  310  220  19  -304  -716  -1107  -1376  -1503  -1522  -1470  -1400  -1364  -1371  -1393  -1407  -1416  -1433  -1446  -1409  -1286  -1082  -810  -495  -218  -51  42  169  375  622  860  1063  1214  1302  1342  1371  1426  1516  1619  1709  1800  1929  2087  2210  2271  2311  2404  2595  2855  3126  3396  3675  3928  4083  4085  3918  3629  3338  3135  3016  2922  2793  2590  2345  2148  2046  2012  2012  2030  2045  1998  1830  1563  1306  1142  1081  1114  1259  1541  1913  2267  2536  2691  2725  2679  2598  2476  2318  2134  1917  1704  1594  1630  1742  1830  1863  1878  1921  2019  2173  2374  2591  2772  2913  3070  3254  3389  3414  3331  3179  2953  2602  2164  1778  1495  1251  1035  901  855  836  789  694  547  368  200  65  -74  -269  -475  -591  -600  -591  -640  -744  -885  -1052  -1214  -1274  -1097  -615  122  1095  2347  3743  4863  5246  4640  3087  991  -971  -2239  -2691  -2589  -2305  -2091  -1996  -1958  -1948  -1966  -1993  -2013  -2020  -2015  -2004  -2009  -2058  -2164  -2299  -2415  -2486  -2517  -2531  -2543  -2551  -2569  -2631  -2759  -2913  -3031  -3074  -3019  -2845  -2607  -2440  -2443  -2623  -2884  -3079  -3119  -2986  -2713  -2406  -2179  -2039  -1936  -1843  -1757  -1689  -1653  -1648  -1655  -1656  -1632  -1566  -1452  -1311  -1167  -1043  -960  -927  -934  -956  -965  -930  -825  -672  -531  -436  -387  -378  -434  -581  -787  -971  -1086  -1144  -1174  -1207  -1275  -1368  -1438  -1462  -1458  -1448  -1441  -1442  -1471  -1562  -1762  -2081  -2414  -2610  -2577  -2323  -1953  -1520  -861  169  1383  2390  2925  2959  2647  2249  1945  1675  1239  520  -417  -1364  -2050  -2352  -2414  -2489  -2713  -3070  -3492  -3929  -4311  -4563  -4692  -4773  -4852  -4934  -5009  -5060  -5079  -5079  -5074  -5055  -4978  -4803  -4560  -4309  -4045  -3749  -3481  -3310  -3233  -3190  -3141  -3091  -3059  -3051  -3055  -3056  -3038  -2965  -2786  -2500  -2187  -1911  -1637  -1357  -1158  -1076  -1041  -949  -751  -492  -260  -111  -66  -114  -204  -274  -301  -297  -261  -191  -139  -196  -390  -643  -849  -953  -975  -978  -1012  -1078  -1147  -1191  -1203  -1159  -1031  -849  -692  -586  -501  -426  -395  -417  -448  -451  -441  -433  -402  -292  -75  234  621  1066  1486  1779  1934  2009  2041  2058  2099  2183  2282  2346  2365  2362  2360  2362  2363  2363  2366  2365  2349  2321  2294  2278  2281  2313  2387  2484  2558  2585  2585  2602  2678  2830  3004  3129  3187  3220  3277  3394  3602  3907  4323  4936  5837  7024  8485  10185  11835  13009  13518  13342  12393  10781  9094  7970  7551  7554  7669  7749  7712  7454  6944  6364  6008  6018  6246  6444  6532  6559  6571  6537  6251  5391  3779  1532  -912  -2872  -3757  -3487  -2496  -1395  -644  -416  -625  -1075  -1573  -1974  -2220  -2356  -2463  -2572  -2658  -2703  -2731  -2768  -2813  -2798  -2594  -2107  -1409  -718  -218  102  378  713  1106  1466  1716  1855  1906  1858  1698  1479  1295  1165  1032  876  739  583  215  -482  -1277  -1801  -1959  -1900  -1742  -1519  -1281  -1108  -1041  -1045  -1066  -1085  -1119  -1194  -1315  -1447  -1532  -1537  -1469  -1364  -1265  -1184  -1088  -967  -852  -755  -643  -488  -308  -133  26  161  242  269  273  282  289  256  135  -64  -293  -522  -725  -875  -960  -983  -896  -607  -104  430  763  805  587  169  -337  -788  -1080  -1225  -1352  -1594  -1987  -2465  -2901  -3186  -3332  -3436  -3524  -3544  -3475  -3372  -3272  -3154  -2994  -2821  -2678  -2546  -2377  -2170  -1975  -1851  -1810  -1817  -1838  -1850  -1820  -1722  -1590  -1495  -1469  -1478  -1476  -1422  -1306  -1182  -1133  -1171  -1228  -1257  -1261  -1246  -1211  -1162  -1115  -1073  -1023  -959  -888  -834  -832  -895  -987  -1055  -1081  -1057  -933  -684  -394  -186  -82  -2  112  252  382  479  540  568  579  592  624  677  746  827  925  1028  1110  1157  1176  1195  1254  1377  1560  1778  1985  2125  2177  2122  1912  1555  1160  844  624  438  249  73  -87  -232  -329  -364  -368  -362  -349  -340  -352  -386  -422  -425  -375  -282  -174  -86  -43  -38  -47  -67  -118  -199  -269  -271  -139  233  939  2014  3425  4941  6086  6413  5731  4151  2105  261  -822  -1019  -630  -99  269  376  288  149  52  3  -19  -28  -6  60  146  204  220  211  193  169  140  107  55  -23  -104  -156  -179  -197  -236  -325  -476  -647  -757  -747  -620  -446  -322  -297  -343  -409  -453  -466  -464  -458  -456  -456  -460  -471  -488  -509  -516  -487  -415  -304  -174  -60  15  50  58  58  57  49  24  -14  -63  -128  -216  -308  -395  -545  -858  -1305  -1704  -1908  -1938  -1903  -1889  -1949  -2109  -2370  -2671  -2921  -3062  -3095  -3047  -2976  -2931  -2916  -2909  -2902  -2912  -2947  -2989  -3013  -2992  -2924  -2848  -2785  -2765  -2893  -3163  -3271  -2809  -1623  71  1790  3002  3436  3196  2637  2079  1622  1257  957  640  252  -126  -399  -565  -663  -710  -702  -653  -599  -559  -523  -466  -375  -259  -146  -63  -15  23  80  152  204  223  241  292  369  435  473  499  535  588  656  732  802  855  899  945  971  950  882  776  661  582  550  538  529  522  524  533  535  502  417  307  209  152  145  184  274  428  618  765  835  872  936  1062  1245  1456  1667  1834  1926  1964  2027  2221  2582  3006  3352  3555  3633  3640  3624  3606  3600  3653  3818  4063  4260  4279  4019  3432  2566  1561  621  -127  -748  -1359  -1978  -2553  -3014  -3322  -3500  -3641  -3838  -4131  -4524  -4962  -5315  -5468  -5374  -5042  -4470  -3583  -2309  -785  529  1101  625  -821  -2708  -4287  -5101  -5185  -4891  -4590  -4424  -4350  -4302  -4248  -4188  -4130  -4063  -3966  -3840  -3700  -3555  -3416  -3286  -3135  -2921  -2657  -2408  -2236  -2159  -2150  -2162  -2169  -2163  -2147  -2118  -2064  -1977  -1866  -1750  -1650  -1569  -1489  -1371  -1186  -952  -722  -532  -381  -265  -183  -110  6  209  507  861  1175  1376  1471  1511  1532  1538  1527  1531  1615  1814  2071  2287  2428  2530  2626  2716  2791  2845  2875  2884  2885  2869  2793  2615  2384  2222  2169  2150  2083  1964  1828  1681  1531  1436  1460  1622  1853  2019  2031  1878  1622  1351  1129  994  948  962  996  1014  989  928  864  822  786  722  638  577  550  528  482  421  368  327  290  263  248  243  243  239  218  184  149  118  95  70  17  -71  -172  -268  -373  -480  -542  -536  -495  -448  -383  -272  -126  -7  33  13  -7  15  64  105  165  335  675  1121  1532  1826  2005  2108  2183  2307  2565  2949  3332  3587  3703  3741  3765  3817  3956  4251  4662  5052  5391  5777  6212  6573  6842  7129  7461  7735  7861  7861  7780  7503  6753  5381  3518  1508  -144  -1064  -1343  -1356  -1359  -1396  -1424  -1416  -1388  -1353  -1310  -1275  -1336  -1609  -2085  -2560  -2845  -2924  -2828  -2521  -2026  -1489  -1006  -568  -216  -35  -52  -221  -445  -599  -626  -553  -443  -359  -338  -410  -590  -841  -1108  -1384  -1646  -1813  -1859  -1883  -2045  -2429  -2935  -3336  -3353  -2764  -1581  5  1740  3171  3735  3092  1305  -1082  -3190  -4330  -4431  -3966  -3495  -3284  -3268  -3256  -3139  -2912  -2602  -2282  -2016  -1793  -1602  -1487  -1506  -1703  -2036  -2360  -2543  -2574  -2478  -2255  -1932  -1617  -1420  -1328  -1223  -1012  -696  -347  -37  199  370  496  602  714  856  1042  1281  1564  1866  2182  2523  2864  3170  3450  3752  4087  4400  4650  4879  5172  5587  6107  6645  7074  7322  7438  7486  7368  6849  5838  4541  3283  2308  1683  1272  928  623  339  34  -283  -585  -862  -1092  -1241  -1304  -1315  -1314  -1320  -1322  -1291  -1200  -1071  -954  -853  -706  -472  -212  -45  -26  -125  -260  -357  -404  -437  -476  -509  -520  -508  -485  -464  -450  -438  -413  -376  -372  -453  -627  -851  -1046  -1159  -1165  -1038  -815  -637  -576  -576  -581  -581  -641  -943  -1607  -2511  -3408  -4113  -4578  -4866  -5009  -4866  -4292  -3432  -2571  -1885  -1454  -1254  -1154  -1051  -932  -814  -710  -649  -655  -722  -820  -926  -1048  -1194  -1341  -1455  -1529  -1590  -1665  -1763  -1883  -1998  -2059  -2048  -1994  -1919  -1816  -1677  -1532  -1434  -1397  -1393  -1392  -1372  -1311  -1196  -1062  -961  -893  -820  -736  -676  -653  -638  -602  -545  -486  -442  -425  -439  -478  -524  -559  -567  -537  -470  -364  -204  -7  156  244  272  270  256  238  214  183  171  215  302  386  451  492  500  481  448  420  401  380  337  246  98  -60  -182  -280  -386  -485  -549  -576  -589  -603  -628  -671  -722  -758  -772  -782  -811  -856  -898  -931  -997  -1126  -1234  -1118  -594  401  1812  3462  5011  5999  6073  5166  3490  1485  -291  -1478  -2183  -2714  -3196  -3661  -4141  -4583  -4938  -5235  -5468  -5601  -5649  -5657  -5641  -5576  -5445  -5275  -5119  -5019  -4966  -4922  -4797  -4392  -3494  -2169  -871  -54  217  145  -120  -500  -871  -1127  -1289  -1451  -1660  -1889  -2078  -2177  -2174  -2094  -1985  -1886  -1798  -1712  -1638  -1577  -1490  -1325  -1032  -572  28  626  1045  1268  1445  1760  2299  2923  3375  3562  3583  3550  3494  3402  3240  2978  2631  2290  2019  1771  1487  1212  994  794  549  245  -96  -421  -658  -797  -862  -863  -823  -770  -710  -662  -646  -652  -647  -604  -522  -436  -375  -339  -310  -277  -247  -219  -175  -102  -10  90  174  193  121  0  -93  -127  -110  -53  28  99  127  114  98  130  259  481  710  843  869  851  828  806  791  797  827  864  884  884  880  897  958  1052  1138  1186  1204  1215  1215  1195  1152  1103  1069  1069  1123  1242  1392  1501  1542  1546  1550  1561  1592  1657  1740  1800  1815  1802  1797  1867  2076  2384  2668  2884  3088  3297  3476  3638  3851  4168  4564  4938  5188  5301  5372  5541  5867  6304  6772  7178  7432  7499  7370  6973  6160  4807  3001  1095  -453  -1343  -1627  -1614  -1543  -1475  -1397  -1285  -1106  -852  -548  -228  57  274  476  766  1174  1636  2038  2291  2419  2519  2642  2762  2838  2862  2851  2802  2707  2582  2459  2376  2341  2343  2360  2370  2336  2229  2076  1961  1937  1951  1812  1284  360  -619  -1306  -1635  -1697  -1609  -1495  -1307  -861  -66  1088  2491  3819  4676  4696  3668  1793  -346  -2101  -3047  -3185  -2900  -2617  -2516  -2526  -2518  -2444  -2322  -2184  -2082  -2081  -2238  -2570  -3018  -3445  -3734  -3877  -3936  -3931  -3859  -3747  -3648  -3586  -3555  -3538  -3513  -3463  -3396  -3337  -3293  -3267  -3271  -3307  -3363  -3441  -3561  -3714  -3852  -3932  -3961  -3960  -3931  -3864  -3776  -3709  -3686  -3693  -3698  -3635  -3404  -2966  -2430  -1979  -1714  -1610  -1586  -1581  -1569  -1532  -1469  -1393  -1312  -1228  -1146  -1073  -1027  -1028  -1107  -1294  -1596  -1965  -2310  -2548  -2659  -2677  -2666  -2690  -2788  -2934  -3055  -3102  -3054  -2896  -2659  -2416  -2218  -2080  -1993  -1910  -1776  -1569  -1319  -1071  -868  -735  -666  -618  -554  -486  -438  -366  -143  314  932  1509  1898  2140  2377  2657  2923  3145  3369  3644  3939  4217  4503  4832  5215  5652  6104  6542  7014  7546  8029  8247  8027  7317  6190  4830  3368  1768  66  -1438  -2398  -2675  -2358  -1739  -1172  -873  -820  -842  -788  -633  -445  -285  -134  65  308  560  835  1207  1709  2219  2530  2510  2154  1592  1029  580  267  100  52  66  99  117  104  121  343  919  1709  2351  2641  2645  2461  2094  1560  992  569  339  234  214  270  379  495  574  559  340  -165  -920  -1737  -2367  -2672  -2721  -2658  -2559  -2459  -2383  -2310  -2190  -2025  -1866  -1721  -1549  -1359  -1213  -1118  -998  -779  -474  -184  -2  85  227  609  1294  2167  3107  4105  5115  5934  6290  5917  4656  2682  554  -1108  -1962  -2079  -1786  -1358  -946  -590  -202  213  504  572  415  54  -445  -950  -1368  -1705  -1977  -2182  -2328  -2437  -2532  -2621  -2688  -2722  -2712  -2620  -2415  -2135  -1848  -1597  -1412  -1313  -1262  -1188  -1064  -916  -778  -669  -610  -601  -612  -592  -505  -368  -238  -151  -97  -47  17  101  193  271  324  361  410  480  552  616  690  789  904  1002  1069  1113  1142  1140  1037  733  169  -585  -1326  -1850  -2084  -2096  -1997  -1862  -1726  -1592  -1445  -1260  -1036  -814  -647  -520  -361  -158  12  101  132  148  179  245  352  492  652  845  1105  1423  1720  1927  2034  2059  2038  2000  1955  1913  1863  1770  1639  1522  1461  1451  1454  1415  1309  1175  1104  1149  1265  1371  1462  1599  1797  2006  2176  2295  2345  2296  2122  1836  1529  1316  1227  1201  1185  1201  1334  1652  2090  2482  2700  2680  2331  1608  674  -149  -648  -880  -1028  -1184  -1352  -1543  -1753  -1928  -2024  -2051  -2041  -2016  -1992  -1971  -1948  -1943  -1981  -2058  -2136  -2190  -2246  -2352  -2489  -2582  -2591  -2535  -2461  -2406  -2347  -2225  -2034  -1851  -1776  -1867  -2107  -2385  -2573  -2639  -2638  -2613  -2554  -2414  -2171  -1878  -1621  -1437  -1297  -1159  -1008  -853  -701  -559  -439  -369  -369  -436  -547  -668  -766  -820  -833  -829  -828  -835  -842  -840  -830  -823  -823  -824  -833  -917  -1176  -1617  -2089  -2420  -2558  -2546  -2426  -2225  -1996  -1739  -1318  -601  390  1608  3053  4528  5560  5753  4945  3214  1093  -638  -1518  -1551  -1045  -437  -58  41  4  -30  9  137  309  459  583  736  946  1196  1479  1813  2157  2405  2510  2425  2016  1233  337  -293  -559  -622  -622  -580  -489  -367  -257  -181  -130  -71  12  102  182  282  432  625  826  1011  1187  1403  1673  1923  2073  2117  2099  2049  1991  1950  1937  1935  1912  1842  1719  1579  1481  1446  1437  1397  1277  1071  833  638  506  394  250  65  -121  -283  -399  -458  -491  -540  -595  -627  -637  -643  -643  -618  -536  -391  -215  -60  35  64  9  -163  -425  -674  -850  -1006  -1252  -1599  -1916  -2089  -2131  -2096  -2000  -1868  -1757  -1704  -1703  -1735  -1789  -1862  -1935  -1983  -1985  -1936  -1853  -1770  -1715  -1675  -1615  -1514  -1398  -1292  -1192  -1094  -1014  -952  -892  -841  -803  -760  -696  -614  -532  -484  -474  -464  -405  -292  -177  -102  -41  64  222  381  496  569  629  701  793  908  1051  1202  1327  1459  1693  2019  2292  2400  2353  2205  2012  1836  1729  1691  1683  1675  1655  1608  1491  1265  938  547  129  -245  -502  -652  -771  -898  -1018  -1126  -1245  -1380  -1502  -1578  -1607  -1606  -1590  -1572  -1557  -1541  -1517  -1483  -1451  -1429  -1411  -1386  -1338  -1265  -1181  -1114  -1061  -1011  -966  -939  -927  -902  -838  -748  -670  -616  -573  -539  -517  -498  -481  -468  -464  -475  -512  -627  -888  -1253  -1576  -1774  -1888  -1998  -2161  -2374  -2573  -2713  -2830  -3024  -3323  -3542  -3385  -2738  -1714  -417  1063  2485  3518  3865  3305  1904  121  -1446  -2373  -2548  -2168  -1617  -1228  -1033  -861  -650  -465  -326  -220  -143  -69  68  304  568  739  780  742  685  646  642  687  785  910  1025  1124  1232  1379  1552  1706  1817  1892  1935  1948  1931  1863  1723  1546  1410  1356  1370  1425  1494  1557  1629  1740  1882  2020  2128  2194  2230  2267  2328  2408  2487  2543  2570  2571  2543  2481  2387  2260  2105  1944  1811  1720  1651  1548  1357  1107  889  748  666  625  611]
