reading_id,reading_time,wire_id,result_classification,heart_rate,heart_rate_alert,firmware_version,device_app_version,hardware_version,waveform_samples
befcf550-592e-11ed-8080-808080808080,Mon Oct 31 15:14:42 UTC 2022,410163471e39,NSR,64,NONE,20001.171.50,2.10.0,Charge 5,[-1  -18  -72  -203  -369  -481  -445  -19  1099  2910  4980  6651  7374  6949  5524  3581  1749  438  -220  -304  -158  -126  -210  -254  -214  -129  -40  6  -4  -40  -62  -60  -39  -7  24  33  -18  -160  -336  -453  -478  -418  -275  -99  37  131  238  369  473  519  538  567  608  629  611  569  529  498  488  552  753  1055  1357  1615  1820  1935  1958  1954  2009  2152  2294  2322  2256  2186  2145  2095  1983  1790  1549  1310  1107  935  771  621  501  398  283  154  41  -26  -46  -41  -27  -3  18  -14  -159  -393  -584  -627  -541  -416  -317  -270  -274  -321  -388  -455  -512  -535  -500  -410  -306  -254  -285  -352  -390  -376  -314  -234  -177  -158  -162  -170  -177  -180  -171  -136  -69  4  54  74  73  62  55  75  148  280  427  532  613  729  857  906  852  760  680  626  583  531  481  467  504  587  685  759  820  908  1012  1060  1010  891  781  727  715  711  703  692  672  627  567  532  545  590  623  627  623  621  612  593  573  585  653  738  773  740  674  623  599  586  594  653  738  781  762  707  630  552  496  451  404  359  325  312  329  396  515  671  838  977  1053  1066  1021  906  731  567  501  535  577  556  504  471  459  449  426  380  317  242  146  36  -56  -109  -103  4  232  497  679  754  785  815  835  813  726  568  381  242  187  189  225  287  357  404  420  417  402  362  282  146  -97  -498  -945  -1154  -906  -237  686  1806  3161  4658  5976  6694  6439  5103  3061  925  -829  -1923  -2359  -2477  -2595  -2751  -2855  -2863  -2802  -2741  -2714  -2707  -2714  -2736  -2787  -2873  -2960  -3003  -2997  -2983  -2984  -2977  -2933  -2842  -2718  -2608  -2539  -2459  -2343  -2250  -2221  -2229  -2222  -2165  -2066  -1963  -1876  -1765  -1586  -1376  -1227  -1164  -1135  -1070  -917  -666  -389  -180  -69  -6  66  166  297  478  671  746  610  330  62  -106  -180  -194  -179  -150  -121  -154  -351  -742  -1211  -1575  -1741  -1751  -1693  -1629  -1587  -1560  -1534  -1484  -1389  -1269  -1177  -1137  -1135  -1171  -1255  -1365  -1448  -1485  -1499  -1507  -1496  -1436  -1325  -1206  -1121  -1074  -1054  -1050  -1053  -1057  -1051  -1026  -960  -829  -662  -544  -514  -527  -524  -472  -383  -296  -233  -183  -119  -37  42  109  179  251  299  309  294  282  327  471  680  856  951  990  1009  1036  1088  1149  1197  1241  1298  1379  1477  1568  1643  1698  1707  1658  1563  1432  1304  1255  1327  1471  1606  1721  1862  2050  2250  2401  2455  2397  2260  2106  1985  1938  2010  2247  2602  2932  3133  3213  3226  3191  3090  2923  2726  2534  2378  2244  2068  1835  1633  1538  1547  1623  1726  1828  1920  1958  1834  1500  1154  1047  1058  893  579  413  662  1416  2583  4048  5633  6943  7526  7117  5737  3727  1658  99  -673  -874  -873  -793  -657  -553  -521  -516  -477  -377  -246  -145  -109  -118  -121  -115  -185  -402  -701  -939  -1043  -1045  -998  -919  -813  -711  -653  -651  -688  -738  -776  -791  -778  -728  -643  -546  -448  -348  -271  -233  -202  -123  28  220  395  546  683  790  844  852  832  802  790  813  849  861  824  731  593  430  250  33  -225  -471  -653  -772  -850  -905  -979  -1097  -1222  -1300  -1321  -1307  -1272  -1222  -1166  -1118  -1118  -1198  -1322  -1428  -1501  -1557  -1604  -1637  -1651  -1651  -1648  -1653  -1676  -1709  -1736  -1752  -1773  -1806  -1824  -1815  -1812  -1838  -1868  -1883  -1891  -1909  -1937  -1966  -1994  -2011  -2007  -1975  -1918  -1848  -1791  -1768  -1766  -1745  -1678  -1583  -1514  -1489  -1480  -1459  -1439  -1450  -1491  -1516  -1490  -1425  -1360  -1313  -1276  -1236  -1192  -1167  -1214  -1329  -1425  -1444  -1401  -1338  -1276  -1210  -1140  -1088  -1065  -1057  -1054  -1063  -1088  -1121  -1143  -1149  -1150  -1158  -1171  -1163  -1112  -1033  -951  -857  -749  -663  -640  -684  -758  -808  -803  -736  -619  -490  -389  -306  -208  -77  58  149  193  222  255  281  301  335  384  438  505  599  693  722  601  289  -127  -467  -616  -608  -540  -482  -448  -442  -490  -621  -799  -964  -1135  -1325  -1403  -1204  -675  262  1707  3487  5129  6113  6087  5020  3246  1293  -282  -1092  -1108  -617  -40  216  23  -367  -638  -689  -578  -383  -191  -62  11  72  155  258  348  400  417  418  416  417  421  428  433  410  338  231  141  84  42  14  22  77  153  210  254  323  429  557  713  877  1008  1107  1203  1287  1345  1399  1504  1704  1971  2200  2306  2298  2218  2080  1871  1626  1423  1278  1137  968  797  655  539  422  284  120  -58  -222  -345  -410  -425  -418  -407  -396  -398  -420  -432  -396  -337  -311  -338  -405  -481  -535  -558  -554  -540  -531  -525  -498  -450  -408  -392  -399  -419  -441  -465  -496  -517  -488  -383  -253  -178  -166  -165  -150  -128  -92  -27  67  178  286  370  424  462  499  526  537  537  538  548  573  609  647  678  669  579  415  228  81  26  52  93  115  146  219  300  320  272  219  205  226  258  285  296  276  204  91  -7  -46  -23  30  81  107  85  -6  -154  -293  -369  -383  -349  -271  -175  -112  -102  -119  -139  -158  -172  -170  -140  -91  -53  -45  -68  -125  -223  -367  -490  -473  -317  -160  -88  -77  -84  -116  -196  -284  -278  -151  20  159  222  158  -65  -370  -592  -658  -613  -522  -428  -362  -330  -326  -351  -415  -490  -509  -430  -299  -216  -232  -315  -409  -486  -553  -637  -744  -843  -899  -906  -874  -810  -693  -500  -268  -89  -3  26  44  65  95  132  188  291  423  518  531  472  384  305  236  148  34  -79  -163  -199  -187  -154  -160  -230  -324  -382  -405  -433  -465  -437  -353  -421  -793  -1204  -1189  -523  723  2373  4209  5888  6951  7020  5924  3863  1546  -187  -980  -1036  -758  -503  -475  -604  -695  -693  -664  -638  -618  -618  -634  -652  -657  -645  -635  -648  -688  -739  -768  -755  -689  -561  -402  -287  -245  -247  -260  -276  -292  -284  -227  -122  -4  92  147  163  159  154  153  158  207  355  587  828  1030  1234  1528  1922  2275  2413  2256  1868  1453  1205  1145  1169  1192  1189  1168  1140  1113  1090  1068  1010  827  453  -26  -428  -657  -748  -755  -713  -658  -617  -568  -467  -330  -231  -215  -270  -351  -412  -439  -444  -439  -434  -443  -480  -517  -481  -381  -326  -335  -337  -311  -281  -269  -293  -344  -403  -460  -504  -526  -530  -513  -458  -357  -251  -206  -229  -281  -330  -364  -384  -407  -443  -487  -532  -578  -609  -605  -579  -549  -506  -422  -292  -170  -135  -174  -219  -230  -177  -58  59  117  121  103  83  62  36  12  -2  -5  12  56  109  136  119  79  47  32  22  8  -4  -13  -19  -6  46  139  232  281  277  234  175  112  49  -5  -45  -85  -127  -175  -246  -331  -391  -404  -377  -339  -340  -403  -477  -484  -396  -285  -255  -316  -381  -392  -369  -351  -343  -314  -221  -45  167  337  449  538  615  667  701  734  768  792  778  688  507  286  122  46  8  -65  -202  -354  -444  -454  -428  -404  -381  -355  -331  -313  -322  -418  -644  -913  -1077  -1069  -777  0  1358  3131  4860  5972  6046  5028  3297  1424  -78  -898  -1109  -1085  -1086  -1098  -1051  -964  -884  -828  -796  -780  -777  -801  -857  -923  -963  -969  -964  -957  -930  -868  -795  -740  -692  -631  -577  -543  -518  -476  -408  -332  -275  -243  -211  -151  -70  0  45  79  151  340  659  994  1219  1324  1375  1442  1568  1750  1951  2138  2281  2356  2354  2286  2179  2077  1999  1905  1739  1514  1302  1093  817  516  315  217  96  -114  -346  -507  -584  -624  -684  -808  -987  -1141  -1193  -1157  -1108  -1087  -1076  -1038  -954  -845  -739  -657  -611  -616  -663  -720  -760  -782  -787  -772  -729  -666  -604  -553  -512  -499  -533  -603  -693  -785  -846  -855  -821  -765  -690  -578  -446  -352  -322  -327  -331  -321  -313  -356  -496  -695  -834  -807  -598  -331  -189  -229  -365  -491  -559  -573  -565  -557  -547  -533  -525  -544  -589  -638  -677  -701  -704  -682  -640  -601  -568  -521  -463  -418  -403  -421  -458  -493  -509  -505  -507  -522  -528  -506  -456  -391  -313  -217  -115  -25  34  50  42  69  157  259  318  330  335  371  438  496  497  419  289  134  -59  -278  -451  -555  -624  -649  -602  -511  -426  -361  -313  -317  -465  -805  -1210  -1487  -1541  -1335  -827  8  1175  2621  4142  5351  5820  5331  4040  2398  880  -227  -875  -1129  -1130  -1096  -1115  -1091  -996  -903  -844  -810  -791  -778  -773  -779  -801  -842  -880  -879  -826  -748  -689  -667  -664  -667  -674  -685  -689  -652  -544  -387  -247  -181  -188  -239  -333  -426  -401  -244  -75  37  138  269  411  537  676  875  1130  1370  1529  1603  1637  1683  1776  1903  2004  2037  2024  2032  2095  2135  1998  1586  983  410  37  -107  -91  -13  78  183  269  257  123  -65  -222  -291  -280  -258  -276  -337  -414  -456  -430  -363  -273  -139  18  132  154  61  -139  -372  -533  -596  -598  -568  -503  -394  -264  -160  -88  41  341  758  1053  966  416  -350  -901  -1020  -812  -497  -241  -77  25  57  17  -22  3  80  158  194  150  33  -106  -237  -343  -393  -375  -311  -241  -189  -138  -56  45  114  116  53  -51  -161  -252  -324  -351  -308  -228  -162  -119  -92  -77  -71  -77  -105  -179  -307  -449  -552  -587  -564  -511  -446  -377  -309  -243  -175  -106  -54  -70  -195  -378  -496  -457  -321  -235  -244  -266  -234  -144  -27  77  128  66  -146  -439  -659  -730  -673  -526  -353  -238  -200  -189  -158  -99  -31  27  71  90  59  -44  -187  -295  -339  -331  -275  -148  50  270  442  542  599  646  673  654  573  412  155  -181  -519  -747  -816  -783  -731  -691  -652  -599  -555  -567  -638  -710  -736  -734  -762  -861  -983  -967  -625  112  1230  2693  4370  5903  6755  6497  5109  3020  897  -643  -1331  -1370  -1180  -980  -797  -672  -656  -736  -862  -970  -1029  -1050  -1052  -1045  -1028  -999  -970  -958  -956  -945  -933  -934  -942  -915  -805  -618  -432  -320  -304  -355  -408  -413  -374  -315  -264  -238  -224  -179  -70  93  264  404  543  757  1063  1355  1516  1540  1510  1531  1688  1981  2294  2506  2583  2526  2320  2010  1738  1602  1552  1483  1368  1230  1058  846  636  467  338  236  171  157  163  151  124  104  94  88  86  100  132  171  194  170  71  -80  -216  -276  -224  -46  190  360  398  331  220  116  47  26  61  143  237  302  322  307  262  202  148  117  107  111  127  157  165  89  -49  -132  -100  -16  54  87  80  52  15  -40  -152  -350  -588  -767  -860  -908  -927  -924  -941  -1011  -1126  -1245  -1325  -1355  -1361  -1358  -1327  -1243  -1129  -1046  -1022  -1040  -1090  -1175  -1272  -1325  -1308  -1252  -1205  -1188  -1202  -1247  -1305  -1345  -1338  -1277  -1193  -1133  -1106  -1087  -1066  -1053  -1054  -1054  -1029  -973  -908  -875  -886  -917  -947  -975  -998  -1004  -991  -963  -909  -811  -689  -596  -529  -439  -329  -262  -263  -289  -275  -185  -39  96  183  218  224  220  206  161  53  -118  -303  -448  -550  -636  -730  -838  -914  -893  -794  -708  -675  -677  -723  -863  -1113  -1389  -1573  -1651  -1665  -1533  -1105  -305  908  2524  4280  5605  5926  5039  3228  1146  -524  -1451  -1696  -1522  -1212  -949  -777  -670  -597  -519  -423  -342  -295  -259  -222  -198  -189  -187  -180  -162  -143  -135  -136  -128  -83  5  88  92  19  -66  -118  -134  -99  8  164  296  368  397  416  445  494  570  685  820  935  1062  1271  1534  1738  1864  2022  2288  2582  2770  2801  2698  2504  2274  2076  1950  1894  1865  1806  1681  1506  1310  1086  816  548  333  149  -25  -128  -125  -98  -135  -228  -308  -329  -286  -201  -129  -119  -166  -238  -294  -304  -272  -245  -294  -419  -501  -445  -299  -181  -140  -145  -153  -149  -137  -139  -176  -247  -317  -355  -362  -360  -345  -288  -176  -46  51  95  88  56  29  20  14  -10  -60  -117  -138  -107  -62  -54  -111  -224  -350  -447  -487  -444  -299  -103  45  107  111  85  30  -41  -94  -98  -49  27  67  38  -18  -72  -110  -68  60  179  224  216  199  187  176  165  158  158  166  168  152  124  100  90  100  120  147  194  273  382  501  603  675  727  751  709  577  370  111  -157  -378  -509  -560  -570  -577  -586  -581  -561  -543  -545  -581  -658  -752  -824  -862  -896  -986  -1147  -1227  -1002  -409  558  1965  3629  5056  5808  5666  4562  2720  728  -808  -1633  -1817  -1617  -1331  -1127  -1042  -1051  -1093  -1121  -1127  -1123  -1122  -1125  -1111  -1064  -988  -922  -919  -972  -1037  -1089  -1123  -1120  -1065  -967  -867  -802  -774  -771  -780  -760  -640  -412  -173  -24  18  4  -6  31  142  311  490  653  840  1067  1273  1392  1440  1488  1589  1752  1943  2093  2152  2119  2029  1907  1758  1590  1428  1273  1108  939  791  655  494  296  97  -68  -191  -265  -292  -302  -346  -466  -634  -765  -816  -811  -781  -742  -697  -651  -627  -652  -732  -842  -907  -831  -633  -442  -335  -304  -323  -377  -464  -573  -670  -723  -721  -661  -552  -434  -351  -317  -328  -366  -417  -465  -496  -513  -528  -549  -569  -587  -607  -618  -610  -591  -566  -540  -529  -558  -634  -725  -787  -806  -803  -794  -779  -753  -713  -660  -624  -626  -638  -616  -573  -545  -543  -569  -635  -729  -812  -854  -852  -827  -806  -791  -762  -720  -695  -705  -724  -706  -620  -473  -315  -210  -173  -179  -202  -226  -242  -252  -289  -387  -512  -567  -497  -359  -267  -273  -335  -391  -418  -421  -390  -300  -169  -57  0  19  24  17  -11  -79  -194  -345  -498  -609  -657  -653  -604  -512  -409  -343  -321  -318  -321  -352  -429  -511  -525  -471  -422  -424  -472  -524  -542  -508  -418  -302  -215  -173  -163  -169  -183  -196  -214  -260  -348  -455  -535  -563  -535  -449  -333  -253  -279  -436  -653  -814  -864  -838  -797  -827  -1019  -1347  -1627  -1646  -1292  -556  582  2125  3830  5170  5607  4869  3064  774  -1107  -2040  -2142  -1835  -1534  -1460  -1553  -1672  -1774  -1861  -1897  -1849  -1736  -1619  -1534  -1474  -1423  -1374  -1328  -1297  -1306  -1358  -1425  -1470  -1480  -1472  -1469  -1474  -1469  -1416  -1277  -1069  -878  -777  -759  -765  -755  -731  -713  -713  -722  -715  -673  -603  -497  -299  5  362  727  1051  1242  1276  1239  1208  1181  1128  1057  1009  1002  1003  952  817  633  463  324  189  51  -78  -206  -332  -425  -472  -492  -502  -500  -488  -469  -412  -269  -58  140  283  384  454  507  554  587  598  597  593  592  597  610  625  621  590  545  527  545  556  547  563  637  736  807  830  824  813  803  778  734  695  680  684  699  724  776  888  1057  1244  1417  1552  1616  1579  1429  1225  1079  1062  1164  1318  1441  1494  1495  1491  1567  1792  2102  2335  2417  2409  2382  2361  2347  2344  2369  2435  2529  2623  2709  2787  2867  3009  3264  3560  3763  3834  3845  3868  3910  3943  3954  3951  3945  3943  3962  4018  4100  4178  4252  4353  4488  4610  4671  4677  4676  4712  4809  4983  5230  5456  5529  5449  5342  5287  5280  5306  5378  5495  5640  5817  6050  6318  6538  6667  6755  6857  6952  6995  6990  6983  6986  6982  6999  7092  7245  7379  7503  7736  8143  8597  8901  9014  9054  9128  9245  9371  9551  9906  10443  10955  11224  11162  10771  10179  9605  9141  8687  8134  7510  6903  6338  5796  5279  4740  4096  3369  2644  1884  1009  12  -1071  -2114  -2935  -3498  -3883  -4144  -4265  -4167  -3760  -2922  -1573  8  1170  1320  244  -1896  -4559  -6989  -8722  -9750  -10257  -10463  -10602  -10794  -10990  -11164  -11406  -11746  -12074  -12284  -12383  -12465  -12624  -12895  -13241  -13565  -13783  -13910  -14043  -14228  -14409  -14528  -14586  -14607  -14602  -14576  -14535  -14475  -14385  -14271  -14153  -14027  -13841  -13534  -13129  -12730  -12421  -12197  -11972  -11644  -11199  -10690  -10137  -9555  -9024  -8609  -8296  -8011  -7685  -7341  -7043  -6783  -6508  -6230  -6015  -5893  -5829  -5749  -5607  -5440  -5332  -5309  -5325  -5334  -5325  -5313  -5299  -5257  -5162  -5024  -4881  -4768  -4665  -4534  -4371  -4208  -4061  -3911  -3723  -3475  -3202  -2970  -2797  -2661  -2549  -2465  -2413  -2357  -2228  -1979  -1625  -1246  -964  -831  -773  -685  -549  -411  -298  -204  -127  -48  79  274  490  644  704  705  725  823  988  1153  1277  1386  1516  1658  1764  1785  1711  1578  1441  1338  1289  1310  1403  1533  1637  1693  1730  1789  1866  1932  1984  2040  2095  2126  2132  2126  2120  2116  2113  2110  2107  2103  2109  2133  2174  2224  2280  2340  2405  2468  2483  2397  2227  2058  1959  1928  1930  1963  2055  2200  2351  2480  2588  2674  2752  2840  2932  2997  3005  2955  2897  2887  2925  2962  2967  2950  2936  2938  2946  2952  2954  2941  2875  2706  2459  2214  1998  1807  1667  1594  1560  1541  1524  1498  1451  1390  1329  1272  1227  1189  1137  1177  1526  2284  3460  5069  6891  8395  9110  8830  7546  5529  3403  1814  1055  1044  1413  1741  1895  2002  2151  2319  2456  2530  2549  2541  2522  2493  2460  2439  2440  2456  2467  2463  2449  2432  2425  2436  2471  2541  2649  2753  2798  2774  2731  2717  2754  2817  2840  2794  2724  2679  2663  2671  2709  2790  2896  2998  3115  3281  3476  3649  3761  3814  3832  3830  3813  3783  3748  3730  3744  3763  3706  3480  3104  2712  2395  2146  1952  1797  1627  1397  1107  794  520  323  197  113  34  -54  -133  -193  -264  -355  -442  -512  -567  -576  -522  -463  -476  -585  -735  -847  -903  -939  -967  -986  -1007  -1031  -1048  -1057  -1059  -1056  -1058  -1069  -1084  -1099  -1113  -1126  -1142  -1157  -1155  -1107  -1010  -905  -838  -820  -842  -900  -973  -1025  -1041  -1031  -1009  -1002  -1061  -1220  -1403  -1455  -1343  -1199  -1135  -1131  -1112  -1037  -928  -825  -770  -804  -912  -1021  -1093  -1130  -1137  -1123  -1092  -1045  -995  -944  -871  -789  -726  -697  -697  -717  -736  -736  -718  -687  -648  -593  -531  -488  -476  -481  -478  -451  -400  -332  -246  -157  -94  -64  -39  0  37  42  1  -70  -149  -230  -349  -554  -809  -1013  -1118  -1154  -1162  -1167  -1178  -1190  -1194  -1190  -1185  -1194  -1244  -1381  -1640  -1946  -2060  -1731  -902  369  1981  3561  4587  4770  4020  2479  692  -743  -1565  -1802  -1687  -1587  -1673  -1737  -1606  -1415  -1333  -1360  -1429  -1492  -1534  -1563  -1595  -1641  -1681  -1668  -1597  -1516  -1461  -1402  -1299  -1166  -1063  -1028  -1049  -1082  -1086  -1051  -987  -900  -767  -590  -412  -268  -161  -88  -51  -42  -29  27  159  367  602  796  918  987  1064  1210  1437  1665  1794  1792  1698  1559  1415  1292  1189  1082  969  871  793  700  536  311  103  -34  -101  -109  -98  -144  -308  -552  -759  -854  -860  -838  -826  -846  -908  -994  -1062  -1087  -1053  -946  -792  -631  -482  -376  -369  -447  -535  -591  -630  -688  -783  -869  -867  -762  -620  -498  -422  -400  -413  -427  -427  -425  -423  -396  -337  -291  -300  -356  -429  -499  -558  -601  -610  -586  -570  -585  -600  -573  -516  -478  -479  -502  -521  -524  -510  -472  -424  -405  -427  -476  -536  -560  -546  -531  -486  -401  -341  -334  -347  -355  -360  -369  -382  -396  -414  -434  -448  -438  -395  -332  -280  -262  -291  -380  -500  -592  -626  -603  -520  -374  -207  -95  -85  -140  -167  -111  9  131  207  230  230  236  247  243  207  129  24  -79  -184  -295  -384  -438  -476  -518  -594  -708  -824  -899  -920  -883  -791  -678  -598  -586  -657  -809  -1009  -1180  -1218  -953  -184  1139  2842  4602  5975  6496  5932  4484  2636  842  -524  -1228  -1380  -1254  -985  -689  -504  -430  -371  -278  -182  -114  -76  -52  -27  4  31  41  27  -4  -44  -103  -181  -221  -154  15  204  332  381  387  391  433  535  680  812  884  899  889  876  869  884  953  1088  1272  1474  1676  1861  2013  2112  2150  2160  2229  2427  2709  2932  3013  2974  2868  2737  2587  2393  2168  1989  1882  1780  1624  1437  1249  1045  839  695  618  550  452  346  276  254  257  263  271  285  296  273  173  5  -142  -185  -145  -96  -102  -232  -502  -795  -970  -1016  -1007  -1001  -1005  -1003  -981  -931  -857  -789  -758  -767  -810  -865  -888  -852  -796  -768  -773  -790  -800  -789  -755  -711  -676  -655  -646  -646  -658  -682  -687  -626  -492  -379  -398  -544  -716  -849  -948  -1029  -1074  -1045  -915  -728  -576  -516  -543  -642  -772  -861  -834  -666  -427  -257  -255  -424  -674  -871  -946  -904  -766  -585  -437  -351  -321  -343  -391  -433  -455  -475  -533  -654  -810  -932  -976  -950  -889  -791  -638  -461  -342  -322  -378  -461  -532  -575  -584  -547  -471  -368  -268  -222  -277  -430  -595  -658  -608  -534  -500  -490  -473  -443  -431  -464  -521  -565  -585  -591  -590  -568  -507  -420  -346  -305  -292  -292  -280  -233  -152  -56  50  171  297  394  404  299  137  32  33  94  148  174  183  185  181  164  127  67  -7  -88  -176  -270  -360  -424  -443  -423  -416  -462  -554  -653  -732  -793  -831  -793  -660  -420  67  973  2316  3935  5474  6427  6398  5351  3627  1749  185  -772  -1077  -940  -664  -453  -381  -422  -542  -736  -954  -1103  -1152  -1147  -1124  -1074  -991  -895  -806  -721  -626  -535  -474  -433  -363  -241  -106  -19  -38  -202  -477  -741  -884  -899  -831  -717  -590  -460  -310  -130  44  178  275  374  513  697  903  1128  1400  1682  1863  1863  1698  1467  1301  1261  1330  1462  1599  1691  1731  1725  1674  1579  1450  1295  1120  903  595  213  -140  -384  -520  -584  -607  -608  -596  -584  -579  -569  -522  -430  -329  -264  -238  -220  -192  -167  -174  -247  -366  -464  -512  -529  -533  -525  -481  -379  -243  -136  -102  -125  -148  -116  -20  86  114  16  -155  -295  -350  -351  -337  -321  -298  -261  -208  -135  -40  66  156  216  255  275  263  197  76  -76  -223  -331  -385  -384  -330  -251  -179  -116  -33  81  192  248  241  220  212  205  197  197  197  164  86  4  -29  -10  29  49  37  5  -45  -106  -152  -173  -174  -150  -86  -1  52  39  -23  -71  -75  -69  -67  -62  -93  -173  -249  -291  -329  -381  -421  -396  -253  1  269  441  504  506  480  428  364  314  289  286  326  434  573  646  595  466  350  278  215  126  17  -88  -180  -274  -380  -450  -468  -504  -597  -684  -710  -695  -692  -720  -771  -898  -1150  -1331  -1122  -398  762  2188  3693  5046  5895  5903  4945  3200  1137  -629  -1664  -1959  -1813  -1548  -1345  -1199  -1038  -885  -799  -770  -760  -768  -798  -823  -805  -754  -725  -748  -804  -867  -935  -1026  -1131  -1192  -1163  -1059  -928  -822  -768  -753  -734  -676  -591  -518  -468  -395  -250  -65  67  108  96  84  114  226  437  692  909  1097  1304  1501  1646  1768  1899  2017  2111  2188  2210  2080  1748  1335  1030  870  752  599  394  174  10  -71  -115  -186  -324  -495  -623  -692  -751  -825  -876  -873  -840  -818  -827  -860  -893  -901  -881  -853  -843  -839  -812  -775  -753  -748  -748  -742  -725  -701  -686  -685  -689  -675  -616  -515  -432  -415  -443  -473  -479  -446  -390  -334  -290  -270  -273  -280  -273  -253  -236  -230  -230  -230  -229  -239  -270  -313  -345  -355  -357  -368  -389  -409  -417  -419  -435  -484  -558  -625  -652  -627  -554  -457  -376  -338  -332  -337  -341  -341  -336  -320  -300  -283  -276  -271  -264  -261  -284  -355  -458  -531  -505  -347  -110  91  206  258  279  297  333  381  407  392  358  337  325  282  165  -30  -263  -467  -583  -594  -545  -503  -497  -519  -546  -571  -600  -627  -652  -709  -813  -893  -789  -362  417  1542  2943  4365  5421  5755  5175  3757  1897  156  -1040  -1530  -1429  -1090  -854  -788  -782  -780  -800  -840  -873  -855  -745  -567  -402  -315  -303  -325  -340  -334  -317  -310  -326  -363  -405  -424  -409  -399  -409  -383  -275  -129  -17  41  65  86  163  327  523  655  694  691  699  730  776  858  1031  1302  1601  1853  2019  2101  2171  2304  2473  2549  2440  2156  1810  1545  1404  1309  1185  1033  897  774  625  460  351  331  357  341  182  -149  -544  -851  -1010  -1044  -986  -877  -747  -615  -501  -433  -417  -436  -461  -456  -382  -213  4  152  106  -190  -638  -1014  -1190  -1204  -1097  -867  -571  -339  -227  -176  -128  -86  -66  -59  -55  -61  -100  -194  -339  -484  -571  -588  -569  -542  -504  -449  -380  -309  -250  -215  -199  -178  -129  -55  -6  -64  -284  -588  -817  -899  -877  -789  -648  -481  -336  -249  -218  -213  -211  -213  -229  -262  -302  -336  -376  -448  -538  -602  -624  -626  -623  -603  -549  -470  -398  -348  -316  -300  -312  -360  -433  -489  -478  -358  -141  82  202  132  -153  -542  -832  -943  -937  -850  -664  -417  -219  -123  -92  -74  -51  -21  8  40  91  180  290  372  388  326  194  49  -35  -36  4  11  -47  -126  -182  -224  -264  -291  -299  -297  -310  -362  -441  -521  -592  -650  -709  -810  -953  -1066  -1096  -986  -595  161  1277  2757  4462  5947  6660  6255  4715  2473  323  -1096  -1638  -1532  -1178  -903  -816  -839  -803  -646  -472  -382  -367  -384  -422  -504  -646  -820  -945  -970  -933  -885  -834  -768  -676  -561  -454  -383  -355  -355  -351  -309  -240  -225  -307  -416  -478  -498  -505  -474  -340  -77  247  535  741  882  983  1061  1163  1362  1667  1969  2148  2200  2191  2149  2046  1872  1685  1554  1495  1484  1492  1483  1409  1245  1035  854  711  540  261  -103  -409  -556  -577  -543  -479  -390  -304  -251  -230  -221  -211  -198  -184  -167  -160  -206  -349  -550  -711  -784  -790  -761  -711  -631  -511  -384  -296  -248  -205  -145  -65  39  164  265  264  83  -257  -603  -797  -810  -712  -589  -505  -440  -322  -139  44  173  240  270  281  272  227  145  39  -65  -147  -189  -194  -179  -165  -160  -159  -160  -165  -176  -191  -203  -209  -205  -186  -151  -115  -112  -161  -236  -306  -379  -460  -523  -548  -532  -486  -433  -385  -338  -309  -320  -362  -401  -406  -363  -285  -197  -131  -114  -184  -367  -602  -767  -805  -749  -650  -548  -463  -394  -305  -158  12  139  202  215  168  58  -72  -171  -223  -245  -251  -232  -188  -156  -180  -264  -338  -307  -178  -39  71  168  224  152  -110  -476  -741  -774  -595  -326  -107  10  71  113  146  174  213  272  338  387  402  359  242  88  -30  -92  -121  -134  -142  -163  -212  -277  -330  -358  -366  -367  -380  -414  -470  -532  -584  -626  -670  -740  -895  -1175  -1444  -1384  -745  486  2114  3815  5288  6327  6767  6443  5230  3208  848  -1055  -1925  -1876  -1422  -972  -758  -812  -979  -1108  -1149  -1099  -973  -820  -693  -617  -621  -722  -863  -955  -975  -951  -912  -858  -771  -666  -596  -581  -583  -543  -427  -270  -129  -8  131  283  371  315  112  -110  -180  -81  62  171  253  329  447  668  990  1345  1677  1952  2144  2275  2339  2270  2068  1852  1733  1711  1712  1642  1425  1085  762  580  528  520  504  470  400  262  86  -37  -72  -75  -154  -386  -706  -948  -1041  -1032  -967  -858  -732  -631  -584  -582  -591  -582  -558  -537  -528  -526  -527  -537  -567  -608  -641  -656  -654  -623  -545  -440  -367  -356  -373  -380  -377  -372  -369  -373  -393  -429  -475  -519  -554  -577  -588  -584  -575  -573  -582  -583  -540  -431  -295  -223  -262  -375  -471  -493  -454  -406  -379  -373  -380  -382  -354  -280  -181  -112  -110  -170  -254  -319  -356  -387  -408  -411  -406  -417  -449  -472  -461  -439  -433  -434  -417  -374  -330  -309  -311  -319  -316  -285  -214  -125  -62  -30  1  46  84  96  84  72  95  180  310  441  542  607  624  580  477  332  187  95  45  -49  -252  -508  -688  -730  -667  -556  -443  -353  -305  -298  -324  -368  -422  -514  -705  -969  -1135  -987  -405  568  1784  3109  4398  5347  5568  4860  3359  1476  -256  -1386  -1790  -1707  -1420  -1110  -904  -833  -823  -793  -737  -694  -683  -691  -702  -711  -709  -670  -587  -527  -578  -716  -825  -852  -837  -814  -788  -743  -666  -541  -356  -158  -24  32  58  98  168  245  309  356  382  385  388  437  581  833  1155  1471  1722  1899  2023  2099  2126  2124  2116  2111  2108  2110  2115  2121  2103  2008  1788  1487  1205  970  757  589  490  393  202  -62  -284  -389  -403  -395  -411  -462  -510  -521  -516  -533  -561  -576  -595  -655  -743  -798  -786  -727  -655  -582  -511  -437  -361  -297  -265  -283  -361  -479  -589  -654  -657  -587  -444  -270  -139  -83  -78  -93  -126  -183  -257  -319  -340  -300  -194  -69  11  37  29  -14  -120  -286  -444  -531  -548  -535  -522  -516  -514  -515  -523  -540  -548  -502  -374  -214  -131  -178  -297  -393  -426  -410  -362  -302  -263  -274  -343  -439  -509  -534  -531  -518  -494  -465  -447  -450  -469  -482  -472  -444  -404  -372  -395  -464  -504  -492  -463  -446  -447  -451  -420  -326  -195  -84  -24  -7  -10  -17  -21  -23  -21  15  141  365  598  734  719  549  292  73  -38  -102  -219  -392  -537  -600  -610  -614  -612  -599  -609  -686  -836  -1014  -1128  -1083  -891  -740  -780  -843  -568  332  1951  3979  5729  6586  6292  4911  2836  718  -818  -1493  -1426  -985  -568  -414  -519  -710  -847  -906  -919  -916  -893  -835  -751  -672  -613  -559  -495  -436  -443  -541  -664  -744  -768  -747  -704  -662  -620  -548  -435  -317  -257  -268  -288  -251  -149  -4  157  298  376  362  252  86  -33  27  369  917  1415  1686  1790  1870  1979  2087  2167  2195  2160  2092  2018  1901  1672  1329  994  774  648  545  442  346  257  167  75  -9  -74  -127  -192  -273  -346  -416  -521  -684  -875  -1023  -1075  -1013  -850  -654  -520  -476  -485  -501  -495  -452  -383  -308  -243  -209  -238  -348  -496  -606  -649  -652  -630  -558  -430  -303  -242  -235  -215  -156  -105  -117  -183  -271  -354  -407  -425  -425  -421  -406  -367  -312  -265  -237  -221  -217  -217  -206  -175  -154  -190  -303  -480  -668  -794  -840  -843  -840  -825  -759  -629  -480  -384  -360  -373  -389  -378  -315  -205  -93  -21  10  27  30  -26  -197  -433  -615  -686  -682  -642  -567  -467  -359  -259  -184  -146  -139  -146  -154  -160  -167  -184  -223  -291  -384  -486  -577  -640  -664  -640  -558  -438  -335  -285  -274  -273  -270  -266  -270  -283  -292  -267  -191  -94  -19  19  27  -13  -127  -286  -402  -375  -136  262  637  836  863  784  644  474  305  154  33  -49  -99  -139  -214  -356  -523  -635  -670  -664  -647  -611  -550  -504  -556  -775  -1127  -1406  -1419  -1203  -858  -351  397  1508  3103  4972  6508  7078  6339  4426  2038  106  -845  -979  -814  -760  -896  -1032  -1011  -916  -872  -872  -878  -878  -870  -850  -819  -781  -743  -717  -711  -712  -699  -671  -658  -679  -699  -671  -595  -502  -426  -386  -373  -358  -325  -281  -242  -211  -164  -75  67  249  412  500  512  491  503  618  876  1239  1595  1832  1945  2006  2055  2099  2144  2187  2216  2212  2150  2019  1827  1595  1362  1185  1074  973  827  628  410  225  92  -13  -115  -224  -325  -379  -382  -375  -399  -458  -527  -576  -609  -640  -653  -606  -502  -397  -332  -307  -307  -318  -328  -336  -351  -382  -428  -482  -525  -526  -463  -341  -210  -135  -126  -146  -173  -207  -260  -325  -377  -404  -420  -432  -431  -414  -389  -372  -371  -376  -367  -324  -249  -167  -112  -99  -138  -234  -355  -441  -480  -502  -522  -523  -477  -386  -299  -262  -284  -347  -409  -437  -439  -435  -432  -425  -409  -392  -375  -356  -347  -358  -374  -381  -380  -379  -383  -393  -405  -419  -431  -436  -431  -420  -412  -409  -409  -402  -373  -322  -285  -293  -324  -341  -340  -343  -375  -440  -499  -503  -438  -349  -308  -330  -360  -365  -359  -359  -364  -357  -325  -276  -230  -204  -198  -191  -168  -134  -109  -104  -108  -105  -92  -68  -12  96  251  403  501  532  523  490  428  351  283  225  149  38  -111  -296  -476  -597  -647  -655  -650  -643  -639  -645  -670  -712  -754  -796  -871  -996  -1091  -979  -519  316  1533  3073  4629  5737  6055  5425  3915  1907  -56  -1463  -2029  -1857  -1289  -725  -453  -459  -559  -650  -708  -732  -732  -729  -732  -741  -746  -740  -723  -701  -671  -632  -592  -572  -579  -587  -540  -392  -186  -32  18  0  -50  -103  -121  -77  18  134  232  286  295  279  269  311  462  731  1027  1235  1345  1441  1591  1785  1966  2113  2257  2402  2491  2481  2384  2212  1964  1667  1389  1200  1103  1031  911  712  472  266  127  42  -43  -183  -347  -462  -523  -561  -594  -621  -629  -604  -562  -520  -477  -446  -439  -446  -448  -445  -447  -476  -537  -602  -660  -721  -773  -790  -762  -696  -616  -556  -520  -493  -471  -456  -447  -447  -470  -531  -612  -670  -681  -654  -615  -589  -588  -611  -645  -674  -687  -668  -607  -529  -490  -525  -617  -724  -817  -885  -925  -943  -952  -935  -854  -730  -633  -585  -562  -545  -522  -494  -467  -443  -422  -407  -400  -403  -414  -435  -462  -495  -532  -569  -575  -527  -447  -376  -316  -256  -186  -97  4  86  124  118  83  46  39  92  210  358  472  511  468  351  207  104  59  44  26  -29  -151  -311  -445  -518  -541  -534  -507  -473  -448  -445  -473  -541  -654  -797  -933  -1021  -1013  -833  -408  304  1357  2777  4352  5553  5884  5205  3667  1637  -272  -1477  -1814  -1559  -1132  -845  -753  -674  -493  -320  -290  -416  -606  -748  -804  -803  -747  -611  -433  -299  -250  -252  -263  -271  -274  -268  -244  -198  -142  -95  -59  -22  4  3  -18  -26  19  135  282  391  451  496  546  592  655  808  1082  1385  1587  1652  1649  1683  1819  2017  2163  2187  2105  1987  1897  1852  1821  1758  1632  1423  1108  728  393  160  -13  -168  -288  -360  -411  -469  -541  -637  -741  -811  -829  -824  -839  -891  -952  -967  -928  -868  -800  -721  -638  -557  -492  -466  -511  -636  -796  -906  -909  -790  -591  -401  -278  -211  -194  -268  -455  -675  -756  -603  -331  -135  -74  -85  -110  -133  -154  -169  -175  -175  -170  -159  -144  -146  -190  -271  -364  -449  -517  -555  -559  -539  -504  -469  -444  -418  -371  -313  -294  -336  -393  -395  -338  -268  -209  -154  -107  -82  -96  -164  -275  -378  -419  -367  -231  -72  31  55  31  -4  -42  -89  -144  -182  -192  -188  -193  -219  -246  -212  -83  77  178  201  185  164  156  181  259  367  450  484  486  488  502  519  507  443  354  297  291  282  178  -68  -376  -590  -658  -643  -615  -596  -581  -562  -551  -585  -714  -933  -1175  -1283  -1006  -204  1069  2695  4376  5668  6308  6143  5024  3125  1069  -482  -1220  -1213  -858  -648  -741  -923  -1009  -1003  -975  -969  -988  -1001  -979  -927  -854  -780  -736  -718  -670  -548  -413  -384  -497  -663  -769  -790  -778  -768  -723  -585  -358  -112  80  188  206  155  73  29  51  96  135  186  284  447  647  836  1025  1278  1612  1967  2258  2437  2514  2534  2513  2409  2180  1873  1592  1394  1277  1220  1187  1128  1029  911  799  707  638  560  436  287  174  86  -68  -359  -709  -949  -980  -839  -640  -496  -436  -422  -422  -429  -436  -416  -338  -217  -141  -175  -286  -409  -504  -563  -593  -608  -620  -631  -629  -588  -489  -356  -247  -185  -129  -33  87  182  227  220  131  -71  -344  -581  -705  -693  -581  -447  -337  -250  -184  -149  -144  -151  -155  -156  -165  -187  -217  -247  -285  -344  -426  -513  -578  -600  -583  -551  -524  -502  -478  -447  -387  -280  -143  -25  46  69  36  -69  -226  -378  -491  -576  -648  -679  -631  -523  -409  -323  -271  -235  -200  -173  -161  -155  -145  -121  -88  -62  -50  -56  -90  -159  -249  -325  -356  -359  -367  -388  -404  -407  -401  -395  -387  -359  -298  -210  -142  -143  -200  -252  -267  -261  -247  -214  -145  -50  25  33  -69  -289  -542  -715  -761  -673  -454  -183  4  63  51  32  28  40  59  72  74  64  44  25  33  111  277  486  655  736  728  657  557  471  413  355  212  -100  -515  -832  -948  -929  -862  -784  -706  -624  -542  -488  -489  -555  -662  -750  -715  -534  -354  -166  392  1591  3335  5207  6552  6797  5783  3844  1633  -199  -1196  -1233  -658  -14  350  226  -427  -1235  -1720  -1784  -1589  -1301  -1048  -899  -829  -780  -729  -687  -658  -624  -583  -556  -553  -558  -542  -483  -400  -333  -305  -322  -396  -523  -651  -706  -635  -433  -176  18  116  182  288  456  649  800  867  871  851  840  882  1054  1392  1781  2037  2115  2116  2122  2134  2129  2120  2125  2108  2043  1923  1720  1433  1118  797  458  131  -130  -307  -401  -434  -439  -440  -441  -448  -458  -444  -372  -240  -91  27  83  53  -87  -313  -535  -682  -743  -743  -705  -641  -568  -502  -437  -362  -284  -215  -149  -89  -49  -33  -46  -111  -235  -379  -482  -513  -496  -477  -470  -445  -364  -243  -146  -111  -119  -145  -178  -231  -313  -400  -456  -474  -478  -493  -523  -540  -495  -362  -184  -58  -53  -162  -320  -440  -490  -498  -497  -493  -473  -423  -366  -346  -373  -419  -468  -514  -535  -511  -439  -346  -266  -208  -169  -167  -208  -281  -374  -451  -485  -482  -455  -409  -347  -291  -275  -317  -392  -451  -472  -457  -411  -347  -291  -258  -257  -310  -424  -530  -513  -368  -205  -106  -76  -77  -75  -49  -5  48  124  244  409  570  661  646  550  438  368  344  314  210  -13  -343  -667  -858  -890  -844  -794  -744  -674  -589  -510  -425  -331  -298  -397  -630  -923  -1052  -719  244  1803  3654  5261  6090  5809  4440  2419  374  -1105  -1693  -1575  -1226  -958  -841  -825  -823  -789  -736  -690  -658  -642  -649  -684  -718  -707  -646  -575  -523  -502  -506  -515  -514  -512  -515  -517  -497  -436  -351  -286  -262  -257  -244  -205  -142  -70  11  132  285  416  507  578  643  709  790  912  1097  1346  1612  1824  1962  2073  2201  2330  2415  2443  2435  2414  2372  2267  2045  1714  1354  1044  806  616  440  281  174  112  49  -31  -117  -219  -342  -448  -500  -513  -521  -538  -555  -550  -520  -508  -549  -615  -657  -666  -664  -674  -699  -715  -685  -608  -513  -426  -360  -305  -238  -173  -151  -186  -258  -326  -360  -366  -368  -383  -405  -407  -362  -276  -194  -150  -141  -139  -133  -139  -179  -251  -334  -404  -430  -400  -360  -345  -327  -280  -232  -230  -288  -377  -451  -488  -501  -509  -521  -531  -539  -543  -537  -502  -427  -327  -253  -257  -330  -399  -411  -361  -283  -221  -198  -236  -349  -504  -617  -630  -535  -373  -227  -169  -214  -318  -420  -482  -497  -443  -294  -91  59  111  102  88  105  177  318  493  607  595  478  295  60  -199  -428  -576  -622  -583  -515  -451  -386  -321  -273  -251  -258  -319  -451  -641  -860  -1089  -1269  -1304  -1193  -1015  -723  -91  1107  2888  4911  6488  6904  5879  3746  1276  -687  -1644  -1679  -1298  -964  -816  -787  -803  -827  -832  -799  -710  -576  -453  -381  -360  -389  -487  -644  -793  -854  -811  -715  -630  -582  -556  -523  -449  -316  -167  -70  -40  -46  -62  -85  -112  -126  -114  -73  -7  75  165  259  361  495  685  931  1184  1389  1550  1695  1828  1945  2039  2095  2115  2123  2132  2131  2094  2000  1843  1647  1452  1294  1175  1064  937  771  538  234  -72  -291  -390  -410  -404  -399  -399  -399  -387  -361  -327  -301  -286  -282  -294  -334  -406  -484  -523  -519  -508  -522  -559  -587  -586  -574  -575  -580  -557  -493  -414  -359  -339  -322  -276  -211  -169  -187  -242  -260  -187  -64  19  2  -124  -299  -427  -472  -460  -402  -291  -155  -59  -40  -82  -149  -215  -272  -319  -350  -359  -354  -352  -359  -363  -353  -336  -336  -377  -441  -480  -461  -390  -299  -231  -209  -225  -295  -458  -678  -836  -839  -689  -479  -331  -283  -284  -278  -250  -209  -160  -96  -31  5  -5  -69  -175  -295  -400  -481  -533  -551  -544  -528  -513  -500  -480  -438  -368  -273  -168  -87  -50  -50  -70  -106  -176  -316  -529  -745  -871  -869  -749  -565  -401  -301  -252  -229  -207  -156  -71  22  109  187  241  243  200  157  137  132  134  152  201  271  326  337  293  200  92  2  -71  -145  -226  -322  -418  -479  -491  -473  -446  -424  -421  -465  -597  -820  -1069  -1274  -1400  -1371  -1046  -332  781  2269  3966  5480  6373  6412  5558  3963  2051  332  -860  -1403  -1379  -1067  -770  -654  -703  -786  -810  -789  -765  -748  -742  -763  -821  -900  -956  -957  -924  -880  -815  -721  -612  -518  -462  -444  -431  -394  -335  -268  -196  -117  -56  -43  -74  -109  -87  17  165  291  370  406  407  399  452  656  998  1348  1592  1722  1791  1858  1955  2077  2193  2283  2346  2367  2271  1982  1575  1244  1083  1026  992  960  922  840  688  491  294  113  -50  -193  -308  -405  -499  -577  -607  -565  -474  -390  -346  -335  -328  -301  -234  -130  -19  40  -28  -271  -601  -844  -925  -904  -838  -737  -623  -542  -513  -484  -387  -218  -55  33  59  55  11  -100  -261  -397  -463  -469  -436  -382  -331  -295  -268  -244  -230  -230  -237  -231  -180  -69  68  154  87  -186  -570  -863  -968  -933  -817  -656  -495  -377  -305  -262  -232  -200  -157  -102  -33  54  145  183  87  -166  -475  -686  -754  -733  -662  -546  -419  -331  -317  -381  -461  -460  -351  -200  -73  4  25  -51  -270  -567  -789  -866  -834  -732  -592  -463  -383  -373  -425  -478  -480  -440  -394  -348  -294  -237  -190  -164  -164  -185  -217  -247  -269  -275  -266  -246  -227  -217  -220  -212  -148  16  284  595  845  970  944  724  310  -154  -498  -676  -744  -757  -743  -721  -712  -724  -749  -763  -744  -698  -644  -581  -499  -433  -486  -789  -1325  -1828  -1955  -1532  -583  782  2450  4215  5665  6289  5737  4078  1901  52  -861  -790  -219  194  104  -340  -784  -1028  -1093  -1077  -1041  -1001  -954  -874  -734  -567  -443  -382  -328  -233  -106  1  41  -42  -299  -649  -901  -940  -788  -553  -354  -231  -146  -91  -72  -49  39  208  412  591  725  799  788  745  753  811  900  1054  1282  1527  1733  1891  2024  2143  2245  2321  2365  2383  2391  2387  2367  2304  2121  1764  1309  875  499  189  -9  -78  -73  -63  -70  -84  -73  -36  -24  -62  -111  -152  -196  -239  -286  -358  -456  -553  -603  -602  -589  -597  -609  -592  -540  -470  -407  -366  -344  -333  -349  -416  -512  -579  -569  -479  -360  -277  -240  -212  -150  -40  75  147  142  48  -128  -349  -544  -635  -620  -578  -560  -525  -450  -380  -349  -338  -313  -266  -223  -225  -279  -360  -450  -530  -576  -587  -579  -571  -568  -574  -583  -577  -538  -475  -411  -348  -281  -238  -283  -456  -696  -878  -946  -922  -818  -639  -428  -269  -216  -235  -256  -230  -144  -4  151  259  288  237  104  -69  -189  -159  47  339  559  645  651  619  524  346  135  -30  -131  -210  -324  -472  -594  -658  -697  -748  -806  -824  -770  -674  -600  -603  -698  -843  -947  -937  -756  -391  122  897  2121  3638  4978  5654  5259  3763  1726  -126  -1342  -1786  -1640  -1280  -982  -801  -692  -636  -621  -624  -628  -630  -635  -645  -650  -640  -623  -612  -618  -636  -646  -629  -591  -556  -539  -542  -549  -527  -449  -333  -239  -201  -191  -167  -129  -101  -100  -117  -116  -51  93  290  498  689  838  954  1091  1287  1514  1723  1900  2054  2193  2306  2378  2401  2379  2330  2263  2160  1999  1791  1594  1453  1313  1068  704  344  123  48  27  -25  -139  -292  -421  -483  -478  -427  -361  -311  -286  -282  -298  -342  -407  -471  -510  -515  -489  -446  -405  -371  -337  -286  -205  -136  -157  -286  -430  -486  -425  -298  -179  -108  -79  -63  -35  -1  6  -28  -91  -161  -232  -350  -557  -791  -897  -780  -510  -255  -118  -85  -97  -105  -62  50  171  193  76  -154  -463  -769  -950  -938  -744  -466  -244  -137  -109  -110  -117  -125  -128  -112  -60  23  108  148  91  -98  -358  -550  -617  -600  -546  -470  -370  -257  -174  -151  -161  -148  -98  -24  50  105  126  97  -15  -201  -376  -469  -485  -469  -453  -450  -456  -440  -334  -85  231  452  520  527  584  716  884  1032  1104  1008  682  241  -78  -185  -169  -133  -105  -92  -111  -182  -282  -355  -377  -364  -336  -301  -274  -281  -356  -512  -742  -1017  -1292  -1488  -1479  -1164  -562  316  1571  3197  4877  6098  6392  5530  3728  1614  -124  -1101  -1327  -1107  -871  -898  -1115  -1293  -1357  -1366  -1363  -1344  -1275  -1136  -971  -854  -803  -787  -774  -753  -725  -697  -689  -749  -902  -1098  -1255  -1325  -1294  -1168  -1002  -876  -815  -787  -762  -722  -652  -560  -469  -393  -324  -250  -173  -95  -21  49  116  158  144  80  0]
