reading_id,reading_time,wire_id,result_classification,heart_rate,heart_rate_alert,firmware_version,device_app_version,hardware_version,waveform_samples
34f93560-57c3-11ed-8080-808080808080,Sat Oct 29 19:52:23 UTC 2022,410163471e39,UNCLASSIFIABLE,66,NONE,20001.171.50,2.10.0,Charge 5,[1  129  74  -499  -1889  -3958  -6330  -8929  -11874  -15279  -19209  -23429  -27538  -31330  -32768  -32768  -32768  -32768  -32768  -32768  -32768  -32768  -32768  -32768  -32768  -32768  -32768  -32768  -32768  -32768  -32768  -32768  -32768  -32768  -32768  -32768  -32768  -32768  -32768  -32768  -32768  -32768  -32768  -32768  -32040  -31234  -30466  -29714  -29040  -28438  -27785  -27031  -26255  -25490  -24725  -23990  -23241  -22404  -21563  -20904  -20525  -20428  -20698  -21512  -22868  -24530  -26270  -27959  -29503  -30890  -32257  -32768  -32768  -32768  -32768  -32768  -32768  -32768  -32768  -32768  -32768  -32768  -32768  -32768  -32768  -32768  -32768  -32768  -32768  -32768  -32768  -32768  -32768  -32756  -32018  -31062  -29990  -29004  -28158  -27242  -26090  -24803  -23467  -22070  -20626  -19113  -17596  -16306  -15334  -14476  -13442  -12136  -10744  -9483  -8334  -7181  -6026  -4913  -3859  -2946  -2208  -1441  -399  821  1830  2444  2897  3509  4370  5333  6225  6994  7619  8059  8390  8807  9439  10228  10987  11540  11872  12104  12316  12491  12608  12699  12819  13005  13254  13527  13761  13916  14006  14082  14182  14340  14598  14978  15391  15682  15791  15791  15789  15837  15881  15795  15632  15739  16338  17240  18215  19291  20466  21413  21780  21437  20336  18636  16864  15529  14733  14341  14306  14568  14920  15174  15281  15298  15291  15260  15163  14973  14719  14493  14362  14311  14279  14231  14178  14151  14151  14160  14169  14167  14106  13920  13644  13398  13240  13115  12982  12870  12808  12769  12664  12417  12060  11720  11500  11401  11373  11384  11410  11429  11440  11460  11463  11414  11337  11266  11199  11136  11087  11065  11050  10966  10733  10411  10164  10067  10054  10012  9872  9650  9383  9083  8752  8387  8001  7640  7366  7212  7113  6923  6553  6108  5783  5599  5391  5054  4613  4177  3884  3775  3771  3792  3838  3947  4092  4165  4062  3754  3292  2823  2520  2418  2420  2448  2500  2566  2540  2279  1851  1526  1433  1468  1513  1547  1579  1607  1615  1597  1572  1536  1459  1325  1180  1093  1076  1067  978  774  563  514  641  793  860  828  698  463  184  -43  -200  -320  -399  -423  -393  -315  -216  -146  -134  -176  -250  -344  -473  -630  -787  -956  -1152  -1321  -1407  -1422  -1405  -1381  -1352  -1321  -1308  -1378  -1585  -1867  -2072  -2138  -2127  -2114  -2130  -2169  -2219  -2278  -2345  -2402  -2430  -2410  -2330  -2213  -2106  -2021  -1965  -1966  -2016  -2075  -2121  -2157  -2185  -2205  -2212  -2197  -2134  -2003  -1832  -1696  -1636  -1632  -1644  -1660  -1689  -1736  -1771  -1746  -1629  -1423  -1206  -1099  -1142  -1275  -1412  -1495  -1519  -1522  -1544  -1606  -1700  -1796  -1861  -1879  -1860  -1835  -1839  -1886  -1958  -2026  -2088  -2154  -2206  -2225  -2231  -2253  -2278  -2286  -2295  -2325  -2347  -2242  -1891  -1329  -548  635  2162  3609  4541  4603  3582  1716  -338  -1973  -2819  -2817  -2331  -1820  -1497  -1399  -1476  -1608  -1746  -1936  -2149  -2231  -2081  -1785  -1513  -1350  -1286  -1285  -1309  -1335  -1358  -1395  -1449  -1476  -1442  -1378  -1325  -1264  -1153  -978  -778  -619  -539  -547  -659  -863  -1033  -993  -753  -511  -407  -406  -390  -257  0  281  480  564  574  563  560  575  601  624  634  633  631  631  636  671  764  882  909  731  377  22  -184  -255  -283  -319  -378  -460  -552  -649  -746  -816  -858  -922  -1041  -1184  -1306  -1384  -1423  -1434  -1428  -1407  -1368  -1307  -1237  -1191  -1177  -1161  -1107  -1019  -937  -887  -872  -879  -883  -872  -865  -864  -854  -837  -826  -819  -815  -816  -820  -814  -774  -692  -599  -535  -513  -515  -516  -509  -501  -525  -618  -759  -876  -912  -842  -668  -483  -400  -418  -457  -474  -475  -476  -484  -488  -468  -400  -278  -137  -16  81  158  205  225  230  202  107  -50  -199  -277  -298  -321  -367  -378  -299  -174  -81  -43  -36  -38  -47  -75  -123  -179  -232  -276  -306  -316  -310  -300  -295  -286  -253  -185  -100  -34  -9  -37  -130  -271  -391  -444  -448  -455  -501  -582  -666  -729  -734  -648  -492  -316  -166  -72  -35  -45  -127  -307  -521  -619  -503  -219  77  255  307  299  271  198  59  -72  -84  41  216  361  469  563  610  570  475  373  278  183  61  -97  -263  -397  -467  -471  -449  -449  -473  -477  -418  -316  -257  -288  -357  -394  -397  -415  -496  -623  -742  -891  -1109  -1251  -1088  -464  734  2435  4228  5624  6323  6106  4880  3006  1103  -438  -1396  -1639  -1411  -1129  -897  -673  -543  -543  -586  -619  -645  -676  -716  -752  -779  -805  -816  -776  -669  -533  -436  -405  -415  -428  -435  -438  -437  -422  -374  -285  -176  -83  -19  11  7  -8  -3  23  31  -10  -76  -106  -52  84  248  376  483  649  895  1132  1265  1293  1270  1241  1227  1252  1338  1457  1546  1579  1585  1597  1624  1636  1553  1311  966  676  532  482  421  305  155  0  -129  -198  -201  -158  -102  -64  -52  -50  -50  -57  -84  -132  -182  -212  -238  -285  -338  -368  -373  -368  -365  -370  -380  -390  -397  -403  -389  -316  -195  -93  -51  -48  -47  -34  -23  -34  -66  -104  -140  -168  -179  -173  -160  -148  -135  -125  -123  -127  -121  -86  -19  55  97  80  5  -122  -275  -389  -434  -438  -431  -410  -359  -287  -226  -197  -198  -226  -276  -329  -359  -366  -368  -371  -368  -356  -338  -330  -380  -530  -744  -913  -954  -862  -709  -589  -539  -534  -544  -554  -561  -549  -493  -387  -255  -141  -75  -55  -69  -119  -222  -352  -416  -362  -258  -186  -144  -108  -79  -67  -91  -169  -282  -386  -449  -464  -437  -395  -365  -347  -323  -291  -267  -263  -278  -295  -311  -345  -395  -432  -435  -410  -374  -322  -228  -117  -74  -109  -163  -181  -136  -54  31  126  213  256  264  259  234  173  87  9  -65  -159  -267  -362  -422  -445  -446  -473  -562  -691  -784  -797  -740  -657  -592  -553  -519  -479  -439  -415  -438  -555  -744  -809  -544  116  1241  2891  4846  6525  7333  6993  5581  3542  1633  437  -48  -179  -269  -433  -530  -417  -240  -191  -227  -233  -194  -148  -111  -84  -66  -55  -45  -30  -15  -6  -2  2  12  32  72  126  159  134  61  -41  -156  -249  -291  -284  -250  -213  -174  -111  -12  132  327  527  673  755  796  810  812  827  888  1011  1181  1350  1467  1518  1522  1505  1483  1462  1442  1418  1367  1261  1118  988  870  715  508  287  90  -63  -152  -201  -275  -396  -522  -612  -680  -769  -902  -1070  -1226  -1301  -1275  -1202  -1136  -1070  -990  -922  -896  -904  -916  -912  -877  -815  -749  -687  -611  -529  -475  -458  -460  -477  -521  -597  -665  -665  -611  -567  -560  -577  -601  -618  -619  -614  -612  -609  -593  -562  -528  -502  -473  -435  -380  -308  -250  -229  -229  -222  -194  -162  -155  -188  -241  -274  -276  -276  -296  -311  -300  -275  -259  -258  -265  -275  -282  -288  -293  -290  -256  -172  -59  25  30  -64  -242  -446  -610  -697  -718  -682  -586  -449  -332  -271  -251  -252  -277  -332  -396  -437  -445  -444  -463  -497  -523  -523  -484  -388  -241  -88  18  62  55  33  19  18  31  68  147  236  266  227  177  134  54  -108  -323  -490  -564  -573  -542  -468  -367  -280  -236  -225  -231  -258  -314  -410  -547  -690  -783  -829  -907  -1072  -1252  -1281  -1044  -534  223  1221  2337  3375  4249  4814  4756  3905  2427  689  -879  -1836  -1895  -1248  -483  -69  -85  -377  -751  -1038  -1144  -1102  -1015  -932  -821  -671  -516  -386  -295  -246  -226  -219  -241  -330  -481  -631  -709  -674  -509  -275  -96  -31  -35  -36  -5  44  75  75  69  82  102  96  67  57  98  208  400  682  1013  1286  1435  1510  1590  1682  1747  1771  1771  1768  1770  1770  1753  1700  1607  1494  1394  1322  1280  1260  1233  1150  967  667  317  56  -46  -57  -79  -154  -250  -310  -320  -310  -322  -388  -496  -598  -641  -616  -548  -454  -354  -286  -264  -262  -268  -304  -377  -438  -425  -349  -283  -248  -187  -38  171  348  439  459  444  423  411  403  378  332  273  215  172  149  139  114  57  -18  -80  -110  -117  -118  -121  -119  -93  -39  20  49  17  -89  -215  -291  -312  -307  -300  -301  -307  -310  -309  -324  -380  -457  -501  -489  -433  -363  -302  -252  -207  -175  -163  -163  -175  -207  -250  -280  -285  -276  -268  -268  -275  -280  -274  -256  -238  -241  -264  -284  -292  -270  -185  -49  79  154  179  181  186  201  221  227  182  34  -222  -486  -643  -682  -666  -650  -651  -670  -693  -713  -739  -752  -729  -683  -638  -613  -636  -694  -728  -714  -688  -696  -768  -885  -944  -790  -287  679  2135  3781  5093  5658  5239  3822  1851  23  -1200  -1679  -1495  -979  -578  -514  -647  -765  -832  -895  -961  -1004  -1008  -973  -899  -779  -618  -464  -375  -354  -362  -371  -375  -375  -375  -367  -346  -312  -282  -270  -273  -268  -241  -204  -182  -172  -135  -44  70  146  161  149  169  264  422  579  695  767  801  813  833  927  1150  1443  1658  1739  1743  1734  1726  1713  1688  1644  1546  1377  1190  1048  955  885  816  734  603  390  134  -63  -154  -172  -183  -232  -310  -374  -406  -436  -502  -599  -690  -751  -788  -811  -798  -727  -628  -555  -528  -526  -527  -526  -534  -580  -680  -810  -905  -920  -823  -598  -295  -26  130  153  48  -134  -321  -473  -589  -669  -698  -662  -578  -477  -393  -347  -336  -337  -332  -326  -349  -414  -495  -556  -592  -613  -614  -595  -565  -540  -525  -520  -526  -547  -579  -610  -628  -627  -610  -569  -495  -395  -309  -267  -261  -258  -235  -198  -170  -164  -174  -188  -197  -199  -198  -204  -224  -251  -270  -276  -278  -283  -292  -298  -298  -293  -291  -289  -268  -205  -114  -34  14  30  -2  -105  -250  -367  -408  -343  -155  91  270  326  295  219  133  61  7  -36  -52  -19  69  198  318  389  411  413  416  423  413  348  215  58  -49  -88  -104  -160  -271  -389  -462  -497  -525  -532  -490  -427  -385  -363  -355  -383  -480  -627  -767  -886  -987  -990  -843  -636  -388  29  753  1932  3542  5136  6128  6144  5105  3276  1226  -397  -1242  -1416  -1202  -854  -630  -595  -579  -512  -503  -610  -764  -868  -893  -858  -756  -573  -341  -135  -40  -106  -253  -341  -342  -310  -272  -229  -186  -156  -143  -135  -110  -46  53  149  212  237  234  215  190  174  185  231  301  376  457  535  577  584  627  786  1040  1290  1476  1600  1667  1685  1685  1702  1752  1817  1853  1840  1795  1734  1647  1509  1315  1062  775  523  362  286  266  269  260  217  132  2  -157  -312  -447  -552  -605  -609  -590  -576  -571  -562  -536  -489  -437  -427  -487  -591  -688  -746  -762  -752  -737  -729  -726  -724  -716  -698  -676  -660  -652  -650  -652  -654  -648  -625  -594  -576  -575  -586  -595  -597  -594  -582  -550  -489  -423  -390  -384  -370  -346  -335  -334  -326  -298  -261  -249  -292  -382  -472  -527  -548  -549  -545  -556  -580  -580  -517  -410  -338  -346  -394  -423  -408  -353  -290  -256  -251  -252  -255  -290  -381  -486  -534  -513  -476  -458  -452  -445  -435  -424  -412  -398  -370  -306  -214  -121  -46  -7  -31  -140  -301  -437  -510  -538  -510  -408  -264  -135  -60  -41  -67  -132  -221  -300  -355  -391  -413  -421  -415  -394  -357  -300  -214  -92  43  142  182  173  117  30  -52  -107  -138  -150  -132  -71  18  91  126  150  220  353  495  557  484  297  72  -119  -259  -355  -419  -464  -500  -529  -552  -564  -567  -564  -545  -497  -435  -390  -371  -365  -365  -398  -492  -641  -812  -999  -1199  -1312  -1131  -533  433  1717  3250  4732  5731  5957  5233  3578  1461  -375  -1476  -1791  -1476  -927  -618  -639  -772  -867  -887  -811  -661  -509  -401  -338  -311  -321  -364  -419  -455  -461  -452  -447  -446  -435  -390  -294  -172  -83  -48  -41  -40  -43  -44  -28  12  54  70  73  112  222  377  514  606  667  704  728  768  833  910  990  1071  1147  1210  1260  1320  1416  1528  1605  1632  1624  1593  1548  1492  1434  1375  1285  1103  843  603  435  285  83  -159  -365  -477  -513  -525  -552  -614  -701  -780  -839  -883  -923  -958  -979  -989  -1002  -1028  -1069  -1117  -1144  -1120  -1042  -955  -889  -819  -695  -534  -407  -350  -338  -340  -384  -514  -686  -781  -735  -611  -509  -466  -461  -473  -493  -507  -495  -455  -393  -300  -175  -47  45  74  6  -170  -388  -538  -563  -471  -305  -136  -24  21  2  -85  -212  -315  -366  -384  -395  -382  -310  -176  -62  -62  -162  -273  -340  -343  -296  -229  -145  -67  -27  -23  -34  -48  -80  -147  -240  -325  -383  -400  -337  -161  74  262  348  367  374  405  457  499  518  521  503  447  360  279  228  201  193  213  272  371  487  587  678  766  835  875  893  897  893  896  912  930  951  986  1030  1070  1106  1148  1190  1212  1208  1198  1199  1212  1224  1225  1216  1210  1228  1283  1358  1416  1440  1442  1444  1450  1442  1407  1408  1553  1817  2029  2093  2048  1978  1931  1905  1874  1837  1806  1751  1618  1420  1227  1094  1028  1016  1047  1118  1203  1260  1278  1293  1345  1433  1512  1541  1524  1466  1307  1000  631  343  166  8  -310  -1033  -2106  -2892  -2678  -1370  475  2039  2633  1998  513  -1052  -2152  -2598  -2438  -1981  -1558  -1260  -1059  -936  -852  -756  -573  -189  431  1157  1799  2235  2449  2477  2278  1706  657  -769  -2299  -3615  -4477  -4846  -4937  -5013  -5157  -5292  -5335  -5235  -4950  -4542  -4178  -3972  -3908  -3900  -3819  -3549  -3110  -2681  -2401  -2227  -2010  -1696  -1391  -1193  -1061  -894  -663  -434  -287  -229  -211  -208  -237  -298  -361  -402  -418  -402  -343  -237  -115  -35  -27  -78  -155  -245  -371  -531  -674  -749  -755  -720  -667  -617  -572  -529  -495  -491  -524  -578  -628  -665  -690  -681  -614  -508  -410  -346  -303  -261  -219  -197  -212  -251  -301  -353  -391  -403  -382  -322  -246  -193  -167  -119  8  211  402  541  807  1521  2867  4671  6422  7578  7995  7921  7624  7275  6987  6736  6392  5957  5594  5408  5353  5355  5370  5346  5247  5141  5124  5163  5143  5013  4879  4919  5102  5080  4359  2589  -131  -3116  -5481  -6837  -7347  -7337  -7201  -7208  -7273  -7240  -7126  -6982  -6813  -6622  -6428  -6266  -6161  -6074  -5936  -5735  -5515  -5305  -5129  -4996  -4877  -4725  -4507  -4232  -3967  -3775  -3662  -3592  -3507  -3331  -3022  -2630  -2259  -1984  -1816  -1702  -1568  -1386  -1194  -1055  -989  -963  -938  -904  -860  -800  -725  -646  -550  -422  -272  -115  23  93  86  58  95  243  450  601  651  646  655  712  810  906  977  1031  1058  1039  978  869  700  520  407  380  400  430  453  473  496  507  512  555  664  816  961  1049  1046  940  752  554  400  291  286  567  1230  2199  3409  4807  6197  7241  7580  6919  5257  3067  1090  -90  -373  -90  349  681  816  814  781  764  764  772  770  751  731  750  854  1024  1181  1282  1353  1465  1693  2076  2558  3002  3316  3527  3681  3782  3817  3766  3600  3352  3111  2910  2689  2438  2233  2113  2028  1902  1700  1454  1225  1037  895  813  790  825  933  1105  1270  1362  1382  1378  1392  1443  1511  1572  1620  1661  1668  1593  1419  1202  1030  948  928  887  730  443  134  -95  -260  -446  -680  -903  -1044  -1098  -1097  -1075  -1058  -1072  -1137  -1257  -1418  -1606  -1796  -1941  -2018  -2059  -2104  -2147  -2165  -2164  -2173  -2199  -2242  -2308  -2389  -2448  -2431  -2300  -2087  -1898  -1810  -1813  -1869  -1944  -2013  -2069  -2114  -2129  -2070  -1905  -1694  -1550  -1515  -1534  -1563  -1616  -1718  -1833  -1863  -1722  -1440  -1162  -1011  -980  -992  -1004  -1028  -1086  -1169  -1236  -1260  -1236  -1163  -1065  -988  -952  -946  -950  -945  -918  -868  -814  -777  -748  -693  -611  -556  -557  -577  -578  -558  -523  -492  -498  -564  -670  -744  -745  -708  -681  -677  -682  -678  -654  -619  -599  -594  -552  -461  -381  -359  -384  -425  -456  -473  -482  -468  -390  -233  -62  12  -63  -233  -384  -454  -471  -508  -625  -821  -1024  -1159  -1221  -1242  -1236  -1226  -1232  -1251  -1270  -1308  -1420  -1654  -1964  -2232  -2393  -2478  -2530  -2567  -2598  -2634  -2673  -2713  -2756  -2751  -2601  -2221  -1593  -742  329  1527  2519  2904  2412  1055  -747  -2390  -3442  -3814  -3775  -3617  -3277  -2471  -996  1154  3524  5272  5972  5895  5472  5004  4674  4495  4379  4280  4194  4107  3957  3661  3262  2922  2689  2465  2182  1850  1468  1050  694  487  402  357  301  229  159  105  68  56  87  155  225  264  274  319  473  728  979  1137  1210  1251  1289  1330  1375  1423  1465  1487  1472  1402  1272  1113  978  918  946  999  970  830  625  397  172  -19  -163  -275  -385  -496  -592  -661  -702  -719  -719  -713  -708  -701  -687  -672  -671  -685  -696  -696  -681  -642  -583  -504  -407  -313  -241  -166  -60  52  117  116  78  31  -23  -81  -122  -125  -89  -30  31  82  126  187  281  389  443  396  257  78  -76  -167  -205  -235  -285  -337  -325  -223  -100  -28  8  58  143  250  336  361  362  399  450  443  342  197  95  66  76  90  100  101  79  34  -7  -25  -25  -14  31  130  247  321  360  456  684  980  1203  1293  1284  1220  1148  1110  1120  1143  1118  1011  855  696  571  504  466  395  265  104  -42  -132  -134  -28  173  390  526  524  367  81  -237  -488  -643  -726  -772  -822  -909  -1029  -1150  -1258  -1357  -1437  -1470  -1437  -1349  -1237  -1144  -1121  -1199  -1341  -1479  -1580  -1629  -1603  -1514  -1421  -1366  -1346  -1345  -1353  -1366  -1384  -1408  -1435  -1449  -1419  -1323  -1175  -1037  -965  -950  -917  -845  -900  -1164  -1334  -1053  -245  1043  2650  4200  5277  5606  5094  3855  2280  865  -162  -778  -978  -960  -969  -993  -922  -746  -543  -413  -385  -392  -371  -292  -139  53  218  347  477  610  733  884  1128  1439  1682  1773  1697  1439  1062  743  622  715  951  1208  1372  1383  1198  816  354  -3  -186  -274  -354  -428  -466  -473  -470  -472  -472  -448  -378  -267  -141  -8  137  247  245  151  73  62  80  88  81  85  137  247  340  307  158  15  -48  -57  -70  -143  -301  -497  -660  -775  -865  -904  -863  -786  -709  -606  -474  -352  -252  -158  -64  36  154  259  316  338  376  469  617  785  943  1077  1176  1247  1305  1355  1388  1430  1522  1648  1745  1789  1821  1869  1889  1772  1437  939  431  16  -264  -394  -369  -182  126  430  614  662  590  392  114  -144  -355  -573  -817  -1019  -1143  -1221  -1289  -1358  -1433  -1515  -1603  -1704  -1821  -1959  -2116  -2258  -2338  -2356  -2343  -2326  -2316  -2314  -2324  -2351  -2385  -2400  -2379  -2337  -2307  -2290  -2239  -2092  -1846  -1583  -1400  -1341  -1381  -1424  -1390  -1284  -1137  -936  -682  -439  -277  -208  -194  -196  -198  -197  -189  -176  -165  -161  -155  -122  2  311  850  1615  2553  3450  4022  4228  4259  4250  4215  4163  4136  4169  4244  4296  4201  3801  3071  2205  1462  971  700  549  458  428  443  433  337  169  -5  -141  -238  -344  -522  -789  -1113  -1431  -1677  -1845  -1970  -2071  -2155  -2219  -2258  -2273  -2277  -2277  -2273  -2264  -2249  -2238  -2240  -2261  -2290  -2308  -2308  -2310  -2358  -2509  -2752  -2961  -3034  -2932  -2517  -1663  -520  699  2005  3377  4543  5130  4788  3411  1460  -305  -1419  -1783  -1588  -1247  -1026  -902  -842  -850  -886  -905  -873  -753  -560  -376  -269  -241  -258  -298  -359  -423  -452  -437  -387  -287  -126  56  206  300  352  406  511  649  749  768  720  658  653  769  1017  1324  1583  1761  1890  1986  2040  2066  2105  2187  2313  2459  2610  2795  3086  3535  4092  4616  4988  5211  5368  5514  5649  5742  5732  5521  5063  4495  3989  3535  3012  2414  1845  1335  786  166  -384  -718  -842  -869  -899  -972  -1066  -1142  -1197  -1253  -1311  -1350  -1360  -1356  -1349  -1338  -1330  -1353  -1436  -1561  -1672  -1732  -1749  -1745  -1720  -1673  -1623  -1597  -1574  -1504  -1389  -1284  -1224  -1194  -1168  -1145  -1147  -1182  -1236  -1287  -1318  -1321  -1295  -1253  -1228  -1234  -1233  -1169  -1042  -941  -936  -1002  -1077  -1114  -1099  -1052  -986  -896  -788  -676  -568  -507  -578  -797  -1059  -1234  -1290  -1277  -1244  -1196  -1141  -1123  -1158  -1213  -1266  -1316  -1364  -1406  -1417  -1358  -1248  -1159  -1145  -1206  -1312  -1421  -1502  -1540  -1532  -1499  -1478  -1491  -1517  -1536  -1549  -1558  -1554  -1524  -1456  -1367  -1306  -1301  -1327  -1352  -1363  -1366  -1373  -1391  -1418  -1441  -1439  -1395  -1306  -1197  -1089  -978  -861  -759  -690  -658  -662  -702  -772  -851  -924  -993  -1036  -1006  -914  -830  -804  -836  -915  -1034  -1167  -1270  -1318  -1307  -1223  -1068  -894  -742  -581  -376  -158  35  200  338  451  552  703  1102  1928  3010  3920  4418  4576  4568  4524  4492  4478  4498  4584  4730  4828  4633  3938  2920  2060  1597  1421  1362  1239  927  572  499  892  1732  2903  4260  5578  6465  6440  5266  3168  723  -1359  -2527  -2760  -2537  -2292  -2122  -2006  -1898  -1727  -1519  -1375  -1331  -1343  -1364  -1382  -1410  -1463  -1538  -1614  -1663  -1656  -1541  -1283  -952  -674  -495  -395  -341  -289  -212  -110  -18  36  67  94  146  272  475  694  865  953  948  841  653  466  372  400  515  664  809  933  1022  1081  1152  1265  1404  1522  1591  1625  1665  1746  1871  1983  2007  1943  1842  1734  1653  1626  1631  1611  1530  1411  1313  1269  1259  1237  1170  1075  997  965  966  975  988  1035  1143  1283  1383  1420  1419  1409  1409  1440  1521  1658  1847  2065  2256  2358  2371  2335  2212  1881  1335  728  220  -139  -397  -625  -859  -1095  -1312  -1498  -1691  -1912  -2116  -2271  -2415  -2559  -2654  -2676  -2648  -2598  -2545  -2506  -2503  -2565  -2704  -2872  -3002  -3078  -3112  -3074  -2931  -2720  -2538  -2436  -2370  -2278  -2162  -2062  -1992  -1943  -1907  -1854  -1756  -1634  -1547  -1520  -1528  -1548  -1576  -1608  -1616  -1575  -1514  -1474  -1463  -1467  -1474  -1482  -1492  -1518  -1629  -1894  -2249  -2503  -2512  -2260  -1868  -1513  -1266  -1064  -851  -647  -502  -441  -454  -519  -603  -659  -650  -570  -458  -373  -340  -342  -363  -397  -413  -353  -209  -33  157  374  574  698  741  724  657  548  407  234  53  -77  -118  -96  -65  -50  -41  -26  -14  -39  -145  -335  -573  -834  -1086  -1287  -1421  -1477  -1470  -1540  -1825  -2170  -2225  -1845  -1102  -50  1196  2380  3224  3480  2911  1482  -394  -2050  -3046  -3306  -3013  -2551  -2195  -1836  -1094  368  2545  4902  6654  7422  7469  7239  6977  6742  6476  6068  5498  4885  4310  3752  3213  2707  2241  1856  1544  1211  842  541  372  300  268  249  227  172  51  -116  -270  -372  -419  -439  -472  -538  -614  -669  -712  -802  -994  -1252  -1457  -1506  -1372  -1084  -723  -399  -163  24  212  448  770  1128  1388  1484  1477  1460  1486  1547  1578  1534  1444  1341  1209  1035  844  687  588  534  504  487  479  475  455  392  274  139  49  22  27  37  47  62  77  86  91  111  171  298  468  607  682  717  732  729  722  733  792  891  965  943  835  722  670  684  735  806  891  975  1039  1071  1076  1074  1075  1074  1072  1072  1078  1089  1110  1149  1199  1245  1276  1298  1320  1355  1410  1469  1506  1508  1483  1430  1297  1017  585  45  -555  -1177  -1764  -2228  -2522  -2725  -2936  -3156  -3328  -3436  -3512  -3579  -3626  -3645  -3648  -3640  -3608  -3530  -3406  -3274  -3187  -3158  -3146  -3113  -3061  -3008  -2971  -2965  -2995  -3029  -3031  -3005  -2983  -3000  -3108  -3350  -3678  -3958  -4103  -4144  -4159  -4182  -4186  -4144  -4052  -3913  -3746  -3563  -3348  -3112  -2889  -2650  -2365  -2038  -1519  -485  1152  2982  4425  5250  5572  5623  5788  6439  7490  8460  8920  8570  7253  5288  3342  1877  1060  860  1013  1124  925  496  60  -325  -668  -928  -1083  -1145  -1137  -1087  -1011  -926  -870  -886  -985  -1122  -1222  -1256  -1249  -1225  -1192  -1157  -1130  -1121  -1120  -1107  -1063  -1000  -953  -947  -978  -1025  -1067  -1091  -1075  -971  -761  -506  -302  -156  11  239  464  607  673  737  868  1042  1167  1212  1239  1316  1432  1521  1551  1549  1548  1559  1573  1580  1573  1542  1473  1368  1248  1127  1008  924  905  903  863  889  1253  2163  3420  4471  4892  4673  4109  3640  3614  4044  4647  5058  4972  4298  3241  2122  1221  743  701  911  1170  1330  1319  1192  1061  940  789  596  377  139  -61  -107  10  150  209  191  129  14  -175  -392  -544  -599  -582  -506  -398  -342  -427  -665  -964  -1200  -1318  -1344  -1338  -1335  -1334  -1300  -1203  -1071  -977  -947  -946  -928  -880  -809  -698  -511  -264  -29  151  295  410  485  535  605  744  964  1205  1371  1431  1411  1315  1123  845  542  305  171  21  -347  -971  -1656  -2183  -2486  -2642  -2739  -2811  -2872  -2934  -2993  -3050  -3124  -3194  -3206  -3137  -3024  -2933  -2888  -2866  -2828  -2750  -2642  -2545  -2488  -2468  -2474  -2529  -2672  -2900  -3127  -3248  -3252  -3209  -3166  -3130  -3145  -3324  -3724  -4203  -4528  -4635  -4625  -4589  -4549  -4492  -4423  -4376  -4384  -4444  -4538  -4638  -4596  -4177  -3395  -2499  -1490  -100  1838  4258  6774  8644  9162  8196  6334  4554  3567  3414  3741  4195  4511  4537  4291  3899  3486  3135  2865  2637  2393  2097  1732  1285  792  352  35  -171  -298  -373  -427  -470  -498  -513  -525  -545  -600  -730  -927  -1106  -1179  -1088  -805  -408  -52  188  341  445  521  585  651  719  776  815  847  906  1015  1148  1255  1312  1329  1339  1379  1461  1562  1637  1652  1618  1565  1461  1229  863  483  220  103  76  80  83  81  77  74  79  99  121  114  71  41  69  141  224  309  406  533  687  823  894  908  901  901  912  941  997  1074  1149  1202  1228  1236  1235  1233  1229  1227  1254  1337  1459  1578  1684  1791  1904  2013  2101  2170  2238  2279  2265  2226  2224  2317  2520  2759  2935  3029  3078  3092  3049  2928  2698  2326  1855  1413  1105  996  1160  1605  2191  2810  3492  4140  4430  4069  2874  833  -1612  -3697  -4910  -5207  -4807  -4147  -3677  -3498  -3464  -3456  -3432  -3404  -3388  -3370  -3313  -3183  -2991  -2804  -2690  -2655  -2662  -2677  -2685  -2671  -2608  -2470  -2285  -2130  -2042  -1978  -1884  -1756  -1626  -1524  -1435  -1324  -1185  -1029  -849  -616  -273  210  766  1258  1592  1752  1783  1750  1698  1636  1565  1498  1473  1511  1580  1604  1511  1264  830  182  -632  -1453  -2092  -2513  -2880  -3375  -4009  -4638  -5114  -5416  -5606  -5745  -5883  -6115  -6548  -7122  -7598  -7820  -7816  -7633  -7293  -6892  -6584  -6430  -6348  -6216  -5938  -5445  -4688  -3597  -2135  -486  925  1753  1999  1849  1392  720  88  -270  -252  228  1212  2531  3850  4820  5202  4990  4510  4322  4908  6373  8282  9774  10102  9197  7641  6140  5125  4692  4620  4557  4373  4142  3896  3610  3312  3047  2812  2608  2468  2405  2356  2231  2002  1756  1606  1561  1534  1452  1311  1155  1028  960  941  941  944  971  1047  1158  1255  1314  1369  1466  1600  1705  1743  1720  1634  1449  1123  717  379  171  36  -72  -166  -265  -419  -626  -807  -906  -943  -968  -1004  -1029  -1016  -979  -948  -934  -925  -919  -945  -1047  -1223  -1398  -1495  -1505  -1448  -1353  -1250  -1167  -1108  -1062  -1028  -1005  -977  -943  -904  -860  -820  -781  -723  -652  -598  -568  -547  -519  -486  -463  -455  -456  -453  -427  -352  -235  -137  -138  -277  -504  -701  -791  -770  -653  -465  -243  -11  202  321  324  425  844  1528  2395  3478  4682  5724  6321  6380  5984  5269  4365  3366  2341  1425  767  382  69  -444  -1179  -1941  -2586  -3016  -3162  -3052  -2769  -2413  -2070  -1766  -1508  -1322  -1225  -1194  -1194  -1210  -1236  -1262  -1275  -1274  -1258  -1218  -1155  -1089  -1044  -1024  -1019  -1016  -1006  -988  -971  -968  -1000  -1095  -1243  -1399  -1521  -1596  -1626  -1590  -1461  -1261  -1068  -936  -856  -783  -676  -530  -395  -317  -313  -395  -569  -783  -962  -1091  -1189  -1251  -1279  -1311  -1375  -1448  -1481  -1465  -1430  -1411  -1438  -1509  -1581  -1627  -1654  -1690  -1782  -1962  -2206  -2443  -2560  -2483  -2275  -2045  -1811  -1491  -826  501  2393  4190  5129  4800  3292  1174  -740  -1871  -2146  -1826  -1266  -801  -571  -500  -475  -443  -376  -246  -78  76  215  368  536  681  766  793  804  852  943  1022  1037  1007  973  948  922  893  866  846  832  822  821  836  879  950  1044  1157  1256  1295  1290  1291  1303  1304  1297  1298  1321  1378  1476  1610  1750  1870  1982  2109  2242  2341  2378  2345  2250  2112  1961  1835  1769  1759  1773  1774  1728  1616  1437  1208  960  729  509  288  100  -3  -26  -20  -22  -43  -82  -138  -195  -233  -263  -318  -430  -573  -673  -689  -619  -471  -312  -225  -214  -231  -270  -359  -481  -578  -625  -650  -693  -747  -774  -773  -762  -737  -675  -566  -431  -324  -271  -257  -271  -342  -504  -716  -882  -957  -970  -958  -932  -892  -832  -753  -673  -639  -672  -749  -831  -900  -958  -1006  -1037  -1049  -1052  -1066  -1113  -1196  -1280  -1320  -1325  -1342  -1387  -1440  -1487  -1528  -1562  -1576  -1544  -1450  -1326  -1232  -1192  -1199  -1231  -1261  -1274  -1277  -1274  -1257  -1215  -1162  -1125  -1116  -1127  -1134  -1107  -1019  -899  -810  -778  -783  -812  -896  -1064  -1266  -1399  -1419  -1352  -1230  -1069  -913  -813  -769  -748  -724  -704  -715  -787  -921  -1090  -1282  -1495  -1704  -1876  -2006  -2110  -2192  -2224  -2193  -2128  -2076  -2055  -2054  -2076  -2130  -2203  -2261  -2287  -2293  -2287  -2265  -2232  -2218  -2257  -2343  -2403  -2335  -2081  -1618  -909  69  1302  2641  3740  4152  3557  2067  223  -1300  -2015  -1896  -1329  -725  -311  -127  -61  -20  0  2  29  119  270  439  594  755  938  1136  1344  1588  1909  2311  2725  3107  3585  4454  5872  7530  8825  9420  9427  9091  8607  8167  7912  7838  7857  7898  7921  7875  7711  7449  7170  6924  6658  6291  5875  5584  5494  5530  5552  5338  4685  3706  2837  2402  2335  2399  2454  2470  2436  2343  2221  2134  2105  2095  2059  1980  1869  1711  1464  1160  911  753  636  523  417  317  231  168  110  23  -129  -359  -607  -783  -868  -907  -932  -953  -971  -976  -931  -804  -626  -485  -426  -428  -459  -506  -569  -632  -673  -670  -623  -555  -500  -459  -404  -311  -179  -17  149  289  389  452  416  119  -538  -1433  -2349  -3151  -3780  -4270  -4726  -5166  -5494  -5681  -5818  -5964  -6092  -6183  -6258  -6322  -6363  -6399  -6477  -6614  -6777  -6920  -7033  -7128  -7206  -7255  -7281  -7309  -7347  -7386  -7442  -7522  -7610  -7680  -7708  -7681  -7633  -7603  -7588  -7560  -7498  -7395  -7251  -7055  -6810  -6571  -6404  -6273  -6076  -5790  -5446  -5035  -4547  -4063  -3686  -3336  -2647  -1195  1146  3923  6263  7576  7948  7819  7611  7513  7259  6449  5226  4204  3747  3756  4005  4244  4251  4089  3981  3967  3974  3989  4027  4080  4105  4066  3993  3947  3953  3999  4153  4620  5556  6835  8058  8828  8992  8492  7243  5444  3714  2632  2268  2291  2388  2447  2467  2443  2347  2189  2038  1948  1885  1784  1645  1519  1423  1345  1295  1280  1284  1286  1264  1201  1113  1039  998  989  1030  1132  1271  1402  1521  1634  1718  1759  1769  1774  1796  1848  1913  1956  1971  1979  1999  2026  2065  2181  2477  2960  3457  3779  3899  3883  3729  3339  2647  1779  971  313  -221  -649  -1034  -1477  -1945  -2313  -2600  -2935  -3396  -4065  -4996  -6005  -6746  -6998  -6796  -6391  -6068  -5905  -5785  -5605  -5398  -5264  -5226  -5234  -5241  -5227  -5181  -5098  -4982  -4853  -4741  -4663  -4605  -4547  -4477  -4380  -4258  -4078  -3686  -2860  -1473  341  2097  3217  3566  3432  3091  2719  2481  2460  2623  2856  3040  3120  3065  2768  2153  1388  779  415  146  -162  -524  -856  -1058  -1122  -1114  -1088  -1097  -1235  -1582  -2085  -2543  -2798  -2866  -2853  -2813  -2726  -2562  -2339  -2116  -1946  -1822  -1708  -1577  -1398  -1160  -895  -641  -440  -387  -569  -958  -1441  -1937  -2404  -2786  -3023  -3109  -3107  -3086  -3078  -3092  -3121  -3110  -2928  -2435  -1649  -773  -45  400  569  576  545  538  553  569  594  662  771  873  937  1017  1210  1522  1853  2139  2432  2792  3174  3470  3633  3698  3715  3722  3753  3815  3877  3889  3844  3789  3738  3604  3287  2803  2266  1781  1414  1157  880  456  -92  -643  -1073  -1337  -1480  -1551  -1581  -1604  -1640  -1709  -1852  -2108  -2475  -2879  -3226  -3482  -3647  -3722  -3735  -3727  -3726  -3740  -3759  -3727  -3521  -3007  -2128  -883  706  2528  4368  5943  6904  6948  6066  4628  3190  2224  1947  2246  2777  3255  3582  3731  3718  3633  3542  3399  3133  2756  2350  1957  1594  1322  1176  1112  1073  1049  1057  1098  1133  1081  885  607  375  251  213  218  239  249  197  34  -197  -374  -420  -376  -321  -303  -339  -439  -592  -746  -842  -856  -793  -669  -516  -371  -213  36  387  723  941  1041  1072  1064  1028  967  869  745  638  577  550  522  462  375  284  187  57  -103  -245  -302  -259  -169  -93  -45  -23  -22  -25  -10  31  82  117  148  207  294  352  336  263  164  48  -62  -115  -48  187  559  955  1402  2025  2821  3678  4364  4554  4181  3516  2848  2298  1853  1419  953  554  327  231  116  -130  -517  -988  -1460  -1874  -2249  -2602  -2861  -2970  -2976  -2957  -2932  -2871  -2764  -2632  -2482  -2300  -2077  -1866  -1736  -1681  -1636  -1576  -1541  -1570  -1649  -1742  -1850  -1996  -2156  -2270  -2313  -2306  -2273  -2236  -2211  -2187  -2133  -2037  -1897  -1688  -1427  -1187  -1030  -963  -958  -969  -940  -849  -722  -612  -558  -555  -566  -559  -537  -534  -573  -632  -670  -655  -571  -457  -369  -303  -160  210  898  1805  2643  3150  3311  3303  3268  3233  3171  3057  2906  2726  2479  2179  1934  1812  1777  1731  1587  1314  960  632  420  294  144  -57  -250  -396  -506  -585  -634  -661  -673  -669  -642  -613  -645  -833  -1226  -1719  -2101  -2232  -2116  -1841  -1544  -1317  -1126  -880  -538  -107  402  965  1471  1792  1933  2006  2067  2071  1954  1700  1379  1125  1027  1066  1107  993  739  666  1205  2509  4306  6002  6954  6789  5491  3380  1015  -1030  -2341  -2795  -2645  -2330  -2199  -2360  -2709  -3104  -3477  -3820  -4133  -4433  -4737  -5029  -5280  -5482  -5633  -5717  -5729  -5687  -5638  -5647  -5726  -5820  -5892  -5952  -6022  -6116  -6224  -6304  -6314  -6236  -6047  -5719  -5305  -4934  -4647  -4371  -4076  -3821  -3633  -3498  -3412  -3371  -3357  -3356  -3311  -2977  -1938  -12  2426  4688  6264  7046  7250  7181  7022  6814  6574  6363  6285  6382  6570  6705  6713  6601  6397  6139  5847  5456  4895  4239  3706  3440  3377  3360  3315  3244  3155  3060  2989  2958  2952  2960  2992  3056  3103  3083  3019  2956  2903  2838  2758  2717  2762  2841  2891  2914  2941  2972  2963  2868  2706  2536  2403  2315  2246  2145  1969  1709  1381  987  536  116  -158  -312  -470  -692  -916  -1068  -1151  -1215  -1291  -1352  -1316  -1085  -656  -168  243  560  827  1064  1262  1416  1534  1656  1887  2292  2749  3051  3116  2976  2669  2228  1706  1205  835  595  408  228  21  -249  -597  -998  -1456  -1966  -2467  -2934  -3387  -3763  -3970  -4028  -4020  -3984  -3907  -3781  -3644  -3553  -3527  -3536  -3546  -3547  -3558  -3584  -3574  -3478  -3323  -3198  -3146  -3137  -3136  -3154  -3238  -3408  -3622  -3813  -3971  -4131  -4267  -4308  -4260  -4176  -4071  -3963  -3880  -3822  -3784  -3764  -3745  -3705  -3645  -3578  -3486  -3341  -3177  -3062  -2998  -2893  -2664  -2363  -2146  -2078  -2057  -1940  -1690  -1412  -1232  -1163  -1111  -967  -713  -460  -317  -284  -294  -302  -297  -292  -311  -360  -393  -332  -148  89  281  390  440  470  516  621  815  1105  1517  2079  2758  3407  3767  3721  3608  4006  5219  7112  9257  11116  12214  12237  11114  9079  6619  4337  2770  2132  2177  2434  2496  2174  1539  825  255  -82  -251  -359  -476  -631  -808  -963  -1082  -1197  -1340  -1487  -1546  -1434  -1161  -842  -608  -523  -553  -625  -687  -731  -770  -805  -833  -852  -857  -840  -761  -569  -277  51  411  830  1255  1577  1774  1956  2240  2583  2824  2874  2759  2552  2339  2174  2058  1982  1943  1924  1891  1824  1748  1677  1598  1526  1487  1483  1511  1599  1764  1969  2125  2161  2034  1708  1210  681  300  132  102  136  256  519  907  1301  1589  1750  1820  1847  1872  1890  1884  1863  1860  1919  2072  2290  2491  2630  2728  2809  2859  2862  2807  2682  2444  2041  1465  771  81  -465  -838  -1101  -1289  -1388  -1417  -1424  -1441  -1473  -1527  -1612  -1731  -1875  -2014  -2102  -2116  -2066  -1987  -1919  -1872  -1845  -1838  -1876  -1982  -2117  -2185  -2135  -2008  -1858  -1663  -1378  -1035  -727  -535  -460  -447  -424  -346  -225  -97  60  253  357  202  -214  -633  -719  -304  569  1684  2718  3385  3499  2981  1928  582  -778  -1953  -2866  -3575  -4190  -4740  -5160  -5416  -5544  -5597  -5611  -5607  -5597  -5594  -5624  -5713  -5869  -6098  -6397  -6699  -6894  -6951  -6918  -6846  -6766  -6700  -6643  -6549  -6381  -6170  -5994  -5886  -5825  -5766  -5651  -5432  -5133  -4825  -4541  -4269  -4009  -3766  -3495  -3153  -2797  -2549  -2471  -2550  -2748  -2989  -3179  -3291  -3353  -3385  -3397  -3390  -3345  -3222  -2984  -2642  -2304  -2110  -2095  -2161  -2145  -1926  -1536  -1035  -327  640  1747  2801  3461  3287  2153  421  -1351  -2667  -3200  -2952  -2225  -1379  -682  -234  37  252  502  869  1417  2162  3070  4023  4851  5477  5958  6372  6748  7071  7313  7466  7554  7631  7739  7873  7990  8062  8103  8150  8213  8284  8431  8757  9201  9561  9741  9796  9823  9905  10108  10411  10708  10917  10981  10710  9828  8374  6909  6012  5716  5683  5669  5643  5637  5640  5616  5549  5479  5468  5526  5625  5764  5937  6090  6167  6117  5880  5486  5073  4687  4201  3557  2855  2103  1179  23  -1296  -2513  -3319  -3712  -3921  -4083  -4208  -4283  -4312  -4310  -4290  -4267  -4283  -4415  -4702  -5087  -5481  -5864  -6251  -6598  -6831  -6935  -6954  -6942  -6904  -6799  -6612  -6395  -6201  -6020  -5815  -5591  -5371  -5140  -4890  -4656  -4485  -4397  -4357  -4298  -4178  -3985  -3725  -3440  -3201  -3027  -2828  -2513  -2109  -1717  -1416  -1246  -1201  -1225  -1263  -1299  -1344  -1400  -1464  -1549  -1675  -1855  -2071  -2273  -2399  -2426  -2367  -2239  -2077  -1922  -1781  -1654  -1560  -1512  -1519  -1585  -1690  -1800  -1887  -1938  -1957  -1955  -1943  -1936  -1955  -2030  -2148  -2260  -2324  -2333  -2307  -2309  -2459  -2846  -3362  -3771  -3949  -3925  -3714  -3319  -2835  -2425  -2173  -2015  -1870  -1744  -1668  -1625  -1586  -1543  -1504  -1470  -1437  -1411  -1416  -1457  -1515  -1570  -1634  -1731  -1848  -1928  -1941  -1918  -1892  -1870  -1877  -1976  -2224  -2548  -2783  -2841  -2760  -2619  -2489  -2387  -2281  -2171  -2096  -2025  -1833  -1424  -873  -349  93  551  1179  2103  3235  4216  4745  4805  4474  3784  2878  2066  1595  1481  1638  2007  2459  2780  2862  2841  3069  3919  5508  7523  9427  10907  12041  13017  13840  14224  13683  11861  9046  6177  4096  3109  3091  3595  4100  4333  4352  4358  4451  4598  4743  4839  4841  4768  4685  4623  4569  4517  4471  4446  4460  4529  4634  4732  4812  4938  5188  5540  5876  6134  6355  6609  6916  7206  7378  7420  7369  7205  6869  6352  5710  5016  4344  3780  3400  3219  3142  2955  2439  1601  699  19  -306  -316  -94  262  603  809  911  1025  1192  1365  1495  1583  1643  1673  1671  1655  1666  1762  1984  2353  2891  3548  4142  4498  4565  4317  3657  2554  1233  86  -678  -1153  -1532  -1962  -2489  -3001  -3358  -3565  -3727  -3909  -4147  -4520  -5098  -5796  -6426  -6906  -7262  -7522  -7723  -7889  -8004  -8051  -8018  -7885  -7684  -7502  -7377  -7268  -7161  -7096  -7076  -7028  -6868  -6613  -6356  -6148  -5963  -5754  -5505  -5227  -4962  -4763  -4624  -4492  -4358  -4264  -4232  -4242  -4268  -4297  -4307  -4258  -4131  -3966  -3821  -3730  -3695  -3699  -3719  -3740  -3755  -3756  -3724  -3637  -3503  -3364  -3257  -3201  -3209  -3274  -3349  -3379  -3362  -3344  -3374  -3470  -3592  -3682  -3741  -3835  -4010  -4233  -4423  -4548  -4636  -4708  -4773  -4862  -5024  -5268  -5538  -5745  -5835  -5812  -5700  -5524  -5329  -5139  -4934  -4721  -4540  -4388  -4198  -3888  -3435  -2925  -2503  -2228  -2030  -1816  -1580  -1366  -1176  -953  -676  -403  -154  139  568  1120  1670  2103  2424  2728  3057  3356  3593  3829  4138  4515  4873  5115  5204  5155  5039  4986  5066  5251  5533  5973  6698  7802  9162  10413  11111  10941  9816  7949  5909  4322  3452  3204  3300  3372  3211  2965  2861  2898  2973  3048  3126  3217  3306  3367  3392  3398  3386  3316  3140  2903  2722  2650  2657  2700  2730  2715  2681  2671  2685  2683  2615  2470  2297  2150  2036  1947  1888  1860  1845  1839  1845  1857  1880  1924  1981  2020  2023  1991  1890  1653  1286  902  598  391  241  72  -196  -615  -1183  -1800  -2287  -2547  -2674  -2833  -3113  -3529  -4039  -4521  -4878  -5169  -5475  -5764  -5976  -6112  -6205  -6274  -6320  -6350  -6380  -6410  -6399  -6263  -5962  -5594  -5329  -5230  -5097  -4489  -3028  -742  1884  4080  5166  5052  4268  3462  2970  2719  2402  1813  1023  277  -235  -573  -933  -1385  -1792  -1998  -2025  -1994  -1958  -1920  -1894  -1888  -1897  -1902  -1872  -1765  -1569  -1333  -1143  -1044  -1021  -1036  -1039  -941  -658  -254  78  228  256  272  340  446  551  660  805  1032  1391  1836  2197  2366  2403  2424  2487  2613  2801  3008  3182  3339  3500  3632  3692  3707  3755  3919  4234  4644  5062  5465  5851  6165  6349  6415  6415  6380  6323  6256  6187  6126  6059  5951  5803  5648  5516  5414  5312  5117  4760  4326  4014  3907  3920  3959  3982  3927  3673  3127  2395  1735  1307  1091  993  944  913  894  883  883  893  903  864  622  -104  -1503  -3282  -4760  -5483  -5544  -5276  -4927  -4642  -4480  -4440  -4506  -4653  -4847  -5070  -5305  -5525  -5730  -5950  -6199  -6473  -6792  -7124  -7377  -7522  -7658  -7904  -8274  -8679  -9011  -9217  -9325  -9393  -9458  -9552  -9688  -9825  -9878  -9784  -9601  -9548  -9725  -9850  -9590  -8841  -7526  -5685  -3710  -2136  -1362  -1598  -2883  -4972  -7166  -8574  -8642  -7242  -4581  -1336  1486  3240  4039  4355  4511  4581  4554  4444  4254  3950  3526  3018  2479  1977  1539  1120  736  475  319  142  -87  -281  -388  -476  -681  -1067  -1535  -1915  -2136  -2223  -2150  -1824  -1241  -572  5  438  744  956  1110  1217  1276  1298  1339  1512  1913  2440  2834  2970  2941  2891  2879  2886  2917  3039  3326  3765  4262  4713  5081  5386  5669  5952  6193  6318  6277  6068  5777  5542  5419  5356  5302  5261  5250  5243  5195  5107  5013  4938  4879  4827  4786  4757  4732  4724  4756  4825  4903  4970  5043  5160  5304  5394  5365  5232  5076  4972  4935  4927  4895  4804  4667  4512  4309  4033  3745  3492  3234  2969  2780  2711  2716  2746  2782  2791  2676  2357  1934  1626  1513  1485  1444  1417  1482  1630  1773  1880  1941  1786  1129  -57  -1369  -2369  -2962  -3292  -3490  -3610  -3687  -3752  -3792  -3786  -3762  -3754  -3752  -3722  -3643  -3530  -3422  -3343  -3300  -3277  -3246  -3201  -3169  -3157  -3153  -3134  -3063  -2875  -2554  -2207  -1987  -1917  -1908  -1875  -1783  -1626  -1417  -1193  -1005  -870  -757  -649  -599  -641  -727  -770  -600  68  1450  3470  5607  7102  7491  6823  5481  3999  2781  1871  1115  407  -281  -919  -1452  -1888  -2282  -2652  -2992  -3318  -3677  -4081  -4452  -4712  -4845  -4884  -4884  -4887  -4927  -5036  -5192  -5326  -5394  -5409  -5379  -5278  -5103  -4906  -4752  -4653  -4589  -4567  -4596  -4653  -4702  -4718  -4627  -4311  -3664  -2650  -1410  -308  331  445  25  -997  -2438  -3735  -4427  -4543  -4386  -4179  -4013  -3898  -3802  -3679  -3465  -3123  -2744  -2489  -2407  -2419  -2438  -2404  -2274  -2041  -1752  -1486  -1314  -1285  -1366  -1466  -1526  -1554  -1571  -1567  -1481  -1263  -965  -712  -566  -485  -436  -456  -587  -770  -872  -838  -736  -630  -507  -357  -202  -64  29  67  79  108  169  229  248  227  203  197  199  178  112  25  -39  -81  -135  -203  -250  -264  -283  -352  -482  -636  -673  -282  882  2809  4922  6432  6926  6585  6078  6234  7474  9396  11010  11561  11019  9884  8804  8235  8163  8256  8284  8203  8040  7829  7563  7237  6898  6584  6289  5999  5708  5417  5113  4763  4358  3974  3722  3605  3473  3163  2689  2232  1926  1713  1448  1056  617  278  89  -23  -147  -334  -601  -925  -1240  -1469  -1580  -1599  -1590  -1639  -1821  -2109  -2389  -2578  -2686  -2764  -2868  -3035  -3245  -3439  -3590  -3702  -3762  -3754  -3705  -3677  -3719  -3796  -3845  -3869  -3917  -4004  -4072  -4082  -4072  -4078  -4094  -4110  -4133  -4161  -4190  -4220  -4224  -4156  -4009  -3843  -3731  -3695  -3722  -3795  -3890  -3972  -4022  -4046  -4062  -4098  -4177  -4281  -4365  -4407  -4420  -4418  -4400  -4363  -4312  -4269  -4247  -4240  -4198  -4069  -3868  -3678  -3522  -3353  -3177  -3070  -3050  -3012  -2790  -2235  -1272  86  1606  2817  3404  3448  3146  2619  2040  1618  1476  1716  2425  3403  4183  4506  4476  4276  4032  3837  3725  3670  3631  3591  3541  3457  3315  3148  3041  3027  3049  3046  3010  2945  2825  2641  2458  2351  2319  2314  2291  2223  2101  1940  1757  1555  1367  1243  1181  1106  902  510  52  -255  -337  -263  -116  38  165  288  485  809  1225  1641  1989  2261  2473  2638  2764  2886  3024  3147  3208  3167  2979  2609  2045  1364  744  329  99  -55  -220  -427  -666  -907  -1118  -1274  -1372  -1445  -1525  -1601  -1662  -1712  -1759  -1796  -1809  -1771  -1661  -1490  -1301  -1103  -863  -572  -298  -125  -51  0  115  326  579  776  845  783  616  319  -166  -766  -1262  -1535  -1637  -1658  -1654  -1642  -1614  -1545  -1414  -1216  -977  -767  -634  -549  -435  -241  -10  156  222  220  180  102  6  -64  -86  -55  38  188  389  648  912  1082  1155  1249  1451  1711  1906  1957  1819  1453  912  325  -233  -774  -1318  -1824  -2191  -2361  -2388  -2357  -2290  -2160  -1955  -1701  -1399  -1005  -551  -191  -34  -51  -150  -258  -346  -431  -532  -634  -697  -698  -655  -617  -602  -583  -508  -341  -105  128  307  438  576  749  919  1035  1080  1046  869  487  14  -321  -424  -369  -234  -52  146  309  398  424  433  469  534  570  523  417  308  199  40  -164  -345  -449  -427  -158  511  1663  3118  4400  5099  5101  4362  2919  1165  -329  -1259  -1682  -1825  -1877  -1887  -1800  -1578  -1281  -1011  -794]
