reading_id,reading_time,wire_id,result_classification,heart_rate,heart_rate_alert,firmware_version,device_app_version,hardware_version,waveform_samples
f53d7f10-5e31-11ed-8080-808080808080,Mon Nov 07 00:20:17 UTC 2022,410163471e39,NSR,56,NONE,20001.171.50,2.10.0,Charge 5,[-7733  -8534  -9194  -9612  -9780  -9763  -9636  -9453  -9194  -8828  -8424  -8096  -7814  -7476  -7117  -6850  -6696  -6599  -6451  -6121  -5601  -4938  -4197  -3681  -3692  -4045  -4251  -4006  -3332  -2526  -2117  -2487  -3249  -3503  -2907  -1838  -794  -276  -553  -1144  -1326  -1094  -871  -783  -679  -439  -126  101  203  272  383  549  744  901  1004  1118  1260  1371  1404  1364  1312  1298  1285  1185  976  761  686  793  1024  1310  1558  1715  1873  2116  2362  2433  2235  1923  1787  1890  2049  2127  2122  2101  2124  2196  2329  2568  2899  3168  3190  2993  2791  2714  2719  2715  2654  2552  2450  2352  2255  2189  2178  2213  2261  2281  2271  2274  2277  2209  2063  1912  1829  1821  1844  1878  1947  2036  2058  1947  1741  1689  2162  3313  5084  7249  9282  10541  10516  9066  6610  3969  1997  1161  1298  1852  2233  2149  1829  1610  1525  1486  1475  1472  1445  1389  1360  1450  1691  1996  2224  2302  2263  2184  2118  2085  2076  2074  2075  2101  2166  2242  2272  2246  2209  2209  2253  2334  2452  2593  2702  2762  2832  2954  3130  3365  3659  3945  4126  4185  4191  4190  4175  4141  4117  4165  4330  4577  4795  4911  4961  5040  5176  5250  5148  4918  4653  4367  4068  3729  3280  2786  2428  2249  2133  2017  1920  1857  1810  1757  1670  1516  1304  1106  974  899  858  848  872  924  982  1016  1014  964  833  566  168  -211  -368  -208  171  552  764  773  605  318  37  -122  -181  -256  -406  -562  -626  -605  -553  -460  -310  -148  -38  5  8  1  1  8  17  22  18  -18  -119  -285  -430  -432  -291  -131  -40  -8  3  1  -60  -246  -549  -845  -970  -880  -698  -565  -505  -431  -254  -4  177  161  -84  -448  -739  -886  -968  -1033  -1068  -1076  -1064  -1022  -957  -935  -1006  -1111  -1135  -1029  -846  -683  -589  -545  -509  -465  -450  -533  -722  -892  -946  -955  -1007  -1108  -1246  -1363  -1394  -1358  -1361  -1516  -1777  -1955  -1969  -1908  -1854  -1811  -1757  -1674  -1571  -1499  -1492  -1521  -1489  -1300  -984  -702  -571  -573  -615  -619  -584  -556  -550  -542  -504  -469  -525  -715  -1025  -1453  -1960  -2393  -2612  -2612  -2452  -2206  -1973  -1809  -1682  -1570  -1506  -1503  -1521  -1557  -1770  -2306  -2923  -3174  -2888  -2051  -629  1256  3296  5014  5870  5444  3631  962  -1572  -3214  -3763  -3523  -2972  -2410  -1983  -1755  -1672  -1659  -1683  -1675  -1599  -1528  -1540  -1602  -1632  -1605  -1583  -1653  -1819  -1976  -2017  -1954  -1873  -1781  -1617  -1402  -1240  -1183  -1189  -1216  -1256  -1301  -1331  -1340  -1348  -1377  -1420  -1456  -1473  -1483  -1486  -1454  -1332  -1064  -629  -111  303  496  517  477  427  361  321  473  984  1717  2237  2307  2084  1793  1501  1172  780  405  167  70  14  -89  -265  -498  -739  -954  -1142  -1330  -1556  -1813  -2020  -2126  -2186  -2278  -2384  -2404  -2287  -2062  -1818  -1662  -1624  -1636  -1613  -1506  -1323  -1124  -970  -894  -886  -909  -912  -833  -650  -437  -306  -270  -224  -69  154  323  386  396  402  401  366  283  152  -4  -120  -109  69  335  487  421  251  124  59  26  0  -25  -29  55  293  608  821  855  797  732  680  640  603  544  471  431  451  501  522  482  408  351  325  312  296  270  237  238  337  545  765  885  897  864  831  818  821  806  722  564  401  308  284  261  189  85  7  -14  13  72  138  187  224  270  321  374  439  499  534  550  553  531  477  437  476  602  742  820  828  829  868  899  857  754  653  607  615  616  548  391  156  -115  -354  -489  -522  -515  -504  -497  -497  -517  -550  -559  -532  -524  -637  -948  -1391  -1707  -1722  -1485  -1005  -203  945  2485  4387  6274  7553  7813  6867  4924  2654  630  -854  -1621  -1759  -1527  -1161  -885  -790  -791  -771  -687  -559  -433  -334  -272  -243  -247  -294  -383  -479  -524  -506  -485  -484  -432  -253  -9  102  -48  -360  -584  -573  -384  -164  -4  91  167  243  298  315  309  301  309  344  400  446  466  495  610  873  1231  1538  1706  1768  1789  1820  1921  2121  2311  2300  2063  1783  1621  1583  1577  1542  1496  1432  1285  1030  728  439  174  -28  -141  -214  -294  -377  -509  -717  -899  -955  -908  -890  -1008  -1202  -1290  -1203  -1054  -975  -977  -985  -950  -883  -830  -820  -849  -891  -936  -988  -1034  -1045  -1011  -952  -938  -1019  -1148  -1221  -1179  -1053  -933  -849  -747  -624  -539  -499  -468  -404  -279  -119  -3  34  25  0  -30  -78  -169  -327  -524  -693  -788  -797  -722  -589  -436  -281  -127  1  65  65  46  38  19  -55  -190  -331  -420  -442  -389  -248  -68  49  58  6  -39  -52  -41  -26  -42  -134  -315  -526  -664  -676  -600  -503  -443  -437  -444  -398  -275  -127  -4  61  13  -139  -306  -398  -337  -149  22  95  121  156  178  144  65  -18  -82  -119  -135  -139  -144  -153  -147  -103  -24  47  68  37  -12  -70  -163  -293  -417  -473  -434  -343  -277  -270  -291  -295  -264  -211  -148  -82  -26  5  12  6  -12  -69  -175  -280  -318  -316  -330  -335  -296  -251  -243  -263  -273  -244  -192  -154  -140  -144  -160  -192  -231  -233  -158  -31  121  303  473  595  701  792  843  865  876  872  842  786  729  663  539  343  108  -93  -187  -177  -120  -49  9  17  -49  -198  -406  -612  -743  -781  -768  -740  -709  -673  -629  -571  -506  -525  -756  -1144  -1368  -1081  -140  1409  3457  5649  7276  7801  7244  5817  3802  1769  260  -644  -1079  -1045  -637  -228  -113  -222  -370  -521  -695  -848  -939  -985  -1027  -1072  -1057  -914  -696  -508  -381  -316  -309  -330  -348  -355  -354  -342  -313  -284  -306  -397  -498  -552  -552  -509  -418  -269  -96  24  55  20  -37  -75  -35  125  382  658  949  1299  1650  1856  1881  1822  1767  1737  1729  1769  1892  2079  2254  2361  2391  2336  2191  1959  1641  1231  787  426  233  182  184  181  157  100  -39  -304  -598  -754  -742  -650  -540  -453  -414  -411  -426  -466  -534  -606  -667  -734  -797  -843  -881  -917  -951  -994  -1041  -1074  -1078  -1013  -822  -491  -124  99  74  -167  -455  -598  -564  -486  -480  -554  -642  -702  -740  -706  -522  -248  -38  46  61  46  -13  -104  -176  -202  -201  -190  -169  -143  -152  -232  -350  -432  -462  -466  -462  -451  -434  -410  -383  -364  -359  -346  -298  -198  -72  25  79  126  199  294  372  383  274  37  -231  -401  -454  -461  -456  -376  -144  180  417  478  425  340  259  195  138  80  35  18  24  32  14  -54  -165  -272  -334  -336  -295  -239  -180  -128  -106  -137  -225  -343  -445  -500  -508  -489  -453  -398  -330  -278  -267  -276  -267  -224  -151  -62  8  15  -90  -323  -595  -769  -793  -706  -581  -472  -377  -285  -224  -230  -309  -424  -521  -574  -593  -578  -514  -399  -272  -184  -156  -173  -198  -213  -243  -323  -441  -533  -554  -536  -540  -563  -556  -477  -322  -113  89  218  256  235  181  103  -8  -184  -441  -719  -930  -1057  -1161  -1303  -1471  -1587  -1575  -1406  -1140  -910  -801  -787  -792  -782  -785  -866  -1023  -1161  -1246  -1391  -1629  -1730  -1485  -1008  -506  177  1461  3443  5684  7460  8041  7024  4711  2006  -183  -1332  -1443  -1002  -574  -474  -664  -900  -1030  -1081  -1109  -1097  -1005  -841  -658  -499  -389  -325  -310  -373  -526  -714  -850  -875  -753  -463  -96  178  280  236  68  -184  -417  -538  -521  -373  -135  115  298  361  330  281  273  339  493  692  859  987  1140  1352  1564  1694  1743  1807  1985  2242  2426  2431  2283  2127  2121  2266  2419  2485  2470  2391  2242  2042  1831  1606  1329  990  608  243  -11  -118  -126  -110  -121  -181  -294  -413  -450  -358  -192  -61  -16  -47  -138  -253  -335  -362  -347  -307  -258  -217  -187  -166  -159  -160  -135  -57  11  -43  -212  -349  -353  -246  -103  29  138  215  255  284  355  476  572  560  416  217  74  19  -15  -95  -211  -307  -343  -322  -277  -240  -225  -225  -228  -215  -182  -151  -146  -148  -128  -103  -115  -183  -310  -493  -712  -910  -1020  -1012  -900  -750  -644  -608  -611  -614  -608  -609  -659  -776  -874  -829  -649  -478  -405  -410  -439  -478  -578  -779  -1024  -1183  -1144  -880  -501  -207  -104  -170  -347  -553  -696  -744  -733  -694  -625  -518  -387  -260  -173  -137  -136  -142  -138  -123  -118  -142  -200  -273  -369  -508  -651  -717  -670  -548  -415  -319  -258  -199  -131  -92  -103  -121  -124  -134  -135  -112  -91  -100  -126  -105  33  280  522  661  701  701  678  599  441  245  88  1  -40  -68  -91  -125  -193  -282  -345  -364  -358  -357  -370  -365  -341  -363  -454  -543  -587  -610  -626  -629  -615  -608  -695  -953  -1229  -1128  -371  1054  3038  5182  6835  7578  7251  5731  3251  627  -1318  -2300  -2394  -1863  -1172  -709  -549  -531  -520  -509  -507  -484  -410  -298  -202  -163  -178  -225  -286  -336  -341  -278  -154  -13  84  116  87  -1  -127  -239  -296  -283  -217  -143  -95  -67  -35  10  87  219  379  507  606  739  907  1057  1162  1223  1237  1237  1330  1618  2033  2372  2532  2586  2630  2696  2783  2876  2955  2997  2940  2682  2230  1771  1479  1335  1242  1155  1043  852  541  166  -129  -260  -269  -230  -171  -92  -28  -72  -299  -635  -898  -1003  -1013  -1018  -1028  -995  -909  -802  -675  -483  -204  61  127  -48  -320  -546  -682  -746  -772  -778  -785  -810  -824  -730  -460  -140  -9  -109  -264  -336  -325  -295  -310  -413  -594  -781  -896  -931  -917  -857  -734  -568  -419  -342  -344  -393  -430  -416  -345  -225  -118  -126  -242  -355  -405  -429  -501  -633  -749  -768  -686  -558  -452  -388  -334  -287  -280  -319  -390  -496  -619  -744  -866  -944  -974  -986  -935  -789  -611  -445  -278  -151  -155  -314  -551  -752  -839  -820  -757  -691  -631  -591  -574  -568  -558  -528  -483  -467  -509  -581  -652  -727  -802  -845  -815  -693  -526  -405  -364  -369  -386  -403  -416  -417  -402  -396  -445  -549  -642  -680  -682  -663  -608  -504  -379  -286  -250  -250  -255  -249  -233  -216  -191  -144  -80  -29  -10  -15  -22  0  89  269  501  693  792  833  853  801  581  203  -177  -409  -473  -442  -407  -409  -416  -385  -345  -367  -489  -645  -725  -704  -640  -602  -650  -772  -882  -947  -989  -994  -915  -738  -499  -194  424  1764  3878  6224  7950  8312  7013  4428  1547  -618  -1613  -1575  -1080  -716  -631  -621  -517  -374  -323  -373  -464  -576  -716  -862  -963  -966  -832  -573  -299  -144  -137  -207  -274  -309  -341  -401  -469  -487  -421  -278  -116  -48  -132  -303  -483  -624  -678  -628  -472  -186  175  459  587  600  567  542  596  789  1088  1377  1581  1725  1861  2019  2171  2241  2204  2128  2087  2089  2112  2139  2156  2121  1982  1743  1481  1274  1130  1015  885  707  467  202  -25  -218  -445  -702  -867  -872  -780  -673  -581  -519  -522  -582  -645  -687  -727  -786  -861  -933  -984  -1001  -978  -915  -827  -726  -598  -458  -409  -535  -765  -951  -1034  -1046  -970  -730  -337  47  249  176  -172  -647  -979  -1006  -756  -406  -158  -73  -84  -133  -216  -309  -343  -265  -119  -16  -15  -67  -104  -90  -16  94  187  227  230  232  256  296  334  361  378  374  319  187  16  -109  -155  -151  -122  -61  15  55  11  -98  -163  -108  3  84  114  118  135  192  269  298  188  -98  -456  -701  -758  -669  -493  -274  -69  57  91  54  -34  -142  -215  -230  -207  -174  -142  -113  -123  -217  -379  -553  -703  -832  -947  -1036  -1071  -998  -773  -446  -141  57  148  172  171  172  172  150  72  -76  -261  -423  -555  -660  -719  -750  -790  -820  -772  -604  -331  -19  262  476  601  651  659  629  525  342  152  29  -27  -54  -70  -57  8  110  207  244  136  -106  -348  -493  -551  -577  -625  -691  -713  -640  -505  -409  -381  -404  -516  -719  -914  -1024  -1061  -1083  -1114  -1125  -1155  -1269  -1313  -974  -83  1361  3362  5631  7381  7988  7323  5424  2846  631  -615  -966  -812  -634  -718  -975  -1147  -1151  -1097  -1054  -1023  -1010  -1050  -1145  -1231  -1216  -1046  -744  -424  -206  -140  -209  -358  -521  -664  -769  -811  -787  -726  -646  -545  -444  -357  -262  -128  39  180  232  207  132  13  -106  -157  -99  79  323  526  639  703  764  808  812  830  1024  1527  2186  2646  2769  2714  2633  2523  2328  2082  1894  1814  1793  1751  1629  1389  1012  576  238  69  -4  -58  -84  -61  -26  -75  -281  -593  -877  -1051  -1084  -992  -867  -786  -740  -704  -682  -693  -756  -854  -934  -975  -996  -1014  -1039  -1051  -1006  -898  -795  -759  -773  -766  -681  -537  -414  -363  -371  -403  -462  -580  -741  -873  -919  -830  -572  -232  23  128  131  55  -123  -382  -602  -680  -630  -520  -408  -327  -279  -248  -221  -190  -145  -86  -25  11  -7  -108  -273  -466  -643  -708  -595  -402  -249  -154  -122  -158  -209  -228  -229  -251  -303  -345  -340  -291  -217  -149  -129  -148  -162  -155  -150  -172  -213  -239  -244  -241  -238  -236  -234  -236  -255  -297  -349  -384  -378  -313  -194  -66  20  72  116  160  193  203  179  88  -106  -348  -487  -453  -332  -217  -118  -30  6  -26  -86  -120  -107  -45  46  133  201  263  326  363  302  81  -229  -449  -493  -450  -406  -330  -162  61  233  293  250  131  -17  -133  -175  -125  20  220  385  471  503  508  467  366  231  88  -64  -208  -306  -357  -365  -292  -149  -40  -44  -121  -188  -204  -183  -167  -231  -428  -691  -864  -893  -936  -1144  -1325  -1085  -163  1511  3642  5627  6992  7418  6707  5053  2926  724  -1114  -2070  -1986  -1211  -342  65  -108  -479  -685  -675  -536  -360  -234  -183  -188  -250  -399  -623  -840  -967  -984  -916  -788  -624  -471  -382  -370  -382  -338  -180  66  295  421  435  355  195  9  -117  -148  -103  -21  84  229  405  596  822  1088  1325  1478  1578  1695  1839  1950  2000  2020  2066  2193  2415  2669  2850  2923  2917  2820  2607  2333  2095  1882  1598  1231  900  712  629  514  299  2  -307  -506  -520  -428  -374  -443  -603  -754  -829  -849  -881  -967  -1070  -1128  -1144  -1138  -1110  -1080  -1076  -1088  -1072  -990  -876  -830  -906  -1027  -1048  -937  -829  -841  -924  -982  -960  -838  -645  -446  -295  -201  -131  -67  -43  -118  -299  -495  -582  -530  -419  -359  -377  -392  -349  -302  -347  -512  -672  -617  -299  66  185  -53  -428  -573  -411  -184  -75  -66  -87  -121  -183  -267  -342  -395  -423  -403  -334  -256  -213  -191  -140  -37  82  169  211  238  260  221  62  -158  -288  -232  -58  82  111  74  33  9  -7  -52  -151  -251  -262  -178  -84  -42  -46  -68  -101  -144  -173  -140  -15  188  399  526  521  387  181  4  -62  6  191  411  568  633  640  623  607  595  561  476  357  227  83  -83  -249  -371  -429  -447  -481  -576  -713  -820  -858  -827  -734  -613  -529  -532  -622  -759  -918  -1147  -1405  -1381  -737  558  2258  4024  5632  6842  7125  6112  4034  1520  -628  -1758  -1851  -1499  -1310  -1413  -1517  -1352  -997  -711  -592  -574  -589  -639  -749  -887  -984  -1012  -1002  -992  -992  -993  -961  -866  -735  -640  -621  -662  -723  -772  -796  -799  -783  -750  -699  -621  -513  -402  -308  -177  75  396  598  608  553  556  599  622  644  751  991  1288  1513  1641  1746  1892  2087  2268  2349  2314  2225  2122  1987  1850  1772  1752  1723  1618  1380  985  532  218  120  129  104  -37  -307  -654  -1011  -1337  -1580  -1699  -1725  -1714  -1693  -1656  -1581  -1482  -1412  -1426  -1538  -1698  -1825  -1891  -1929  -1960  -1963  -1911  -1804  -1670  -1542  -1453  -1418  -1422  -1437  -1448  -1467  -1516  -1610  -1717  -1765  -1699  -1538  -1367  -1253  -1184  -1094  -939  -740  -571  -477  -441  -411  -333  -178  3  82  9  -90  -105  -70  -41  12  133  260  261  99  -134  -338  -464  -493  -381  -82  295  513  440  175  -77  -182  -131  -10  89  106  24  -57  -42  17  49  66  88  106  111  106  102  111  123  122  117  138  188  236  259  252  232  221  228  242  236  177  66  -57  -148  -193  -208  -213  -193  -103  73  291  479  579  562  464  360  280  231  260  411  626  780  813  764  678  561  424  329  322  369  399  379  325  284  287  305  313  314  313  294  243  175  126  107  90  58  37  74  200  415  653  806  800  632  360  89  -105  -203  -243  -278  -320  -340  -328  -312  -331  -423  -634  -927  -1131  -1135  -1031  -958  -939  -937  -940  -978  -1095  -1290  -1535  -1802  -2000  -1968  -1579  -757  620  2682  5203  7418  8463  7899  5889  3226  980  -254  -617  -564  -534  -741  -982  -963  -764  -614  -535  -454  -385  -368  -391  -427  -446  -417  -365  -346  -387  -459  -467  -342  -153  -26  0  -29  -72  -131  -214  -275  -270  -233  -218  -220  -179  -43  147  294  358  386  428  502  616  767  935  1090  1206  1275  1322  1366  1395  1392  1367  1384  1556  1937  2402  2736  2852  2818  2736  2659  2581  2458  2246  1938  1597  1293  1022  762  541  349  108  -173  -376  -444  -436  -426  -446  -492  -543  -592  -655  -748  -878  -1018  -1123  -1178  -1195  -1180  -1122  -1013  -872  -742  -663  -644  -664  -693  -717  -727  -678  -524  -296  -107  -30  -78  -239  -449  -613  -698  -736  -736  -691  -634  -621  -648  -637  -548  -430  -337  -291  -281  -286  -305  -344  -395  -420  -393  -338  -293  -272  -267  -280  -316  -372  -430  -471  -477  -422  -291  -115  44  139  114  -64  -313  -485  -531  -499  -444  -400  -384  -433  -585  -800  -952  -933  -720  -410  -158  -40  -21  -52  -127  -267  -430  -526  -531  -498  -469  -414  -276  -81  60  50  -126  -380  -558  -559  -389  -159  -20  -37  -170  -329  -437  -478  -492  -525  -585  -615  -575  -509  -496  -560  -659  -731  -754  -754  -763  -784  -801  -775  -682  -551  -437  -360  -299  -231  -145  -81  -104  -200  -288  -326  -350  -413  -513  -554  -472  -371  -371  -440  -490  -503  -504  -497  -465  -405  -376  -427  -517  -570  -541  -400  -164  113  387  617  768  820  768  614  358  4  -357  -562  -539  -404  -336  -434  -652  -857  -965  -962  -840  -607  -354  -211  -244  -418  -646  -840  -959  -997  -952  -823  -691  -758  -1113  -1543  -1681  -1175  75  1860  3956  6082  7681  8266  7672  5921  3349  812  -775  -1250  -1134  -902  -772  -766  -790  -821  -872  -903  -874  -792  -708  -661  -643  -642  -657  -682  -701  -689  -639  -573  -505  -420  -338  -300  -325  -415  -547  -674  -767  -824  -841  -787  -614  -336  -61  98  134  121  136  197  260  275  260  300  498  851  1205  1415  1485  1499  1515  1552  1613  1688  1744  1755  1751  1784  1877  2023  2186  2302  2307  2156  1860  1526  1278  1144  1079  973  725  395  151  51  8  -90  -301  -608  -908  -1087  -1133  -1115  -1086  -1051  -969  -788  -546  -373  -369  -540  -786  -957  -997  -970  -930  -855  -705  -505  -383  -482  -754  -988  -1076  -1068  -1039  -1013  -987  -960  -927  -877  -814  -744  -647  -528  -437  -400  -399  -406  -407  -410  -435  -498  -592  -684  -726  -699  -647  -617  -607  -585  -534  -454  -374  -334  -341  -351  -343  -339  -362  -415  -465  -492  -512  -516  -447  -281  -88  17  -11  -113  -197  -237  -253  -249  -211  -137  -61  -23  -38  -65  -26  104  226  182  -30  -271  -471  -639  -762  -810  -748  -528  -189  107  226  173  42  -95  -241  -384  -451  -395  -274  -199  -226  -319  -406  -440  -397  -273  -111  14  77  89  34  -121  -334  -493  -510  -370  -121  157  411  616  733  736  661  611  652  708  664  504  278  17  -231  -390  -446  -490  -593  -715  -767  -725  -631  -510  -381  -297  -292  -347  -415  -475  -543  -612  -637  -572  -487  -593  -925  -1097  -686  346  1788  3471  5156  6319  6516  5710  4074  1951  -29  -1288  -1680  -1440  -947  -482  -195  -170  -312  -425  -447  -414  -374  -378  -432  -479  -478  -444  -403  -371  -345  -317  -290  -276  -273  -278  -284  -277  -233  -127  19  142  197  199  191  208  257  315  380  473  580  658  693  702  694  664  613  573  569  604  744  1090  1574  1964  2138  2171  2209  2342  2539  2693  2750  2729  2634  2442  2178  1944  1797  1684  1537  1341  1101  818  525  256  -15  -297  -508  -595  -599  -591  -626  -712  -803  -875  -965  -1111  -1309  -1506  -1639  -1696  -1700  -1638  -1484  -1281  -1128  -1073  -1085  -1111  -1125  -1118  -1087  -1046  -1018  -1012  -1023  -1040  -1053  -1059  -1055  -1036  -999  -950  -906  -871  -818  -713  -583  -491  -453  -429  -399  -369  -343  -319  -310  -353  -464  -574  -567  -426  -259  -156  -124  -126  -133  -140  -150  -173  -239  -386  -584  -735  -795  -811  -815  -752  -538  -219  12  44  -57  -183  -279  -344  -387  -405  -395  -374  -361  -362  -370  -366  -339  -300  -271  -264  -267  -257  -199  -74  46  42  -110  -342  -573  -718  -716  -582  -401  -283  -259  -266  -253  -222  -195  -191  -188  -175  -202  -298  -428  -572  -713  -771  -666  -420  -157  16  87  95  74  49  36  33  20  -22  -82  -126  -141  -139  -138  -144  -151  -148  -127  -73  43  211  357  432  453  461  463  460  479  530  571  531  343  8  -345  -548  -562  -497  -460  -455  -434  -390  -359  -380  -460  -565  -652  -678  -640  -606  -637  -700  -773  -948  -1253  -1477  -1300  -536  698  2099  3570  5223  6800  7591  7078  5259  2648  186  -1281  -1594  -1260  -871  -665  -625  -654  -669  -659  -650  -668  -734  -830  -897  -878  -759  -593  -469  -422  -425  -459  -515  -571  -615  -646  -659  -608  -440  -180  74  251  342  367  329  225  85  -46  -170  -289  -347  -282  -102  96  211  235  245  322  504  780  1092  1402  1746  2117  2394  2494  2458  2368  2334  2430  2597  2677  2556  2279  2003  1852  1804  1747  1592  1336  1067  874  740  562  246  -164  -487  -617  -614  -589  -621  -743  -903  -1016  -1063  -1103  -1177  -1279  -1373  -1412  -1379  -1295  -1162  -940  -638  -377  -271  -284  -322  -356  -385  -405  -420  -459  -549  -648  -663  -581  -448  -291  -160  -110  -164  -323  -528  -681  -748  -761  -723  -590  -358  -119  21  50  12  -56  -117  -155  -177  -194  -216  -250  -283  -309  -341  -385  -430  -448  -387  -207  35  213  271  258  224  185  112  -48  -286  -507  -618  -609  -535  -456  -407  -394  -376  -310  -207  -133  -120  -132  -141  -147  -151  -151  -163  -205  -290  -387  -449  -475  -489  -500  -499  -470  -413  -348  -307  -299  -308  -322  -341  -378  -436  -505  -560  -583  -577  -560  -546  -535  -528  -528  -535  -542  -537  -508  -472  -448  -424  -354  -216  -108  -159  -312  -378  -325  -279  -313  -376  -367  -301  -286  -332  -360  -335  -285  -261  -316  -484  -719  -893  -885  -656  -296  7  154  205  233  243  229  208  210  245  289  304  303  317  343  360  362  341  252  47  -225  -438  -529  -544  -536  -519  -475  -404  -338  -315  -343  -415  -507  -585  -642  -695  -750  -790  -812  -870  -1055  -1334  -1460  -1124  -156  1417  3444  5653  7513  8391  7958  6297  3876  1450  -309  -1119  -1144  -836  -594  -528  -588  -695  -770  -792  -790  -767  -700  -581  -473  -473  -580  -695  -755  -770  -771  -773  -772  -749  -684  -586  -505  -474  -457  -406  -311  -204  -151  -161  -160  -122  -94  -96  -99  -53  70  234  381  513  653  780  866  917  985  1126  1332  1545  1733  1912  2095  2260  2373  2412  2391  2342  2272  2159  1999  1832  1694  1587  1481  1349  1201  1077  982  839  569  225  -37  -147  -189  -299  -536  -848  -1127  -1279  -1271  -1124  -904  -700  -573  -533  -544  -565  -575  -587  -648  -812  -1037  -1201  -1232  -1154  -1043  -962  -929  -919  -910  -893  -868  -842  -823  -820  -845  -903  -948  -877  -627  -291  -61  -19  -98  -235  -435  -698  -951  -1057  -934  -650  -377  -234  -233  -336  -490  -622  -681  -629  -453  -213  -27  41  -14  -200  -454  -651  -734  -751  -746  -695  -553  -342  -150  -31  21  32  3  -89  -247  -415  -503  -473  -377  -293  -250  -260  -317  -392  -467  -524  -513  -422  -304  -209  -146  -112  -127  -210  -326  -406  -426  -404  -361  -302  -235  -178  -147  -129  -101  -63  -39  -46  -77  -123  -180  -230  -248  -238  -236  -254  -266  -264  -272  -310  -383  -477  -527  -442  -234  -5  157  173  46  -97  -169  -181  -167  -130  -58  39  136  230  324  391  396  339  275  265  290  280  198  47  -114  -209  -232  -219  -216  -273  -397  -535  -637  -691  -688  -601  -423  -233  -196  -444  -902  -1277  -1408  -1349  -1005  -223  892  2283  4053  5906  7098  7119  5855  3501  840  -1115  -1959  -1865  -1180  -431  -181  -458  -797  -881  -749  -559  -426  -362  -321  -299  -325  -405  -507  -539  -439  -293  -214  -221  -283  -369  -455  -532  -595  -634  -647  -620  -531  -390  -246  -145  -92  -63  -41  -22  7  67  144  190  193  207  286  402  490  573  761  1114  1553  1926  2145  2230  2235  2213  2240  2332  2427  2480  2502  2501  2467  2394  2279  2123  1941  1727  1445  1127  863  653  407  86  -238  -459  -562  -628  -706  -770  -794  -786  -759  -729  -709  -699  -686  -662  -646  -697  -872  -1126  -1321  -1353  -1225  -1029  -887  -842  -850  -861  -854  -831  -782  -682  -539  -402  -321  -307  -337  -370  -384  -383  -378  -371  -363  -351  -320  -254  -162  -75  -11  23  -49  -349  -809  -1146  -1189  -1047  -896  -759  -562  -313  -116  -25  -7  -22  -66  -139  -215  -257  -258  -234  -211  -208  -233  -264  -255  -204  -175  -198  -244  -286  -308  -315  -333  -350  -346  -326  -310  -298  -296  -328  -418  -537  -608  -591  -524  -471  -459  -476  -489  -440  -284  -64  113  210  260  278  213  10  -280  -522  -639  -651  -575  -407  -184  -10  65  77  51  -19  -127  -204  -162  27  309  578  740  778  741  678  606  525  450  410  418  434  362  125  -216  -488  -611  -659  -709  -773  -831  -850  -820  -796  -827  -895  -948  -974  -989  -994  -991  -1010  -1128  -1364  -1544  -1440  -1044  -434  514  1958  3845  5831  7245  7421  6172  3936  1603  -71  -947  -1269  -1346  -1404  -1466  -1440  -1310  -1176  -1114  -1094  -1055  -971  -876  -808  -769  -750  -745  -748  -755  -767  -785  -795  -774  -720  -670  -676  -754  -848  -885  -843  -735  -595  -472  -388  -338  -318  -320  -336  -347  -309  -181  17  210  348  453  577  717  814  862  946  1154  1482  1804  1999  2090  2162  2236  2302  2359  2399  2411  2383  2293  2124  1912  1742  1669  1677  1681  1545  1178  658  162  -208  -442  -552  -576  -567  -558  -556  -554  -541  -502  -441  -383  -353  -344  -368  -484  -704  -946  -1086  -1046  -875  -706  -613  -560  -485  -369  -250  -175  -161  -173  -165  -134  -84  -9  63  89  77  63  59  54  26  -29  -79  -54  75  255  396  449  424  361  285  205  137  91  73  70  51  12  -41  -108  -157  -160  -129  -82  -44  -49  -116  -217  -288  -275  -181  -47  82  184  261  324  358  290  59  -274  -546  -653  -625  -552  -486  -433  -384  -320  -243  -169  -90  19  149  245  270  217  91  -54  -154  -190  -195  -190  -183  -188  -217  -265  -318  -354  -345  -261  -109  55  170  209  180  108  0  -165  -379  -589  -741  -820  -850  -850  -798  -662  -481  -353  -332  -397  -490  -559  -599  -628  -609  -459  -200  -1  -20  -242  -471  -519  -416  -297  -218  -186  -180  -158  -112  -64  -17  32  74  85  63  29  1  -10  4  41  89  134  174  196  131  -96  -441  -750  -917  -958  -912  -793  -644  -555  -567  -633  -684  -699  -696  -680  -639  -593  -659  -1029  -1697  -2274  -2307  -1659  -492  903  2375  4065  5963  7489  7953  7081  5091  2721  848  -181  -659  -1017  -1386  -1601  -1573  -1408  -1183  -889  -562  -296  -146  -88  -92  -218  -552  -1006  -1353  -1467  -1368  -1101  -769  -520  -395  -324  -259  -230  -283  -411  -550  -641  -657  -573  -376  -117  107  254  332  363  383  406  391  286  131  31  50  164  312  437  526  661  982  1497  2005  2298  2362  2298  2176  2027  1882  1772  1717  1709  1721  1709  1643  1526  1373  1167  922  718  592  483  335  132  -148  -491  -789  -951  -991  -972  -945  -928  -905  -828  -663  -455  -303  -258  -318  -461  -629  -741  -770  -749  -716  -692  -679  -660  -614  -530  -422  -325  -271  -266  -290  -307  -297  -275  -262  -259  -260  -268  -297  -344  -389  -413  -414  -402  -386  -375  -371  -375  -389  -409  -424  -416  -373  -299  -226  -174  -139  -131  -206  -419  -694  -852  -801  -636  -506  -443  -379  -266  -143  -102  -182  -310  -392  -411  -406  -402  -400  -388  -360  -325  -272  -185  -86  -45  -102  -217  -315  -351  -311  -181  2  152  209  167  37  -134  -275  -349  -382  -404  -415  -393  -335  -248  -143  -38  25  28  -11  -48  -43  -13  -17  -129  -393  -735  -977  -1005  -842  -601  -408  -302  -247  -220  -214  -219  -223  -214  -185  -143  -100  -52  7  81  166  260  361  473  562  545  381  170  74  122  206  254  290  364  489  631  733  759  697  557  403  289  200  131  105  118  133  83  -85  -332  -523  -561  -455  -294  -186  -200  -336  -530  -684  -773  -856  -988  -1163  -1377  -1646  -1800  -1545  -805  411  2083  3835  5267  6332  6863  6511  5243  3310  1081  -838  -1910  -2105  -1705  -1037  -514  -398  -561  -759  -889  -923  -894  -884  -910  -926  -923  -923  -929  -899  -790  -635  -538  -547  -599  -633  -641  -626  -593  -566  -555  -550  -534  -509  -491  -483  -458  -395  -324  -268  -199  -68  158  443  666  756  755  731  728  774  914  1188  1550  1857  2016  2054  2035  1996  1951  1899  1845  1814  1851  1978  2169  2319  2306  2110  1778  1344  904  586  389  230  87  -29  -137  -258  -388  -492  -554  -605  -686  -778  -817  -782  -741  -766  -866  -1002  -1073  -969  -722  -491  -362  -324  -357  -475  -701  -989  -1211  -1289  -1225  -1043  -819  -661  -610  -627  -665  -688  -666  -582  -467  -385  -357  -355  -350  -338  -331  -335  -344  -337  -276  -138  6  33  -83  -239  -324  -333  -338  -373  -424  -466  -483  -486  -464  -340  -112  98  209  237  219  173  112  37  -64  -192  -321  -425  -486  -503  -493  -472  -442  -395  -331  -270  -234  -224  -226  -233  -236  -222  -181  -121  -71  -37  -11  2  -20  -108  -263  -426  -505  -464  -374  -312  -282  -230  -127  -8  54  31  -40  -93  -93  -55  -12  19  45  93  169  251  337  447  564  623  593  510  427  346  217  8  -248  -511  -734  -862  -868  -785  -678  -582  -505  -454  -439  -441  -447  -483  -560  -657  -788  -1018  -1333  -1539  -1461  -1117  -534  332  1512  3052  4854  6384  6921  6124  4252  1990  74  -1111  -1605  -1615  -1354  -1029  -811  -754  -784  -811  -816  -810  -792  -757  -701  -638  -600  -631  -756  -927  -1037  -1012  -857  -653  -506  -446  -428  -407  -371  -306  -185  -30  86  126  115  101  96  87  54  -14  -104  -182  -220  -177  2  330  736  1099  1315  1382  1394  1451  1631  1936  2248  2444  2518  2534  2540  2543  2533  2507  2478  2455  2419  2336  2211  2018  1665  1161  696  428  322  248  109  -121  -381  -554  -608  -612  -636  -683  -715  -712  -688  -698  -825  -1104  -1428  -1619  -1623  -1532  -1393  -1175  -911  -723  -709  -871  -1109  -1279  -1277  -1068  -711  -359  -129  -33  -64  -260  -614  -957  -1074  -960  -793  -685  -633  -591  -525  -450  -389  -329  -266  -220  -201  -196  -213  -299  -470  -671  -800  -776  -625  -457  -350  -310  -330  -403  -501  -572  -579  -507  -376  -246  -175  -181  -251  -345  -417  -446  -440  -398  -324  -245  -196  -189  -217  -271  -339  -404  -441  -430  -366  -281  -221  -202  -199  -185  -154  -106  -31  59  133  171  176  126  3  -138  -174  -39  172  310  330  279  184  56  -76  -181  -238  -242  -198  -124  -44  16  39  -1  -120  -284  -417  -468  -441  -372  -296  -234  -200  -195  -205  -214  -195  -108  82  342  562  669  690  678  663  661  672  681  657  581  476  366  209  -38  -307  -475  -513  -479  -434  -406  -397  -399  -414  -446  -476  -459  -370  -276  -296  -463  -680  -829  -874  -855  -846  -966  -1304  -1678  -1639  -907  437  2151  3895  5399  6595  7349  7333  6304  4319  1846  -305  -1463  -1574  -1160  -803  -734  -855  -975  -996  -924  -784  -617  -493  -438  -436  -476  -541  -586  -564  -485  -403  -350  -325  -321  -335  -364  -394  -410  -412  -408  -401  -391  -373  -350  -331  -329  -342  -353  -315  -170  109  480  821  1008  1024  958  899  867  839  843  966  1272  1703  2127  2456  2658  2723  2690  2625  2568  2531  2503  2467  2401  2250  1971  1622  1348  1221  1206  1214  1135  868  434  3  -274  -407  -507  -670  -880  -1034  -1097  -1135  -1218  -1339  -1425  -1380  -1160  -848  -624  -608  -796  -1080  -1306  -1398  -1377  -1281  -1142  -995  -860  -726  -574  -455  -469  -608  -752  -826  -836  -814  -777  -733  -719  -753  -799  -824  -836  -839  -806  -706  -565  -467  -456  -494  -522  -513  -458  -372  -294  -248  -226  -223  -255  -330  -414  -447  -407  -339  -301  -310  -372  -492  -637  -741  -776  -753  -678  -573  -486  -454  -470  -492  -497  -501  -511  -500  -455  -417  -408  -404  -353  -231  -75  43  80  -3  -245  -569  -813  -902  -867  -745  -572  -417  -338  -342  -409  -507  -595  -649  -676  -679  -616  -437  -188  -2  49  -16  -173  -366  -517  -592  -614  -617  -614  -601  -562  -509  -469  -454  -453  -461  -485  -525  -547  -528  -489  -445  -369  -248  -125  -69  -102  -172  -231  -272  -291  -260  -156  -11  97  140  150  178  257  379  497  547  499  367  199  59  -2  7  48  107  142  50  -176  -419  -596  -706  -759  -770  -762  -750  -737  -727  -723  -736  -795  -964  -1298  -1671  -1757  -1331  -411  944  2629  4451  6225  7586  8004  7154  5114  2467  153  -1097  -1200  -632  -49  158  36  -209  -455  -668  -846  -978  -1040  -1001  -832  -575  -355  -262  -272  -316  -362  -423  -507  -591  -646  -647  -572  -444  -327  -267  -240  -196  -131  -81  -63  -60  -52  -30  2  37  86  177  305  414  450  428  428  530  753  1032  1257  1392  1515  1706  1935  2115  2234  2349  2481  2585  2609  2552  2425  2232  2023  1885  1832  1801  1728  1582  1349  1062  750  396  25  -253  -372  -380  -364  -383  -473  -647  -855  -1005  -1040  -962  -800  -628  -555  -637  -830  -1022  -1126  -1133  -1071  -964  -832  -698  -599  -556  -560  -591  -629  -658  -666  -643  -593  -557  -558  -574  -622  -732  -846  -895  -886  -859  -835  -806  -758  -688  -616  -560  -519  -488  -482  -513  -563  -594  -588  -562  -544  -546  -556  -537  -437  -246  -84  -123  -347  -547  -583  -504  -444  -445  -405  -255  -59  95  161  108  -52  -234  -337  -357  -361  -390  -452  -535  -596  -572  -446  -283  -137  -11  47  -31  -213  -378  -458  -490  -519  -546  -568  -586  -582  -510  -332  -95  82  149  129  27  -176  -431  -631  -719  -721  -681  -627  -570  -495  -405  -341  -327  -333  -302  -181  47  310  492  561  572  567  533  443  317  202  110  27  -55  -150  -266  -381  -469  -519  -540  -546  -546  -546  -549  -554  -561  -572  -583  -591  -594  -582  -543  -526  -663  -1002  -1387  -1533  -1158  -113  1532  3508  5395  6681  6923  5946  3995  1688  -297  -1570  -2073  -1990  -1623  -1244  -935  -672  -487  -415  -421  -479  -589  -694  -689  -534  -293  -63  78  86  -52  -286  -501  -611  -619  -565  -481  -397  -335  -297  -266  -231  -202  -189  -184  -171  -138  -61  79  251  373  411  401  387  387  416  497  658  905  1199  1470  1668  1799  1922  2076  2247  2419  2596  2764  2897  2976  2977  2884  2737  2617  2536  2389  2067  1617  1192  848  566  348  184  56  -20  -61  -133  -282  -480  -677  -840  -934  -961  -977  -1012  -1030  -994  -938  -940  -1028  -1098  -1020  -828  -668  -604  -592  -567  -486  -365  -277  -304  -475  -707  -877  -949  -968  -966  -944  -881  -751  -560  -353  -209  -168  -173  -144  -95  -96  -171  -271  -336  -375  -426  -479  -494  -460  -389  -301  -206  -117  -56  -32  -29  -31  -49  -99  -179  -274  -374  -430  -390  -280  -165  -98  -153  -327  -507  -613  -668  -720  -790  -861  -878  -760  -504  -249  -99  -58  -144  -324  -457  -477  -444  -433  -461  -495  -477  -379  -239  -120  -61  -71  -173  -397  -690  -915  -987  -885  -613  -266  -11  85  87  60  -2  -132  -298  -409  -419  -368  -338  -351  -333  -209  13  255  418  483  503  517  520  480  369  197  22  -113  -232  -382  -562  -704  -738  -661  -508  -305  -75  107  93  -207  -647  -934  -963  -889  -866  -920  -1098  -1461  -1806  -1774  -1300  -588  166  959  2091  3847  6012  7847  8418  7203  4537  1437  -958  -1997  -1875  -1297  -809  -669  -835  -952  -818  -592  -439  -367  -346  -346  -346  -338  -338  -385  -509  -694  -888  -1046  -1130  -1109  -974  -776  -605  -514  -491  -487  -441  -318  -162  -52  -14  -23  -70  -152  -226  -233  -173  -94  -3  136  319  501  664  806  923  1074  1332  1661  1932  2076  2134  2178  2245  2318  2366  2382  2386  2394  2388  2333  2244  2179  2151  2092  1915  1596  1212  877  636  425  134  -235  -527  -620  -536  -368  -204  -88  -27  -1  4  -42  -197  -453  -715  -892  -942  -879  -768  -685  -653  -653  -678  -743  -847  -960  -1051  -1104  -1110  -1047  -886  -676  -523  -463  -444  -409  -341  -261  -204  -174  -154  -145  -195  -354  -576  -747  -811  -808  -783  -747  -697  -642  -604  -593  -600  -611  -621  -623  -618  -610  -620  -670  -750  -817  -832  -797  -774  -811  -880  -906  -871  -824  -785  -654  -348  19  241  256  169  68  -46  -188  -328  -436  -501  -531  -554  -586  -611  -601  -519  -353  -164  -37  -2  -32  -100  -181  -239  -254  -235  -206  -182  -162  -143  -142  -176  -226  -260  -271  -270  -273  -305  -386  -491  -568  -596  -595  -583  -558  -513  -435  -298  -101  61  68  -58  -175  -225  -269  -360  -459  -496  -472  -435  -411  -404  -395  -359  -315  -294  -294  -301  -305  -299  -278  -237  -174  -100  -60  -82  -135  -171  -184  -204  -211  -132  52  283  483  572  496  262  -83  -451  -710  -809  -815  -801  -777  -714  -604  -498  -479  -594  -830  -1096  -1273  -1328  -1314  -1288  -1271  -1290  -1406  -1691  -2036  -2050  -1345  88  1979  4022  5839  6947  7069  6298  4853  3046  1413  424  76  58  196  361  348  161  -22  -111  -111  -58  3  27  13  0  -13  -37  3  157  357  521  621  675  711  715  636  481  344  293  300  305  260  173  135  214  357  477  554  616  668  680  653  621  631  752  1019  1352  1610  1732  1760  1756  1757  1766  1776  1796  1845  1918  1990  2052  2124  2201  2252  2268  2270  2265  2229  2138  2004  1839  1589  1183  706  369  257  261  248  127  -140  -482  -749  -862  -867  -845  -850  -901  -978  -1053  -1120  -1174  -1178  -1086  -881  -630  -467  -473  -612  -780  -888  -920  -915  -902  -883  -849  -806  -780  -804  -877  -958  -1006  -1006  -972  -907  -805  -700  -644  -653  -681  -655  -578  -530  -505  -438  -329  -217  -141  -131  -177  -267  -417  -595  -733  -810  -841  -831  -771  -659  -512  -372  -290  -284  -332  -381  -375  -312  -241  -213  -230  -244  -217  -174  -151  -157  -184  -223  -269  -324  -390  -442  -439  -373  -277  -165  -36  78  121  79  0  -89  -186  -267  -303  -305  -292  -265  -232  -233  -283  -333  -334  -294  -270  -305  -384  -453  -466  -427  -395  -413  -455  -477  -474  -468  -492  -566  -651  -657  -546  -419  -387  -424  -431  -385  -335  -323  -346  -365  -358  -326  -283  -237  -197  -177  -182  -204  -226  -237  -238  -236  -233  -222  -186  -118  -33  78  234  393  504  550  496  388  336  321  247  133  60  58  113  187  235  200  27  -237  -461  -580  -630  -662  -696  -726  -742  -742  -720  -669  -613  -599  -640  -714  -805  -937  -1137  -1280  -1043  -214  1075  2607  4215  5628  6558  6774  6055  4409  2241  185  -1244  -1906  -1956  -1628  -1133  -591  -97  201  203  -57  -413  -666  -751  -743  -709  -655  -585  -541  -547  -565  -578  -607  -652  -681  -647  -481  -146  262  542  578  404  149  -54  -155  -186  -177  -119  -7  93  107  56  18  56  182  348  515  711  946  1183  1406  1615  1816  2006  2160  2262  2330  2376  2404  2434  2480  2513  2467  2320  2142  2024  1976  1924  1794  1570  1332  1174  1065  873  565  232  -39  -213  -297  -349  -429  -554  -667  -700  -693  -719  -756  -763  -771  -807  -831  -815  -790  -797  -812  -760  -619  -513  -611  -876  -1017  -818  -417  -142  -145  -311  -464  -542  -576  -598  -619  -639  -623  -521  -327  -112  40  115  178  270  249  -49  -507  -867  -1041  -1097  -1102  -1081  -1036  -968  -863  -685  -454  -261  -161  -133  -131  -128  -135  -197  -335  -502  -613  -648  -646  -637  -617  -567  -497  -439  -404  -395  -457  -641  -904  -1097  -1081  -808  -377  -9  144  112  4  -133  -338  -606  -838  -961  -996  -1005  -1028  -1061  -1071  -1014  -866  -673  -525  -475  -507  -566  -615  -650  -654  -576  -376  -113  81  149  118  19  -122  -265  -375  -429  -418  -347  -250  -171  -100  14  180  332  424  475  533  594  571  385  94  -181  -388  -518  -590  -667  -785  -911  -1005  -1070  -1140  -1212  -1238  -1167  -1013  -837  -687  -585  -544  -592  -784  -1051  -1110  -729  137  1505  3254  4922  6011  6332  5837  4460  2421  276  -1493  -2501  -2430  -1506  -419  293  443  150  -266  -582  -763  -847  -866  -838  -781  -688  -542  -384  -300  -320  -394  -449  -452  -426  -402  -369  -292  -155  -3  68  -2  -184  -380  -475  -394  -189  19  186  348  505  611  654  678  705  711  682  672  736  850  981  1163  1434  1784  2140  2397  2505  2514  2508  2523  2545  2557  2564  2583  2609  2585  2402  2017  1554  1204  1028  944  878  793  633  323  -90  -442  -630  -694  -708  -710  -703  -689  -677  -687  -729  -795  -865  -917  -924  -858  -703  -512  -390  -427  -651  -962  -1183  -1204  -1048  -828  -674  -631  -656  -694  -716  -719  -712  -703  -689  -658  -593  -472  -278  -59  97  170  179  97  -121  -417  -639  -714  -676  -567  -435  -340  -308  -331  -395  -479  -538  -528  -429  -278  -138  -23  84  158  153  53  -108  -258  -374  -496  -619  -721  -811  -849  -751  -508  -219  -5  89  92  -13  -280  -641  -897  -873  -546  -82  245  286  82  -209  -411  -438  -320  -145  0  88  106  -1  -275  -605  -757  -609  -291  -38  49  5  -122  -286  -417  -482  -489  -447  -354  -213  -59  55  108  102  49  -37  -138  -227  -261  -213  -116  -28  41  127  244  341  356  290  209  154  136  176  231  224  149  21  -155  -353  -540  -678  -726  -670  -529  -366  -256  -223  -266  -384  -571  -782  -943  -1015  -1011  -946  -864  -917  -1232  -1647  -1744  -1152  222  2210  4480  6522  7688  7590  6287  4113  1666  -284  -1253  -1339  -969  -550  -370  -447  -581  -641  -634  -593  -533  -468  -426  -428  -467  -517  -549  -558  -561  -566  -567  -553  -522  -485  -459  -457  -481  -511  -503  -450  -413  -433  -460  -415  -273  -83  86  192  237  259  298  357  402  415  406  388  378  459  769  1343  1970  2364  2471  2431  2360  2279  2192  2143  2167  2239  2308  2349  2374  2398  2410  2358  2191  1930  1635  1319  995  722  548  467  436  414  381  308  148  -92  -351  -565  -684  -704  -677  -646  -636  -658  -657  -601  -538  -505  -497  -508  -551  -634  -710  -721  -701  -711  -743  -766  -786  -808  -813  -779  -691  -560  -421  -319  -300  -371  -479  -565  -625  -667  -654  -539  -350  -187  -114  -125  -192  -277  -349  -393  -404  -378  -332  -290  -269  -270  -284  -293  -254  -133  37  179  251  244  140  -41  -231  -371  -452  -511  -582  -653  -698  -720  -738  -733  -629  -366  -11  272  375  279  16  -320  -601  -736  -677  -447  -168  22  83  17  -172  -417  -589  -626  -566  -451  -311  -189  -126  -126  -165  -217  -258  -283  -296  -293  -265  -234  -242  -298  -360  -403  -433  -446  -414  -298  -102  121  275  266  116  -58  -177  -235  -253  -250  -243  -249  -269  -279  -249  -177  -86  5  105  210  258  206  113  59  72  147  249  334  395  445  488  521  537  545  544  511  421  259  43  -184  -377  -488  -505  -451  -359  -274  -232  -224  -244  -315  -436  -570  -728  -977  -1296  -1547  -1651  -1658  -1642  -1623  -1554  -1285  -590  648  2263  3870  5152  5993  6394  6234  5193  3235  1064  -408  -958  -1011  -980  -970  -939  -885  -862  -909  -997  -1066  -1090  -1088  -1092  -1122  -1167  -1200  -1209  -1202  -1183  -1132  -1022  -860  -709  -626  -615  -668  -798  -990  -1177  -1274  -1168  -732  0]
