reading_id,reading_time,wire_id,result_classification,heart_rate,heart_rate_alert,firmware_version,device_app_version,hardware_version,waveform_samples
650ad1f0-5a43-11ed-8080-808080808080,Wed Nov 02 00:15:02 UTC 2022,410163471e39,NSR,62,NONE,20001.171.50,2.10.0,Charge 5,[3408  3782  4301  4858  5206  5326  5546  6261  7473  8674  9378  9594  9619  9688  9955  10488  11159  11771  12322  12959  13691  14361  14912  15592  16719  18179  19444  20256  20920  21830  22987  24031  24657  24878  24767  24152  22817  20875  18739  16832  15325  13968  12383  10674  9356  8637  8125  7235  5632  3469  1337  -332  -1708  -3077  -4407  -5684  -6998  -8333  -9834  -11938  -15003  -18779  -22384  -25139  -27026  -28368  -29770  -31893  -32768  -32768  -32768  -32768  -32768  -32768  -32768  -32768  -32768  -32768  -32768  -32768  -32768  -32768  -32768  -32768  -32768  -32768  -32768  -31619  -30769  -30387  -30141  -29880  -29626  -29354  -28985  -28423  -27588  -26614  -25805  -25275  -24916  -24611  -24272  -23878  -23503  -23175  -22726  -21856  -20409  -18538  -16514  -14501  -12563  -10918  -9943  -9714  -9940  -10320  -10666  -10854  -10820  -10537  -10075  -9641  -9375  -9141  -8648  -7759  -6585  -5389  -4423  -3735  -3205  -2743  -2343  -1952  -1405  -635  113  549  717  959  1541  2407  3327  4115  4644  4924  5128  5379  5650  5931  6307  6818  7323  7645  7831  8091  8542  9136  9763  10346  10825  11135  11248  11215  11144  11154  11332  11650  11964  12149  12209  12265  12444  12741  13016  13177  13256  13287  13242  13089  12835  12599  12524  12534  12456  12310  12182  12061  11918  11747  11541  11313  11115  10992  10912  10789  10579  10334  10154  10083  10075  10068  10011  9843  9560  9270  9102  9062  9080  9111  9134  9085  8876  8533  8215  8019  7856  7600  7279  7027  6886  6797  6728  6671  6608  6559  6556  6573  6513  6280  5906  5556  5365  5321  5323  5297  5224  5082  4835  4529  4308  4254  4322  4417  4488  4522  4490  4370  4163  3873  3521  3154  2812  2531  2363  2321  2352  2395  2421  2412  2358  2260  2127  1995  1861  1690  1523  1427  1415  1484  1607  1701  1703  1607  1468  1358  1292  1231  1147  1036  885  718  598  550  548  572  613  687  814  958  1057  1105  1132  1143  1114  976  677  304  23  -111  -171  -217  -260  -296  -336  -408  -554  -809  -1118  -1364  -1496  -1562  -1613  -1655  -1694  -1744  -1793  -1809  -1795  -1771  -1760  -1829  -2000  -2121  -1980  -1498  -679  516  2080  3647  4634  4727  3973  2663  1208  -51  -980  -1619  -1917  -1813  -1587  -1516  -1530  -1486  -1365  -1240  -1197  -1237  -1287  -1279  -1228  -1202  -1203  -1176  -1114  -1039  -969  -924  -913  -917  -903  -848  -761  -691  -681  -734  -819  -870  -843  -774  -719  -691  -679  -666  -637  -603  -597  -631  -661  -605  -423  -163  89  280  406  498  578  639  670  679  698  763  915  1152  1384  1479  1365  1092  808  641  580  524  403  185  -128  -459  -681  -753  -747  -761  -842  -955  -1038  -1102  -1181  -1265  -1350  -1441  -1491  -1478  -1441  -1413  -1402  -1402  -1398  -1371  -1335  -1334  -1382  -1420  -1344  -1103  -805  -613  -556  -562  -557  -516  -457  -413  -396  -384  -348  -281  -209  -165  -158  -172  -190  -203  -210  -212  -198  -152  -58  59  114  57  -42  -80  -16  115  202  191  161  167  207  261  239  105  -34  -88  -72  -50  -91  -249  -466  -590  -563  -437  -293  -209  -145  0  178  265  206  24  -193  -367  -493  -583  -647  -713  -778  -809  -783  -689  -550  -418  -325  -273  -249  -253  -332  -524  -769  -949  -1015  -1003  -946  -831  -621  -320  -28  150  204  190  154  120  91  63  35  -1  -52  -100  -119  -104  -82  -81  -99  -129  -175  -231  -291  -371  -493  -631  -732  -778  -799  -827  -875  -947  -1064  -1233  -1388  -1472  -1482  -1431  -1346  -1252  -1152  -1091  -1131  -1281  -1504  -1736  -1898  -1941  -1906  -1762  -1325  -500  657  2042  3371  4274  4533  4053  2866  1203  -550  -1925  -2614  -2716  -2511  -2160  -1840  -1731  -1768  -1797  -1786  -1753  -1718  -1731  -1814  -1875  -1823  -1701  -1602  -1574  -1622  -1707  -1769  -1786  -1780  -1772  -1764  -1742  -1699  -1652  -1634  -1656  -1678  -1648  -1550  -1394  -1213  -1051  -938  -883  -874  -874  -838  -727  -524  -273  -57  87  185  266  352  461  615  821  1057  1273  1428  1509  1532  1525  1504  1459  1373  1267  1190  1161  1152  1117  1019  851  651  486  381  289  190  98  -15  -198  -414  -570  -623  -612  -584  -546  -477  -393  -335  -316  -310  -299  -303  -367  -498  -642  -735  -791  -875  -987  -1057  -1036  -947  -847  -752  -636  -495  -368  -282  -240  -231  -248  -284  -327  -367  -406  -449  -486  -507  -516  -530  -565  -617  -654  -635  -539  -401  -291  -242  -226  -214  -201  -190  -185  -189  -208  -244  -270  -241  -147  -37  32  56  53  16  -84  -229  -351  -392  -346  -251  -153  -47  82  190  232  232  227  229  232  210  144  55  -9  -32  -36  -44  -59  -75  -93  -110  -116  -108  -92  -85  -103  -138  -161  -159  -147  -143  -150  -157  -160  -173  -214  -277  -342  -395  -419  -372  -243  -88  25  77  87  65  -18  -204  -459  -679  -807  -840  -795  -710  -612  -512  -436  -382  -327  -295  -321  -382  -420  -386  -242  -7  234  395  430  375  311  278  266  265  311  441  618  733  713  563  329  91  -56  -76  -12  57  82  77  86  110  144  219  343  464  531  554  530  433  305  239  322  539  669  577  513  773  1475  2727  4413  6036  7070  7230  6448  4862  2920  1340  563  414  532  738  853  732  509  386  394  482  583  647  665  662  651  634  612  592  580  580  589  581  535  473  448  480  536  589  651  717  764  788  796  796  797  798  790  763  722  688  671  675  741  914  1149  1324  1391  1410  1451  1518  1576  1619  1678  1788  1957  2141  2267  2305  2273  2205  2139  2096  2045  1918  1635  1202  778  521  419  364  302  238  184  139  101  76  65  63  78  127  197  210  41  -361  -853  -1203  -1327  -1310  -1257  -1209  -1137  -989  -788  -639  -587  -590  -607  -639  -707  -804  -892  -933  -893  -751  -572  -498  -610  -827  -996  -1060  -1057  -1015  -930  -818  -724  -645  -553  -474  -458  -487  -513  -532  -574  -641  -701  -728  -729  -721  -693  -610  -465  -308  -196  -154  -163  -190  -249  -391  -610  -821  -938  -939  -871  -804  -752  -680  -596  -571  -661  -821  -956  -1017  -1013  -937  -767  -549  -405  -416  -565  -761  -889  -895  -812  -710  -616  -510  -421  -417  -522  -687  -839  -943  -974  -926  -847  -790  -757  -722  -663  -562  -424  -306  -258  -261  -277  -322  -435  -591  -712  -759  -758  -746  -734  -713  -660  -564  -450  -372  -348  -353  -361  -359  -348  -342  -378  -488  -642  -756  -786  -744  -664  -584  -521  -451  -358  -299  -323  -385  -408  -374  -303  -226  -165  -108  -54  -54  -129  -202  -206  -130  4  157  296  420  542  633  625  469  229  35  -65  -130  -218  -337  -454  -527  -549  -557  -579  -608  -628  -638  -639  -637  -639  -636  -623  -641  -771  -1035  -1273  -1330  -1262  -1083  -607  298  1641  3321  4965  6041  6198  5365  3743  1832  208  -775  -1023  -789  -539  -466  -474  -483  -502  -566  -690  -831  -903  -881  -826  -785  -737  -656  -567  -490  -419  -368  -340  -311  -285  -280  -279  -234  -130  -18  43  47  1  -120  -306  -465  -528  -512  -447  -334  -172  12  201  405  613  761  825  849  884  958  1058  1155  1252  1365  1482  1597  1713  1798  1818  1815  1828  1845  1845  1814  1744  1628  1465  1270  1063  871  705  488  151  -216  -450  -513  -492  -468  -475  -525  -614  -702  -738  -724  -688  -640  -578  -510  -455  -410  -350  -266  -179  -147  -233  -402  -539  -589  -587  -577  -572  -565  -549  -520  -493  -487  -514  -558  -571  -533  -480  -455  -453  -452  -445  -444  -485  -588  -703  -755  -681  -459  -165  58  99  -79  -379  -610  -696  -699  -674  -602  -449  -251  -89  -4  9  -65  -258  -514  -705  -775  -773  -759  -746  -715  -640  -530  -424  -357  -329  -329  -359  -427  -534  -662  -770  -826  -829  -801  -762  -733  -714  -681  -638  -620  -618  -595  -559  -537  -535  -536  -517  -480  -456  -456  -463  -453  -415  -364  -320  -287  -263  -246  -227  -190  -114  -9  73  91  48  -26  -66  -32  29  57  46  18  -9  -34  -63  -90  -90  -47  22  76  95  86  76  99  177  282  349  360  362  386  405  386  339  298  294  332  386  428  456  471  466  435  387  350  374  498  707  924  1077  1143  1124  1028  890  773  705  662  603  528  460  406  356  280  132  -106  -369  -548  -597  -569  -527  -468  -376  -256  -110  90  387  635  394  -543  -1660  -2189  -1820  -680  954  2738  4347  5566  6143  5765  4365  2325  320  -1019  -1394  -968  -296  79  16  -280  -579  -785  -900  -945  -951  -949  -939  -899  -815  -715  -643  -609  -606  -632  -682  -730  -746  -738  -735  -711  -626  -523  -466  -452  -445  -426  -420  -479  -610  -739  -798  -795  -776  -767  -741  -632  -408  -114  171  390  525  597  651  716  799  903  1017  1106  1139  1158  1257  1439  1601  1686  1724  1744  1756  1758  1734  1651  1484  1272  1070  863  628  400  213  67  -36  -117  -185  -228  -247  -260  -272  -281  -284  -283  -283  -279  -255  -195  -93  39  166  207  119  -18  -103  -116  -98  -77  -48  11  98  199  304  389  428  452  518  630  688  609  476  422  451  491  504  501  497  506  527  553  568  562  543  509  453  389  347  337  345  349  326  266  191  147  155  199  249  276  254  168  34  -79  -105  -53  5  30  30  26  21  5  -27  -87  -164  -224  -264  -265  -154  8  49  -37  -129  -163  -145  -116  -100  -62  13  84  123  140  148  153  148  130  114  106  85  24  -62  -150  -229  -277  -262  -172  -46  43  48  -29  -146  -242  -284  -281  -264  -270  -320  -395  -453  -479  -502  -541  -578  -586  -564  -543  -567  -659  -777  -854  -878  -890  -920  -947  -919  -818  -719  -742  -882  -999  -1005  -937  -868  -831  -824  -823  -805  -742  -599  -343  -2  293  416  384  306  261  275  294  221  44  -156  -304  -417  -577  -797  -1016  -1208  -1373  -1474  -1500  -1490  -1497  -1547  -1623  -1677  -1666  -1580  -1464  -1390  -1386  -1402  -1415  -1557  -1898  -2184  -2083  -1444  -228  1496  3424  5015  5765  5514  4321  2354  164  -1493  -2237  -2102  -1409  -764  -651  -933  -1146  -1139  -1072  -1052  -1055  -1037  -984  -916  -858  -827  -819  -819  -820  -822  -821  -802  -754  -694  -652  -636  -621  -593  -574  -570  -519  -376  -193  -27  114  215  250  221  152  80  42  84  234  446  620  711  775  914  1185  1524  1791  1913  1948  1996  2089  2192  2264  2298  2311  2320  2312  2252  2126  1976  1864  1777  1655  1485  1301  1100  860  623  469  413  388  308  115  -147  -349  -422  -414  -383  -344  -293  -239  -203  -192  -195  -199  -197  -187  -174  -164  -157  -148  -143  -158  -191  -209  -201  -198  -207  -205  -183  -143  -87  -26  26  39  -19  -131  -242  -312  -338  -344  -358  -391  -444  -525  -607  -639  -613  -577  -567  -583  -604  -624  -661  -721  -777  -785  -743  -712  -743  -810  -861  -871  -850  -829  -833  -875  -958  -1063  -1136  -1127  -1027  -880  -756  -688  -664  -656  -641  -613  -584  -569  -564  -550  -509  -430  -323  -214  -130  -83  -59  -26  37  126  210  267  293  290  254  203  166  153  154  156  159  166  179  179  129  0  -142  -199  -157  -77  -2  24  -6  -55  -88  -100  -102  -106  -129  -169  -187  -158  -117  -109  -129  -146  -142  -115  -59  10  61  77  77  85  117  174  238  291  330  362  388  409  438  485  553  653  773  870  920  939  961  1003  1050  1093  1142  1190  1207  1144  970  743  562  451  388  359  338  292  223  159  120  103  92  62  -4  -93  -162  -189  -165  -79  48  130  26  -291  -633  -855  -970  -898  -498  296  1525  3101  4723  5929  6234  5456  3862  1917  108  -1118  -1554  -1371  -930  -522  -303  -273  -317  -351  -376  -414  -457  -478  -453  -392  -352  -371  -412  -430  -427  -420  -418  -421  -438  -475  -512  -515  -482  -437  -390  -330  -270  -240  -252  -266  -209  -69  68  144  181  210  251  327  443  615  839  1042  1188  1308  1400  1437  1432  1419  1428  1476  1582  1766  1982  2134  2188  2190  2178  2132  2022  1850  1641  1395  1132  899  704  545  445  410  409  422  431  406  313  127  -109  -297  -380  -395  -405  -434  -463  -472  -449  -389  -307  -238  -204  -197  -208  -224  -240  -254  -258  -254  -245  -230  -220  -238  -304  -395  -463  -489  -495  -511  -538  -560  -569  -572  -573  -564  -531  -479  -432  -407  -398  -393  -376  -358  -397  -578  -867  -1042  -962  -772  -672  -694  -763  -815  -833  -831  -818  -792  -757  -723  -695  -676  -659  -633  -593  -543  -494  -458  -442  -435  -433  -437  -448  -454  -446  -433  -431  -442  -468  -511  -569  -617  -603  -527  -448  -403  -374  -333  -289  -272  -290  -314  -313  -268  -182  -71  47  154  233  273  281  278  282  288  279  230  119  -41  -192  -273  -284  -267  -261  -306  -433  -615  -771  -849  -862  -837  -764  -637  -491  -392  -396  -548  -816  -1074  -1246  -1349  -1387  -1397  -1345  -946  51  1548  3255  4826  5732  5529  4286  2453  569  -898  -1714  -1928  -1750  -1389  -1004  -712  -563  -531  -559  -597  -617  -613  -592  -564  -538  -523  -518  -516  -512  -516  -541  -578  -604  -607  -580  -508  -394  -278  -193  -159  -182  -244  -313  -360  -367  -331  -268  -212  -178  -144  -76  37  166  265  347  467  653  895  1128  1264  1290  1270  1251  1244  1260  1324  1441  1588  1725  1807  1833  1843  1847  1837  1836  1843  1785  1573  1199  781  443  196  17  -120  -255  -374  -436  -460  -476  -497  -521  -525  -509  -517  -575  -648  -696  -703  -672  -591  -433  -225  -48  48  80  64  4  -91  -178  -214  -192  -138  -83  -45  -28  -38  -82  -144  -189  -171  -71  77  200  250  226  135  -11  -180  -336  -456  -513  -495  -392  -181  104  333  379  201  -149  -548  -868  -1049  -1095  -1063  -1018  -988  -952  -861  -684  -501  -461  -578  -719  -784  -785  -781  -838  -985  -1164  -1248  -1143  -870  -560  -351  -275  -275  -283  -250  -153  -2  136  144  -42  -314  -501  -567  -581  -568  -448  -144  253  538  632  631  647  704  745  676  455  143  -158  -379  -494  -525  -521  -516  -519  -516  -480  -410  -370  -445  -612  -761  -837  -868  -885  -899  -904  -911  -955  -1068  -1234  -1401  -1526  -1553  -1372  -851  72  1330  2780  4213  5237  5454  4811  3544  1960  400  -807  -1464  -1603  -1403  -1070  -856  -872  -965  -971  -888  -762  -634  -549  -513  -481  -426  -381  -378  -387  -374  -350  -339  -342  -346  -335  -293  -229  -170  -132  -125  -145  -155  -119  -53  -4  6  -3  3  77  248  464  631  720  768  794  800  810  875  1043  1285  1495  1609  1652  1678  1708  1747  1810  1905  2009  2087  2106  2069  2014  1966  1895  1755  1541  1326  1198  1154  1092  934  723  573  522  472  295  -12  -312  -481  -522  -503  -477  -469  -499  -571  -660  -743  -783  -709  -529  -371  -360  -534  -826  -1088  -1217  -1237  -1212  -1155  -1040  -892  -787  -772  -832  -923  -1001  -1048  -1060  -1037  -999  -968  -950  -934  -893  -807  -708  -650  -639  -619  -511  -272  20  226  293  289  286  289  252  125  -84  -270  -330  -294  -258  -256  -273  -286  -290  -289  -280  -250  -211  -182  -176  -209  -273  -335  -382  -422  -457  -493  -538  -587  -625  -658  -709  -776  -826  -846  -856  -877  -907  -929  -936  -943  -964  -998  -1023  -1027  -1014  -995  -970  -910  -806  -696  -598  -478  -338  -230  -182  -177  -180  -164  -103  12  138  183  133  65  32  20  -6  -57  -112  -145  -154  -154  -151  -138  -105  -66  -51  -68  -105  -146  -164  -128  -38  63  131  155  156  151  136  108  56  -64  -281  -482  -453  -33  869  2327  4210  6000  7048  6987  5845  4009  2044  431  -562  -958  -982  -809  -577  -418  -376  -435  -561  -683  -749  -766  -764  -755  -743  -725  -708  -703  -718  -743  -760  -747  -687  -587  -474  -363  -275  -228  -216  -211  -188  -112  52  264  420  482  495  495  477  434  375  342  365  435  529  642  794  1025  1295  1485  1565  1625  1748  1944  2169  2347  2433  2437  2379  2267  2133  2018  1936  1873  1807  1692  1482  1211  967  775  571  252  -219  -707  -1012  -1097  -1070  -1025  -994  -984  -981  -940  -811  -619  -459  -399  -468  -666  -882  -973  -936  -869  -824  -805  -801  -802  -807  -826  -853  -844  -744  -571  -426  -417  -569  -784  -937  -996  -1003  -991  -965  -918  -850  -755  -634  -509  -410  -317  -180  -16  78  48  -61  -169  -234  -252  -229  -166  -75  14  67  81  96  155  276  424  533  544  418  152  -181  -457  -591  -591  -515  -422  -345  -278  -197  -105  -22  32  57  72  100  115  63  -77  -258  -393  -457  -491  -514  -521  -506  -468  -420  -387  -373  -355  -309  -242  -184  -150  -128  -126  -206  -425  -733  -987  -1106  -1122  -1108  -1101  -1085  -1020  -904  -786  -708  -654  -579  -459  -308  -181  -126  -134  -154  -165  -167  -164  -148  -115  -71  -34  -17  -10  18  94  201  296  353  365  337  311  326  369  391  347  249  171  188  289  397  465  503  529  545  548  543  537  543  582  662  783  929  1006  880  589  344  259  275  284  217  62  -148  -361  -521  -596  -615  -621  -632  -633  -615  -581  -530  -472  -433  -431  -465  -514  -557  -587  -616  -661  -758  -938  -1148  -1151  -706  159  1338  2819  4415  5761  6505  6319  5112  3219  1225  -346  -1232  -1438  -1243  -1017  -870  -768  -770  -855  -904  -882  -833  -780  -692  -532  -342  -212  -171  -182  -209  -244  -275  -286  -278  -257  -216  -159  -121  -147  -237  -332  -376  -357  -298  -221  -141  -78  -40  -3  73  182  279  345  412  512  629  714  777  890  1080  1282  1419  1492  1553  1624  1681  1707  1710  1702  1706  1745  1808  1833  1755  1566  1325  1114  970  851  651  337  16  -222  -423  -670  -925  -1089  -1136  -1124  -1106  -1099  -1100  -1107  -1111  -1101  -1060  -992  -927  -892  -887  -895  -900  -880  -814  -717  -631  -582  -564  -565  -578  -608  -667  -749  -786  -698  -499  -316  -278  -382  -507  -580  -626  -688  -769  -846  -891  -889  -830  -718  -594  -509  -474  -463  -469  -519  -641  -797  -908  -945  -946  -950  -958  -950  -920  -889  -873  -877  -900  -940  -985  -1016  -1029  -1029  -1019  -995  -963  -941  -932  -923  -901  -864  -822  -791  -795  -848  -923  -961  -924  -838  -753  -684  -590  -441  -277  -175  -167  -233  -321  -372  -357  -286  -199  -140  -121  -124  -131  -135  -135  -123  -88  -24  58  136  196  247  287  298  299  325  378  425  459  500  553  599  621  622  619  612  563  422  196  -37  -200  -271  -279  -271  -278  -303  -332  -344  -342  -365  -447  -571  -694  -808  -917  -992  -1013  -989  -948  -955  -1088  -1262  -1199  -705  225  1520  3085  4768  6175  6753  6241  4815  2929  1122  -152  -686  -676  -481  -271  -154  -187  -218  -132  -30  -9  -29  -22  25  95  163  206  221  228  231  205  131  34  -6  57  181  261  244  182  150  167  198  199  195  248  353  442  474  463  448  451  483  568  701  831  937  1050  1190  1328  1447  1547  1616  1647  1666  1710  1764  1764  1717  1701  1747  1812  1829  1771  1680  1585  1413  1085  649  251  -21  -187  -294  -364  -423  -511  -638  -762  -853  -905  -893  -809  -708  -646  -634  -647  -662  -676  -685  -685  -658  -580  -467  -369  -323  -323  -346  -372  -385  -370  -313  -235  -163  -110  -104  -156  -267  -434  -599  -711  -800  -879  -919  -890  -757  -516  -223  12  101  73  37  55  101  112  77  30  -42  -154  -245  -249  -145  25  180  257  241  127  -59  -240  -343  -348  -272  -161  -62  3  37  43  35  29  28  26  20  13  13  14  -4  -63  -148  -213  -233  -218  -192  -169  -145  -124  -130  -199  -342  -484  -562  -604  -621  -581  -512  -477  -513  -615  -724  -785  -813  -828  -821  -805  -821  -866  -904  -902  -861  -808  -765  -737  -723  -719  -708  -670  -598  -504  -414  -357  -334  -327  -318  -293  -216  -60  142  303  371  367  330  282  224  135  9  -107  -175  -194  -192  -190  -217  -299  -425  -552  -667  -789  -908  -989  -1015  -997  -948  -881  -817  -765  -739  -760  -838  -974  -1163  -1364  -1443  -1246  -777  -76  1001  2552  4309  5713  6161  5331  3458  1295  -375  -1237  -1498  -1512  -1444  -1325  -1218  -1166  -1138  -1103  -1070  -1055  -1054  -1042  -995  -921  -842  -760  -665  -577  -520  -477  -405  -291  -175  -99  -61  -32  -1  19  18  15  51  156  304  443  560  660  727  754  752  730  701  703  787  944  1097  1218  1367  1560  1738  1860  1940  2005  2062  2101  2126  2162  2209  2245  2250  2233  2215  2213  2226  2219  2129  1899  1539  1124  750  469  277  159  101  53  -44  -182  -300  -370  -422  -497  -612  -751  -873  -947  -978  -982  -978  -971  -955  -926  -874  -783  -668  -582  -553  -560  -577  -591  -606  -624  -624  -585  -526  -483  -471  -475  -478  -473  -469  -486  -541  -617  -665  -648  -578  -499  -450  -434  -423  -401  -386  -389  -398  -400  -383  -323  -230  -156  -168  -288  -441  -537  -570  -575  -573  -567  -560  -573  -634  -722  -723  -570  -354  -195  -112  -99  -154  -231  -265  -226  -163  -146  -176  -204  -212  -212  -214  -214  -195  -141  -65  -6  18  5  -51  -151  -254  -298  -218  2  275  459  489  394  240  85  -56  -205  -364  -507  -622  -745  -918  -1105  -1220  -1235  -1197  -1163  -1149  -1148  -1159  -1184  -1223  -1272  -1332  -1397  -1446  -1468  -1475  -1480  -1474  -1424  -1343  -1333  -1436  -1471  -1115  -174  1321  3154  4819  5697  5538  4503  2909  1184  -202  -960  -1125  -915  -533  -215  -151  -264  -359  -368  -316  -232  -125  -19  19  -24  -88  -120  -125  -116  -89  -32  65  192  292  336  354  368  372  365  344  300  237  172  134  155  254  429  627  762  807  798  781  792  864  1003  1163  1280  1342  1387  1456  1575  1748  1935  2087  2195  2270  2314  2329  2330  2321  2285  2213  2120  2018  1889  1718  1524  1347  1179  986  786  628  516  416  300  176  74  13  0  35  85  117  125  121  115  103  75  40  15  9  5  -16  -60  -120  -184  -251  -325  -393  -441  -491  -579  -690  -778  -831  -854  -850  -808  -745  -708  -703  -681  -649  -660  -709  -764  -810  -836  -826  -768  -682  -617  -601  -631  -714  -873  -1087  -1284  -1397  -1399  -1307  -1177  -1079  -1048  -1063  -1088  -1093  -1072  -1037  -1004  -984  -971  -953  -923  -876  -813  -746  -683  -629  -595  -585  -588  -593  -593  -587  -570  -534  -484  -459  -493  -565  -625  -650  -649  -641  -639  -644  -649  -641  -609  -560  -527  -531  -567  -625  -690  -743  -777  -791  -749  -599  -359  -124  9  5  -98  -224  -333  -416  -465  -471  -427  -340  -238  -156  -107  -68  -16  18  -11  -129  -327  -554  -726  -814  -867  -928  -1010  -1098  -1166  -1201  -1207  -1186  -1152  -1112  -1056  -1014  -1036  -1108  -1187  -1266  -1365  -1464  -1505  -1476  -1439  -1469  -1528  -1322  -521  843  2451  3930  4921  5219  4845  3871  2391  688  -750  -1508  -1488  -943  -337  -51  -112  -287  -405  -439  -421  -367  -274  -149  -28  56  128  234  363  455  486  470  422  351  271  199  159  169  235  345  459  528  546  540  534  533  536  547  580  630  652  653  741  976  1253  1430  1484  1479  1464  1459  1487  1585  1766  2009  2246  2405  2479  2523  2569  2611  2612  2519  2351  2199  2083  1925  1659  1320  1020  847  780  725  609  429  229  53  -95  -257  -451  -613  -652  -579  -492  -450  -440  -447  -491  -589  -698  -754  -750  -724  -703  -669  -598  -500  -424  -398  -418  -479  -562  -638  -692  -735  -760  -727  -601  -424  -293  -246  -248  -263  -296  -347  -381  -368  -327  -267  -165  -37  59  98  90  47  -21  -99  -146  -112  29  230  379  404  300  111  -77  -206  -286  -336  -351  -338  -317  -286  -233  -143  -36  39  64  59  50  45  43  41  31  -2  -70  -163  -249  -297  -301  -280  -249  -210  -172  -149  -143  -142  -138  -132  -139  -182  -282  -452  -675  -874  -954  -872  -677  -472  -333  -259  -215  -182  -166  -172  -189  -201  -209  -240  -306  -383  -442  -465  -447  -407  -356  -275  -142  39  239  415  502  439  294  208  183  105  -48  -207  -317  -385  -423  -405  -311  -171  -38  64  145  216  283  350  411  453  473  453  373  252  142  56  -23  -95  -145  -172  -174  -124  -4  147  257  295  289  262  208  117  -19  -235  -537  -862  -1129  -1340  -1551  -1744  -1839  -1824  -1771  -1715  -1632  -1517  -1394  -1266  -1116  -967  -851  -766  -724  -821  -1123  -1438  -1450  -1040  -282  746  2071  3684  5288  6338  6426  5479  3738  1810  410  -193  -295  -289  -348  -455  -518  -522  -522  -539  -569  -622  -690  -720  -642  -439  -195  -29  24  9  -43  -132  -239  -336  -421  -483  -494  -459  -412  -374  -352  -345  -341  -320  -262  -157  -27  84  143  170  212  276  323  335  333  357  436  554  656  708  741  834  1026  1281  1520  1674  1734  1731  1673  1550  1395  1279  1229  1216  1209  1208  1221  1236  1213  1084  796  418  113  -51  -143  -227  -303  -369  -429  -469  -482  -474  -455  -438  -450  -509  -590  -635  -612  -550  -499  -482  -493  -528  -571  -602  -613  -613  -604  -581  -540  -495  -474  -492  -526  -539  -500  -417  -340  -310  -318  -336  -340  -328  -323  -338  -350  -327  -277  -255  -294  -370  -429  -447  -441  -431  -435  -469  -532  -594  -624  -627  -621  -621  -625  -621  -604  -581  -560  -547  -544  -565  -632  -753  -895  -1006  -1042  -981  -864  -776  -751  -759  -769  -781  -808  -845  -859  -837  -806  -803  -849  -954  -1108  -1257  -1343  -1353  -1310  -1230  -1115  -981  -857  -771  -718  -659  -572  -481  -431  -423  -413  -358  -271  -197  -154  -106  -15  92  146  126  94  107  146  171  178  175  165  143  119  132  227  406  611  780  907  1006  1085  1134  1117  998  785  534  317  176  99  56  37  34  0  -125  -345  -570  -704  -730  -682  -592  -494  -427  -398  -388  -394  -425  -457  -433  -371  -393  -552  -741  -769  -461  278  1489  3144  5007  6552  7179  6609  5042  2984  1067  -189  -676  -705  -643  -616  -585  -523  -439  -373  -359  -380  -412  -450  -499  -563  -633  -674  -659  -585  -488  -407  -339  -258  -175  -123  -107  -105  -104  -100  -96  -95  -106  -135  -168  -176  -142  -46  130  348  517  599  623  627  628  623  623  675  819  1020  1190  1292  1346  1391  1459  1537  1596  1639  1682  1716  1717  1677  1609  1537  1476  1425  1358  1236  1019  695  292  -98  -342  -404  -376  -329  -270  -210  -197  -307  -595  -983  -1308  -1492  -1558  -1540  -1443  -1282  -1108  -973  -886  -822  -757  -680  -598  -524  -465  -415  -378  -357  -346  -341  -353  -432  -598  -770  -813  -660  -381  -137  -25  -14  -18  12  70  118  141  144  119  48  -57  -155  -207  -186  -81  76  222  285  249  172  112  82  74  76  60  0  -89  -160  -184  -171  -147  -139  -164  -205  -223  -210  -198  -212  -229  -209  -142  -44  53  121  155  174  191  204  204  187  162  158  191  237  271  308  386  516  653  755  839  923  977  983  955  907  833  745  681  658  665  687  718  748  759  738  694  652  617  571  513  458  400  314  212  138  98  72  52  29  -2  -56  -163  -338  -521  -617  -599  -521  -456  -424  -405  -378  -332  -253  -158  -92  -71  -70  -58  -11  89  220  325  372  379  374  375  375  346  253  106  -52  -193  -312  -412  -497  -597  -756  -952  -1094  -1140  -1131  -1110  -1101  -1114  -1154  -1207  -1241  -1248  -1240  -1239  -1274  -1359  -1467  -1558  -1635  -1711  -1720  -1550  -1095  -233  1145  2947  4750  5947  6074  5034  3143  982  -847  -1930  -2211  -1999  -1649  -1343  -1180  -1182  -1240  -1261  -1254  -1250  -1233  -1163  -1042  -941  -902  -894  -872  -825  -783  -773  -804  -862  -920  -974  -1028  -1041  -968  -836  -728  -689  -695  -709  -696  -637  -545  -460  -412  -387  -333  -199  0  188  303  338  332  326  337  388  514  712  906  1029  1102  1188  1288  1358  1385  1400  1430  1483  1552  1590  1555  1453  1318  1189  1109  1077  1027  863  541  142  -201  -443  -597  -660  -646  -608  -599  -631  -679  -719  -747  -787  -875  -997  -1097  -1149  -1172  -1184  -1193  -1194  -1171  -1101  -983  -860  -786  -763  -744  -690  -615  -555  -524  -522  -541  -570  -592  -577  -514  -430  -346  -273  -223  -199  -192  -216  -294  -419  -540  -594  -543  -415  -286  -211  -195  -209  -223  -235  -246  -226  -139  -19  42  -3  -110  -197  -227  -215  -175  -124  -79  -50  -34  -28  -34  -59  -114  -189  -246  -254  -215  -168  -187  -297  -420  -477  -456  -368  -252  -169  -141  -150  -173  -200  -219  -218  -186  -131  -92  -71  -29  24  49  52  61  100  211  409  627  781  860  902  898  770  463  56  -286  -481  -564  -597  -609  -620  -665  -769  -896  -954  -893  -757  -633  -562  -541  -563  -624  -696  -752  -821  -964  -1183  -1350  -1226  -652  273  1351  2466  3568  4535  5073  4849  3803  2265  687  -541  -1135  -1146  -917  -683  -502  -419  -430  -449  -435  -417  -388  -339  -297  -262  -244  -270  -331  -380  -388  -372  -357  -339  -296  -237  -208  -226  -263  -284  -278  -276  -323  -388  -371  -241  -82  18  40  36  62  117  181  254  365  554  799  1007  1122  1174  1222  1303  1408  1513  1624  1796  2057  2337  2523  2560  2462  2290  2130  2036  1984  1911  1773  1575  1321  991  612  290  89  -33  -152  -301  -487  -669  -780  -805  -792  -780  -768  -754  -754  -783  -825  -850  -849  -838  -827  -793  -723  -633  -531  -412  -309  -263  -261  -273  -283  -266  -197  -79  36  111  148  168  180  188  195  199  202  204  204  195  171  141  117  85  26  -29  -37  -8  14  13  -1  -13  -10  3  25  63  121  164  116  -52  -276  -435  -470  -402  -285  -169  -89  -56  -69  -134  -233  -336  -418  -463  -455  -377  -252  -168  -178  -226  -248  -246  -253  -289  -341  -382  -399  -388  -347  -273  -170  -60  0  -29  -109  -192  -256  -301  -361  -487  -656  -784  -831  -814  -757  -686  -640  -644  -694  -757  -798  -809  -811  -829  -858  -859  -812  -757  -738  -753  -765  -765  -850  -1079  -1234  -1007  -334  755  2291  4035  5437  6052  5668  4330  2468  756  -346  -801  -827  -691  -569  -496  -462  -449  -411  -331  -245  -203  -222  -270  -310  -340  -389  -468  -536  -549  -522  -484  -436  -362  -255  -127  -20  36  37  -6  -83  -181  -274  -327  -327  -284  -214  -133  -41  59  156  231  279  311  329  331  330  380  541  795  1038  1207  1328  1442  1546  1617  1644  1640  1633  1651  1701  1726  1610  1354  1113  976  864  666  362  47  -157  -228  -229  -231  -258  -286  -282  -258  -258  -324  -469  -626  -700  -677  -608  -539  -497  -483  -483  -487  -500  -514  -501  -437  -338  -253  -205  -184  -192  -236  -319  -431  -520  -539  -513  -488  -474  -470  -479  -493  -501  -499  -485  -459  -416  -353  -286  -242  -234  -260  -311  -378  -443  -486  -504  -508  -495  -445  -356  -265  -217  -218  -241  -272  -321  -389  -446  -461  -434  -386  -321  -256  -239  -311  -449  -594  -700  -749  -737  -668  -576  -511  -487  -501  -546  -598  -626  -627  -601  -545  -460  -348  -232  -155  -126  -126  -134  -140  -135  -90  20  167  258  237  134  20  -39  -29  12  38  33  28  61  101  90  23  -57  -106  -102  -69  -45  -36  -36  -46  -63  -80  -96  -114  -126  -109  -38  82  201  249  202  117  72  92  171  308  467  564  553  477  401  358  342  334  314  272  196  73  -80  -214  -297  -337  -375  -441  -511  -549  -548  -528  -519  -516  -502  -519  -593  -685  -755  -799  -820  -824  -830  -912  -1160  -1515  -1761  -1650  -1008  106  1472  2957  4439  5634  6163  5712  4318  2431  636  -586  -1052  -961  -685  -438  -250  -107  8  99  141  126  76  19  -28  -58  -72  -77  -79  -81  -76  -58  -25  14  54  88  110  105  44  -97  -276  -403  -444  -426  -382  -332  -287  -238  -173  -90  10  131  277  424  521  552  545  525  501  494  556  722  934  1081  1123  1117  1135  1228  1410  1629  1796  1878  1914  1934  1880  1655  1243  752  325  59  -37  -39  -37  -72  -130  -182  -232  -302  -391  -481  -558  -605  -614  -610  -635  -710  -805  -885  -956  -1036  -1109  -1155  -1159  -1099  -968  -800  -656  -574  -557  -595  -656  -708  -743  -757  -731  -643  -497  -344  -240  -198  -195  -232  -296  -319  -235  -56  147  300  329  182  -96  -360  -500  -524  -498  -460  -420  -396  -409  -428  -369  -153  184  503  691  737  635  363  6  -265  -389  -430  -440  -426  -398  -385  -392  -374  -295  -178  -64  32  117  154  95  -53  -235  -388  -470  -490  -496  -532  -613  -698  -715  -639  -481  -246  0  112  17  -196  -388  -514  -606  -672  -703  -690  -629  -529  -426  -346  -305  -297  -302  -305  -299  -280  -237  -163  -95  -102  -195  -310  -388  -418  -425  -430  -440  -450  -457  -463  -464  -446  -395  -339  -344  -452  -607  -714  -743  -736  -735  -745  -753  -763  -788  -840  -909  -976  -1048  -1155  -1255  -1144  -573  537  2074  3782  5219  5940  5781  4847  3421  1878  552  -315  -723  -849  -787  -596  -414  -340  -347  -368  -365  -332  -285  -244  -221  -209  -195  -168  -119  -52  9  40  44  43  46  48  46  44  47  66  107  162  203  228  248  255  246  265  341  454  583  717  828  886  894  879  872  912  1036  1227  1437  1650  1858  2014  2084  2075  2029  1990  1978  1980  1973  1933  1864  1801  1762  1719  1608  1385  1055  629  125  -362  -714  -905  -992  -1042  -1106  -1191  -1264  -1302  -1320  -1337  -1343  -1313  -1263  -1230  -1217  -1202  -1168  -1131  -1124  -1136  -1133  -1100  -1029  -938  -876  -885  -979  -1118  -1219  -1248  -1229  -1172  -1054  -902  -791  -753  -760  -768  -749  -687  -599  -514  -443  -388  -347  -317  -316  -346  -389  -425  -423  -383  -320  -244  -183  -168  -207  -279  -338  -350  -312  -223  -106  -25  -6  -22  -42  -54  -58  -68  -102  -152  -195  -223  -241  -258  -270  -274  -271  -266  -265  -263  -245  -196  -133  -80  -42  -16  -6  -15  -39  -66  -93  -126  -159  -181  -180  -145  -80  -8  45  80  110  131  137  123  95  83  96  113  125  135  143  143  150  204  328  470  556  566  514  394  199  -34  -225  -335  -386  -411  -431  -458  -487  -503  -503  -500  -512  -554  -619  -692  -782  -903  -1041  -1166  -1276  -1386  -1486  -1551  -1580  -1581  -1543  -1486  -1412  -1182  -594  422  1813  3455  5055  6106  6223  5360  3687  1651  -80  -1079  -1347  -1145  -818  -589  -477  -439  -514  -701  -881  -967  -976  -949  -893  -808  -705  -595  -495  -430  -413  -417  -418  -437  -486  -532  -535  -490  -422  -363  -327  -304  -278  -221  -122  -16  86  203  294  303  258  229  257  343  470  639  848  1060  1238  1381  1511  1657  1843  2040  2176  2219  2206  2176  2137  2113  2153  2294  2489  2643  2719  2727  2612  2305  1893  1586  1455  1383  1238  950  508  24  -326  -481  -508  -488  -461  -436  -402  -340  -256  -176  -118  -98  -135  -226  -341  -441  -514  -581  -641  -661  -636  -603  -592  -602  -617  -611  -552  -429  -289  -197  -169  -178  -209  -268  -368  -493  -599  -628  -574  -481  -388  -317  -283  -280  -292  -316  -361  -419  -475  -523  -565  -589  -598  -622  -685  -750  -750  -681  -602  -541  -483  -424  -385  -371  -369  -377  -408  -462  -500  -503  -499  -499  -491  -480  -474  -474  -481  -505  -546  -592  -626  -630  -579  -456  -303  -187  -135  -128  -138  -152  -180  -250  -371  -514  -643  -756  -842  -853  -789  -705  -631  -551  -451  -352  -280  -219  -137  -45  25  70  106  137  140  80  -61  -242  -376  -427  -451  -536  -704  -905  -1080  -1202  -1250  -1214  -1123  -1031  -982  -977  -994  -1011  -1022  -1043  -1090  -1145  -1162  -1129  -1072  -1011  -942  -941  -1151  -1528  -1814  -1794  -1328  -401  847  2332  3891  5142  5727  5406  4090  2112  167  -1147  -1612  -1402  -976  -732  -708  -749  -772  -760  -704  -615  -525  -461  -433  -429  -420  -389  -345  -310  -277  -218  -137  -75  -50  -42  -27  -1  23  45  73  117  157  165  159  180  241  320  390  437  468  499  545  633  801  1031  1234  1359  1435  1513  1625  1768  1905  1989  2023  2076  2211  2395  2526  2567  2559  2548  2534  2481  2347  2114  1819  1549  1350  1178  980  749  504  291  160  91  18  -75  -145  -166  -154  -134  -128  -169  -284  -439  -557  -601  -598  -583  -573  -572  -575  -565  -530  -480  -445  -433  -426  -405  -361  -283  -158  -28  38  48  59  88  92  20  -142  -335  -458  -468  -382  -250  -133  -63  -36  -31  -25  -11  2  9  13  19  18  -14  -94  -175  -196  -174  -176  -205  -223  -224  -231  -276  -391  -584  -812  -992  -1059  -999  -853  -689  -569  -521  -531  -559  -588  -612  -630  -641  -641  -624  -583  -525  -485  -507  -625  -849  -1136  -1397  -1569  -1649  -1659  -1577  -1356  -1039  -766  -623  -583  -580  -579  -572  -545  -485  -408  -347  -289  -196  -88  -27  -21  -34  -42  -49  -62  -83  -99  -94  -68  -21  35  87  134  198  281  347  354  273  125  -21  -104  -121  -115  -114  -125  -153  -212  -296  -372  -410  -416  -402  -370  -328  -285  -238  -190  -162  -172  -216  -266  -317  -452  -747  -1071  -1139  -784  -46  993  2283  3705  5007  5830  5846  4887  3082  989  -667  -1493  -1514  -1074  -641  -438  -377  -350  -341  -349  -366  -363  -319  -263  -233  -228  -229  -230  -247  -295  -361  -410  -431  -438  -432  -384  -265  -112  -1  49  85  136  185  220  241  256  268  284  304  323  340  374  461  600  729  796  805  797  822  951  1259  1705  2114  2343  2409  2415  2425  2432  2413  2377  2354  2356  2367  2320  2138  1850  1584  1409  1277  1121  919  662  338  -40  -427  -779  -1086  -1340  -1518  -1595  -1545  -1357  -1101  -907  -827  -821  -833  -839  -838  -837  -844  -868  -911  -953  -970  -962  -929  -853  -739  -630  -585  -622  -683  -702  -664  -600  -546  -510  -484  -473  -488  -530  -588  -643  -676  -679  -654  -606  -540  -473  -443  -467  -512  -542  -555  -563  -582  -632  -701  -738  -704  -630  -587  -597  -616  -622  -654  -735  -827  -891  -916  -893  -822  -737  -694  -703  -728  -743  -755  -776  -798  -804  -786  -752  -709  -658  -604  -556  -522  -510  -513  -520  -518  -495  -445  -387  -338  -283  -172  27  275  487  617  673  682  633  451  111  -264  -518  -622  -640  -618  -561  -457  -303  -138  -21  26  15  -68  -242  -462  -640  -728  -748  -735  -693  -595  -427  -239  -121  -130  -256  -433  -590  -750  -948  -1068  -933  -472  334  1483  2832  4117  5062  5406  4964  3748  2059  389  -835  -1382  -1292  -903  -583  -455  -453  -491  -525  -557  -594  -615  -622  -648  -679  -643  -526  -404  -341  -337  -355  -360  -347  -337  -340  -352  -362  -368  -368  -354  -316  -254  -182  -123  -84  -60  -46  -36  -3  88  257  463  628  714  770  878  1077  1329  1548  1683  1761  1832  1921  2046  2239  2468  2628  2647  2529  2340  2172  2064  1999  1959  1942  1928  1864  1701  1419  1048  682  424  301  264  250  191  32  -208  -425  -537  -556  -537  -514  -502  -530  -633  -804  -1019  -1263  -1495  -1643  -1695  -1696  -1661  -1567  -1415  -1256  -1131  -1023  -918  -833  -763  -684  -594  -521  -493  -508  -524  -525  -529  -533  -526  -505  -478  -451  -423  -400  -391  -393  -398  -395  -376  -338  -287  -231  -190  -195  -239  -299  -370  -430  -445  -414  -364  -326  -311  -306  -311  -334  -378  -422  -442  -438  -425  -416  -413  -428  -471  -528  -567  -572  -559  -545  -535  -525  -527  -561  -592  -545  -417  -297  -244  -245  -272  -313  -358  -388  -396  -378  -338  -288  -250  -218  -151  -38  31  -14  -127  -226  -285  -310  -315  -316  -319  -322  -332  -360  -399  -421  -401  -346  -279  -220  -186  -194  -257  -362  -469  -544  -578  -570  -533  -499  -499  -553  -655  -772  -847  -811  -603  -225  296  1031  2108  3507  4918  5843  5876  4914  3234  1410  -32  -887  -1159  -969  -570  -233  -85  -125  -255  -379  -483  -550  -526  -402  -278  -301  -494  -717  -819  -759  -582  -355  -151  -31  5  10  8  -29  -142  -282  -347  -314  -258  -235  -237  -220  -138  25  218  355  409  419  438  501  614  747  877  1040  1274  1527  1709  1801  1828  1808  1779  1793  1868  1974  2062  2118  2155  2166  2142  2109  2097  2088  1975  1654  1177  749  496  377  322  293  245  137  -2  -84  -59  26  101  132  115  43  -76  -195  -262  -273  -249  -215  -203  -219  -237  -238  -223  -191  -140  -83  -45  -86  -258  -512  -750  -952  -1149  -1314  -1392  -1368  -1250  -1022  -678  -313  -49  114  249  368  439  462  463  457  460  504  593  687  752  781  786  785  788  802  827  856  875  883  883  876  854  819  779  738  696  653  593  475  283  76  -57  -97  -75  -14  66  139  185  204  193  125  -31  -261  -481  -628  -695  -711  -709  -707  -706  -691  -657  -626  -593  -517  -423  -397  -454  -553  -660  -743  -799  -862  -953  -1022  -973  -780  -535  -333  -177  -40  75  150  143  0  -302  -713  -1120  -1409  -1552  -1601  -1611  -1610  -1609  -1608  -1607  -1609  -1617  -1627  -1618  -1550  -1406  -1232  -1103  -1047  -1035  -1036  -1051  -1101  -1197  -1326  -1469  -1600  -1674  -1598  -1266  -621  377  1791  3558  5330  6484  6425  5084  3002  909  -598  -1280  -1291  -971  -657  -541  -586  -662  -703  -718  -732  -737  -702  -639  -570  -497  -436  -403  -377  -348  -327  -302  -247  -163  -83  -22  35  96  159  222  274  287  236  132  19  -58  -92  -88  -59  -20  28  122  298  525  717  863  1024  1202  1337  1407  1433  1444  1456  1473  1516  1629  1832  2088  2315  2454  2511  2522  2497  2401  2205  1933  1646  1372  1070  707  328  -2  -271  -482  -629  -700  -693  -607  -463  -318  -230  -226  -305  -462  -690  -945  -1138  -1224  -1235  -1220  -1200  -1177  -1145  -1095  -1020  -931  -863  -852  -898  -963  -997  -977  -910  -817  -719  -645  -611  -607  -610  -616  -635  -688  -784  -920  -1076  -1206  -1259  -1205  -1061  -875  -704  -585  -529  -519  -526  -528  -520  -513  -515  -503  -450  -384  -345  -332  -327  -339  -405  -551  -765  -1018  -1260  -1426  -1487  -1482  -1451  -1382  -1266  -1154  -1093  -1082  -1118  -1184  -1236  -1251  -1254  -1277  -1328  -1381  -1413  -1421  -1419  -1415  -1403  -1371  -1329  -1326  -1411  -1580  -1760  -1890  -1985  -2079  -2147  -2141  -2045  -1901  -1770  -1664  -1543  -1396  -1259  -1179  -1158  -1170  -1194  -1215  -1185  -1029  -730  -376  -77  138  307  445  546  610  647  655  610  497  345  219  156  142  151  159  137  57  -64  -176  -244  -267  -266  -272  -315  -406  -506  -551  -524  -445  -319  -155  -15  52  83  163  300  343  131  -271  -579  -482  216  1540  3279  5020  6298  6736  6176  4821  3122  1565  522  58  -59  -49  -12  -19  -55  -59  -40  -27  -24  -25  -27  -17  32  142  277  373  407  410  403  349  196  -12  -155  -170  -107  -38  11  56  105  151  192  243  314  402  491  554  568  539  482  398  314  271  313  506  888  1384  1825  2072  2135  2115  2085  2064  2059  2085  2150  2232  2298  2351  2425  2510  2569  2598  2620  2626  2546  2293  1898  1529  1293  1121  919  696  514  394  313  244  188  170  191  219  212  154  56  -72  -198  -280  -308  -294  -236  -135  -14  92  157  164  122  59  -13  -96  -176  -225  -231  -215  -197  -186  -184  -207  -272  -359  -417  -426  -410  -380  -296  -107  142  333  402  354  193  -45  -265  -401  -472  -518  -553  -577  -602  -643  -687  -690  -582  -343  -94  11  -12  -57  -68  -62  -79  -155  -265  -329  -303  -247  -239  -295  -367  -409  -432  -456  -471  -469  -458  -433  -382  -320  -288  -303  -337  -357  -360  -376  -408  -413  -354  -263  -217  -248  -313  -374  -441  -511  -572  -621  -652  -660  -654  -649  -663  -709  -772  -821  -844  -852  -859  -872  -894  -909  -854  -663  -377  -124  38  169  336  552  775  937  1008  1016  994  950  878  783  689  611  512  337  121  -45  -127  -139  -102  -55  -32  -38  -68  -120  -204  -311  -397  -435  -438  -428  -416  -409  -415  -448  -542  -755  -1075  -1291  -1097  -352  848  2322  3916  5418  6443  6647  5912  4330  2305  458  -763  -1280  -1279  -1033  -784  -663  -656  -699  -789  -949  -1133  -1275  -1364  -1409  -1410  -1378  -1330  -1287  -1252  -1211  -1175  -1163  -1169  -1165  -1131  -1074  -1019  -966  -898  -841  -827  -841  -856  -866  -873  -877  -880  -885  -896  -904  -873  -764  -607  -490  -458  -462  -414  -260  -43  133  216  256  363  594  875  1077  1161  1180  1191  1220  1247  1183  933  526  70]
