reading_id,reading_time,wire_id,result_classification,heart_rate,heart_rate_alert,firmware_version,device_app_version,hardware_version,waveform_samples
d3058f20-531c-11ed-8080-808080808080,Sun Oct 23 21:51:18 UTC 2022,410163471e39,NSR,73,NONE,20001.171.50,2.10.0,Charge 5,[-5102  -5170  -5194  -5226  -5531  -6379  -7538  -8398  -8709  -8716  -8676  -8654  -8612  -8492  -8294  -8068  -7861  -7712  -7627  -7511  -7298  -7102  -7181  -7659  -8275  -8629  -8669  -8635  -8664  -8927  -9700  -10754  -11477  -11760  -11873  -11972  -12195  -12520  -12687  -12624  -12452  -12128  -11505  -10680  -9985  -9600  -9404  -9188  -8839  -8322  -7551  -6433  -5146  -4054  -3293  -2729  -2204  -1660  -1118  -608  -111  451  1173  2037  2837  3333  3498  3498  3497  3587  3795  4102  4469  4788  4892  4759  4607  4642  4872  5189  5447  5539  5427  5110  4700  4395  4286  4353  4587  4943  5310  5675  6144  6675  7028  7052  6799  6452  6207  6121  6121  6140  6193  6320  6497  6639  6699  6699  6678  6661  6671  6726  6802  6851  6857  6848  6853  6860  6822  6713  6575  6506  6561  6715  6944  7185  7320  7321  7281  7273  7313  7382  7450  7495  7471  7282  6878  6373  5955  5702  5557  5425  5252  5035  4794  4548  4339  4204  4144  4080  3891  3574  3276  3102  2998  2882  2760  2678  2628  2563  2488  2454  2437  2284  1876  1398  1259  1764  2967  4730  6731  8439  9364  9318  8331  6620  4608  2780  1495  769  437  437  622  763  786  703  534  361  266  260  310  375  424  446  440  406  351  289  232  205  221  257  278  263  200  105  6  -79  -129  -108  -28  53  120  205  330  482  623  697  696  691  757  902  1022  976  811  737  828  958  1016  1031  1154  1511  2004  2367  2446  2279  1992  1730  1571  1490  1422  1307  1050  575  -4  -450  -687  -824  -935  -1008  -1052  -1111  -1200  -1277  -1299  -1273  -1252  -1313  -1491  -1702  -1809  -1779  -1732  -1774  -1875  -1933  -1897  -1803  -1725  -1695  -1692  -1692  -1706  -1765  -1883  -2019  -2086  -2046  -1958  -1877  -1805  -1753  -1746  -1776  -1814  -1836  -1839  -1823  -1760  -1616  -1389  -1110  -831  -608  -466  -388  -353  -347  -362  -382  -390  -376  -346  -301  -232  -146  -75  -38  -27  -28  -33  -38  -42  -59  -107  -183  -260  -308  -308  -275  -243  -231  -237  -245  -238  -188  -86  33  113  137  137  142  148  121  26  -147  -375  -595  -763  -917  -1119  -1351  -1525  -1602  -1618  -1610  -1551  -1389  -1178  -1084  -1221  -1519  -1808  -1984  -2049  -2060  -2074  -2123  -2222  -2386  -2569  -2604  -2338  -1777  -979  44  1290  2686  4045  4945  4883  3715  1758  -358  -2037  -2999  -3199  -2823  -2305  -1983  -1889  -1915  -2001  -2160  -2365  -2509  -2529  -2481  -2451  -2492  -2609  -2722  -2744  -2697  -2670  -2705  -2747  -2685  -2480  -2242  -2101  -2063  -2032  -1892  -1605  -1273  -1054  -991  -1008  -1032  -1045  -1051  -1051  -1027  -947  -786  -553  -309  -110  36  156  269  388  518  621  655  618  550  516  531  548  557  586  622  616  547  444  366  333  304  220  14  -333  -694  -883  -876  -780  -716  -801  -1077  -1414  -1641  -1718  -1705  -1632  -1490  -1320  -1202  -1154  -1122  -1063  -982  -906  -855  -841  -877  -980  -1119  -1225  -1268  -1269  -1245  -1188  -1094  -989  -888  -777  -658  -569  -540  -588  -726  -900  -998  -964  -857  -770  -736  -737  -756  -796  -848  -870  -831  -753  -680  -627  -585  -540  -477  -399  -334  -310  -339  -413  -495  -543  -553  -555  -570  -592  -593  -562  -517  -479  -427  -349  -275  -236  -239  -244  -156  26  193  279  306  302  277  236  190  157  154  184  221  251  290  352  416  444  437  439  476  548  670  853  1051  1206  1320  1442  1579  1675  1675  1576  1434  1301  1169  1003  810  628  505  464  489  548  613  651  593  387  103  -104  -186  -213  -240  -238  -168  -55  40  109  171  145  -140  -651  -948  -580  396  1597  2843  4143  5354  6240  6584  6123  4747  2805  958  -289  -811  -799  -562  -363  -323  -361  -366  -345  -335  -338  -344  -342  -325  -298  -284  -295  -305  -299  -301  -332  -358  -323  -221  -104  -33  -15  -21  -21  -4  39  108  175  236  323  449  592  745  908  1048  1134  1184  1242  1341  1499  1734  2032  2309  2480  2547  2571  2587  2614  2677  2766  2815  2760  2625  2489  2395  2342  2289  2180  1995  1757  1509  1308  1181  1072  869  526  141  -159  -346  -455  -514  -530  -516  -499  -497  -499  -490  -470  -456  -454  -454  -437  -395  -354  -349  -394  -466  -516  -536  -582  -678  -767  -793  -756  -687  -608  -508  -398  -320  -295  -299  -310  -335  -381  -434  -492  -568  -616  -566  -402  -149  125  328  420  409  280  34  -250  -453  -515  -480  -432  -409  -405  -421  -466  -543  -632  -706  -745  -755  -763  -793  -829  -843  -819  -758  -650  -520  -430  -407  -423  -441  -449  -445  -429  -401  -364  -331  -324  -381  -527  -722  -854  -810  -547  -173  119  225  126  -175  -571  -870  -995  -996  -927  -801  -628  -486  -459  -515  -566  -570  -522  -426  -297  -172  -93  -70  -85  -119  -155  -156  -90  32  164  258  291  268  216  146  44  -85  -205  -304  -382  -440  -508  -637  -812  -951  -1018  -1045  -1063  -1083  -1125  -1181  -1222  -1234  -1233  -1238  -1251  -1244  -1187  -1121  -1156  -1327  -1547  -1711  -1790  -1771  -1539  -891  303  1984  3894  5533  6308  6021  4948  3424  1745  293  -668  -1129  -1151  -904  -756  -916  -1168  -1222  -1070  -925  -947  -1061  -1097  -1009  -876  -789  -741  -681  -608  -568  -583  -627  -669  -698  -715  -727  -744  -750  -691  -512  -269  -87  -18  -5  14  65  141  220  285  342  397  441  482  552  673  838  1006  1133  1221  1332  1527  1778  1994  2137  2207  2203  2144  2070  2010  1969  1897  1721  1464  1219  1007  798  599  421  247  63  -125  -299  -431  -511  -553  -572  -596  -658  -760  -863  -926  -956  -984  -1004  -1001  -983  -975  -984  -1008  -1070  -1197  -1351  -1416  -1309  -1094  -900  -773  -704  -689  -730  -807  -859  -842  -773  -679  -573  -478  -405  -341  -287  -269  -294  -340  -378  -381  -345  -300  -288  -334  -417  -452  -391  -297  -254  -272  -315  -358  -404  -455  -487  -450  -306  -67  178  328  324  147  -157  -456  -628  -678  -683  -683  -674  -633  -550  -444  -357  -301  -260  -235  -245  -297  -371  -437  -488  -531  -560  -574  -579  -573  -539  -472  -383  -289  -206  -156  -144  -150  -148  -129  -97  -73  -81  -136  -222  -286  -249  -46  281  579  734  765  748  721  682  631  577  519  452  366  230  10  -261  -493  -623  -670  -673  -675  -728  -825  -893  -895  -852  -800  -762  -742  -731  -752  -843  -1015  -1213  -1328  -1308  -1249  -1184  -912  -195  1089  2910  4914  6443  6906  6164  4574  2708  1046  -155  -852  -1109  -1059  -870  -672  -539  -480  -471  -515  -600  -666  -679  -651  -591  -517  -440  -358  -276  -212  -181  -182  -177  -91  107  306  323  158  -16  -98  -122  -148  -158  -41  307  787  1142  1264  1239  1160  1076  1032  1075  1237  1529  1913  2274  2500  2562  2516  2444  2392  2370  2377  2410  2454  2496  2546  2625  2726  2801  2812  2743  2594  2331  1888  1298  763  445  274  92  -117  -261  -323  -407  -601  -853  -1029  -1082  -1070  -1065  -1098  -1153  -1196  -1202  -1169  -1114  -1057  -1013  -989  -978  -969  -959  -953  -952  -955  -968  -1009  -1079  -1149  -1185  -1187  -1178  -1177  -1171  -1140  -1094  -1046  -989  -913  -827  -756  -720  -711  -722  -759  -825  -896  -943  -972  -1000  -1013  -985  -928  -902  -940  -1003  -1040  -1039  -1002  -928  -843  -803  -826  -860  -859  -835  -816  -816  -835  -867  -911  -967  -1016  -1048  -1062  -1063  -1064  -1069  -1072  -1069  -1061  -1055  -1060  -1084  -1126  -1142  -1081  -959  -851  -794  -762  -723  -677  -639  -610  -569  -490  -355  -185  -41  56  126  169  186  190  189  168  104  6  -104  -251  -491  -825  -1143  -1319  -1330  -1250  -1138  -985  -803  -683  -694  -778  -853  -900  -932  -953  -972  -1004  -1054  -1121  -1200  -1234  -1140  -855  -231  909  2559  4466  6127  6879  6271  4486  2245  299  -878  -1254  -1244  -1235  -1212  -1070  -884  -750  -684  -678  -716  -738  -691  -596  -520  -492  -494  -500  -502  -500  -494  -483  -472  -472  -488  -509  -486  -365  -168  12  133  218  286  334  340  299  266  290  354  423  493  584  724  939  1219  1510  1763  1977  2157  2277  2340  2375  2393  2375  2304  2215  2179  2213  2264  2268  2197  2063  1914  1783  1637  1417  1134  880  724  636  553  424  219  -21  -210  -317  -367  -400  -453  -538  -654  -778  -853  -833  -741  -653  -598  -521  -417  -341  -291  -212  -94  10  56  54  31  -21  -115  -182  -169  -129  -117  -110  -66  10  86  142  180  205  224  256  327  429  507  536  558  600  638  657  672  694  709  683  591  462  370  355  406  479  530  545  541  537  549  593  670  753  816  841  828  786  707  573  406  258  159  141  220  340  418  413  331  217  139  136  198  285  347  374  387  383  326  210  106  80  120  165  172  140  94  56  28  7  0  7  32  80  138  201  304  466  633  739  780  786  773  748  715  666  576  430  229  -18  -292  -547  -737  -849  -898  -908  -887  -844  -779  -698  -636  -645  -749  -901  -1023  -1089  -1123  -1144  -1169  -1234  -1338  -1422  -1424  -1252  -716  348  1938  3854  5650  6721  6619  5365  3442  1485  -37  -896  -1175  -1197  -1117  -938  -822  -899  -1075  -1242  -1390  -1507  -1519  -1366  -1108  -887  -784  -762  -760  -749  -733  -725  -736  -767  -809  -854  -902  -919  -873  -788  -708  -626  -505  -338  -169  -52  -8  -11  -25  -26  -2  54  159  323  519  725  953  1184  1336  1375  1349  1325  1377  1551  1791  1967  2027  2022  2010  2004  1964  1802  1461  1047  747  598  495  373  220  14  -231  -451  -610  -741  -884  -1041  -1198  -1343  -1461  -1536  -1564  -1554  -1514  -1443  -1340  -1235  -1165  -1143  -1161  -1224  -1324  -1416  -1453  -1427  -1372  -1328  -1313  -1320  -1344  -1375  -1399  -1381  -1282  -1121  -973  -880  -845  -842  -818  -770  -736  -723  -725  -744  -767  -775  -770  -776  -828  -938  -1048  -1064  -988  -909  -876  -849  -779  -676  -600  -574  -569  -556  -531  -502  -473  -455  -463  -506  -598  -737  -883  -998  -1076  -1118  -1115  -1058  -953  -832  -723  -643  -605  -618  -666  -724  -767  -782  -756  -673  -554  -449  -396  -406  -484  -606  -707  -715  -637  -543  -479  -433  -376  -312  -273  -264  -263  -256  -258  -292  -361  -431  -437  -338  -182  -43  45  72  59  87  178  265  325  427  604  765  799  720  622  522  350  103  -124  -264  -325  -346  -378  -459  -575  -668  -702  -692  -684  -709  -735  -705  -605  -471  -367  -348  -438  -608  -784  -896  -941  -927  -763  -265  732  2323  4357  6309  7512  7483  6146  3959  1711  34  -806  -844  -448  -97  37  23  -76  -203  -300  -354  -377  -385  -387  -384  -377  -361  -319  -230  -96  42  142  187  183  139  70  1  -35  -16  51  145  272  440  615  741  806  834  834  826  873  1014  1191  1309  1348  1370  1445  1581  1746  1917  2095  2290  2491  2656  2740  2739  2691  2656  2652  2631  2565  2485  2393  2226  1934  1588  1343  1262  1272  1268  1189  1026  822  630  475  349  211  13  -219  -400  -490  -516  -512  -493  -473  -472  -501  -536  -551  -535  -497  -465  -462  -479  -493  -498  -498  -494  -490  -495  -519  -566  -609  -634  -651  -656  -637  -612  -604  -600  -592  -585  -587  -595  -607  -630  -691  -797  -911  -986  -1029  -1065  -1080  -1052  -1001  -967  -957  -959  -960  -958  -955  -953  -961  -994  -1061  -1142  -1199  -1220  -1212  -1178  -1110  -1010  -899  -812  -765  -751  -756  -764  -756  -710  -641  -614  -679  -797  -896  -953  -976  -956  -864  -701  -521  -395  -352  -355  -354  -347  -340  -300  -178  11  196  329  418  472  496  498  481  435  349  217  37  -187  -401  -538  -603  -664  -768  -892  -981  -1017  -1017  -1003  -973  -916  -840  -759  -706  -739  -847  -929  -964  -1086  -1426  -1864  -2049  -1751  -1019  23  1352  2937  4567  5868  6409  5866  4309  2179  51  -1563  -2376  -2382  -1835  -1141  -615  -382  -388  -489  -597  -698  -785  -853  -894  -889  -848  -812  -801  -801  -782  -740  -709  -724  -776  -840  -891  -887  -796  -640  -522  -557  -711  -834  -862  -835  -740  -496  -127  221  458  595  655  647  596  561  656  988  1489  1920  2136  2194  2190  2141  2035  1905  1810  1783  1818  1916  2076  2259  2385  2363  2104  1607  1025  567  325  228  148  14  -159  -308  -392  -414  -404  -425  -533  -715  -899  -1031  -1094  -1094  -1055  -999  -928  -819  -694  -664  -783  -959  -1081  -1127  -1119  -1060  -936  -780  -669  -642  -674  -724  -758  -763  -734  -677  -616  -577  -556  -530  -476  -388  -291  -207  -134  -71  -38  -42  -70  -98  -94  -8  189  438  614  668  655  634  626  626  631  639  645  629  579  516  507  600  763  911  1008  1081  1148  1179  1133  1008  855  749  723  740  761  800  891  1014  1104  1132  1118  1099  1088  1072  1016  922  865  912  1031  1163  1279  1343  1330  1265  1223  1279  1434  1617  1746  1800  1815  1820  1827  1857  1909  1970  2028  2072  2080  2010  1825  1559  1293  1066  866  694  577  531  544  574  541  366  88  -132  -201  -158  -86  -32  14  97  217  289  198  -103  -475  -690  -669  -355  482  1945  3712  5370  6730  7531  7464  6555  5041  3114  1169  -118  -404  -70  346  626  691  551  345  163  -12  -204  -390  -509  -481  -241  191  669  941  772  172  -605  -1277  -1643  -1606  -1202  -615  -52  417  743  816  573  112  -252  -269  -31  234  423  587  822  1117  1340  1428  1453  1514  1632  1784  1948  2088  2153  2128  2042  1949  1867  1774  1699  1703  1793  1879  1825  1582  1277  1072  991  938  839  687  482  225  -35  -254  -437  -646  -958  -1343  -1653  -1816  -1884  -1894  -1903  -1991  -2137  -2272  -2375  -2434  -2445  -2440  -2455  -2524  -2634  -2700  -2662  -2570  -2481  -2400  -2364  -2457  -2715  -3071  -3390  -3582  -3666  -3688  -3668  -3612  -3543  -3502  -3493  -3462  -3401  -3372  -3420  -3516  -3552  -3432  -3208  -3030  -2985  -3074  -3227  -3276  -3076  -2679  -2292  -2127  -2229  -2417  -2523  -2561  -2586  -2540  -2260  -1694  -1113  -885  -1038  -1315  -1559  -1774  -1941  -1920  -1603  -1155  -852  -773  -837  -958  -1070  -1144  -1202  -1282  -1399  -1517  -1570  -1570  -1581  -1612  -1632  -1572  -1363  -1064  -813  -673  -625  -675  -878  -1182  -1402  -1455  -1390  -1221  -906  -516  -228  -158  -313  -645  -1012  -1241  -1265  -1136  -954  -802  -687  -591  -525  -500  -495  -505  -552  -639  -690  -593  -374  -249  -353  -546  -635  -602  -549  -543  -554  -558  -628  -810  -1072  -1365  -1577  -1604  -1516  -1448  -1426  -1399  -1327  -1189  -982  -735  -500  -323  -302  -667  -1456  -2125  -2003  -904  848  2674  4133  5062  5466  5424  4926  3921  2493  786  -961  -2265  -2715  -2356  -1507  -601  -101  -87  -199  -173  -49  66  145  187  189  186  187  120  -14  -131  -168  -108  -34  -7  67  257  479  662  806  944  1129  1353  1516  1553  1517  1514  1577  1636  1634  1596  1557  1530  1561  1736  2070  2424  2627  2665  2679  2817  3102  3414  3617  3689  3693  3680  3640  3542  3410  3312  3280  3293  3318  3323  3257  3050  2664  2187  1815  1651  1617  1612  1615  1608  1528  1338  1067  790  562  400  308  278  275  271  263  270  318  402  495  589  674  658  386  -114  -576  -813  -875  -865  -831  -788  -730  -659  -569  -453  -348  -303  -310  -333  -329  -265  -157  -62  -5  41  89  133  173  210  228  187  37  -201  -422  -542  -579  -595  -623  -641  -621  -576  -514  -417  -298  -228  -256  -376  -533  -654  -698  -672  -609  -579  -619  -662  -634  -558  -472  -384  -304  -233  -146  -56  -1  21  24  -27  -184  -413  -610  -706  -665  -418  42  546  864  930  840  713  614  559  503  389  235  99  -53  -300  -603  -848  -1007  -1108  -1151  -1152  -1161  -1206  -1273  -1330  -1366  -1363  -1260  -1005  -655  -335  -154  -294  -1062  -2423  -3496  -3342  -2280  -1392  -932  -381  481  1746  3495  5099  5526  4416  2274  -123  -2101  -3137  -3207  -2806  -2241  -1553  -1132  -1345  -1884  -2269  -2375  -2313  -2229  -2205  -2214  -2180  -2052  -1871  -1740  -1704  -1714  -1694  -1595  -1445  -1318  -1245  -1182  -1066  -899  -708  -480  -232  -57  -15  -78  -166  -138  101  458  790  1102  1409  1604  1631  1606  1708  1965  2240  2445  2601  2732  2844  2920  2972  3042  3125  3158  3108  2997  2918  2932  2985  2983  2878  2688  2483  2305  2144  1977  1794  1579  1319  1051  857  762  709  650  518  234  -133  -391  -449  -384  -267  -98  97  241  305  323  282  103  -242  -624  -856  -864  -693  -452  -237  -54  111  245  373  524  598  487  261  68  -26  -41  -49  -164  -447  -727  -718  -403  -57  93  50  -17  5  79  219  383  350  95  -228  -563  -787  -816  -788  -812  -841  -806  -690  -544  -412  -257  -60  115  209  231  223  219  230  243  209  62  -184  -401  -489  -466  -414  -407  -435  -437  -403  -368  -351  -344  -341  -361  -433  -548  -652  -721  -769  -786  -754  -711  -700  -706  -640  -417  -106  118  204  258  390  637  937  1088  820  114  -661  -1140  -1301  -1297  -1221  -1111  -1005  -939  -912  -900  -906  -968  -1096  -1237  -1321  -1311  -1216  -1103  -1042  -1043  -1080  -1175  -1378  -1642  -1837  -1904  -1922  -2073  -2364  -2384  -1717  -376  1460  3550  5416  6563  6706  5762  3878  1542  -558  -1912  -2410  -2306  -1902  -1335  -889  -975  -1496  -1915  -1979  -1844  -1712  -1592  -1377  -1079  -859  -880  -1173  -1592  -1896  -1951  -1774  -1449  -1066  -721  -508  -455  -513  -633  -793  -965  -1116  -1225  -1238  -1071  -715  -318  -65  5  -18  -40  -8  88  220  343  418  450  483  563  673  751  785  828  914  990  1011  1011  1031  1077  1128  1171  1212  1248  1218  1042  749  482  333  243  81  -240  -724  -1262  -1659  -1794  -1717  -1566  -1448  -1381  -1320  -1251  -1199  -1179  -1181  -1175  -1095  -879  -586  -364  -269  -241  -226  -219  -181  -61  114  242  227  48  -198  -372  -434  -426  -351  -172  83  317  461  516  513  483  451  430  405  343  217  43  -123  -225  -221  -103  114  402  677  834  871  861  858  850  783  638  516  547  732  968  1185  1346  1378  1196  807  382  121  54  79  116  153  199  236  237  210  184  179  185  158  86  20  10  39  60  34  -21  -57  -48  5  80  143  178  197  199  152  25  -149  -296  -369  -341  -177  94  326  402  362  312  300  353  476  609  697  747  787  808  812  829  841  798  717  642  550  407  203  -31  -242  -394  -500  -580  -629  -642  -657  -717  -768  -704  -531  -411  -465  -630  -767  -829  -868  -931  -1015  -1081  -1103  -1129  -1190  -1120  -578  676  2558  4644  6346  7152  6799  5376  3331  1205  -519  -1438  -1555  -1383  -1307  -1310  -1311  -1245  -1068  -857  -716  -680  -735  -839  -934  -1000  -1044  -1054  -997  -888  -811  -855  -1003  -1136  -1181  -1164  -1139  -1127  -1101  -1029  -943  -872  -775  -582  -250  142  420  508  495  483  513  589  699  816  901  944  956  946  929  928  977  1109  1308  1494  1603  1670  1751  1824  1833  1780  1716  1614  1385  1028  663  387  218  135  99  61  3  -83  -238  -505  -830  -1078  -1187  -1213  -1221  -1223  -1198  -1140  -1068  -1009  -979  -985  -1035  -1136  -1260  -1368  -1466  -1559  -1620  -1635  -1627  -1617  -1612  -1607  -1603  -1612  -1656  -1740  -1832  -1899  -1917  -1876  -1782  -1661  -1549  -1504  -1549  -1625  -1665  -1670  -1675  -1692  -1699  -1675  -1645  -1651  -1697  -1728  -1681  -1568  -1461  -1395  -1354  -1331  -1325  -1325  -1302  -1232  -1134  -1052  -1000  -958  -916  -884  -877  -863  -788  -642  -444  -232  -71  25  113  213  299  365  442  562  734  921  1077  1210  1344  1479  1630  1800  1925  1965  1955  1948  1974  2049  2153  2228  2215  2092  1901  1714  1546  1367  1188  1042  943  873  800  702  599  531  519  539  551  537  495  431  369  331  310  267  163  -12  -232  -472  -690  -679  -159  868  2194  3814  5715  7408  8271  8063  6830  4859  2758  1106  154  -184  -151  114  487  714  686  567  505  499  508  517  532  555  577  590  603  638  699  756  774  730  620  475  339  242  187  175  223  358  538  673  707  647  520  377  269  215  230  352  576  815  977  1056  1076  1064  1072  1132  1234  1349  1418  1407  1368  1342  1317  1283  1251  1227  1225  1249  1260  1157  857  446  120  -79  -283  -567  -866  -1087  -1237  -1396  -1582  -1726  -1783  -1773  -1738  -1734  -1811  -1944  -2046  -2082  -2090  -2119  -2152  -2100  -1904  -1646  -1457  -1379  -1373  -1399  -1428  -1420  -1340  -1218  -1138  -1129  -1135  -1103  -1035  -960  -898  -848  -801  -756  -707  -636  -560  -518  -519  -539  -555  -561  -571  -572  -531  -451  -381  -359  -395  -507  -695  -901  -1029  -1055  -1032  -1010  -1003  -1016  -1056  -1112  -1151  -1138  -1061  -954  -875  -852  -876  -930  -1003  -1077  -1127  -1148  -1158  -1168  -1173  -1139  -1037  -899  -800  -768  -777  -794  -796  -754  -662  -576  -558  -580  -544  -412  -269  -214  -230  -260  -342  -546  -823  -1032  -1134  -1205  -1280  -1298  -1207  -1056  -937  -880  -845  -807  -793  -835  -930  -1062  -1215  -1362  -1468  -1530  -1565  -1573  -1576  -1619  -1621  -1406  -959  -307  710  2178  3891  5493  6510  6494  5396  3583  1595  -52  -1055  -1393  -1264  -967  -744  -673  -688  -706  -694  -668  -667  -753  -932  -1110  -1176  -1097  -925  -737  -582  -478  -429  -420  -426  -408  -334  -208  -65  50  115  148  221  385  593  750  817  817  764  656  504  362  343  528  861  1198  1443  1584  1658  1723  1828  1991  2199  2410  2582  2714  2826  2911  2945  2941  2935  2932  2903  2817  2624  2282  1873  1569  1422  1330  1197  1023  860  732  578  305  -42  -299  -391  -386  -359  -324  -271  -213  -189  -207  -230  -220  -196  -217  -322  -467  -559  -586  -625  -707  -791  -816  -772  -718  -709  -759  -841  -913  -949  -949  -927  -897  -863  -809  -716  -614  -569  -592  -620  -605  -555  -509  -489  -483  -474  -463  -456  -456  -462  -470  -479  -485  -485  -461  -403  -334  -294  -299  -319  -312  -262  -196  -149  -131  -128  -125  -107  -68  -22  4  13  27  42  24  -73  -265  -492  -660  -714  -612  -312  122  494  674  703  685  683  714  749  762  767  779  781  738  639  499  324  105  -117  -267  -331  -362  -406  -453  -468  -469  -497  -537  -546  -528  -545  -660  -830  -942  -960  -928  -900  -970  -1255  -1707  -2045  -1969  -1295  25  1808  3692  5323  6376  6591  5835  4212  2172  318  -912  -1398  -1341  -1172  -1205  -1347  -1375  -1284  -1151  -1009  -917  -925  -1021  -1134  -1194  -1200  -1187  -1157  -1084  -976  -877  -819  -797  -789  -764  -689  -533  -284  -9  176  207  81  -161  -419  -569  -559  -406  -193  -19  97  215  381  595  820  1021  1212  1433  1670  1867  1988  2047  2067  2043  1971  1885  1826  1827  1911  2046  2158  2211  2210  2119  1874  1495  1068  644  252  -77  -325  -484  -584  -663  -725  -768  -802  -835  -880  -944  -1028  -1140  -1270  -1367  -1390  -1347  -1257  -1155  -1087  -1065  -1056  -1022  -941  -831  -749  -747  -851  -1071  -1350  -1555  -1592  -1447  -1166  -861  -643  -535  -497  -504  -535  -555  -539  -507  -488  -504  -561  -645  -718  -726  -631  -472  -349  -308  -321  -342  -353  -350  -347  -365  -415  -461  -421  -286  -150  -85  -75  -75  -50  42  224  453  651  776  831  835  801  730  642  567  506  410  250  57  -114  -251  -401  -606  -816  -949  -994  -1007  -1030  -1082  -1158  -1230  -1256  -1203  -1065  -865  -652  -496  -457  -621  -1045  -1565  -1882  -1881  -1611  -1050  -115  1220  2889  4675  6149  6810  6389  4987  2980  937  -549  -1247  -1371  -1255  -1127  -1079  -1082  -1066  -1012  -944  -889  -839  -773  -701  -650  -630  -629  -633  -638  -639  -625  -603  -583  -560  -524  -456  -360  -307  -353  -449  -505  -464  -295  -39  208  378  472  531  580  612  620  631  686  816  1009  1211  1376  1525  1697  1869  1992  2082  2202  2348  2447  2461  2428  2394  2372  2355  2344  2301  2094  1621  1016  572  409  419  468  494  471  379  233  61  -174  -528  -924  -1196  -1301  -1314  -1278  -1202  -1120  -1075  -1086  -1137  -1150  -1043  -830  -595  -399  -268  -217  -267  -451  -757  -1073  -1262  -1290  -1218  -1102  -977  -869  -792  -733  -664  -574  -490  -443  -440  -471  -523  -584  -652  -732  -810  -856  -850  -789  -697  -614  -565  -548  -543  -523  -459  -320  -94  160  326  317  130  -153  -402  -522  -472  -260  19  235  333  350  333  280  163  -10  -190  -334  -441  -532  -612  -678  -743  -827  -932  -1036  -1107  -1131  -1115  -1054  -949  -834  -762  -747  -763  -771  -727  -613  -522  -677  -1178  -1726  -1837  -1254  64  2014  4197  6016  6968  6788  5493  3446  1360  -88  -683  -642  -382  -275  -407  -608  -716  -716  -674  -650  -646  -634  -614  -599  -592  -582  -560  -518  -457  -393  -348  -332  -335  -343  -351  -355  -356  -342  -293  -197  -75  30  98  158  261  409  542  609  626  646  703  801  923  1052  1184  1333  1543  1851  2188  2414  2481  2463  2432  2418  2419  2431  2446  2432  2339  2150  1925  1720  1500  1235  989  854  822  791  651  385  98  -88  -172  -227  -298  -388  -490  -590  -667  -710  -729  -736  -737  -736  -739  -749  -765  -788  -816  -831  -820  -803  -807  -832  -858  -861  -846  -833  -832  -833  -821  -796  -785  -807  -843  -853  -827  -786  -756  -735  -704  -650  -578  -526  -559  -666  -754  -777  -766  -761  -764  -764  -763  -766  -752  -698  -599  -475  -342  -224  -155  -118  -44  79  199  277  314  320  296  239  168  114  84  44  -50  -224  -450  -651  -772  -828  -881  -978  -1107  -1220  -1278  -1279  -1235  -1165  -1098  -1067  -1096  -1191  -1332  -1481  -1597  -1650  -1614  -1521  -1486  -1583  -1732  -1764  -1485  -734  538  2234  4055  5564  6332  6050  4685  2652  654  -735  -1376  -1470  -1300  -1144  -1155  -1258  -1328  -1346  -1337  -1292  -1198  -1092  -1041  -1045  -1042  -1005  -946  -880  -823  -792  -805  -869  -972  -1078  -1158  -1190  -1154  -1040  -857  -632  -413  -244  -130  -50  -8  -12  -16  46  188  362  508  595  639  687  778  911  1062  1241  1451  1647  1789  1875  1933  2006  2097  2169  2211  2245  2280  2271  2142  1872  1540  1249  1039  903  824  762  663  491  257  25  -129  -193  -220  -265  -333  -384  -371  -280  -150  -51  -17  -45  -129  -240  -327  -359  -351  -357  -424  -528  -581  -526  -402  -302  -269  -276  -291  -310  -343  -383  -411  -420  -416  -410  -405  -401  -396  -383  -354  -316  -286  -268  -256  -250  -255  -274  -302  -329  -355  -382  -398  -378  -307  -216  -163  -163  -183  -198  -205  -215  -246  -320  -425  -510  -540  -531  -508  -465  -367  -197  0  156  259  333  379  403  444  553  746  960  1094  1075  886  596  340  206  171  178  178  116  -40  -251  -421  -502  -510  -478  -444  -451  -517  -598  -649  -684  -726  -747  -718  -658  -613  -601  -601  -575  -516  -490  -664  -1134  -1612  -1563  -758  660  2463  4279  5677  6459  6504  5673  4104  2208  429  -790  -1195  -994  -668  -547  -621  -705  -710  -677  -642  -613  -596  -595  -617  -664  -722  -771  -798  -798  -748  -617  -417  -230  -131  -121  -161  -214  -255  -272  -245  -152  -14  111  190  238  284  343  414  519  680  862  1008  1121  1231  1338  1455  1620  1828  2019  2152  2216  2220  2211  2247  2334  2432  2503  2535  2530  2464  2296  2058  1845  1715  1646  1556  1340  944  462  71  -147  -250  -327  -419  -518  -607  -682  -762  -877  -1017  -1127  -1179  -1190  -1178  -1140  -1071  -974  -872  -796  -772  -811  -895  -975  -1011  -1011  -1012  -1032  -1060  -1077  -1066  -1018  -936  -843  -765  -713  -680  -662  -663  -673  -677  -676  -686  -723  -782  -837  -871  -888  -917  -985  -1077  -1144  -1158  -1116  -1019  -887  -765  -686  -648  -635  -629  -624  -627  -655  -716  -788  -836  -854  -868  -888  -887  -838  -762  -701  -671  -656  -618  -523  -388  -280  -233  -225  -228  -222  -193  -136  -47  65  185  302  408  494  572  643  661  538  206  -278  -721  -975  -1074  -1121  -1152  -1140  -1089  -1052  -1071  -1126  -1173  -1193  -1194  -1186  -1160  -1117  -1083  -1105  -1199  -1330  -1460  -1603  -1788  -2009  -2205  -2232  -1916  -1165  72  1799  3785  5589  6708  6719  5533  3432  947  -1164  -2292  -2397  -1871  -1210  -795  -683  -698  -704  -690  -687  -728  -836  -980  -1082  -1088  -1001  -870  -755  -674  -608  -543  -460  -346  -225  -148  -134  -168  -223  -271  -305  -327  -320  -237  -59  154  311  394  456  541  647  746  838  941  1055  1183  1331  1496  1684  1902  2113  2263  2349  2403  2446  2469  2460  2413  2345  2280  2237  2218  2212  2184  2065  1786  1391  1018  732  482  220  -37  -250  -401  -516  -624  -712  -754  -766  -798  -867  -954  -1029  -1069  -1072  -1055  -1046  -1050  -1032  -968  -875  -798  -756  -736  -721  -704  -687  -694  -760  -870  -970  -1035  -1072  -1096  -1108  -1085  -982  -796  -590  -433  -330  -247  -179  -166  -248  -409  -584  -715  -784  -801  -777  -703  -590  -488  -443  -458  -502  -537  -544  -524  -461  -333  -164  -16  57  27  -94  -239  -333  -364  -340  -219  45  378  614  691  676  634  584  527  456  338  125  -156  -390  -499  -523  -541  -588  -641  -683  -739  -846  -982  -1083  -1110  -1067  -988  -913  -865  -844  -845  -858  -889  -956  -1101  -1369  -1720  -1951  -1878  -1418  -468  982  2740  4510  5902  6519  6141  4785  2743  545  -1248  -2229  -2294  -1701  -905  -388  -398  -756  -1102  -1266  -1286  -1232  -1136  -1014  -880  -766  -724  -762  -818  -823  -770  -659  -475  -250  -65  39  72  18  -115  -258  -321  -281  -178  -57  92  296  525  710  814  867  915  965  1002  1030  1080  1193  1394  1658  1916  2130  2303  2440  2535  2571  2520  2382  2201  2039  1928  1853  1781  1706  1637  1570  1506  1445  1372  1243  1024  762  495  166  -247  -614  -810  -864  -880  -903  -923  -939  -945  -919  -842  -724  -604  -511  -449  -427  -454  -519  -601  -673  -718  -742  -767  -801  -828  -831  -808  -765  -700  -602  -485  -386  -326  -308  -333  -384  -447  -504  -530  -514  -465  -411  -378  -351  -295  -220  -186  -230  -316  -370  -356  -310  -287  -297  -299  -247  -148  -48  25  91  193  357  567  766  894  941  930  872  776  638  464  323  249  166  4  -193  -328  -371  -365  -352  -349  -351  -357  -370  -394  -436  -516  -659  -844  -1002  -1079  -1064  -978  -869  -790  -768  -800  -887  -1053  -1241  -1280  -1040  -510  349  1587  3188  5028  6633  7246  6469  4612  2389  533  -502  -813  -896  -1042  -1102  -942  -696  -539  -504  -534  -576  -608  -624  -629  -615  -572  -504  -431  -369  -349  -387  -445  -480  -481  -444  -357  -211  -39  88  136  127  110  138  242  397  528  595  620  651  730  868  1038  1203  1352  1487  1601  1680  1745  1838  1967  2100  2203  2264  2289  2291  2272  2232  2167  2065  1932  1799  1702  1616  1470  1211  865  536  303  116  -129  -436  -712  -910  -1045  -1140  -1211  -1261  -1282  -1266  -1215  -1154  -1116  -1107  -1122  -1179  -1288  -1408  -1487  -1511  -1505  -1490  -1465  -1424  -1380  -1353  -1346  -1346  -1343  -1342  -1348  -1364  -1386  -1403  -1415  -1418  -1391  -1315  -1212  -1146  -1155  -1221  -1298  -1334  -1310  -1254  -1197  -1135  -1053  -955  -866  -810  -786  -776  -784  -833  -931  -1050  -1133  -1140  -1090  -1040  -1021  -1023  -1029  -1026  -1010  -982  -940  -867  -745  -602  -495  -451  -446  -452  -458  -466  -472  -455  -388  -268  -119  25  154  272  375  438  447  411  339  240  113  -35  -183  -297  -371  -439  -541  -666  -758  -789  -787  -786  -803  -849  -909  -952  -964  -961  -959  -969  -990  -1002  -1007  -1036  -1098  -1169  -1259  -1414  -1626  -1786  -1725  -1275  -331  1079  2828  4657  6106  6713  6306  5006  3121  1129  -473  -1432  -1746  -1534  -1072  -703  -594  -692  -833  -906  -910  -870  -789  -685  -596  -535  -484  -412  -290  -143  -69  -134  -288  -426  -493  -511  -513  -509  -508  -520  -523  -479  -353  -158  25  120  141  176  305  515  757  1023  1292  1475  1544  1570  1619  1709  1845  2014  2180  2313  2416  2522  2631  2696  2700  2678  2654  2615  2558  2499  2439  2306  2001  1559  1146  871  725  660  619  539  370  116  -158  -383  -525  -593  -610  -591  -544  -492  -464  -473  -518  -589  -668  -717  -690  -562  -382  -240  -191  -252  -431  -663  -814  -817  -707  -555  -416  -323  -271  -238  -211  -172  -104  -23  15  -40  -210  -454  -684  -809  -769  -545  -225  29  138  157  159  164  151  112  66  33  -21  -154  -342  -488  -529  -480  -379  -272  -197  -155  -116  -69  -32  -11  34  150  301  391  388  349  322  314  324  365  446  567  718  862  967  1052  1181  1361  1483  1345  812  59  -516  -731  -719  -648  -570  -480  -389  -326  -292  -269  -263  -288  -338  -411  -513  -646  -802  -944  -1024  -1030  -979  -903  -848  -864  -970  -1120  -1237  -1196  -826  -97  888  2145  3711  5358  6658  7186  6655  5080  2874  730  -717  -1212  -949  -407  -66  -105  -313  -447  -481  -487  -510  -592  -794  -1117  -1445  -1646  -1705  -1682  -1596  -1424  -1206  -1040  -971  -980  -1044  -1129  -1188  -1170  -1051  -884  -756  -703  -694  -693  -680  -640  -562  -453  -336  -235  -152  -57  84  253  387  483  602  749  867  935  987  1057  1149  1250  1360  1470  1533  1515  1453  1386  1304  1181  1020  853  696  545  381  176  -75  -334  -568  -786  -979  -1116  -1192  -1235  -1285  -1370  -1473  -1549  -1571  -1551  -1513  -1458  -1393  -1345  -1327  -1330  -1337  -1333  -1304  -1255  -1208  -1191  -1205  -1229  -1237  -1216  -1166  -1093  -1018  -966  -934  -901  -866  -847  -851  -867  -883  -893  -877  -807  -697  -600  -532  -460  -377  -315  -291  -289  -293  -314  -358  -404  -421  -427  -457  -494  -501  -476  -440  -400  -313  -123  123  307  388  408  408  413  451  534  643  750  830  845  742  516  243  14  -153  -308  -481  -640  -736  -762  -748  -729  -719  -716  -715  -717  -730  -753  -777  -798  -827  -867  -911  -945  -957  -951  -951  -992  -1109  -1302  -1452  -1365  -927  -91  1147  2691  4366  5914  6928  6966  5779  3622  1301  -401  -1241  -1392  -1216  -1038  -915  -765  -620  -554  -569  -645  -737  -794  -795  -756  -706  -666  -634  -599  -571  -562  -558  -541  -497  -419  -324  -244  -199  -182  -161  -102  -5  90  156  196  225  264  338  446  549  630  727  879  1074  1273  1437  1548  1641  1758  1905  2074  2250  2397  2483  2524  2536  2526  2513  2507  2484  2373  2120  1771  1452  1228  1063  923  824  736  571  290  -18  -238  -341  -382  -420  -481  -570  -679  -789  -877  -919  -913  -887  -864  -846  -819  -784  -758  -750  -753  -762  -766  -745  -681  -592  -523  -499  -508  -522  -526  -522  -527  -561  -626  -687  -702  -672  -637  -614  -571  -472  -343  -259  -271  -364  -460  -473  -404  -338  -329  -362  -411  -471  -540  -594  -612  -574  -461  -281  -101  -3  -12  -85  -171  -236  -267  -279  -291  -293  -241  -83  158  403  598  707  683  557  417  257  0  -326  -586  -703  -732  -758  -799  -820  -810  -798  -813  -877  -1010  -1177  -1299  -1340  -1328  -1282  -1178  -1000  -802  -675  -663  -753  -906  -1096  -1346  -1660  -1865  -1707  -1096  -5  1633  3612  5404  6547  6728  5770  3913  1801  51  -1001  -1350  -1248  -977  -730  -656  -767  -921  -1000  -1015  -1007  -968  -866  -705  -542  -434  -390  -382  -378  -366  -353  -354  -386  -441  -471  -418  -286  -142  -50  -25  -35  -54  -60  -24  78  226  358  463  574  702  816  911  1004  1102  1203  1309  1431  1576  1731  1851  1907  1925  1964  2063  2201  2314  2366  2352  2262  2088  1843  1569  1326  1123  911  684  489  343  220  99  -56  -277  -522  -716  -834  -904  -967  -1038  -1085  -1079  -1040  -997  -952  -885  -800  -729  -699  -729  -827  -959  -1060  -1103  -1106  -1088  -1066  -1052  -1047  -1035  -979  -851  -684  -549  -474  -428  -366  -287  -228  -208  -211  -216  -219  -220  -219  -214  -204  -190  -184  -204  -269  -378  -500  -596  -644  -639  -580  -486  -401  -359  -335  -275  -161  -33  58  104  124  140  154  173  204  253  328  454  613  740  791  776  721  655  612  589  555  486  378  234  71  -75  -175  -224  -237  -241  -253  -273  -299  -339  -404  -488  -566  -623  -647  -650  -665  -690  -680  -621  -561  -543  -562  -603  -726  -1012  -1310  -1190  -396  884  2388  4013  5590  6771  7174  6478  4654  2233  67  -1191  -1438  -1143  -953  -1103  -1300  -1267  -1102  -1017  -1057  -1152  -1231  -1263  -1233  -1121  -943  -774  -684  -690  -795  -972  -1153  -1274  -1316  -1280  -1145  -917  -682  -540  -507  -526  -552  -571  -574  -535  -435  -299  -190  -153  -167  -175  -118  26  226  436  639  840  1041  1220  1336  1412  1514  1648  1754  1801  1808  1790  1721  1576  1398  1268  1214  1177  1077  874  597  327  145  62  -11  -184  -446  -673  -795  -846  -874  -901  -941  -982  -1011  -1031  -1038  -1024  -998  -971  -926  -834  -709  -611  -568  -552  -546  -551  -573  -610  -649  -675  -682  -679  -677  -683  -703  -745  -806  -836  -763  -601  -439  -328  -254  -205  -177  -165  -162  -170  -195  -229  -253  -261  -261  -259  -257  -250  -241  -239  -245  -250  -238  -209  -177  -145  -93  -8  79  132  138  125  155  272  456  624  717  739  731  727  733  740  737  729  721  687  595  460  324  178  -11  -226  -385  -426  -379  -308  -257  -271  -384  -586  -822  -1015  -1137  -1222  -1284  -1294  -1215  -1033  -810  -654  -627  -720  -899  -1164  -1542  -1948  -2142  -1913  -1239  -143  1398  3334  5329  6778  7153  6283  4372  1977  -186  -1607  -2161  -2012  -1486  -982  -754  -741  -769  -775  -774  -778  -780  -775  -775  -794  -825  -835  -804  -746  -687  -631  -548  -424  -279  -159  -100  -119  -219  -360  -460  -444  -282  -21  239  425  518  536  517  497  513  610  808  1053  1255  1367  1416  1442  1453  1474  1561  1746  1980  2179  2312  2401  2470  2522  2558  2584  2591  2530  2323  1951  1510  1120  808  534  282  74  -64  -142  -194  -236  -268  -296  -339  -409  -505  -625  -761  -897  -1014  -1099  -1141  -1127  -1054  -956  -882  -852  -853  -886  -965  -1062  -1127  -1149  -1156  -1148  -1097  -985  -835  -703  -623  -594  -603  -641  -689  -721  -728  -717  -702  -689  -673  -648  -634  -661  -720  -767  -769  -743  -725  -732  -730  -687  -582  -410  -217  -85  -43  -57  -92  -137  -190  -239  -260  -228  -143  -23  100  200  291  412  558  675  735  745  690  548  333  97  -121  -341  -577  -772  -869  -884  -863  -831  -805  -812  -878  -990  -1098  -1174  -1215  -1219  -1177  -1074  -908  -736  -650  -692  -831  -1058  -1426  -1906  -2295  -2344  -1931  -1128  -98  1150  2730  4492  5948  6616  6207  4733  2633  553  -1017  -1826  -1877  -1502  -1143  -1002  -1026  -1082  -1056  -923  -763  -665  -641  -661  -704  -753  -783  -773  -722  -655  -595  -550  -517  -493  -469  -434  -374  -296  -219  -135  -31  73  138  146  113  90  139  260  375  434  483  594  778  1005  1283  1628  1987  2269  2425  2484  2507  2512  2485  2439  2423  2432  2373  2226  2090  2028  2008  1967  1840  1580  1227  922  758  687  614  486  280  4  -271  -459  -546  -574  -570  -548  -528  -520  -518  -513  -511  -533  -596  -680  -738  -757  -774  -825  -891  -906  -834  -728  -683  -730  -811  -853  -830  -775  -723  -670  -590  -488  -405  -379  -400  -437  -485  -556  -636  -698  -724  -714  -682  -648  -608  -542  -473  -452  -492  -570  -645  -650  -558  -411  -276  -194  -164  -159  -162  -174  -192  -209  -225  -232  -197  -88  65  187  244  281  352  450  522  532  491  397  228  -29  -354  -668  -862  -905  -859  -797  -755  -736  -732  -740  -757  -780  -810  -843  -874  -886  -869  -834  -798  -766  -734  -689  -655  -761  -1184  -1837  -2256  -2036  -1194  32  1555  3369  5249  6748  7332  6617  4739  2345  231  -1040  -1408  -1179  -733  -427  -413  -525  -579  -575  -577  -604  -622  -588  -500  -407  -345  -319  -314  -321  -337  -368  -402  -423  -420  -379  -264  -55  219  483  640  626  444  191  11  -9  119  324  505  617  692  765  854  1005  1236  1466  1604  1663  1720  1814  1918  1994  2034  2058  2082  2110  2132  2119  2058  1953  1823  1691  1549  1358  1119  905  773  668  483  221  -22  -227  -453  -691  -861  -948  -1010  -1087  -1176  -1251  -1289  -1296  -1273  -1204  -1078  -917  -775  -698  -740  -935  -1204  -1392  -1430  -1371  -1280  -1185  -1105  -1060  -1051  -1064  -1074  -1051  -971  -862  -776  -732  -705  -680  -663  -660  -673  -710  -774  -848  -908  -948  -958  -897  -725  -493  -320  -257  -261  -302  -408  -600  -822  -972  -1010  -984  -953  -941  -929  -885  -819  -759  -709  -648  -572  -495  -433  -388  -354  -329  -310  -279  -205  -74  89  233  312  346  387  447  461  392  307  261  200  31  -232  -492  -689  -828  -911  -946  -959  -962  -956  -948  -947  -960  -991  -1029  -1058  -1081  -1104  -1137  -1176  -1203  -1200  -1173  -1142  -1135  -1218  -1467  -1803  -1899  -1475  -583  574  1954  3580  5250  6447  6616  5533  3472  1182  -523  -1352  -1511  -1319  -1082  -997  -1001  -941  -818  -718  -676  -675  -696  -725  -744  -735  -709  -683  -670  -672  -677  -667  -627  -560  -472  -349  -192  -48  44  107  181  279  377  440  461  458  449  440  434  451  526  669  863  1095  1332  1523  1665  1815  1993  2159  2304  2456  2613  2749  2844  2879  2827  2686  2493  2310  2165  2026  1868  1718  1591  1460  1299  1105  894  697  504  274  37  -115  -159  -159  -182  -242  -330  -440  -546  -612  -631  -626  -619  -613  -606  -600  -603  -614  -613  -592  -560  -526  -509  -518  -520  -498  -461  -413  -372  -357  -368  -396  -425  -449  -475  -496  -504  -515  -553  -614  -665  -661  -589  -490  -422  -389  -376  -377  -392  -417  -444  -462  -468  -469  -475  -482  -478  -445  -382  -307  -240  -199  -185  -197  -235  -290  -337  -358  -360  -356  -352  -353  -363  -381  -408  -446  -496  -550  -596  -629  -637  -597  -491  -324  -122  53  149  170  166  189  270  382  468  507  518  518  521  543  582  611  600  534  443  370  325  262  128  -93  -346  -540  -634  -650  -635  -643  -694  -764  -826  -873  -910  -956  -1020  -1080  -1113  -1122  -1121  -1114  -1090  -1046  -1005  -980  -988  -1107  -1373  -1563  -1328  -631  326  1554  3105  4717  6007  6615  6141  4452  2057  -158  -1522  -1822  -1335  -668  -270  -210  -370  -581  -733  -808  -792  -704  -659  -740  -900  -1030  -1048  -954  -785  -550  -271  -33  90  110  78  17  -62  -128  -138  -98  -51  -13  26  80  163  282  404  485  519  533  555  607  718  938  1277  1626  1846  1919  1922  1914  1918  1953  2033  2153  2280  2364  2392  2373  2302  2156  1931  1674  1441  1229  1035  902  831  748  600  392  156  -61  -220  -339  -480  -639  -729  -698  -614  -604  -734  -915  -1002  -987  -937  -853  -778  -799  -882  -936  -950  -964  -1003  -1049  -1062  -1025  -944  -838  -756  -725  -722  -735  -762  -776  -763  -732  -686  -637  -600  -576  -571  -625  -764  -908  -921  -795  -660  -603  -608  -629  -637  -620  -580  -530  -489  -461  -452  -467  -502  -542  -576  -597  -605  -610  -624  -649  -664  -654  -620  -556  -459  -373  -338  -312  -254  -181  -114  -50  13  87  186  305  406  443  412  372  386  457  544  593  556  398  135  -132  -293  -348  -388  -488  -647  -811  -934  -993  -988  -943  -890  -854  -833  -805  -766  -732  -719  -734  -784  -859  -939  -1047  -1241  -1536  -1842  -2010  -1917  -1487  -692  457  1966  3782  5591  6824  6911  5618  3289  797  -970  -1715  -1722  -1471  -1336  -1371  -1321  -1038  -699  -514  -481  -508  -557  -637  -738  -811  -812  -723  -573  -433  -362  -343  -322  -265  -190  -153  -170  -187  -147  -73  -38  -68  -101  -70  21  120  167  181  260  434  618  758  899  1113  1386  1619  1744  1807  1892  2003  2079  2102  2126  2214  2366  2523  2633  2665  2613  2506  2390  2262  2065  1789  1500  1264  1090  954  792  493  30  -428  -694  -759  -736  -707  -685  -665  -674  -743  -854  -949  -990  -984  -965  -959  -958  -922  -819  -688  -637  -727  -898  -1035  -1088  -1088  -1070  -1046  -1014  -967  -906  -846  -798  -751  -703  -670  -659  -658  -655  -650  -649  -652  -652  -644  -636  -632  -635  -639  -626  -579  -514  -466  -447  -431  -401  -364  -341  -364  -460  -618  -770  -840  -813  -734  -643  -540  -434  -382  -418  -511  -594  -627  -605  -540  -453  -369  -307  -276  -270  -278  -294  -318  -333  -297  -174  -5  124  197  273  370  409  329  190  96  72  74  55  -20  -173  -387  -612  -805  -948  -1039  -1081  -1096  -1115  -1146  -1184  -1234  -1271  -1242  -1128  -995  -935  -948  -955  -930  -924  -981  -1105  -1294  -1573  -1931  -2175  -1966  -1125  224  1866  3623  5244  6355  6620  5888  4205  1888  -365  -1807  -2265  -2062  -1528  -974  -667  -639  -748  -852  -872  -820  -763  -740  -740  -738  -725  -710  -708  -715  -714  -697  -668  -635  -598  -549  -488  -431  -399  -391  -376  -323  -249  -183  -113  8  187  369  498  565  610  679  780  890  987  1072  1163  1273  1426  1667  1971  2235  2396  2481  2525  2532  2492  2413  2331  2259  2157  2001  1832  1688  1545  1381  1233  1126  968  655  254  -51  -198  -262  -306  -341  -358  -359  -351  -354  -401  -497  -582  -590  -547  -514  -515  -523  -475  -300  0]
