reading_id,reading_time,wire_id,result_classification,heart_rate,heart_rate_alert,firmware_version,device_app_version,hardware_version,waveform_samples
17c123d0-5cab-11ed-8080-808080808080,Sat Nov 05 01:42:22 UTC 2022,410163471e39,NSR,67,NONE,20001.171.50,2.10.0,Charge 5,[19512  20535  21179  21377  21302  21172  21082  20950  20676  20292  19911  19698  19799  20124  20438  20586  20509  20270  20051  19928  19799  19573  19303  19088  18887  18595  18255  17966  17645  17068  16133  15016  13996  13119  12269  11434  10639  9892  9302  8875  8238  7082  5767  4838  4374  4200  3866  2793  1049  -716  -1861  -2042  -1656  -1596  -2223  -3132  -3860  -4343  -4696  -4917  -4912  -4631  -4200  -3854  -3711  -3805  -4206  -4891  -5616  -6127  -6385  -6502  -6531  -6379  -5928  -5260  -4637  -4238  -4048  -4080  -4592  -5906  -7931  -10134  -11933  -12988  -13362  -13384  -13283  -13103  -12882  -12717  -12648  -12629  -12633  -12723  -12971  -13304  -13541  -13610  -13611  -13674  -13821  -13937  -13920  -13825  -13753  -13720  -13689  -13627  -13524  -13391  -13231  -13083  -13056  -13167  -13270  -13260  -13197  -13148  -13045  -12754  -12280  -11809  -11491  -11301  -11164  -11071  -11026  -10981  -10871  -10644  -10288  -9896  -9573  -9284  -8931  -8553  -8289  -8183  -8171  -8185  -8191  -8155  -8064  -7982  -8030  -8243  -8498  -8665  -8772  -8942  -9181  -9380  -9487  -9532  -9558  -9620  -9773  -9977  -10132  -10220  -10314  -10433  -10527  -10591  -10676  -10790  -10894  -10973  -11039  -11085  -11104  -11104  -11095  -11092  -11128  -11221  -11325  -11352  -11274  -11143  -11012  -10881  -10755  -10672  -10650  -10671  -10698  -10668  -10495  -10173  -9840  -9648  -9611  -9634  -9654  -9714  -9864  -10018  -10076  -10010  -9772  -9372  -8975  -8709  -8544  -8403  -8270  -8179  -8142  -8134  -8117  -8068  -7988  -7875  -7717  -7537  -7388  -7261  -7022  -6555  -5973  -5513  -5276  -5204  -5207  -5217  -5208  -5184  -5131  -5025  -4892  -4780  -4652  -4381  -3877  -3230  -2665  -2308  -2123  -2029  -1941  -1793  -1615  -1493  -1465  -1497  -1513  -1425  -1175  -784  -329  138  545  785  863  895  979  1123  1261  1333  1343  1325  1303  1309  1404  1642  1992  2336  2584  2739  2845  2964  3125  3266  3316  3261  3145  3051  3001  2948  2936  3011  3104  3252  3651  4471  5791  7560  9540  11193  11840  11243  9725  7666  5527  3973  3364  3539  4125  4715  5023  5050  4980  4934  4917  4911  4908  4902  4887  4873  4881  4922  4982  5020  5012  4976  4946  4937  4940  4945  4938  4902  4829  4738  4665  4600  4509  4411  4364  4385  4435  4477  4502  4506  4457  4317  4126  3975  3898  3882  3938  4059  4168  4224  4279  4394  4581  4788  4940  5013  5047  5093  5147  5138  4980  4672  4301  3933  3593  3296  3036  2779  2506  2195  1806  1356  891  343  -356  -1047  -1472  -1601  -1597  -1591  -1603  -1608  -1608  -1651  -1789  -1990  -2151  -2219  -2241  -2310  -2478  -2704  -2884  -2974  -2980  -2903  -2760  -2652  -2705  -2923  -3152  -3251  -3221  -3153  -3123  -3145  -3178  -3180  -3189  -3287  -3445  -3554  -3558  -3484  -3405  -3370  -3356  -3317  -3247  -3204  -3276  -3485  -3716  -3794  -3702  -3579  -3522  -3516  -3527  -3546  -3581  -3610  -3560  -3367  -3085  -2849  -2717  -2642  -2574  -2506  -2454  -2417  -2377  -2315  -2213  -2056  -1815  -1462  -1061  -758  -629  -626  -658  -648  -548  -364  -172  -43  15  34  36  30  25  27  32  42  62  89  95  19  -154  -315  -330  -226  -114  -48  -6  59  157  247  294  300  300  333  419  535  622  600  429  165  -53  -136  -62  260  884  1651  2550  3885  5617  7087  7612  6931  5254  3191  1458  508  327  537  696  600  417  358  408  456  467  474  531  650  782  866  890  878  856  839  827  815  809  824  869  940  1005  1013  932  804  715  714  787  903  1025  1112  1147  1142  1109  1035  936  915  1068  1355  1661  1909  2098  2286  2522  2774  2966  3094  3217  3364  3500  3577  3593  3583  3574  3568  3551  3521  3497  3478  3423  3300  3106  2827  2480  2141  1873  1688  1585  1543  1506  1405  1220  997  832  787  822  852  829  763  713  716  736  739  732  728  722  682  571  419  305  269  295  351  399  394  313  200  171  306  528  661  622  492  384  336  324  325  328  322  301  268  242  251  323  454  587  661  644  533  376  266  302  528  863  1136  1255  1250  1166  1024  865  753  719  746  781  778  748  771  923  1150  1290  1278  1201  1152  1145  1160  1180  1178  1135  1098  1134  1200  1169  997  811  810  1030  1321  1551  1686  1732  1703  1607  1423  1150  873  685  568  429  249  97  20  -3  -8  -9  -15  -22  -25  -32  -82  -211  -399  -580  -702  -747  -729  -677  -602  -501  -406  -424  -691  -1174  -1554  -1433  -584  974  2926  4692  5747  5911  5239  3798  1797  -246  -1784  -2528  -2476  -1940  -1471  -1425  -1688  -1998  -2247  -2411  -2487  -2499  -2488  -2477  -2472  -2466  -2446  -2386  -2272  -2137  -2037  -1988  -1976  -1990  -2030  -2095  -2167  -2216  -2219  -2170  -2080  -1968  -1843  -1713  -1617  -1590  -1620  -1652  -1616  -1479  -1256  -1006  -810  -710  -657  -577  -456  -310  -117  143  420  652  818  920  986  1058  1167  1326  1490  1592  1605  1511  1277  969  739  634  559  390  97  -235  -487  -615  -677  -762  -922  -1143  -1362  -1513  -1633  -1848  -2219  -2608  -2814  -2800  -2694  -2629  -2648  -2705  -2750  -2773  -2783  -2785  -2788  -2790  -2778  -2735  -2664  -2595  -2544  -2498  -2454  -2434  -2457  -2506  -2548  -2569  -2565  -2520  -2421  -2297  -2203  -2152  -2097  -1992  -1863  -1797  -1829  -1897  -1908  -1816  -1656  -1509  -1435  -1426  -1445  -1471  -1498  -1509  -1453  -1282  -1036  -824  -698  -668  -745  -907  -1084  -1202  -1228  -1157  -975  -712  -477  -354  -313  -300  -313  -366  -437  -496  -530  -536  -524  -509  -487  -428  -291  -95  70  131  57  -143  -378  -471  -316  9  312  477  508  437  281  85  -77  -174  -220  -241  -239  -205  -154  -121  -136  -217  -340  -428  -376  -113  287  626  777  788  767  774  801  787  676  443  88  -303  -563  -596  -441  -222  -57  19  40  33  11  -16  -37  -31  6  50  58  19  -23  -47  -97  -226  -373  -378  -136  323  946  1747  2805  4204  5844  7246  7825  7274  5644  3432  1449  280  -90  -37  143  303  354  318  285  288  309  325  326  330  375  491  650  785  843  807  706  605  555  579  678  804  896  937  959  1001  1061  1108  1125  1124  1120  1116  1110  1104  1112  1157  1237  1317  1381  1479  1679  1942  2140  2219  2251  2327  2460  2617  2790  2968  3099  3149  3147  3154  3230  3406  3637  3831  3946  3991  3935  3719  3345  2898  2467  2099  1792  1539  1350  1219  1112  1015  937  870  761  564  328  166  121  142  163  130  11  -154  -282  -334  -334  -285  -181  -60  1  -13  -49  -54  -18  34  76  111  160  199  152  -26  -283  -505  -608  -570  -421  -244  -119  -44  11  50  61  41  -28  -171  -349  -477  -522  -522  -516  -512  -500  -474  -446  -436  -443  -451  -454  -452  -449  -454  -472  -507  -561  -634  -705  -729  -694  -626  -562  -524  -513  -514  -513  -507  -500  -511  -570  -678  -794  -885  -953  -995  -992  -936  -850  -760  -667  -556  -445  -375  -362  -408  -528  -711  -909  -1068  -1152  -1137  -1019  -843  -688  -585  -492  -375  -264  -199  -179  -176  -182  -231  -352  -509  -626  -677  -685  -686  -716  -796  -897  -951  -914  -805  -680  -574  -495  -436  -394  -375  -376  -375  -333  -224  -81  22  56  42  6  -36  -76  -103  -112  -105  -110  -166  -295  -486  -708  -924  -1088  -1180  -1232  -1287  -1326  -1303  -1223  -1137  -1096  -1092  -1080  -1064  -1120  -1325  -1629  -1783  -1611  -1283  -998  -675  -94  1004  2748  4763  6239  6535  5498  3378  850  -1170  -2145  -2166  -1638  -990  -548  -421  -512  -665  -793  -892  -994  -1105  -1182  -1181  -1099  -982  -892  -848  -829  -809  -751  -631  -470  -327  -242  -215  -220  -231  -239  -241  -233  -210  -178  -156  -149  -147  -126  -67  18  94  138  181  301  541  831  1047  1135  1168  1270  1460  1638  1736  1803  1947  2205  2484  2668  2742  2752  2733  2685  2573  2369  2079  1735  1408  1193  1089  972  735  412  140  9  -20  -33  -70  -132  -219  -335  -464  -590  -729  -905  -1064  -1102  -1013  -899  -835  -825  -838  -826  -770  -696  -632  -584  -555  -553  -605  -722  -866  -970  -1003  -968  -880  -779  -723  -734  -780  -780  -681  -531  -418  -374  -368  -367  -359  -343  -317  -285  -265  -297  -421  -590  -708  -741  -706  -614  -519  -484  -515  -584  -661  -731  -782  -800  -788  -781  -797  -793  -716  -579  -451  -385  -381  -409  -425  -416  -402  -410  -439  -452  -426  -382  -357  -369  -418  -480  -527  -555  -577  -614  -689  -794  -881  -921  -928  -928  -926  -903  -844  -769  -723  -725  -749  -766  -743  -647  -480  -307  -201  -169  -164  -133  -72  -45  -85  -120  -58  103  315  521  688  813  859  665  77  -726  -1309  -1460  -1309  -1080  -911  -806  -714  -620  -548  -509  -485  -459  -448  -489  -613  -842  -1158  -1485  -1729  -1847  -1846  -1691  -1272  -550  451  1801  3462  5029  5981  6012  5042  3253  1169  -617  -1768  -2165  -1915  -1442  -1136  -1027  -993  -951  -849  -691  -526  -393  -291  -208  -160  -170  -221  -289  -367  -442  -487  -494  -488  -509  -581  -677  -746  -766  -731  -625  -459  -284  -127  16  154  281  382  444  483  526  598  717  876  1055  1263  1525  1830  2119  2328  2437  2479  2522  2641  2861  3101  3233  3211  3090  2938  2786  2638  2484  2321  2152  1955  1721  1501  1344  1239  1155  1056  889  612  240  -145  -443  -590  -619  -607  -595  -565  -509  -496  -574  -654  -623  -507  -421  -424  -489  -564  -618  -641  -632  -588  -500  -390  -328  -357  -449  -534  -570  -560  -534  -501  -450  -389  -341  -304  -258  -200  -137  -66  -14  -28  -113  -209  -269  -299  -326  -352  -368  -377  -396  -426  -442  -432  -425  -454  -506  -536  -516  -472  -432  -382  -314  -259  -238  -241  -253  -266  -273  -264  -239  -215  -208  -203  -179  -143  -122  -146  -227  -333  -410  -451  -481  -514  -545  -567  -606  -678  -744  -750  -686  -585  -490  -422  -393  -411  -461  -520  -581  -653  -710  -667  -484  -223  35  243  338  291  151  5  -104  -196  -303  -421  -525  -605  -671  -721  -728  -666  -575  -518  -518  -561  -631  -716  -802  -868  -918  -967  -1014  -1061  -1126  -1188  -1209  -1185  -1109  -995  -845  -564  -70  724  1994  3634  5102  5856  5627  4380  2487  599  -840  -1636  -1791  -1590  -1288  -937  -645  -547  -628  -780  -902  -954  -942  -884  -799  -716  -660  -629  -589  -520  -449  -404  -387  -385  -386  -386  -374  -341  -297  -258  -226  -207  -192  -132  21  239  423  527  580  593  551  473  393  331  302  352  543  862  1188  1418  1533  1595  1718  1945  2200  2382  2462  2476  2476  2480  2463  2379  2215  2032  1897  1817  1730  1561  1301  1019  757  476  164  -94  -235  -304  -394  -529  -656  -761  -881  -1005  -1078  -1096  -1099  -1107  -1106  -1050  -911  -741  -660  -727  -877  -995  -1036  -1023  -970  -878  -769  -686  -644  -630  -638  -677  -773  -920  -1046  -1066  -969  -813  -664  -556  -494  -475  -486  -496  -498  -518  -548  -563  -560  -556  -574  -628  -690  -711  -681  -642  -625  -627  -627  -603  -546  -473  -421  -406  -412  -418  -406  -369  -320  -285  -281  -300  -317  -324  -331  -335  -318  -273  -209  -142  -100  -106  -179  -330  -505  -624  -673  -671  -630  -556  -427  -211  45  240  326  329  271  168  57  -14  -39  -39  -28  4  61  100  90  67  78  139  225  285  302  300  315  376  521  728  908  999  1017  1007  987  954  904  844  778  715  664  599  455  198  -87  -269  -320  -305  -286  -282  -291  -305  -318  -326  -324  -312  -303  -337  -454  -640  -831  -990  -1146  -1323  -1400  -1142  -458  481  1466  2504  3708  4947  5800  5862  4980  3375  1581  136  -675  -951  -981  -917  -843  -828  -844  -857  -863  -854  -832  -777  -655  -503  -432  -511  -679  -826  -906  -949  -989  -1006  -915  -654  -326  -124  -86  -119  -172  -230  -269  -279  -263  -247  -264  -297  -298  -239  -132  8  187  383  548  680  805  917  1016  1124  1252  1397  1544  1678  1809  1960  2150  2372  2575  2705  2759  2765  2742  2704  2646  2529  2311  1994  1640  1337  1123  960  799  612  370  91  -141  -292  -416  -572  -733  -804  -731  -565  -409  -342  -434  -727  -1121  -1406  -1477  -1392  -1249  -1095  -928  -763  -649  -580  -500  -395  -324  -380  -621  -970  -1249  -1360  -1324  -1186  -993  -790  -572  -303  -10  202  214  -49  -534  -1017  -1288  -1312  -1161  -929  -718  -588  -517  -440  -298  -99  80  152  47  -251  -639  -939  -1076  -1104  -1094  -1076  -1029  -920  -773  -650  -567  -490  -393  -279  -179  -146  -220  -398  -636  -859  -993  -1026  -999  -946  -883  -809  -700  -550  -410  -323  -269  -210  -163  -186  -297  -424  -506  -576  -668  -748  -771  -732  -649  -542  -444  -381  -338  -280  -207  -166  -192  -260  -316  -339  -341  -331  -298  -236  -165  -117  -108  -131  -169  -191  -171  -109  -23  61  119  140  125  60  -73  -262  -411  -411  -287  -174  -126  -99  -39  100  339  638  928  1148  1273  1261  1062  707  299  -54  -274  -345  -339  -331  -331  -313  -279  -253  -239  -222  -193  -178  -239  -443  -767  -1077  -1246  -1241  -1100  -905  -756  -722  -851  -1147  -1473  -1556  -1137  -115  1423  3285  5119  6392  6680  5913  4300  2267  428  -729  -1177  -1194  -1061  -940  -864  -825  -818  -823  -818  -783  -707  -618  -552  -523  -528  -537  -511  -468  -440  -408  -335  -223  -114  -59  -117  -314  -570  -736  -738  -599  -375  -145  2  45  30  2  -17  2  95  252  413  534  626  727  869  1043  1205  1328  1439  1591  1792  1993  2161  2291  2385  2478  2620  2777  2848  2793  2664  2503  2314  2106  1913  1732  1516  1252  991  777  600  421  213  1  -164  -277  -367  -453  -513  -525  -498  -454  -427  -461  -582  -747  -869  -909  -901  -879  -859  -846  -840  -842  -846  -833  -767  -644  -505  -403  -363  -380  -438  -538  -661  -742  -725  -628  -508  -400  -301  -201  -114  -65  -79  -170  -308  -418  -463  -461  -448  -443  -445  -425  -351  -233  -130  -88  -98  -117  -109  -66  -39  -112  -298  -519  -711  -852  -923  -918  -849  -744  -636  -528  -419  -336  -320  -384  -499  -607  -686  -754  -806  -828  -848  -879  -895  -870  -787  -610  -312  16  176  60  -207  -418  -499  -513  -521  -535  -548  -563  -568  -519  -369  -159  2  63  61  48  43  37  18  -16  -48  -61  -60  -61  -70  -99  -186  -377  -655  -914  -1047  -1055  -1018  -995  -978  -949  -914  -882  -858  -842  -823  -788  -749  -744  -807  -948  -1123  -1238  -1219  -994  -427  532  1775  3193  4570  5468  5541  4742  3192  1206  -644  -1820  -2146  -1805  -1164  -638  -461  -535  -642  -675  -618  -497  -373  -294  -274  -294  -327  -350  -359  -360  -348  -319  -281  -250  -229  -212  -201  -185  -126  -27  50  75  66  58  87  182  337  497  583  572  526  519  565  622  662  718  881  1193  1554  1827  1996  2130  2268  2414  2577  2745  2868  2913  2897  2845  2766  2670  2575  2489  2405  2309  2190  2060  1930  1740  1385  905  479  203  22  -144  -327  -499  -613  -673  -721  -769  -792  -786  -798  -868  -947  -937  -830  -748  -793  -931  -1026  -998  -877  -730  -620  -581  -593  -607  -608  -606  -608  -600  -565  -509  -484  -527  -613  -716  -848  -983  -1070  -1113  -1120  -1047  -846  -589  -421  -386  -423  -491  -582  -684  -763  -786  -771  -749  -723  -671  -581  -490  -475  -550  -654  -732  -763  -747  -716  -694  -712  -810  -975  -1141  -1257  -1311  -1270  -1083  -777  -498  -378  -407  -496  -578  -629  -653  -668  -675  -668  -655  -644  -633  -607  -558  -506  -474  -463  -461  -451  -414  -339  -255  -217  -238  -267  -208  1  292  515  607  612  529  296  -74  -436  -649  -711  -706  -672  -580  -410  -220  -104  -135  -339  -648  -907  -1014  -993  -916  -817  -692  -554  -458  -469  -627  -913  -1252  -1536  -1556  -1114  -254  915  2392  4080  5644  6601  6521  5281  3226  992  -849  -1968  -2266  -1898  -1219  -576  -211  -211  -403  -551  -598  -600  -588  -561  -511  -450  -400  -367  -345  -332  -322  -315  -308  -285  -247  -203  -146  -82  -33  -2  9  10  7  4  1  11  51  123  205  305  456  634  761  840  955  1142  1339  1477  1559  1674  1910  2231  2515  2686  2746  2736  2725  2777  2923  3114  3257  3308  3261  3091  2786  2381  1930  1511  1192  929  598  193  -140  -305  -335  -294  -238  -241  -368  -587  -794  -908  -927  -899  -864  -832  -786  -704  -606  -554  -580  -648  -689  -672  -634  -604  -574  -539  -511  -493  -489  -530  -650  -817  -938  -941  -819  -630  -462  -354  -298  -276  -275  -293  -341  -439  -575  -688  -729  -698  -611  -489  -364  -257  -181  -158  -216  -348  -484  -551  -541  -507  -495  -528  -606  -698  -754  -732  -618  -457  -342  -331  -426  -578  -725  -834  -890  -870  -782  -682  -623  -609  -628  -670  -717  -752  -768  -774  -769  -722  -609  -463  -364  -365  -463  -615  -766  -875  -913  -872  -781  -677  -587  -517  -458  -398  -335  -275  -229  -207  -202  -167  -62  92  222  277  271  247  236  242  247  222  134  -34  -271  -523  -715  -812  -824  -745  -554  -310  -156  -176  -336  -531  -667  -721  -728  -725  -723  -719  -711  -699  -698  -740  -841  -942  -906  -544  288  1553  3063  4592  5851  6485  6222  5023  3123  1023  -670  -1534  -1580  -1203  -765  -464  -408  -499  -562  -562  -551  -575  -659  -792  -927  -1001  -995  -948  -896  -820  -700  -565  -443  -343  -308  -339  -377  -406  -422  -397  -306  -141  58  209  272  279  278  293  332  383  420  418  395  391  410  423  445  559  827  1174  1454  1605  1668  1704  1786  1992  2325  2660  2864  2923  2910  2859  2748  2547  2250  1870  1449  1069  803  641  479  222  -103  -376  -540  -650  -759  -833  -827  -794  -809  -857  -918  -1029  -1209  -1401  -1526  -1559  -1518  -1420  -1301  -1211  -1153  -1096  -1046  -1045  -1093  -1134  -1114  -1043  -994  -1017  -1082  -1145  -1193  -1222  -1228  -1219  -1197  -1145  -1043  -916  -832  -801  -750  -623  -483  -459  -572  -723  -833  -873  -866  -885  -926  -916  -852  -777  -689  -571  -419  -258  -147  -112  -117  -126  -126  -119  -106  -100  -143  -275  -455  -591  -637  -617  -558  -489  -442  -437  -477  -540  -593  -623  -646  -670  -688  -696  -687  -657  -591  -468  -312  -194  -141  -132  -160  -222  -281  -299  -259  -166  -48  70  175  248  286  316  357  423  542  720  897  995  1016  1021  1042  1078  1127  1162  1113  899  545  211  27  -14  12  57  89  67  -42  -224  -415  -550  -594  -567  -535  -531  -519  -486  -476  -514  -582  -668  -779  -907  -1020  -1060  -926  -456  467  1801  3397  5067  6492  7237  6930  5442  3090  679  -966  -1538  -1290  -746  -307  -73  -16  -85  -184  -232  -212  -163  -127  -111  -115  -135  -148  -141  -122  -94  -46  14  61  75  63  44  29  23  32  60  105  163  242  329  385  401  417  479  582  686  760  799  833  899  998  1113  1261  1483  1813  2213  2556  2751  2825  2847  2857  2874  2913  2973  3034  3077  3096  3095  3059  2953  2759  2508  2229  1885  1394  730  26  -509  -817  -993  -1119  -1211  -1271  -1311  -1352  -1396  -1427  -1432  -1418  -1410  -1454  -1584  -1762  -1894  -1939  -1921  -1864  -1789  -1723  -1693  -1705  -1754  -1846  -1996  -2172  -2289  -2282  -2143  -1941  -1777  -1691  -1637  -1552  -1431  -1322  -1258  -1231  -1221  -1204  -1164  -1105  -1057  -1034  -1014  -961  -896  -886  -927  -957  -961  -946  -868  -680  -436  -262  -223  -288  -383  -447  -446  -382  -290  -225  -230  -318  -457  -577  -626  -607  -538  -437  -335  -269  -231  -186  -128  -86  -74  -64  -17  44  35  -61  -123  -76  17  85  116  134  171  235  300  321  276  206  168  188  253  326  389  448  513  589  672  710  655  546  461  434  457  489  465  323  50  -274  -535  -688  -763  -774  -720  -649  -635  -698  -798  -871  -889  -870  -832  -782  -757  -846  -1117  -1489  -1758  -1663  -971  235  1608  2953  4210  5201  5689  5468  4394  2573  507  -1135  -1948  -1930  -1420  -889  -615  -577  -635  -695  -727  -731  -719  -697  -665  -624  -573  -514  -474  -474  -482  -445  -370  -299  -250  -207  -165  -149  -172  -218  -259  -276  -261  -198  -91  27  101  95  43  31  93  204  341  495  668  870  1079  1252  1388  1530  1708  1911  2095  2236  2347  2427  2461  2472  2507  2568  2627  2669  2714  2772  2773  2577  2118  1528  1001  597  294  103  8  -66  -180  -319  -432  -501  -572  -682  -816  -941  -1050  -1141  -1196  -1199  -1165  -1140  -1146  -1148  -1118  -1073  -1041  -1033  -1025  -970  -842  -684  -573  -543  -565  -593  -598  -575  -542  -534  -550  -520  -435  -379  -397  -462  -533  -550  -494  -427  -404  -408  -389  -306  -182  -98  -97  -134  -158  -187  -260  -376  -480  -528  -522  -491  -470  -473  -490  -511  -526  -538  -565  -592  -584  -553  -532  -526  -527  -527  -522  -511  -502  -501  -491  -448  -395  -365  -356  -347  -328  -287  -211  -119  -56  -33  -9  49  120  159  149  111  81  66  34  -43  -153  -272  -408  -589  -787  -931  -993  -1002  -990  -966  -913  -827  -747  -715  -736  -796  -873  -948  -1013  -1046  -1043  -1046  -1108  -1220  -1311  -1291  -1041  -347  946  2659  4342  5509  5698  4735  2975  1044  -521  -1458  -1798  -1756  -1541  -1280  -1077  -993  -1008  -1074  -1146  -1172  -1121  -1015  -903  -812  -749  -704  -666  -617  -539  -434  -333  -254  -180  -81  48  172  246  261  251  246  252  246  197  131  102  115  123  97  69  108  240  399  515  603  724  903  1133  1404  1679  1908  2066  2166  2259  2412  2628  2823  2917  2895  2778  2623  2492  2385  2245  2034  1792  1575  1347  1058  759  525  337  115  -146  -359  -473  -517  -518  -485  -460  -502  -639  -822  -936  -914  -821  -740  -681  -632  -600  -590  -593  -597  -596  -586  -566  -542  -531  -578  -720  -911  -1020  -950  -730  -489  -333  -259  -222  -206  -208  -218  -230  -239  -249  -272  -317  -385  -489  -637  -782  -858  -863  -828  -760  -652  -527  -423  -368  -356  -360  -359  -346  -326  -307  -296  -304  -335  -392  -471  -540  -563  -539  -490  -424  -363  -328  -314  -311  -311  -304  -288  -280  -292  -320  -346  -364  -395  -466  -547  -574  -509  -379  -246  -130  -11  98  169  211  240  248  246  257  281  299  296  270  251  208  48  -186  -327  -340  -324  -344  -379  -388  -371  -358  -350  -336  -338  -383  -455  -506  -524  -527  -505  -478  -542  -735  -901  -716  47  1263  2703  4259  5654  6430  6312  5310  3631  1663  -94  -1248  -1633  -1332  -686  -165  0  -70  -199  -307  -371  -392  -392  -389  -389  -388  -392  -401  -407  -401  -376  -342  -308  -249  -131  22  140  183  154  63  -51  -149  -204  -187  -128  -93  -77  -35  56  196  339  442  500  527  549  614  752  942  1149  1363  1560  1698  1776  1859  2013  2249  2527  2805  3028  3151  3159  3033  2754  2380  2027  1786  1664  1601  1501  1286  945  584  340  213  95  -67  -234  -360  -442  -516  -625  -766  -871  -852  -694  -511  -434  -462  -520  -563  -582  -596  -635  -719  -825  -894  -873  -744  -541  -352  -259  -316  -533  -824  -1033  -1094  -1062  -1004  -943  -873  -793  -726  -693  -691  -687  -654  -601  -555  -527  -522  -557  -635  -709  -687  -532  -355  -285  -322  -413  -557  -732  -856  -886  -847  -787  -732  -680  -629  -592  -577  -574  -573  -573  -575  -586  -607  -638  -682  -732  -756  -737  -695  -655  -613  -562  -502  -421  -320  -225  -157  -125  -139  -205  -295  -352  -337  -270  -220  -216  -217  -202  -212  -283  -397  -503  -554  -507  -323  -55  166  249  191  41  -125  -241  -286  -290  -265  -187  -48  76  81  -26  -137  -201  -262  -371  -511  -626  -693  -726  -734  -723  -709  -700  -690  -686  -702  -727  -735  -702  -626  -532  -454  -403  -377  -405  -572  -943  -1418  -1733  -1611  -925  191  1503  2959  4553  6003  6833  6693  5452  3292  909  -839  -1613  -1602  -1165  -781  -782  -1000  -1070  -868  -533  -273  -176  -220  -381  -629  -872  -1017  -1054  -1020  -944  -847  -754  -686  -651  -639  -629  -608  -590  -599  -626  -614  -544  -452  -362  -285  -243  -236  -245  -257  -271  -271  -214  -55  195  465  682  820  913  999  1107  1254  1436  1629  1801  1931  2034  2131  2211  2253  2252  2197  2074  1892  1693  1516  1332  1086  797  551  397  313  223  38  -290  -709  -1083  -1326  -1447  -1495  -1507  -1493  -1452  -1394  -1332  -1267  -1208  -1174  -1169  -1176  -1183  -1181  -1169  -1145  -1109  -1079  -1050  -998  -918  -823  -735  -686  -693  -750  -859  -995  -1096  -1130  -1120  -1110  -1119  -1130  -1111  -1047  -942  -808  -662  -529  -431  -381  -371  -383  -399  -414  -418  -394  -326  -234  -166  -133  -104  -85  -131  -242  -293  -172  53  176  51  -243  -491  -565  -485  -304  -100  35  77  72  65  61  39  -22  -102  -133  -75  34  120  151  146  129  106  77  50  28  16  14  26  50  70  57  -10  -109  -184  -217  -239  -276  -313  -291  -133  195  611  950  1115  1140  1114  1067  926  599  159  -177  -302  -291  -257  -262  -324  -415  -480  -473  -389  -269  -178  -142  -153  -217  -343  -505  -647  -734  -775  -810  -865  -932  -999  -1018  -887  -535  105  1170  2680  4423  5943  6610  6068  4515  2486  584  -751  -1389  -1466  -1257  -957  -692  -587  -609  -624  -594  -567  -590  -655  -711  -735  -738  -743  -759  -780  -792  -788  -766  -720  -635  -503  -359  -264  -241  -261  -289  -302  -296  -273  -223  -148  -66  -4  23  22  30  98  226  357  469  594  758  959  1186  1430  1664  1852  1985  2081  2143  2170  2179  2213  2306  2443  2562  2626  2642  2608  2490  2253  1912  1557  1284  1088  919  774  623  387  46  -300  -542  -660  -699  -711  -730  -756  -770  -758  -714  -654  -605  -584  -600  -667  -796  -982  -1158  -1209  -1110  -950  -807  -701  -628  -576  -534  -519  -555  -638  -727  -768  -737  -652  -550  -460  -393  -339  -296  -301  -387  -510  -572  -505  -346  -194  -121  -147  -262  -413  -519  -534  -475  -391  -334  -314  -314  -316  -317  -319  -320  -319  -318  -324  -343  -371  -392  -395  -375  -342  -337  -411  -568  -736  -799  -705  -528  -392  -342  -333  -327  -327  -344  -372  -387  -369  -322  -263  -204  -146  -98  -65  -25  45  142  239  316  366  386  350  204  -88  -496  -899  -1153  -1225  -1194  -1133  -1074  -1039  -1035  -1055  -1084  -1106  -1116  -1116  -1110  -1109  -1105  -1076  -1026  -985  -994  -1071  -1181  -1296  -1421  -1456  -1251  -762  93  1419  3089  4682  5630  5531  4383  2502  436  -1184  -2030  -2143  -1733  -1159  -800  -749  -855  -979  -1070  -1113  -1111  -1077  -1017  -928  -811  -677  -549  -448  -382  -363  -406  -518  -663  -772  -817  -809  -751  -629  -458  -293  -167  -88  -39  10  76  130  148  146  159  187  203  192  194  323  668  1125  1462  1594  1652  1780  1977  2138  2213  2258  2355  2523  2707  2848  2915  2926  2929  2931  2848  2570  2122  1690  1429  1322  1266  1183  1044  829  526  201  -22  -105  -110  -107  -124  -167  -239  -326  -389  -407  -401  -408  -442  -465  -456  -459  -499  -533  -530  -493  -415  -284  -130  -13  34  14  -67  -177  -260  -281  -246  -205  -193  -186  -204  -294  -400  -427  -353  -211  -68  23  76  111  125  125  123  134  166  201  208  170  89  -27  -157  -279  -391  -484  -527  -510  -462  -409  -349  -282  -223  -183  -169  -183  -214  -262  -364  -555  -791  -967  -1024  -960  -773  -502  -239  -62  -22  -159  -456  -788  -1009  -1076  -1010  -824  -573  -364  -268  -256  -270  -281  -295  -320  -334  -314  -270  -196  -44  180  380  475  469  419  377  364  357  333  292  239  138  -101  -498  -907  -1160  -1227  -1166  -1026  -853  -716  -668  -711  -810  -910  -969  -985  -967  -910  -825  -764  -830  -1113  -1526  -1751  -1496  -814  6  823  1743  2956  4444  5748  6150  5253  3334  1135  -604  -1528  -1705  -1462  -1165  -971  -878  -897  -973  -1011  -996  -959  -926  -894  -832  -733  -642  -600  -599  -607  -604  -594  -593  -601  -596  -576  -561  -557  -537  -467  -360  -263  -203  -167  -140  -113  -87  -81  -102  -127  -133  -115  -72  26  221  469  652  714  707  714  793  942  1105  1226  1298  1362  1458  1583  1714  1822  1869  1840  1755  1659  1599  1570  1481  1235  873  552  368  265  126  -109  -392  -611  -712  -733  -718  -684  -669  -762  -1008  -1251  -1215  -860  -456  -253  -268  -387  -501  -553  -556  -568  -611  -651  -655  -621  -573  -542  -536  -536  -519  -487  -478  -523  -600  -668  -712  -730  -693  -569  -379  -197  -78  -28  -17  -6  16  10  -69  -197  -297  -340  -344  -321  -265  -167  -58  8  -1  -86  -202  -285  -304  -277  -232  -183  -113  -2  119  194  214  208  200  195  192  199  221  254  282  286  229  80  -122  -285  -359  -361  -302  -174  -13  101  141  128  81  1  -111  -242  -354  -414  -431  -421  -365  -232  -42  136  275  380  435  416  342  255  193  190  286  522  850  1119  1240  1246  1187  1069  882  655  444  262  97  -44  -161  -276  -388  -465  -491  -487  -483  -480  -466  -432  -395  -379  -389  -407  -438  -528  -709  -949  -1173  -1369  -1544  -1528  -1037  34  1575  3408  5228  6503  6798  6057  4484  2455  536  -761  -1296  -1273  -1012  -830  -836  -858  -761  -614  -522  -516  -557  -582  -556  -511  -505  -547  -578  -555  -517  -524  -540  -460  -285  -131  -68  -73  -124  -228  -351  -406  -337  -188  -59  -3  0  -12  -21  -10  63  246  489  668  718  673  590  531  590  864  1315  1733  1958  2035  2101  2218  2347  2444  2506  2525  2485  2403  2319  2260  2234  2225  2198  2090  1825  1369  788  255  -64  -159  -133  -94  -87  -97  -122  -188  -299  -446  -606  -730  -794  -810  -792  -749  -682  -604  -545  -516  -498  -478  -484  -575  -739  -873  -915  -896  -870  -859  -859  -865  -876  -891  -908  -931  -960  -978  -959  -896  -815  -754  -732  -752  -816  -909  -988  -1025  -1023  -999  -963  -932  -918  -933  -980  -1048  -1110  -1142  -1143  -1120  -1077  -1020  -968  -948  -961  -972  -956  -932  -930  -947  -962  -982  -1047  -1142  -1186  -1139  -1038  -943  -891  -880  -878  -858  -819  -781  -758  -750  -742  -707  -626  -510  -402  -331  -283  -227  -145  -27  94  150  102  -5  -108  -188  -262  -345  -454  -590  -723  -816  -855  -866  -917  -1062  -1275  -1463  -1557  -1540  -1409  -1188  -971  -850  -840  -906  -1005  -1098  -1173  -1283  -1522  -1837  -1986  -1780  -1144  -17  1586  3442  5094  5998  5806  4514  2491  369  -1270  -2162  -2333  -2015  -1624  -1472  -1476  -1428  -1305  -1182  -1078  -953  -792  -641  -545  -493  -460  -438  -428  -424  -424  -427  -437  -454  -476  -501  -526  -540  -526  -479  -427  -396  -382  -357  -294  -167  23  219  343  389  416  473  564  659  727  783  922  1234  1649  1992  2184  2303  2451  2642  2808  2899  2941  2984  3045  3108  3157  3182  3169  3098  2968  2788  2549  2266  1997  1775  1547  1224  815  444  199  46  -64  -132  -154  -149  -141  -155  -208  -287  -360  -411  -452  -492  -530  -545  -521  -469  -423  -400  -400  -405  -400  -370  -299  -204  -129  -100  -105  -126  -162  -229  -316  -385  -418  -420  -404  -371  -315  -221  -88  49  143  163  114  29  -52  -121  -177  -205  -204  -190  -176  -161  -148  -136  -121  -115  -154  -275  -452  -600  -656  -613  -503  -379  -296  -270  -274  -291  -328  -391  -457  -496  -504  -503  -513  -539  -572  -579  -501  -289  -3  225  338  364  330  237  106  0  -43  -39  -19  -3  -11  -85  -259  -499  -712  -835  -870  -855  -822  -799  -804  -847  -944  -1103  -1274  -1385  -1420  -1410  -1376  -1331  -1305  -1337  -1398  -1357  -1131  -754  -199  656  1837  3218  4504  5248  5093  3982  2246  461  -893  -1577  -1615  -1333  -1054  -851  -785  -931  -1150  -1232  -1145  -994  -877  -812  -761  -707  -671  -660  -648  -620  -593  -583  -582  -575  -558  -550  -573  -610  -613  -570  -509  -456  -422  -389  -310  -173  -21  99  187  253  297  348  459  633  818  974  1100  1217  1359  1533  1705  1849  2004  2228  2489  2681  2751  2728  2647  2517  2352  2191  2069  1971  1845  1656  1424  1207  1043  923  827  725  580  368  97  -167  -346  -447  -549  -673  -764  -795  -792  -787  -792  -804  -814  -826  -845  -874  -895  -879  -811  -714  -628  -577  -556  -546  -532  -496  -431  -359  -312  -300  -306  -312  -313  -314  -320  -331  -350  -375  -393  -382  -325  -236  -158  -119  -109  -111  -132  -187  -277  -406  -581  -766  -894  -944  -936  -850  -645  -378  -183  -116  -123  -142  -154  -165  -183  -217  -275  -356  -447  -518  -551  -550  -522  -475  -420  -361  -284  -196  -132  -104  -85  -47  8  62  102  129  150  177  207  238  300  436  619  758  813  818  816  818  799  719  582  442  357  334  345  365  368  305  136  -90  -266  -354  -404  -450  -497  -538  -567  -577  -560  -501  -419  -379  -465  -682  -864  -764  -249  632  1740  2994  4351  5584  6282  6125  5024  3207  1232  -330  -1181  -1337  -1057  -670  -407  -290  -207  -127  -100  -133  -198  -273  -337  -368  -368  -363  -388  -449  -502  -497  -441  -378  -317  -236  -147  -88  -73  -83  -103  -130  -162  -182  -171  -136  -93  -50  0  72  163  251  332  409  476  552  678  867  1078  1257  1413  1586  1770  1937  2080  2202  2308  2411  2512  2576  2562  2475  2370  2295  2220  2074  1835  1523  1152  750  381  90  -144  -358  -546  -680  -762  -822  -892  -970  -1027  -1059  -1100  -1179  -1296  -1416  -1494  -1521  -1520  -1502  -1454  -1371  -1285  -1232  -1214  -1211  -1219  -1236  -1253  -1264  -1276  -1300  -1340  -1395  -1463  -1525  -1553  -1546  -1515  -1466  -1414  -1382  -1375  -1380  -1386  -1386  -1369  -1335  -1305  -1299  -1317  -1339  -1341  -1342  -1374  -1418  -1410  -1317  -1173  -1058  -1006  -999  -1021  -1063  -1098  -1105  -1083  -1048  -1008  -955  -893  -850  -840  -842  -842  -843  -848  -865  -901  -940  -969  -994  -1017  -1032  -1040  -1041  -1031  -995  -937  -878  -823  -745  -640  -549  -511  -512  -508  -485  -463  -452  -416  -308  -149  -22  33  58  89  128  166  202  234  255  260  251  214  121  -18  -155  -257  -330  -402  -484  -562  -621  -651  -645  -615  -598  -610  -640  -664  -669  -661  -660  -674  -703  -746  -864  -1152  -1512  -1579  -1104  -236  794  2019  3489  5005  6224  6769  6316  4820  2703  691  -642  -1136  -984  -581  -292  -254  -391  -539  -573  -462  -280  -137  -81  -79  -82  -70  -51  -36  -25  -5  25  66  120  193  274  343  393  428  456  496  560  631  690  730  752  730  623  453  317  275  323  443  603  782  1001  1246  1434  1537  1631  1817  2110  2397  2560  2593  2569  2543  2531  2530  2534  2528  2496  2431  2307  2089  1811  1573  1412  1294  1163  981  770  582  401  176  -89  -345  -547  -683  -774  -837  -874  -893  -903  -915  -925  -902  -831  -757  -716  -702  -699  -709  -738  -782  -823  -857  -885  -907  -912  -888  -829  -763  -731  -738  -751  -733  -663  -565  -489  -458  -457  -471  -502  -555  -629  -709  -755  -740  -679  -608  -558  -539  -530  -534  -568  -611  -619  -586  -522  -439  -361  -316  -301  -300  -311  -341  -393  -461  -522  -554  -553  -521  -465  -410  -381  -377  -372  -338  -266  -172  -82  -30  -38  -107  -204  -285  -339  -372  -385  -388  -401  -429  -449  -426  -355  -270  -203  -137  -31  118  263  366  419  418  345  194  20  -107  -181  -246  -347  -506  -715  -911  -1028  -1062  -1059  -1048  -1030  -1004  -986  -982  -975  -927  -814  -682  -621  -646  -701  -757  -821  -886  -952  -1045  -1157  -1166  -813  144  1727  3633  5312  6158  5823  4448  2510  573  -876  -1626  -1788  -1587  -1227  -869  -610  -462  -401  -402  -445  -505  -540  -529  -497  -478  -475  -477  -481  -490  -497  -479  -407  -296  -210  -183  -182  -146  -43  95  199  234  209  145  70  18  9  41  111  217  356  514  666  787  892  1039  1251  1491  1728  1926  2039  2067  2058  2056  2102  2241  2478  2725  2859  2847  2752  2643  2546  2455  2368  2263  2083  1789  1399  969  583  278  39  -142  -260  -331  -375  -393  -371  -304  -246  -292  -479  -722  -893  -951  -935  -874  -769  -649  -564  -535  -542  -575  -642  -740  -826  -842  -791  -734  -711  -714  -723  -721  -692  -636  -577  -542  -534  -536  -534  -523  -516  -518  -521  -524  -550  -625  -730  -806  -827  -810  -784  -766  -761  -765  -779  -801  -820  -814  -764  -704  -710  -807  -946  -1069  -1139  -1150  -1102  -1003  -890  -819  -811  -848  -894  -917  -913  -893  -864  -836  -818  -804  -792  -792  -809  -828  -814  -758  -700  -679  -684  -665  -584  -455  -332  -248  -203  -185  -154  -76  6  24  -10  -33  -24  -25  -109  -318  -587  -801  -918  -974  -1001  -990  -924  -827  -752  -726  -746  -802  -878  -947  -1004  -1045  -1060  -1065  -1134  -1327  -1564  -1647  -1480  -1074  -388  669  2140  3871  5390  6130  5816  4501  2552  615  -781  -1478  -1558  -1269  -976  -892  -947  -968  -868  -690  -520  -422  -400  -421  -453  -482  -501  -501  -475  -424  -364  -324  -315  -326  -341  -352  -362  -373  -369  -308  -165  6  118  141  128  160  284  459  586  628  633  652  690  733  801  947  1188  1448  1607  1658  1737  1973  2315  2586  2699  2733  2794  2906  3029  3132  3204  3234  3181  2980  2653  2345  2159  2031  1814  1419  907  460  198  86  58  70  83  82  77  76  77  64  -19  -221  -478  -636  -617  -481  -345  -284  -292  -323  -350  -384  -443  -517  -571  -589  -592  -605  -619  -619  -611  -585  -511  -389  -252  -156  -146  -199  -259  -310  -361  -406  -441  -464  -472  -473  -469  -452  -416  -373  -328  -276  -227  -193  -168  -156  -199  -330  -471  -483  -357  -212  -120  -75  -72  -109  -167  -210  -221  -202  -158  -99  -47  -19  -14  -16  -21  -36  -62  -88  -99  -94  -84  -77  -76  -81  -88  -86  -69  -69  -101  -101  -26  81  156  168  134  90  50  11  -19  -30  -2  88  245  434  606  721  783  828  877  923  942  922  873  819  778  747  686  554  369  204  91  7  -60  -113  -166  -229  -300  -399  -553  -724  -822  -825  -792  -771  -765  -763  -765  -786  -848  -949  -1044  -1099  -1092  -946  -548  201  1425  3129  4999  6436  6849  6015  4165  1845  -234  -1496  -1768  -1326  -687  -281  -270  -531  -786  -873  -826  -734  -657  -609  -579  -560  -555  -568  -599  -638  -682  -736  -787  -822  -836  -812  -741  -651  -576  -521  -482  -448  -409  -369  -350  -360  -377  -364  -309  -217  -93  30  105  136  203  376  634  905  1152  1376  1588  1780  1917  1976  1978  1964  1962  1991  2045  2112  2199  2293  2348  2304  2124  1821  1468  1157  918  748  636  509  258  -105  -435  -632  -737  -822  -926  -1076  -1248  -1372  -1414  -1382  -1295  -1185  -1102  -1063  -1048  -1054  -1114  -1249  -1418  -1541  -1577  -1554  -1511  -1471  -1453  -1458  -1463  -1425  -1314  -1172  -1078  -1053  -1062  -1092  -1156  -1241  -1301  -1302  -1246  -1166  -1110  -1092  -1093  -1096  -1101  -1119  -1158  -1215  -1275  -1320  -1343  -1354  -1358  -1342  -1280  -1177  -1072  -996  -953  -935  -937  -953  -972  -988  -1006  -1036  -1070  -1113  -1179  -1251  -1299  -1322  -1332  -1307  -1193  -974  -735  -587  -548  -563  -590  -620  -653  -688  -736  -809  -898  -985  -1056  -1105  -1133  -1129  -1083  -994  -889  -815  -793  -791  -777  -751  -731  -728  -741  -745  -721  -682  -659  -653  -627  -541  -402  -263  -181  -173  -184  -145  -39  109  288  498  714  876  938  906  811  664  458  230  67  9  1  -56  -213  -413  -549  -590  -581  -567  -568  -585  -618  -656  -685  -697  -693  -679  -666  -686  -792  -1001  -1247  -1418  -1383  -1012  -216  1015  2577  4272  5819  6789  6759  5587  3544  1232  -662  -1661  -1728  -1239  -692  -413  -423  -522  -561  -553  -556  -590  -633  -665  -691  -696  -666  -613  -555  -486  -404  -331  -284  -266  -270  -280  -267  -202  -84  46  153  221  256  271  276  285  328  434  573  671  704  702  693  685  700  791  998  1257  1465  1631  1857  2166  2490  2753  2914  2986  3015  3026  3001  2913  2776  2642  2553  2502  2413  2188  1834  1491  1266  1132  1029  941  824  579  184  -232  -525  -646  -631  -530  -402  -319  -335  -460  -632  -756  -799  -802  -800  -780  -710  -604  -517  -484  -497  -494  -420  -313  -255  -275  -344  -395  -382  -338  -308  -298  -299  -312  -343  -388  -427  -440  -408  -311  -173  -61  -12  -14  -47  -108  -192  -270  -290  -223  -108  -18  21  28  5  -71  -192  -298  -340  -333  -321  -324  -335  -329  -292  -237  -198  -195  -209  -204  -183  -164  -146  -124  -94  -69  -75  -128  -214  -294  -336  -345  -353  -382  -422  -430  -367  -239  -109  -29  26  107  213  322  423  503  547  565  593  648  697  694  616  442  173  -118  -330  -436  -477  -492  -493  -488  -481  -478  -498  -557  -637  -697  -718  -709  -680  -643  -609  -589  -597  -674  -885  -1229  -1527  -1498  -1007  -212  653  1620  2828  4171  5265  5619  4881  3140  993  -833  -1895  -2116  -1775  -1333  -1055  -891  -732  -584  -512  -535  -595  -655  -725  -806  -868  -879  -821  -724  -664  -678  -730  -765  -771  -764  -759  -759  -762  -771  -781  -769  -683  -489  -245  -66  8  45  97  153  209  291  384  440  446  439  494  671  946  1211  1394  1526  1689  1916  2153  2335  2472  2594  2687  2733  2746  2754  2775  2807  2811  2713  2454  2052  1616  1233  896  605  423  367  347  242  1  -302  -551  -698  -755  -753  -717  -676  -661  -688  -769  -905  -1045  -1099  -1034  -912  -822  -792  -788  -774  -747  -730  -739  -762  -762  -714  -668  -712  -857  -1029  -1129  -1091  -949  -824  -776  -779  -791  -798  -801  -799  -781  -733  -672  -642  -677  -759  -840  -880  -856  -764  -641  -553  -538  -583  -656  -723  -766  -785  -784  -760  -724  -712  -755  -831  -897  -921  -895  -837  -785  -750  -724  -703  -693  -693  -702  -710  -693  -623  -496  -347  -234  -198  -228  -271  -297  -303  -282  -210  -94  15  61  -19  -259  -581  -810  -811  -543  -84  382  694  814  810  755  671  563  452  355  287  233  119  -116  -428  -686  -810  -828  -799  -751  -688  -624  -575  -549  -559  -632  -787  -973  -1102  -1132  -1087  -1009  -954  -1011  -1221  -1437  -1354  -765  307  1735  3409  5087  6248  6425  5562  3901  1844  -6  -1149  -1564  -1524  -1261  -940  -673  -506  -429  -397  -371  -335  -280  -256  -343  -519  -694  -842  -964  -1032  -1014  -908  -762  -651  -600  -583  -581  -588  -597  -601  -591  -545  -436  -262  -70  70  130  142  150  156  130  53  -25  -16  117  321  523  714  922  1149  1379  1634  1918  2201  2480  2739  2901  2933  2874  2786  2710  2635  2521  2383  2273  2157  1921  1536  1133  869  729  578  358  136  -8  -88  -161  -249  -323  -351  -335  -312  -328  -411  -533  -642  -728  -802  -852  -868  -857  -828  -797  -789  -822  -879  -922  -931  -898  -821  -713  -604  -522  -480  -463  -447  -422  -397  -385  -385  -368  -305  -211  -133  -91  -73  -65  -61  -68  -106  -188  -286  -329  -281  -180  -100  -78  -103  -146  -181  -196  -215  -283  -435  -629  -772  -826  -819  -785  -726  -627  -507  -426  -411  -434  -458  -467  -459  -436  -406  -385  -381  -390  -401  -414  -431  -448  -459  -468  -474  -444  -346  -219  -152  -176  -222  -234  -227  -228  -235  -241  -243  -231  -196  -150  -117  -107  -105  -95  -79  -78  -93  -72  43  221  369  434  444  438  417  359  255  129  3  -111  -209  -283  -341  -391  -430  -447  -442  -427  -428  -466  -537  -618  -685  -723  -729  -718  -714  -751  -853  -1010  -1200  -1406  -1572  -1555  -1182  -427  598  1900  3533  5274  6591  6945  6106  4251  1963  46  -991  -1232  -1072  -865  -780  -801  -840  -835  -763  -642  -530  -485  -510  -558  -579  -561  -524  -489  -456  -414  -363  -318  -300  -318  -362  -397  -367  -248  -104  3  73  98  79  62  93  186  333  493  623  701  730  718  681  671  765  1018  1392  1763  2047  2244  2388  2513  2636  2763  2885  2976  3022  3034  3036  3038  3036  3015  2961  2875  2776  2682  2585  2450  2223  1839  1311  802  484  363  335  330  330  330  324  292  217  115  36  4  3  17  36  53  63  66  68  68  60  36  1  -28  -37  -14  48  125  174  185  180  171  165  165  171  179  190  221  296  398  470  468  398  313  264  257  260  261  265  281  307  331  336  334  340  352  361  379  420  461  466  440  425  434  450  456  454  456  470  496  525  541  537  529  532  514  441  355  320  339  378  404  401  376  345  313  273  243  277  404  570  672  678  647  633  650  715  853  1027  1146  1173  1157  1150  1164  1194  1236  1280  1301  1262  1136  964  835  790  802  832  846  780  581  313  122  63  57  14  -82  -185  -256  -315  -421  -620  -862  -1018  -1029  -954  -881  -857  -884  -920  -884  -789  -725  -621  -314  346  1592  3350  4960  5725  5362  3962  2001  147  -1209  -2028  -2332  -2215  -1936  -1733  -1633  -1573  -1532  -1521  -1560  -1655  -1770  -1853  -1895  -1933  -1995  -2079  -2164  -2234  -2278  -2292  -2303  -2349  -2427  -2508  -2573  -2607  -2613  -2606  -2605  -2623  -2671  -2757  -2901  -3087  -3248  -3330  -3358  -3391  -3444  -3489  -3503  -3481  -3424  -3327  -3205  -3092  -2999  -2885  -2705  -2428  -2023  -1508]
