reading_id,reading_time,wire_id,result_classification,heart_rate,heart_rate_alert,firmware_version,device_app_version,hardware_version,waveform_samples
951fd340-5caa-11ed-8080-808080808080,Sat Nov 05 01:38:43 UTC 2022,a101e3f91939,NSR,73,NONE,20001.171.50,2.10.0,Charge 5,[-139  -154  -142  -75  46  174  255  283  283  265  231  194  174  175  189  193  146  17  -152  -270  -285  -220  -133  -59  46  239  480  745  1007  1130  1127  1078  660  -441  -1580  -1546  62  2677  5376  7067  6968  5320  3095  1089  -266  -749  -539  -95  292  569  780  984  1180  1311  1358  1360  1355  1354  1352  1344  1334  1332  1343  1351  1325  1255  1173  1134  1148  1177  1200  1255  1359  1464  1519  1522  1510  1517  1539  1549  1547  1556  1584  1630  1687  1733  1755  1775  1874  2130  2482  2732  2727  2460  2086  1820  1736  1760  1804  1830  1815  1733  1576  1374  1194  1119  1181  1345  1513  1583  1541  1448  1323  1120  851  635  543  543  590  657  700  690  643  619  670  775  852  860  849  885  957  992  939  810  670  583  548  512  444  363  297  240  168  85  6  -56  -118  -239  -475  -795  -1098  -1293  -1360  -1344  -1305  -1311  -1455  -1763  -2090  -2229  -2157  -2037  -2016  -2129  -2323  -2515  -2650  -2709  -2668  -2517  -2315  -2168  -2118  -2126  -2156  -2199  -2242  -2268  -2275  -2276  -2289  -2308  -2315  -2304  -2266  -2175  -2027  -1833  -1637  -1515  -1483  -1492  -1514  -1535  -1523  -1448  -1328  -1224  -1188  -1254  -1455  -1758  -2033  -2162  -2081  -1777  -1370  -1058  -919  -899  -948  -1037  -1122  -1172  -1190  -1198  -1216  -1244  -1261  -1252  -1221  -1173  -1111  -1042  -969  -897  -845  -827  -852  -926  -1031  -1119  -1152  -1085  -883  -608  -405  -340  -355  -354  -272  -108  89  247  299  213  36  -136  -230  -198  6  372  703  627  -15  -723  -730  208  1815  3708  5422  6398  6289  5173  3456  1587  -154  -1480  -2123  -2155  -1782  -1165  -603  -339  -274  -177  29  265  412  445  444  501  637  805  928  970  924  785  592  435  370  409  555  766  948  1041  1059  1048  1033  1028  1050  1112  1201  1304  1462  1718  2054  2382  2591  2630  2549  2446  2370  2298  2231  2202  2205  2219  2223  2192  2107  1988  1883  1798  1704  1599  1497  1379  1231  1096  1029  1020  1015  968  870  746  616  482  312  92  -127  -276  -335  -338  -341  -377  -435  -480  -495  -489  -473  -458  -447  -430  -392  -340  -302  -290  -292  -291  -281  -274  -303  -398  -529  -602  -559  -453  -388  -410  -495  -616  -786  -1001  -1199  -1316  -1347  -1295  -1153  -963  -817  -761  -759  -763  -759  -765  -810  -926  -1165  -1560  -1999  -2296  -2392  -2331  -2134  -1822  -1470  -1151  -898  -721  -639  -693  -905  -1191  -1397  -1450  -1393  -1300  -1210  -1118  -1007  -894  -807  -739  -676  -641  -660  -717  -772  -799  -798  -801  -870  -1042  -1242  -1330  -1285  -1220  -1210  -1217  -1195  -1170  -1212  -1364  -1584  -1754  -1874  -2080  -2309  -2194  -1442  24  2078  4130  5322  5152  3694  1478  -737  -2338  -3131  -3263  -3054  -2858  -2704  -2397  -2015  -1783  -1704  -1611  -1385  -1078  -836  -685  -517  -284  -72  24  1  -60  -23  215  577  894  1067  1084  1015  953  920  904  949  1155  1533  1890  1986  1831  1647  1617  1772  2036  2291  2464  2553  2590  2604  2604  2602  2616  2642  2651  2608  2486  2312  2151  2026  1884  1692  1495  1352  1275  1249  1255  1264  1227  1109  945  813  734  668  597  496  305  -8  -401  -751  -935  -941  -873  -813  -736  -578  -330  -52  175  284  249  108  -72  -236  -350  -408  -442  -488  -542  -570  -558  -519  -464  -393  -319  -289  -338  -444  -544  -602  -640  -681  -698  -666  -638  -675  -759  -824  -840  -829  -817  -806  -790  -763  -728  -691  -651  -606  -568  -545  -542  -556  -571  -563  -516  -433  -330  -256  -322  -605  -990  -1211  -1134  -892  -694  -603  -555  -505  -457  -430  -456  -524  -574  -587  -632  -793  -1035  -1230  -1321  -1344  -1345  -1343  -1341  -1334  -1324  -1329  -1360  -1411  -1443  -1411  -1351  -1408  -1617  -1685  -1228  -79  1729  3838  5463  5937  5163  3485  1402  -527  -1786  -2255  -2245  -2018  -1696  -1427  -1265  -1146  -990  -755  -464  -179  70  265  381  431  448  464  487  501  495  490  506  543  589  619  642  704  794  851  854  825  802  810  848  906  979  1083  1240  1444  1641  1776  1834  1836  1829  1876  2044  2353  2689  2815  2590  2131  1692  1416  1285  1215  1145  1061  961  851  750  657  569  506  485  488  437  265  32  -129  -180  -173  -157  -126  -31  142  325  418  384  270  150  66  18  -7  -16  -4  50  158  285  392  487  602  693  658  478  277  201  280  417  510  552  568  548  486  414  373  367  380  389  361  266  121  -24  -148  -246  -305  -325  -325  -310  -265  -187  -98  -27  21  61  102  135  130  43  -106  -236  -301  -323  -326  -304  -237  -137  -44  16  50  76  111  154  188  187  155  125  113  109  103  94  93  105  112  73  -33  -156  -180  -64  76  97  -13  -166  -293  -387  -470  -525  -437  -179  -63  -404  -984  -1249  -765  571  2500  4484  5883  6204  5343  3617  1537  -443  -1933  -2644  -2595  -2146  -1715  -1493  -1445  -1488  -1579  -1676  -1720  -1672  -1551  -1416  -1310  -1249  -1239  -1266  -1275  -1211  -1085  -958  -874  -833  -820  -815  -802  -783  -766  -752  -733  -684  -593  -491  -391  -280  -184  -125  -56  78  283  509  691  784  770  656  479  306  202  201  286  411  547  670  748  728  541  178  -246  -587  -783  -855  -865  -883  -945  -1021  -1039  -961  -811  -701  -800  -1117  -1450  -1631  -1680  -1689  -1696  -1674  -1575  -1394  -1190  -1033  -949  -924  -928  -937  -941  -938  -921  -894  -877  -915  -1044  -1228  -1366  -1377  -1246  -1035  -838  -694  -588  -508  -462  -469  -532  -600  -628  -618  -589  -557  -537  -525  -508  -482  -467  -494  -577  -667  -685  -626  -563  -546  -562  -562  -508  -413  -342  -360  -475  -629  -772  -890  -976  -1025  -1036  -980  -827  -624  -480  -440  -457  -483  -502  -508  -482  -429  -401  -438  -473  -425  -326  -248  -205  -187  -187  -196  -202  -185  -119  -18  49  -11  -259  -605  -855  -895  -759  -557  -408  -354  -355  -364  -367  -384  -432  -484  -480  -467  -597  -867  -1004  -667  384  2192  4403  6300  7157  6621  4857  2455  209  -1229  -1729  -1649  -1447  -1322  -1241  -1161  -1065  -914  -679  -375  -79  105  157  137  102  87  142  316  574  810  958  1023  1041  1033  979  843  639  448  338  311  350  504  830  1246  1579  1752  1812  1831  1842  1841  1825  1796  1749  1689  1623  1571  1592  1712  1866  1991  2079  2139  2166  2121  1963  1713  1458  1246  1067  924  812  700  546  346  161  57  26  0  -88  -240  -398  -496  -500  -435  -358  -304  -277  -253  -188  -64  71  135  79  -65  -233  -367  -441  -466  -466  -439  -354  -210  -44  111  210  181  19  -184  -339  -425  -459  -465  -470  -492  -527  -567  -630  -728  -821  -853  -821  -767  -730  -713  -685  -634  -576  -538  -531  -549  -561  -536  -482  -445  -472  -574  -713  -833  -920  -988  -1010  -942  -818  -727  -707  -733  -777  -830  -872  -864  -802  -728  -680  -660  -650  -643  -642  -644  -634  -610  -584  -576  -597  -637  -674  -689  -654  -548  -399  -282  -240  -287  -429  -623  -763  -759  -596  -422  -495  -863  -1245  -1256  -563  977  3139  5331  6703  6539  4930  2716  686  -758  -1492  -1716  -1825  -1928  -1828  -1504  -1146  -854  -641  -509  -428  -354  -276  -200  -119  -33  25  27  -29  -112  -177  -191  -134  15  254  516  699  766  767  762  767  775  783  801  832  864  878  870  862  902  1033  1219  1357  1399  1392  1430  1565  1741  1826  1750  1533  1246  998  873  840  792  660  456  226  10  -156  -258  -308  -309  -264  -207  -195  -291  -535  -860  -1107  -1179  -1102  -973  -877  -845  -880  -991  -1149  -1255  -1161  -786  -266  117  223  111  -116  -376  -572  -622  -535  -408  -327  -312  -340  -420  -589  -816  -980  -989  -829  -580  -369  -268  -249  -260  -299  -387  -505  -587  -602  -585  -575  -573  -571  -570  -588  -646  -727  -780  -769  -700  -640  -667  -765  -828  -785  -674  -561  -463  -371  -297  -256  -257  -310  -392  -451  -422  -267  -43  141  233  258  257  253  238  193  122  58  32  47  73  85  80  68  56  47  42  37  10  -68  -182  -275  -316  -321  -329  -363  -409  -439  -458  -519  -680  -934  -1114  -912  -90  1355  3196  5004  6179  6144  4720  2342  -165  -2022  -2792  -2579  -1900  -1273  -985  -1023  -1154  -1205  -1177  -1108  -961  -689  -359  -119  -22  -12  -42  -112  -210  -265  -228  -159  -146  -215  -328  -415  -440  -422  -359  -236  -86  57  205  346  435  456  439  422  450  560  736  916  1053  1140  1186  1201  1197  1188  1189  1199  1214  1215  1178  1085  947  793  645  510  387  258  83  -133  -336  -477  -544  -535  -462  -369  -301  -271  -270  -318  -442  -634  -838  -1001  -1087  -1067  -929  -706  -467  -276  -165  -127  -125  -137  -149  -141  -103  -32  47  98  115  113  102  96  102  115  130  140  143  143  138  129  127  140  162  180  176  127  20  -107  -176  -147  -65  1  33  53  76  70  -25  -197  -329  -346  -284  -202  -124  -41  46  124  192  253  273  196  16  -178  -263  -202  -86  -20  -20  -45  -62  -73  -96  -128  -154  -166  -169  -166  -160  -165  -204  -283  -367  -393  -328  -204  -94  -46  -85  -216  -394  -526  -562  -506  -364  -144  83  194  116  -104  -358  -556  -658  -677  -662  -651  -653  -658  -631  -541  -411  -310  -269  -256  -232  -217  -318  -647  -1132  -1511  -1549  -1203  -672  -259  -57  178  826  2074  3745  5326  6111  5600  3921  1730  -267  -1591  -2052  -1883  -1530  -1213  -944  -710  -458  -192  -25  -73  -359  -759  -1051  -1113  -957  -651  -289  19  191  221  159  68  36  107  222  319  399  514  674  814  886  916  943  982  1045  1133  1218  1270  1286  1286  1280  1256  1198  1120  1059  1045  1092  1185  1257  1251  1198  1154  1124  1093  1052  972  817  623  480  422  392  323  175  -49  -286  -463  -563  -605  -616  -613  -617  -652  -718  -767  -754  -704  -672  -687  -755  -849  -917  -924  -871  -779  -682  -606  -567  -561  -572  -578  -553  -457  -269  -44  120  179  137  -5  -219  -408  -502  -516  -503  -491  -482  -471  -448  -398  -326  -261  -230  -225  -230  -238  -248  -259  -264  -242  -168  -62  13  -3  -138  -333  -467  -466  -357  -223  -133  -98  -95  -121  -194  -295  -370  -397  -396  -392  -390  -388  -385  -386  -405  -454  -533  -610  -631  -594  -567  -573  -538  -420  -293  -239  -277  -368  -471  -601  -773  -933  -998  -934  -777  -617  -525  -504  -522  -555  -588  -599  -576  -534  -511  -546  -643  -761  -835  -823  -715  -548  -380  -236  -146  -188  -387  -661  -891  -990  -960  -877  -814  -768  -693  -566  -409  -255  -109  4  32  -61  -248  -419  -464  -404  -336  -314  -345  -401  -451  -487  -506  -528  -597  -676  -654  -530  -421  -387  -388  -367  -315  -305  -405  -586  -822  -1095  -1168  -621  847  3132  5614  7406  7709  6231  3623  1020  -937  -2053  -2298  -2069  -1831  -1624  -1344  -1031  -766  -594  -507  -453  -398  -349  -300  -208  -35  195  371  347  112  -183  -389  -467  -439  -328  -168  -3  152  318  487  616  676  691  735  870  1067  1193  1186  1143  1158  1211  1252  1283  1344  1459  1613  1763  1879  1967  2045  2109  2133  2090  1980  1842  1733  1667  1587  1393  1061  698  420  253  178  170  184  152  19  -191  -385  -497  -538  -552  -572  -581  -539  -439  -342  -326  -364  -339  -216  -68  68  216  358  437  395  210  -39  -221  -282  -269  -231  -183  -143  -135  -151  -161  -154  -144  -132  -105  -63  -27  -14  -24  -45  -70  -115  -212  -345  -452  -478  -425  -344  -292  -279  -284  -292  -307  -337  -373  -384  -354  -303  -270  -268  -284  -344  -502  -717  -850  -827  -728  -686  -748  -851  -913  -912  -895  -887  -856  -788  -726  -706  -723  -752  -772  -764  -720  -654  -596  -575  -627  -776  -968  -1067  -1005  -855  -739  -703  -702  -678  -617  -558  -537  -546  -548  -524  -492  -485  -519  -568  -585  -572  -608  -720  -823  -826  -716  -543  -370  -235  -156  -143  -192  -306  -465  -609  -692  -717  -715  -711  -723  -759  -796  -798  -761  -695  -575  -420  -358  -464  -613  -628  -367  370  1745  3549  5206  6191  6188  5067  3115  951  -878  -2055  -2449  -2116  -1362  -735  -601  -805  -1003  -1062  -1010  -863  -602  -231  148  373  385  272  120  -33  -147  -192  -170  -93  42  245  471  611  616  555  511  510  549  629  746  896  1060  1203  1288  1312  1305  1294  1290  1301  1331  1378  1434  1492  1544  1602  1695  1813  1892  1869  1730  1541  1414  1383  1383  1306  1077  742  460  332  319  333  308  156  -211  -701  -1051  -1083  -822  -448  -171  -67  -78  -164  -321  -508  -652  -735  -784  -808  -797  -768  -757  -766  -721  -569  -362  -203  -136  -130  -135  -121  -98  -130  -291  -540  -736  -827  -896  -1007  -1134  -1203  -1169  -1033  -817  -588  -435  -383  -377  -353  -297  -251  -273  -393  -611  -842  -946  -901  -822  -809  -858  -896  -865  -778  -679  -586  -503  -450  -456  -511  -569  -597  -601  -601  -603  -592  -546  -465  -386  -350  -364  -397  -414  -408  -400  -412  -431  -426  -368  -268  -198  -210  -271  -321  -336  -336  -376  -472  -589  -707  -818  -887  -888  -820  -691  -546  -463  -482  -606  -787  -776  -188  1169  3149  5245  6661  6628  5014  2535  95  -1732  -2620  -2617  -2159  -1618  -1178  -947  -906  -940  -972  -969  -889  -711  -466  -221  -40  42  35  -39  -167  -321  -423  -401  -239  -14  151  210  208  191  179  191  265  428  651  860  960  900  774  760  881  1001  1053  1139  1384  1750  2055  2167  2062  1779  1443  1218  1145  1148  1175  1232  1324  1412  1447  1388  1198  873  457  48  -245  -382  -413  -406  -387  -368  -371  -441  -587  -749  -850  -879  -882  -878  -833  -718  -567  -465  -445  -467  -491  -522  -569  -612  -607  -527  -407  -314  -266  -240  -221  -217  -229  -250  -265  -263  -233  -165  -76  -5  20  -12  -118  -268  -399  -471  -487  -470  -446  -434  -434  -433  -421  -394  -346  -287  -241  -219  -213  -212  -212  -214  -217  -222  -227  -225  -211  -186  -146  -88  -16  57  118  164  195  208  179  85  -45  -147  -189  -198  -211  -249  -304  -352  -385  -407  -423  -436  -427  -359  -247  -154  -102  -63  -29  -61  -265  -681  -1169  -1516  -1664  -1617  -1313  -670  429  2029  3948  5753  6682  6061  4048  1536  -581  -1844  -2312  -2313  -2112  -1896  -1747  -1627  -1486  -1284  -1053  -879  -779  -700  -620  -562  -572  -677  -827  -910  -862  -723  -575  -472  -415  -367  -281  -147  1  121  200  252  282  284  272  288  374  539  734  883  962  1012  1071  1143  1200  1219  1214  1211  1222  1263  1341  1435  1501  1506  1429  1253  1018  810  671  569  435  207  -82  -304  -393  -414  -468  -593  -735  -790  -729  -616  -525  -487  -510  -615  -805  -1012  -1143  -1180  -1172  -1159  -1145  -1119  -1091  -1081  -1086  -1049  -903  -654  -412  -311  -380  -511  -591  -613  -626  -660  -720  -795  -860  -902  -921  -917  -922  -980  -1057  -1072  -1003  -919  -891  -885  -827  -735  -673  -650  -640  -639  -677  -788  -938  -1053  -1092  -1062  -969  -830  -703  -657  -699  -737  -685  -564  -461  -410  -401  -444  -577  -798  -1040  -1230  -1318  -1303  -1223  -1117  -973  -746  -472  -272  -198  -183  -158  -110  -61  -30  -28  -100  -285  -535  -725  -794  -775  -715  -634  -550  -492  -476  -483  -493  -503  -521  -544  -559  -560  -554  -570  -637  -750  -861  -915  -887  -801  -669  -321  505  1819  3417  5029  6163  6271  5157  3134  896  -867  -1787  -1907  -1627  -1333  -1136  -987  -836  -711  -647  -607  -557  -526  -514  -454  -278  -34  157  260  327  386  424  437  438  436  437  437  430  407  372  348  366  456  638  904  1179  1360  1436  1487  1556  1611  1627  1614  1612  1673  1825  1976  1994  1888  1775  1690  1592  1496  1461  1495  1530  1513  1466  1424  1373  1294  1183  1047  902  730  462  101  -215  -371  -394  -386  -420  -501  -595  -664  -690  -671  -635  -602  -548  -446  -332  -264  -227  -167  -73  33  130  207  231  126  -160  -531  -795  -875  -825  -700  -497  -235  6  155  222  227  143  -37  -229  -310  -267  -195  -155  -126  -75  -5  31  -21  -140  -240  -273  -262  -241  -232  -244  -267  -271  -231  -163  -100  -54  -34  -69  -186  -352  -471  -454  -275  -9  210  308  252  -10  -457  -905  -1149  -1087  -732  -253  98  214  140  -65  -318  -498  -548  -495  -369  -176  89  378  590  660  551  234  -189  -509  -638  -644  -603  -536  -455  -390  -358  -372  -447  -568  -678  -705  -628  -508  -426  -397  -384  -346  -277  -239  -291  -396  -481  -518  -524  -522  -518  -512  -504  -500  -508  -539  -612  -734  -867  -927  -841  -621  -373  -205  -144  -143  -155  -169  -200  -258  -337  -420  -479  -505  -510  -493  -443  -365  -299  -302  -384  -522  -711  -913  -1047  -1057  -938  -725  -470  -235  -85  -42  -67  -115  -157  -207  -321  -494  -560  -427  -357  -610  -1051  -1408  -1506  -1150  -114  1626  3758  5708  6785  6482  4776  2223  -218  -1803  -2402  -2285  -1845  -1423  -1137  -942  -798  -713  -686  -698  -719  -735  -759  -798  -841  -843  -723  -421  4  399  625  633  494  326  193  95  23  -21  -44  -48  -5  122  306  464  549  586  627  717  850  978  1074  1172  1339  1558  1735  1827  1885  1927  1909  1792  1604  1392  1150  876  651  545  550  628  739  837  877  798  551  216  -42  -158  -189  -208  -298  -540  -883  -1164  -1295  -1329  -1335  -1325  -1285  -1216  -1146  -1093  -1039  -983  -926  -821  -612  -352  -179  -173  -287  -376  -343  -218  -54  106  190  156  21  -167  -358  -498  -566  -567  -528  -476  -394  -243  -28  204  406  525  532  435  273  116  18  -8  12  49  67  30  -69  -198  -291  -316  -298  -278  -263  -227  -152  -76  -80  -206  -413  -580  -578  -414  -224  -93  -15  31  55  48  -20  -179  -392  -565  -651  -684  -707  -697  -609  -472  -364  -301  -247  -192  -139  -79  -23  21  76  149  208  229  203  125  22  -62  -121  -173  -227  -280  -329  -360  -316  -132  160  447  642  729  706  571  361  169  51  -5  -21  -18  -36  -82  -154  -250  -312  -279  -162  -22  74  101  92  103  169  278  372  394  327  199  47  -85  -166  -194  -189  -155  -84  -8  17  -25  -129  -272  -423  -585  -740  -785  -673  -454  -104  435  1228  2419  4013  5603  6464  6026  4376  2170  130  -1250  -1848  -1912  -1800  -1679  -1490  -1187  -903  -768  -744  -714  -611  -494  -467  -516  -519  -435  -341  -299  -299  -313  -321  -288  -181  -10  170  328  457  545  580  543  419  246  118  122  293  583  877  1090  1227  1327  1418  1501  1561  1595  1603  1602  1630  1698  1761  1786  1775  1738  1669  1551  1391  1221  1052  881  718  573  448  347  261  182  106  9  -148  -360  -589  -841  -1104  -1294  -1350  -1257  -1022  -730  -534  -532  -712  -965  -1143  -1166  -1054  -886  -751  -678  -625  -562  -505  -482  -498  -528  -554  -573  -580  -566  -540  -518  -515  -546  -614  -705  -802  -869  -859  -777  -678  -605  -561  -536  -521  -516  -525  -542  -562  -584  -603  -607  -598  -590  -610  -657  -700  -720  -733  -758  -804  -870  -937  -994  -1055  -1125  -1174  -1162  -1075  -944  -816  -699  -569  -423  -291  -214  -228  -366  -617  -879  -1043  -1091  -1065  -991  -878  -758  -679  -655  -674  -725  -790  -832  -806  -698  -558  -470  -463  -500  -545  -588  -628  -654  -654  -620  -556  -490  -461  -493  -590  -716  -819  -865  -840  -747  -620  -524  -487  -488  -498  -501  -494  -472  -411  -281  -113  10  55  52  27  -26  -115  -211  -275  -304  -319  -342  -370  -374  -346  -319  -315  -323  -329  -331  -329  -318  -303  -312  -407  -628  -910  -1088  -1079  -950  -737  -275  753  2495  4637  6455  7074  6026  3704  1054  -1051  -2155  -2276  -1843  -1355  -1041  -939  -998  -1058  -1010  -876  -690  -474  -276  -136  -70  -61  -71  -70  -55  -35  -17  -4  13  54  119  190  256  324  389  432  453  493  581  695  776  801  793  784  795  833  883  945  1075  1327  1652  1918  2048  2067  2046  2030  2032  2053  2078  2083  2040  1926  1768  1625  1529  1475  1443  1362  1112  675  209  -96  -203  -205  -194  -194  -202  -251  -398  -625  -822  -901  -846  -670  -420  -178  0  77  -19  -354  -817  -1159  -1217  -998  -613  -247  -31  49  72  77  67  41  9  -2  65  266  542  744  780  666  475  293  191  210  326  455  531  548  505  398  264  183  188  229  249  253  271  299  302  259  205  210  297  436  610  814  971  938  636  188  -155  -278  -227  -69  128  286  362  362  303  209  118  54  23  20  22  0  -57  -127  -169  -155  -75  76  283  498  668  760  780  760  723  664  570  462  386  358  358  366  391  437  474  452  373  297  267  273  281  266  212  107  -20  -114  -146  -139  -123  -111  -104  -98  -95  -93  -79  -63  -118  -311  -579  -802  -919  -815  -260  885  2558  4513  6178  6729  5723  3564  1150  -780  -1831  -2024  -1829  -1701  -1686  -1644  -1533  -1393  -1260  -1139  -1020  -907  -812  -722  -632  -566  -540  -538  -546  -565  -593  -610  -608  -604  -590  -543  -468  -381  -294  -230  -188  -129  -29  90  182  232  271  338  432  515  585  685  813  916  967  982  1005  1079  1197  1318  1408  1438  1391  1283  1091  782  443  227  175  204  211  124  -80  -370  -664  -878  -1000  -1074  -1125  -1151  -1156  -1146  -1127  -1106  -1092  -1090  -1115  -1186  -1309  -1451  -1554  -1598  -1597  -1537  -1392  -1205  -1082  -1073  -1107  -1076  -980  -925  -939  -952  -920  -853  -784  -741  -722  -711  -711  -728  -756  -779  -789  -777  -740  -688  -665  -727  -888  -1085  -1222  -1259  -1203  -1068  -909  -809  -800  -843  -887  -919  -932  -902  -809  -687  -598  -561  -558  -593  -694  -838  -933  -916  -831  -757  -724  -707  -666  -600  -557  -569  -606  -627  -623  -607  -595  -590  -590  -591  -597  -618  -654  -700  -744  -761  -734  -691  -677  -702  -717  -692  -664  -638  -569  -476  -419  -405  -405  -403  -424  -519  -701  -871  -922  -923  -1019  -1210  -1355  -1247  -592  836  2875  4910  6224  6323  5060  2838  491  -1331  -2370  -2623  -2344  -1852  -1380  -1107  -1057  -1078  -1049  -977  -900  -825  -723  -585  -445  -336  -257  -199  -174  -222  -362  -512  -543  -435  -264  -63  148  317  410  414  293  65  -178  -340  -349  -154  236  686  996  1097  1063  966  834  708  657  790  1173  1677  2036  2101  1907  1577  1263  1039  870  730  663  676  702  665  505  210  -129  -409  -636  -835  -949  -940  -860  -787  -761  -793  -890  -1021  -1118  -1142  -1097  -1001  -891  -803  -753  -736  -731  -707  -652  -598  -600  -661  -725  -733  -640  -444  -225  -87  -45  -27  16  50  36  32  107  209  253  231  179  134  118  124  122  82  -7  -123  -223  -288  -308  -281  -223  -147  -48  56  121  131  111  90  64  10  -81  -187  -258  -272  -242  -187  -126  -81  -57  -45  -31  -25  -48  -114  -198  -237  -202  -146  -128  -133  -102  0  148  283  366  392  368  289  153  -4  -129  -201  -253  -305  -346  -366  -374  -375  -378  -419  -533  -711  -870  -908  -775  -472  18  787  1946  3492  5177  6472  6805  5988  4311  2287  455  -811  -1524  -1865  -1855  -1554  -1118  -610  -133  167  298  355  375  327  175  -32  -191  -253  -233  -129  61  287  458  516  505  543  676  823  911  947  973  1031  1130  1241  1310  1321  1322  1358  1436  1538  1631  1705  1783  1865  1908  1898  1875  1873  1885  1911  1972  2075  2178  2203  2115  1968  1839  1739  1641  1528  1385  1190  948  701  492  303  84  -165  -408  -606  -739  -807  -835  -838  -799  -690  -537  -407  -344  -339  -361  -382  -379  -311  -177  -56  -26  -105  -257  -408  -495  -514  -491  -440  -377  -330  -312  -324  -369  -429  -459  -409  -270  -100  4  -47  -295  -642  -889  -894  -658  -321  -85  -75  -279  -567  -775  -829  -755  -605  -447  -355  -365  -466  -602  -698  -727  -719  -704  -690  -673  -649  -627  -609  -588  -545  -479  -425  -414  -440  -476  -506  -536  -569  -585  -569  -533  -487  -433  -387  -356  -314  -262  -275  -419  -622  -742  -702  -518  -287  -127  -77  -87  -108  -130  -161  -211  -279  -342  -383  -413  -456  -503  -560  -682  -837  -869  -577  337  1956  3790  5249  5904  5369  3716  1568  -421  -1794  -2350  -2297  -2021  -1738  -1507  -1315  -1146  -989  -804  -573  -336  -146  -44  -56  -187  -399  -627  -835  -965  -907  -619  -225  113  325  408  362  187  -49  -213  -195  15  311  535  633  662  680  718  779  830  857  903  986  1078  1184  1339  1527  1689  1783  1798  1732  1607  1478  1393  1356  1336  1279  1096  743  314  -22  -192  -262  -325  -396  -444  -462  -491  -585  -754  -960  -1169  -1359  -1486  -1525  -1484  -1378  -1249  -1160  -1132  -1140  -1159  -1170  -1145  -1046  -873  -688  -563  -526  -553  -598  -623  -613  -585  -563  -555  -553  -549  -547  -542  -504  -400  -258  -153  -117  -124  -143  -164  -185  -210  -241  -280  -340  -438  -553  -606  -541  -396  -264  -204  -225  -319  -448  -537  -505  -317  -46  141  105  -186  -592  -888  -979  -933  -827  -703  -595  -521  -464  -408  -357  -322  -305  -307  -332  -379  -410  -371  -239  -39  151  264  271  149  -99  -392  -606  -692  -683  -630  -566  -490  -374  -231  -137  -132  -173  -205  -217  -228  -249  -264  -236  -148  -28  66  98  36  -141  -370  -507  -495  -406  -324  -262  -199  -116  -30  -13  -143  -468  -910  -1131  -676  691  2741  4858  6443  6966  6061  4039  1748  -145  -1339  -1776  -1696  -1503  -1415  -1351  -1185  -918  -645  -462  -378  -341  -326  -332  -338  -324  -303  -304  -323  -325  -285  -189  -30  159  321  436  513  551  546  515  506  564  669  761  811  829  830  845  920  1092  1332  1536  1629  1645  1689  1843  2066  2231  2264  2190  2079  1985  1917  1857  1794  1707  1574  1396  1194  982  791  663  597  532  417  248  66  -85  -194  -264  -316  -351  -373  -452  -593  -697  -730  -753  -796  -844  -867  -842  -781  -696  -578  -446  -358  -338  -356  -378  -391  -389  -365  -320  -284  -298  -334  -343  -328  -308  -288  -268  -241  -213  -199  -197  -194  -175  -134  -94  -68  -55  -55  -64  -72  -72  -82  -139  -268  -444  -597  -679  -681  -624  -546  -488  -457  -432  -406  -385  -359  -307  -236  -181  -163  -166  -171  -164  -147  -125  -106  -88  -80  -122  -269  -513  -749  -872  -865  -780  -664  -551  -474  -449  -457  -471  -461  -416  -344  -279  -247  -250  -270  -299  -343  -400  -456  -502  -529  -514  -450  -373  -324  -310  -311  -306  -293  -293  -333  -397  -429  -403  -351  -307  -248  -162  -136  -250  -442  -541  -430  -159  106  243  232  116  -33  -145  -193  -205  -205  -204  -203  -203  -207  -221  -275  -406  -594  -756  -834  -823  -749  -671  -633  -625  -608  -556  -471  -362  -243  -166  -174  -230  -269  -280  -282  -278  -249  -181  -102  -52  -37  -41  -44  -40  -48  -89  -154  -219  -258  -267  -263  -268  -301  -365  -413  -410  -363  -268  -166  -172  -363  -801  -1372  -1428  -310  1842  4384  6639  7850  7465  5654  3160  750  -1025  -1893  -1971  -1636  -1275  -1129  -1146  -1104  -950  -785  -677  -619  -591  -600  -651  -721  -763  -709  -499  -149  229  506  630  617  481  245  3  -141  -177  -158  -125  -96  -85  -100  -125  -95  83  434  833  1114  1235  1279  1338  1425  1500  1540  1549  1532  1499  1472  1459  1454  1453  1459  1473  1481  1460  1416  1353  1244  1077  873  678  547  460  349  214  111  42  -69  -291  -565  -760  -828  -822  -797  -775  -765  -776  -798  -800  -782  -794  -850  -905  -906  -844  -749  -659  -577  -499  -445  -428  -435  -451  -466  -479  -487  -479  -444  -390  -355  -383  -473  -573  -630  -640  -623  -597  -574  -560  -569  -611  -674  -720  -695  -562  -348  -133  5  2  -168  -423  -614  -682  -675  -653  -641  -646  -670  -704  -715  -677  -594  -471  -304  -138  -72  -169  -369  -556  -670  -710  -692  -626  -542  -479  -457  -476  -544  -648  -747  -791  -750  -626  -452  -276  -138  -55  -31  -76  -210  -402  -566  -644  -655  -646  -640  -628  -597  -549  -508  -480  -439  -379  -345  -378  -447  -487  -435  -255  -3  174  173  -5  -259  -457  -569  -646  -690  -649  -483  -200  47  40  -214  -484  -625  -644  -554  -431  -389  -360  -122  565  1959  3982  5891  6729  6078  4205  1762  -423  -1688  -1961  -1615  -1037  -560  -404  -488  -590  -627  -631  -627  -584  -448  -227  -13  123  200  252  281  295  300  299  328  431  584  719  802  839  844  841  854  890  930  950  948  944  975  1078  1276  1550  1819  1996  2066  2068  2038  2004  1981  1962  1940  1924  1918  1923  1929  1915  1846  1703  1521  1324  1085  812  575  393  254  176  154  121  14  -141  -276  -384  -513  -699  -928  -1144  -1283  -1298  -1185  -1026  -922  -887  -871  -838  -790  -749  -739  -748  -722  -621  -481  -379  -357  -395  -454  -520  -586  -627  -626  -593  -549  -513  -497  -498  -501  -493  -466  -429  -398  -386  -413  -497  -614  -706  -747  -756  -755  -740  -689  -607  -527  -478  -457  -450  -455  -467  -477  -468  -445  -431  -434  -450  -475  -497  -501  -482  -453  -432  -422  -416  -414  -440  -516  -619  -695  -721  -719  -713  -706  -691  -658  -595  -474  -277  -57  90  136  126  104  75  27  -43  -122  -197  -278  -386  -510  -607  -663  -698  -719  -728  -734  -746  -757  -726  -599  -440  -481  -814  -1196  -1357  -1162  -511  593  2054  3689  5123  5849  5531  4243  2396  522  -908  -1778  -2254  -2347  -2057  -1658  -1386  -1225  -1077  -899  -718  -568  -446  -326  -205  -117  -85  -118  -224  -380  -514  -579  -582  -538  -453  -335  -213  -119  -59  -20  -1  34  155  373  606  761  825  833  836  887  1010  1171  1317  1422  1492  1542  1588  1651  1724  1775  1793  1796  1801  1795  1736  1586  1373  1154  922  640  342  100  -74  -198  -273  -326  -400  -496  -578  -630  -671  -722  -795  -872  -917  -925  -920  -935  -1001  -1101  -1184  -1233  -1257  -1267  -1258  -1217  -1147  -1071  -1004  -936  -854  -768  -703  -659  -622  -602  -623  -683  -744  -763  -746  -742  -795  -892  -938  -834  -582  -265  5  150  138  -32  -317  -593  -752  -784  -726  -623  -549  -545  -579  -604  -601  -582  -573  -601  -661  -699  -671  -593  -480  -317  -131  2  59  69  65  51  15  -45  -115  -170  -199  -214  -250  -304  -316  -264  -228  -271  -360  -432  -452  -408  -278  -45  218  394  446  435  419  414  419  432  445  428  332  148  -55  -202  -272  -281  -237  -153  -66  -15  -3  -6  -8  -11  -23  -43  -54  -39  -6  -17  -176  -505  -888  -1211  -1372  -1092  -7  1940  4326  6450  7551  7102  5280  2924  804  -727  -1518  -1625  -1358  -1062  -914  -913  -954  -978  -997  -989  -860  -539  -103  261  437  458  418  376  319  207  64  -33  -42  26  150  319  509  666  749  766  750  726  707  692  688  731  866  1093  1344  1513  1550  1529  1550  1633  1751  1891  2040  2153  2191  2191  2218  2263  2269  2213  2113  1984  1790  1506  1193  940  770  652  561  469  351  196  -16  -302  -602  -805  -885  -905  -903  -879  -852  -845  -852  -863  -870  -859  -808  -719  -624  -557  -521  -494  -449  -373  -290  -251  -283  -370  -476  -581  -686  -787  -852  -839  -750  -633  -527  -454  -433  -436  -415  -381  -373  -392  -407  -399  -379  -370  -370  -364  -335  -287  -243  -238  -302  -392  -409  -330  -242  -230  -310  -443  -561  -631  -658  -659  -641  -599  -540  -496  -503  -546  -546  -435  -235  -28  109  155  122  25  -96  -186  -228  -241  -245  -251  -271  -311  -370  -420  -409  -327  -247  -217  -207  -174  -100  -3  70  73  -21  -197  -377  -482  -506  -490  -464  -445  -455  -509  -581  -604  -540  -424  -334  -313  -355  -425  -450  -392  -307  -259  -243  -244  -285  -404  -575  -721  -796  -809  -780  -741  -719  -719  -728  -739  -751  -762  -741  -646  -459  -215  3  93  6  -182  -344  -406  -383  -323  -261  -221  -223  -257  -287  -295  -302  -343  -417  -454  -408  -339  -347  -458  -625  -778  -877  -920  -922  -903  -870  -809  -699  -491  -11  1015  2680  4631  6218  6843  6196  4400  1949  -403  -1953  -2502  -2294  -1746  -1315  -1176  -1171  -1165  -1162  -1168  -1143  -1042  -901  -797  -742  -658  -502  -320  -186  -123  -111  -116  -128  -184  -330  -529  -678  -740  -761  -768  -697  -453  -63  285  470  567  714  902  998  944  796  643  541  506  554  718  975  1210  1330  1345  1306  1249  1196  1173  1226  1383  1599  1780  1852  1734  1345  772  252  -72  -251  -385  -534  -692  -816  -874  -887  -915  -993  -1065  -1032  -878  -688  -544  -467  -446  -452  -447  -433  -438  -491  -581  -627  -566  -461  -405  -398  -390  -349  -283  -227  -199  -196  -201  -193  -149  -72  9  61  74  44  -45  -186  -308  -330  -265  -186  -116  -29  61  105  100  83  69  28  -54  -133  -160  -135  -54  67  166  173  50  -182  -424  -563  -538  -351  -74  178  341  403  382  319  251  172  49  -102  -212  -224  -147  -35  48  82  87  88  87  68  20  -38  -76  -86  -86  -91  -101  -120  -158  -212  -256  -281  -298  -316  -329  -335  -337  -337  -330  -307  -269  -214  -133  -25  76  167  265  329  287  141  -53  -244  -407  -549  -666  -694  -588  -403  -243  -140  -63  -10  -3  -33  -105  -255  -454  -606  -667  -657  -596  -497  -396  -323  -286  -310  -439  -657  -842  -765  -135  1153  2839  4517  5805  6193  5342  3547  1422  -504  -1783  -2229  -2048  -1581  -1116  -808  -631  -510  -426  -382  -374  -396  -426  -427  -371  -265  -141  -24  61  98  97  93  125  221  374  532  640  706  760  787  757  696  647  626  622  626  643  684  761  876  1021  1181  1323  1397  1410  1447  1595  1843  2083  2232  2281  2237  2090  1876  1683  1554  1481  1437  1368  1209  986  789  627  422  144  -149  -385  -534  -628  -731  -874  -1021  -1113  -1134  -1093  -985  -833  -700  -633  -622  -628  -613  -553  -466  -396  -370  -399  -485  -597  -678  -698  -677  -640  -594  -525  -433  -349  -303  -294  -300  -301  -291  -272  -243  -196  -133  -82  -74  -140  -301  -524  -723  -821  -802  -698  -560  -436  -369  -383  -436  -454  -423  -386  -379  -402  -459  -560  -695  -810  -863  -861  -831  -797  -766  -737  -733  -760  -765  -665  -435  -161  6  -17  -207  -450  -620  -681  -677  -654  -634  -623  -616  -606  -590  -574  -569  -582  -601  -591  -557  -545  -543  -482  -329  -137  6  73  88  76  28  -91  -291  -496  -606  -602  -544  -497  -479  -481  -501  -537  -564  -547  -488  -429  -396  -377  -357  -351  -434  -658  -944  -1189  -1377  -1418  -1049  -33  1639  3671  5479  6434  6173  4791  2794  779  -829  -1820  -2245  -2299  -2121  -1855  -1639  -1438  -1160  -842  -596  -468  -424  -413  -414  -419  -430  -442  -435  -369  -239  -108  -11  84  170  211  212  207  216  241  267  282  285  280  268  266  324  502  782  1074  1325  1519  1631  1663  1679  1744  1880  2045  2159  2177  2103  1972  1848  1779  1763  1775  1806  1851  1865  1741  1399  936  565  370  260  139  -6  -136  -223  -267  -275  -256  -247  -324  -541  -844  -1092  -1194  -1123  -874  -534  -264  -143  -133  -204  -375  -606  -787  -856  -847  -810  -749  -644  -512  -418  -389  -396  -402  -384  -337  -272  -206  -163  -151  -136  -98  -68  -53  -24  16  21  -62  -244  -450  -579  -586  -492  -362  -273  -262  -320  -413  -504  -573  -582  -510  -401  -333  -347  -440  -568  -659  -666  -587  -453  -310  -187  -96  -68  -198  -570  -1077  -1437  -1449  -1118  -641  -280  -137  -127  -165  -254  -424  -638  -806  -887  -910  -918  -921  -894  -809  -685  -576  -519  -506  -510  -518  -535  -563  -583  -572  -524  -436  -304  -165  -104  -173  -336  -498  -598  -633  -639  -651  -674  -685  -661  -593  -478  -326  -184  -103  -85  -97  -121  -176  -289  -435  -554  -631  -710  -806  -897  -1000  -1151  -1294  -1315  -1116  -567  504  2181  4256  6252  7587  7671  6241  3726  968  -1218  -2318  -2338  -1753  -1157  -906  -912  -860  -651  -424  -280  -208  -170  -164  -196  -227  -179  -20  154  221  220  262  341  394  405  393  401  448  515  579  625  644  639  632  661  751  871  964  1031  1131  1273  1403  1466  1454  1411  1412  1521  1707  1880  2009  2112  2191  2253  2308  2320  2203  1884  1423  1028  845  802  707  428  -1  -425  -693  -781  -769  -749  -784  -878  -967  -1003  -1016  -1034  -1048  -1050  -1049  -1052  -1063  -1075  -1085  -1089  -1070  -1009  -926  -865  -833  -787  -694  -577  -502  -500  -528  -534  -501  -450  -407  -374  -357  -399  -555  -788  -977  -1052  -1015  -870  -649  -431  -278  -193  -152  -142  -188  -328  -526  -687  -760  -757  -699  -592  -453  -321  -229  -198  -269  -483  -787  -1038  -1130  -1052  -857  -645  -513  -482  -511  -567  -638  -709  -734  -653  -454  -239  -126  -101  -80  -72  -140  -276  -403  -471  -489  -482  -456  -412  -363  -329  -314  -313  -341  -418  -517  -562  -487  -280  -15  190  288  314  311  290  242  162  34  -166  -403  -578  -653  -656  -566  -333  -15  213  221  5  -319  -592  -734  -763  -704  -569  -375  -151  34  18  -389  -1130  -1696  -1472  -252  1774  4126  5996  6680  6052  4462  2437  479  -1096  -2155  -2672  -2694  -2336  -1819  -1338  -968  -743  -635  -546  -377  -107  163  255  69  -294  -645  -878  -969  -824  -320  431  1064  1302  1140  730  286  -15  -138  -130  -20  192  489  805  1070  1260  1380  1447  1480  1509  1544  1555  1518  1464  1454  1518  1627  1719  1760  1761  1746  1730  1721  1732  1775  1839  1892  1896  1817  1645  1410  1141  834  508  247  116  96  116  81  -89  -364  -588  -629  -476  -251  -104  -93  -162  -211  -184  -108  -30  34  77  47  -136  -480  -827  -975  -865  -629  -443  -360  -328  -303  -283  -275  -277  -278  -273  -263  -252  -238  -233  -279  -414  -598  -733  -776  -765  -741  -714  -673  -626  -601  -614  -639  -643  -616  -582  -563  -563  -581  -626  -705  -795  -884  -964  -1016  -1032  -1037  -1052  -1073  -1093  -1132  -1220  -1333  -1387  -1313  -1123  -899  -714  -611  -620  -731  -888  -1027  -1110  -1137  -1130  -1085  -988  -866  -771  -738  -780  -907  -1078  -1202  -1215  -1116  -953  -797  -686  -584  -427  -280  -370  -831  -1576  -2293  -2412  -1504  312  2573  4735  6220  6553  5624  3777  1548  -513  -1896  -2442  -2465  -2276  -1968  -1666  -1497  -1427  -1362  -1251  -1030  -646  -180  169  289  186  -94  -439  -663  -615  -272  200  538  622  534  403  313  281  285  333  454  662  924  1171  1314  1294  1107  843  652  656  895  1283  1633  1824  1908  1999  2119  2217  2274  2315  2333  2298  2207  2086  1974  1896  1830  1691  1426  1099  826  644  507  363  203  33  -144  -309  -426  -486  -508  -520  -540  -566  -587  -598  -601  -601  -600  -600  -599  -599  -603  -614  -626  -616  -568  -496  -439  -413  -407  -408  -410  -414  -422  -424  -406  -372  -342  -328  -330  -355  -420  -514  -597  -651  -686  -704  -684  -599  -434  -278  -277  -431  -584  -641  -636  -639  -679  -716  -703  -643  -572  -500  -416  -314  -220  -198  -294  -471  -636  -733  -765  -750  -700  -627  -555  -500  -460  -426  -411  -444  -528  -622  -685  -709  -710  -716  -742  -772  -759  -663  -516  -380  -261  -144  -70  -123  -352  -674  -909  -940  -773  -501  -258  -117  -38  43  145  248  330  364  305  120  -139  -351  -449  -461  -441  -424  -417  -429  -476  -575  -706  -813  -839  -752  -571  -345  -114  93  259  307  56  -578  -1223  -1196  -84  2006  4502  6486  7116  6186  4207  1933  -7  -1226  -1659  -1563  -1363  -1344  -1416  -1389  -1256  -1062  -839  -635  -458  -287  -140  -40  30  93  136  142  122  104  102  100  69  2  -47  -15  102  250  368  432  466  513  586  658  703  734  807  966  1182  1379  1523  1627  1716  1789  1824  1808  1767  1737  1734  1747  1760  1773  1788  1797  1774  1695  1566  1413  1248  1050  780  444  143  -43  -146  -224  -301  -383  -462  -525  -579  -650  -742  -830  -891  -921  -935  -942  -917  -802  -557  -249  -10  78  -18  -315  -706  -992  -1088  -1053  -950  -816  -686  -579  -485  -378  -267  -202  -209  -257  -296  -311  -313  -312  -297  -239  -127  -31  -85  -330  -635  -829  -877  -838  -735  -545  -301  -99  10  40  -12  -169  -380  -534  -557  -454  -285  -145  -91  -98  -111  -115  -131  -188  -279  -357  -390  -381  -357  -337  -325  -319  -316  -316  -318  -320  -316  -317  -342  -386  -410  -376  -270  -126  1  92  150  180  175  111  -44  -294  -563  -726  -743  -679  -599  -485  -286  -36  134  111  -128  -468  -713  -750  -597  -347  -125  0  52  81  128  195  258  298  319  329  329  285  159  -34  -216  -324  -355  -321  -232  -129  -72  -81  -124  -161  -182  -200  -197  -119  32  112  1  -253  -584  -844  -644  315  1975  4049  6008  7086  6772  5209  2955  669  -1043  -1870  -1926  -1614  -1301  -1076  -869  -682  -569  -529  -498  -424  -321  -240  -170  -52  104  221  257  238  207  180  148  94  6  -116  -235  -285  -220  -54  133  266  353  449  560  650  735  871  1041  1165  1207  1198  1179  1169  1191  1284  1464  1669  1765  1685  1514  1402  1415  1502  1579  1612  1602  1542  1418  1231  969  621  266  73  122  297  389  238  -145  -571  -838  -928  -941  -930  -896  -875  -921  -1038  -1151  -1156  -1048  -912  -807  -736  -693  -679  -714  -816  -954  -1057  -1093  -1077  -1028  -955  -887  -864  -890  -910  -865  -770  -685  -644  -635  -627  -585  -504  -416  -376  -439  -635  -909  -1142  -1273  -1328  -1337  -1263  -1058  -784  -576  -458  -347  -229  -203  -344  -586  -761  -789  -738  -693  -670  -655  -641  -633  -634  -637  -637  -634  -628  -618  -602  -582  -569  -559  -548  -536  -534  -558  -620  -710  -785  -813  -792  -738  -674  -612  -547  -478  -403  -300  -176  -91  -110  -250  -446  -591  -636  -598  -507  -402  -330  -307  -313  -325  -337  -349  -356  -330  -238  -98  11  -18  -281  -749  -1244  -1579  -1599  -1211  -635  -310  -388  -616  -510  366  2004  3917  5436  5901  5050  3386  1720  455  -388  -887  -1254  -1674  -1970  -1922  -1692  -1502  -1289  -905  -414  -47  81  34  -106  -274  -412  -514  -585  -566  -389  -96  170  313  349  356  412  540  625  517  268  115  182  395  618  776  889  1003  1110  1176  1197  1207  1264  1406  1589  1736  1835  1936  2051  2143  2190  2195  2150  2036  1883  1768  1722  1682  1567  1381  1213  1133  1113  1037  782  282  -387  -988  -1273  -1212  -991  -815  -749  -747  -756  -765  -782  -809  -830  -834  -819  -783  -730  -690  -698  -738  -746  -702  -654  -637  -642  -632  -580  -498  -415  -334  -254  -196  -176  -191  -245  -352  -493  -580  -542  -429  -338  -297  -292  -309  -342  -387  -435  -466  -474  -474  -492  -533  -578  -621  -667  -688  -660  -614  -580  -567  -567  -570  -573  -574  -573  -573  -576  -583  -582  -550  -466  -355  -277  -268  -325  -420  -512  -570  -578  -540  -452  -305  -136  -20  18  17  9  -13  -73  -155  -196  -155  -69  -3  21  21  18  0  -71  -204  -352  -457  -490  -409  -163  185  459  486  152  -493  -1102  -1324  -1194  -884  -359  502  1755  3345  4983  6166  6404  5492  3682  1564  -265  -1438  -1880  -1752  -1319  -848  -521  -370  -314  -317  -400  -517  -559  -483  -342  -189  -21  169  344  449  480  472  457  454  484  578  763  1000  1189  1268  1231  1094  913  779  746  823  1019  1332  1707  2032  2233  2294  2245  2161  2110  2116  2168  2252  2356  2463  2543  2588  2610  2618  2605  2564  2510  2440  2289  2003  1657  1377  1194  1033  828  577  342  202  197  308  468  575  522  260  -106  -368  -392  -195  84  279  298  165  -20  -151  -195  -193  -171  -119  -42  0  -5  36  161  287  365  440  524  562  508  393  291  244  242  280  362  474  585  681  762  801  718  457  117  -99  -107  10  136  215  256  288  334  398  461  467  357  127  -162  -410  -541  -550  -451  -252  15  282  465  521  472  394  354  347  321  254  173  111  72  41  -9  -80  -119  -87  -24  12  0  -60  -145  -212  -220  -141  4  94  47  -49  -98  -115  -167  -297  -487  -662  -760  -770  -719  -655  -609  -595  -625  -704  -819  -896  -858  -796  -895  -1136  -1239  -808  431  2385  4602  6437  7118  6166  3888  1095  -1447  -3140  -3709  -3446  -2902  -2394  -2041  -1915  -1950  -2001  -2013  -2002  -1987  -1963  -1899  -1774  -1629  -1552  -1562  -1600  -1655  -1787  -2002  -2216  -2345  -2381  -2373  -2370  -2383  -2378  -2302  -2155  -1993  -1852  -1740  -1684  -1708  -1787  -1844  -1845  -1843  -1870  -1913  -1970  -2038  -2112  -2191  -2253  -2282  -2268  -2104  -1624  -845]
