reading_id,reading_time,wire_id,result_classification,heart_rate,heart_rate_alert,firmware_version,device_app_version,hardware_version,waveform_samples
d086b3b0-5983-11ed-8080-808080808080,Tue Nov 01 01:23:39 UTC 2022,a101e3f91939,NSR,95,NONE,20001.171.50,2.10.0,Charge 5,[-29165  -29292  -29160  -28515  -27407  -26291  -25596  -25338  -25261  -25186  -25097  -24876  -24159  -22672  -20580  -18299  -16208  -14529  -13250  -12272  -11578  -11115  -10687  -10112  -9371  -8530  -7615  -6645  -5742  -5031  -4411  -3613  -2526  -1334  -299  463  1030  1600  2318  3176  4097  4979  5744  6430  7158  7957  8714  9365  10006  10723  11464  12104  12621  13187  13941  14717  15290  15809  16731  18275  20060  21422  21994  21724  20682  19276  18192  17737  17694  17806  18022  18341  18665  18889  19000  19016  18957  18885  18857  18882  18946  19031  19140  19336  19656  20012  20286  20463  20598  20730  20876  21085  21416  21846  22237  22488  22639  22766  22878  22946  22969  22979  23023  23116  23238  23359  23463  23539  23570  23497  23250  22860  22462  22128  21784  21297  20668  20091  19734  19542  19353  19057  18611  18022  17387  16868  16504  16140  15663  15170  14819  14622  14489  14376  14297  14233  14123  13928  13669  13387  13082  12735  12387  12134  12031  11998  11834  11406  10834  10369  10090  9931  9846  9783  9640  9354  8974  8623  8368  8150  7879  7560  7257  7008  6812  6647  6438  6122  5725  5309  4851  4281  3655  3138  2782  2514  2282  2082  1920  1800  1712  1601  1384  1031  628  321  197  222  194  -124  -598  -686  -22  1354  3153  4829  5658  5157  3387  842  -1760  -3684  -4480  -4249  -3525  -2872  -2553  -2521  -2590  -2640  -2682  -2734  -2788  -2837  -2869  -2877  -2865  -2838  -2791  -2732  -2707  -2742  -2780  -2758  -2692  -2648  -2653  -2680  -2693  -2697  -2705  -2700  -2661  -2596  -2519  -2407  -2234  -2035  -1872  -1767  -1706  -1674  -1659  -1672  -1748  -1905  -2107  -2299  -2455  -2571  -2654  -2747  -2897  -3126  -3403  -3660  -3843  -3952  -4039  -4164  -4360  -4623  -4896  -5105  -5240  -5342  -5440  -5561  -5696  -5792  -5816  -5786  -5724  -5650  -5590  -5553  -5525  -5496  -5483  -5508  -5572  -5655  -5695  -5651  -5570  -5510  -5469  -5423  -5365  -5309  -5274  -5266  -5278  -5298  -5318  -5327  -5297  -5198  -5054  -4935  -4879  -4865  -4866  -4873  -4890  -4934  -5019  -5127  -5224  -5289  -5309  -5285  -5261  -5268  -5293  -5311  -5316  -5295  -5236  -5155  -5109  -5142  -5217  -5217  -5109  -5029  -5036  -5007  -4746  -4000  -2572  -628  1279  2425  2179  464  -2107  -4684  -6516  -7155  -6751  -5880  -5033  -4436  -4112  -3955  -3835  -3694  -3530  -3353  -3182  -3032  -2904  -2784  -2649  -2490  -2313  -2142  -2023  -1954  -1866  -1739  -1618  -1525  -1433  -1340  -1273  -1212  -1106  -970  -870  -796  -658  -406  -95  185  378  471  491  453  355  230  143  116  97  20  -126  -285  -417  -544  -709  -929  -1199  -1466  -1659  -1773  -1856  -1934  -1992  -2021  -2029  -2024  -2017  -2022  -2043  -2067  -2086  -2120  -2193  -2292  -2346  -2286  -2112  -1841  -1514  -1230  -1069  -1019  -1017  -1009  -970  -892  -748  -513  -251  -112  -190  -445  -772  -1049  -1151  -1035  -810  -639  -584  -601  -633  -637  -553  -338  -57  146  214  196  153  116  107  139  192  238  266  287  315  339  312  195  28  -96  -130  -87  9  133  234  282  290  285  269  239  205  191  189  137  -48  -320  -345  256  1583  3484  5546  7042  7274  6016  3673  1022  -1188  -2396  -2460  -1804  -1025  -454  -111  116  314  502  653  738  762  757  743  732  753  849  1022  1216  1359  1415  1396  1347  1322  1341  1375  1386  1366  1356  1437  1672  1996  2267  2439  2565  2707  2918  3171  3357  3425  3409  3334  3208  3063  2946  2876  2848  2831  2779  2648  2420  2131  1849  1602  1385  1203  1047  902  775  663  555  438  303  168  83  68  80  45  -86  -273  -412  -450  -406  -323  -243  -193  -175  -170  -163  -154  -150  -153  -157  -152  -132  -105  -85  -74  -71  -87  -137  -216  -292  -335  -331  -295  -262  -263  -307  -371  -420  -441  -451  -451  -409  -290  -121  10  50  25  -7  -22  -24  -15  17  84  174  253  293  312  336  358  370  377  380  358  286  177  85  38  21  30  78  154  243  345  437  504  547  505  307  12  -269  -411  -132  919  2817  5162  7238  8218  7482  5180  2238  -331  -1903  -2321  -1895  -1120  -301  428  949  1208  1293  1325  1348  1381  1463  1611  1776  1884  1911  1891  1869  1914  2095  2390  2670  2836  2896  2903  2892  2878  2871  2892  2959  3072  3214  3353  3437  3422  3301  3124  2976  2895  2857  2780  2545  2113  1570  1053  649  364  157  -31  -274  -624  -1071  -1565  -2055  -2479  -2801  -3072  -3381  -3750  -4108  -4395  -4644  -4870  -5007  -5020  -4964  -4908  -4869  -4832  -4777  -4699  -4632  -4615  -4625  -4601  -4521  -4439  -4441  -4537  -4644  -4692  -4685  -4658  -4624  -4557  -4434  -4280  -4137  -4032  -3982  -4001  -4084  -4196  -4290  -4324  -4240  -3993  -3665  -3412  -3248  -3053  -2777  -2500  -2314  -2212  -2133  -2052  -1982  -1943  -1964  -2068  -2213  -2318  -2357  -2366  -2380  -2385  -2321  -2107  -1755  -1400  -1160  -1033  -967  -938  -935  -944  -954  -950  -912  -833  -740  -661  -598  -542  -493  -450  -407  -363  -321  -268  -160  -2  102  62  -128  -425  -596  -232  956  2909  5164  6993  7580  6416  3858  938  -1390  -2550  -2412  -1478  -584  -174  -113  -109  -10  199  469  706  841  879  861  781  619  463  480  717  1038  1283  1392  1401  1378  1370  1393  1428  1461  1504  1558  1610  1677  1791  1961  2142  2274  2344  2389  2457  2583  2752  2901  2983  2998  2963  2902  2848  2818  2787  2693  2487  2178  1842  1566  1366  1181  949  702  519  394  252  79  -56  -106  -85  -38  6  49  93  127  151  169  181  173  137  81  22  -35  -75  -78  -63  -70  -100  -132  -153  -166  -182  -206  -232  -251  -255  -251  -255  -272  -301  -330  -321  -268  -224  -230  -268  -315  -385  -503  -649  -758  -794  -780  -758  -753  -768  -777  -759  -707  -607  -442  -244  -92  -32  -66  -193  -388  -580  -707  -750  -727  -680  -651  -663  -707  -772  -842  -888  -889  -847  -789  -749  -743  -759  -765  -711  -580  -498  -632  -943  -1167  -955  -12  1671  3718  5526  6449  6028  4298  1810  -663  -2412  -3089  -2887  -2257  -1580  -1095  -867  -776  -647  -404  -121  64  119  124  157  219  271  301  335  381  417  418  378  323  305  351  452  588  725  847  980  1124  1242  1347  1487  1680  1897  2087  2197  2243  2287  2353  2416  2466  2535  2644  2751  2803  2774  2608  2296  1931  1574  1221  902  676  563  527  506  447  340  205  74  5  14  39  57  84  91  74  50  12  -40  -103  -180  -271  -355  -413  -439  -440  -430  -421  -398  -352  -313  -298  -295  -283  -271  -313  -478  -758  -1041  -1226  -1329  -1397  -1418  -1367  -1272  -1193  -1157  -1147  -1144  -1141  -1133  -1118  -1090  -1048  -996  -941  -885  -846  -840  -849  -853  -862  -876  -858  -785  -679  -602  -625  -753  -920  -1052  -1118  -1129  -1117  -1128  -1196  -1324  -1474  -1560  -1482  -1285  -1200  -1339  -1417  -904  508  2618  4754  6004  5676  3799  1085  -1539  -3321  -3996  -3866  -3374  -2744  -2091  -1564  -1227  -1009  -822  -646  -521  -466  -455  -454  -451  -438  -414  -374  -282  -75  231  510  652  679  671  679  708  743  786  843  910  995  1119  1285  1471  1643  1779  1891  1999  2083  2113  2106  2093  2089  2086  2076  2044  1977  1854  1629  1263  826  452  210  74  -11  -89  -173  -290  -474  -670  -751  -674  -539  -461  -457  -474  -479  -474  -481  -521  -606  -711  -784  -807  -801  -789  -764  -718  -663  -624  -608  -617  -626  -595  -516  -419  -350  -320  -311  -313  -326  -358  -417  -490  -546  -568  -560  -534  -485  -397  -289  -211  -185  -189  -194  -193  -188  -183  -171  -146  -111  -85  -67  -47  -36  -108  -344  -705  -1023  -1175  -1166  -1043  -859  -691  -603  -603  -655  -711  -728  -698  -684  -762  -862  -771  -290  760  2451  4437  5920  6088  4673  2119  -688  -2833  -3787  -3674  -3012  -2235  -1568  -1122  -898  -785  -684  -580  -504  -471  -471  -466  -402  -247  -35  148  242  253  223  184  158  170  248  386  540  670  763  831  888  947  1005  1064  1137  1255  1434  1644  1823  1950  2068  2211  2359  2470  2503  2441  2309  2126  1851  1432  923  486  259  223  253  231  100  -109  -310  -452  -565  -688  -810  -885  -871  -760  -605  -495  -459  -461  -457  -436  -422  -434  -454  -461  -458  -458  -469  -489  -512  -532  -541  -531  -514  -499  -489  -483  -482  -487  -497  -500  -462  -360  -241  -183  -191  -206  -202  -195  -195  -200  -204  -201  -184  -164  -179  -257  -369  -462  -512  -544  -608  -737  -880  -945  -919  -894  -943  -1002  -954  -796  -666  -657  -732  -853  -1047  -1284  -1455  -1405  -984  -176  1061  2786  4582  5642  5347  3492  557  -2304  -4042  -4371  -3722  -2794  -2086  -1681  -1387  -1103  -916  -893  -1005  -1164  -1276  -1279  -1163  -971  -787  -659  -561  -440  -272  -81  95  248  384  498  583  655  719  751  759  818  1000  1258  1469  1589  1661  1723  1804  1909  2012  2082  2101  2050  1922  1763  1648  1601  1598  1604  1558  1377  1039  644  326  140  50  -8  -104  -287  -529  -742  -882  -969  -1022  -1024  -955  -838  -733  -701  -748  -818  -859  -885  -896  -866  -812  -781  -796  -842  -876  -863  -809  -723  -606  -492  -426  -414  -430  -451  -473  -509  -552  -537  -404  -187  20  161  211  154  -15  -233  -389  -435  -414  -378  -364  -430  -627  -896  -1085  -1070  -841  -523  -296  -234  -280  -353  -440  -602  -876  -1163  -1341  -1365  -1075  -152  1467  3392  5032  5747  5049  3059  511  -1817  -3357  -3746  -3165  -2270  -1562  -1200  -1128  -1129  -1043  -880  -697  -526  -395  -303  -217  -124  -58  -23  15  80  166  267  367  447  505  560  627  712  811  913  997  1044  1065  1116  1252  1479  1747  1994  2179  2278  2293  2283  2310  2358  2372  2331  2258  2189  2109  1934  1618  1244  935  712  528  377  279  210  128  32  -44  -91  -119  -141  -167  -203  -247  -309  -421  -603  -803  -917  -890  -754  -586  -448  -360  -330  -354  -398  -427  -438  -455  -488  -501  -441  -312  -180  -94  -60  -68  -108  -168  -220  -242  -239  -231  -249  -315  -417  -508  -553  -543  -497  -460  -496  -641  -842  -991  -1042  -1035  -1004  -956  -893  -821  -741  -700  -817  -1115  -1350  -1168  -330  1253  3302  4975  5419  4395  2217  -452  -2734  -3963  -4049  -3359  -2427  -1695  -1343  -1276  -1253  -1080  -749  -405  -196  -140  -157  -182  -193  -180  -133  -53  25  69  76  69  72  98  147  219  324  478  694  944  1160  1299  1392  1486  1583  1647  1673  1691  1716  1746  1773  1771  1716  1620  1520  1448  1393  1312  1161  925  614  254  -81  -300  -400  -463  -542  -629  -696  -731  -755  -796  -872  -960  -1022  -1057  -1098  -1153  -1190  -1172  -1086  -947  -794  -656  -531  -423  -363  -376  -453  -550  -616  -626  -589  -539  -502  -463  -385  -281  -203  -175  -172  -172  -189  -260  -394  -539  -634  -652  -595  -485  -377  -315  -332  -451  -640  -810  -899  -910  -853  -726  -558  -419  -388  -526  -825  -1162  -1312  -994  29  1749  3748  5266  5521  4211  1759  -941  -2991  -3876  -3667  -2866  -2050  -1570  -1405  -1323  -1189  -1036  -909  -762  -525  -250  -79  -58  -114  -166  -189  -166  -61  136  354  498  548  549  538  535  560  637  759  895  1032  1165  1276  1350  1405  1487  1631  1815  1963  2025  2003  1922  1786  1616  1469  1377  1322  1264  1153  961  740  579  485  364  136  -167  -438  -616  -714  -735  -667  -542  -432  -374  -365  -394  -445  -492  -526  -566  -624  -661  -643  -598  -556  -526  -526  -539  -526  -472  -387  -310  -267  -254  -249  -222  -161  -92  -22  63  165  243  251  197  136  90  39  -29  -94  -130  -147  -189  -291  -433  -554  -621  -645  -649  -646  -651  -673  -712  -766  -836  -900  -940  -964  -999  -1075  -1108  -801  181  1898  3963  5532  5693  4183  1631  -937  -2611  -2970  -2338  -1486  -994  -917  -1008  -1074  -1061  -973  -831  -675  -544  -446  -361  -265  -149  -14  114  208  263  321  418  542  642  695  714  721  724  725  739  794  898  1016  1105  1153  1183  1221  1284  1383  1517  1645  1720  1742  1734  1704  1641  1534  1395  1245  1072  861  603  281  -65  -333  -476  -545  -612  -679  -711  -732  -812  -952  -1080  -1161  -1211  -1232  -1182  -1023  -807  -651  -603  -613  -618  -589  -535  -483  -450  -438  -439  -455  -498  -573  -651  -698  -713  -710  -699  -682  -650  -576  -438  -246  -48  88  144  131  50  -96  -264  -406  -507  -567  -591  -573  -497  -361  -202  -94  -131  -333  -598  -782  -821  -767  -694  -603  -473  -360  -341  -474  -853  -1391  -1653  -1189  182  2300  4532  5988  5999  4385  1605  -1291  -3289  -4010  -3676  -2800  -1912  -1288  -913  -692  -582  -556  -573  -575  -482  -249  43  243  268  142  -53  -214  -272  -199  -6  221  370  421  467  594  794  979  1086  1130  1151  1170  1203  1281  1431  1654  1899  2064  2057  1868  1604  1419  1364  1364  1318  1171  949  746  624  547  440  289  155  78  24  -76  -260  -468  -606  -658  -670  -675  -683  -695  -714  -731  -740  -760  -824  -923  -988  -958  -849  -724  -618  -531  -473  -452  -454  -469  -507  -581  -678  -769  -835  -870  -876  -846  -772  -666  -555  -460  -411  -420  -455  -476  -477  -475  -485  -518  -561  -579  -553  -500  -458  -441  -443  -467  -516  -578  -632  -674  -714  -732  -714  -693  -703  -747  -807  -858  -903  -948  -974  -940  -867  -887  -1083  -1350  -1555  -1530  -986  270  2165  4323  5968  6219  4765  2120  -688  -2628  -3230  -2853  -2243  -1859  -1686  -1495  -1176  -829  -604  -537  -561  -594  -570  -441  -219  14  181  260  277  271  261  251  253  293  391  520  635  729  813  898  1012  1183  1389  1563  1655  1673  1666  1677  1735  1835  1938  1992  1943  1763  1522  1348  1285  1270  1245  1195  1109  961  764  583  475  442  438  393  251  32  -176  -309  -371  -400  -403  -361  -286  -234  -242  -290  -327  -324  -294  -257  -221  -195  -178  -175  -200  -267  -352  -411  -424  -414  -400  -358  -255  -107  13  57  31  -20  -74  -136  -200  -255  -284  -246  -145  -56  -45  -116  -221  -299  -332  -331  -286  -178  -39  38  0  -123  -258  -375  -493  -618  -710  -736  -698  -631  -581  -566  -572  -576  -563  -528  -489  -464  -458  -544  -804  -1091  -1047  -389  972  2844  4606  5492  5114  3600  1424  -750  -2321  -3057  -3111  -2773  -2341  -2004  -1739  -1458  -1184  -990  -870  -742  -533  -259  -20  102  121  88  37  -10  -46  -79  -110  -114  -61  63  226  366  452  512  579  661  783  965  1158  1299  1399  1496  1587  1654  1685  1683  1653  1607  1560  1533  1538  1563  1564  1476  1240  896  589  405  262  52  -211  -449  -623  -738  -795  -808  -799  -773  -730  -679  -650  -663  -708  -782  -873  -924  -889  -803  -729  -690  -666  -626  -572  -530  -513  -511  -510  -505  -499  -497  -506  -521  -532  -526  -511  -498  -489  -487  -485  -468  -430  -389  -375  -396  -423  -412  -369  -333  -297  -242  -197  -194  -224  -259  -298  -370  -470  -559  -625  -683  -730  -727  -631  -456  -286  -195  -196  -261  -343  -407  -492  -701  -1031  -1315  -1363  -1018  -158  1219  2982  4764  5901  5746  4132  1506  -1277  -3242  -3842  -3396  -2567  -1757  -1198  -967  -901  -820  -657  -428  -222  -118  -104  -130  -157  -177  -187  -178  -124  -13  137  278  349  333  300  325  414  517  599  687  815  948  1033  1097  1256  1575  1948  2191  2233  2136  2005  1913  1861  1806  1736  1668  1594  1495  1380  1262  1112  897  651  429  218  -7  -206  -334  -408  -477  -573  -687  -771  -768  -684  -588  -525  -490  -479  -498  -530  -536  -502  -455  -431  -441  -463  -481  -500  -523  -542  -550  -553  -557  -561  -562  -558  -559  -572  -576  -555  -531  -520  -508  -493  -480  -473  -480  -512  -575  -652  -710  -725  -695  -629  -550  -493  -470  -467  -467  -460  -447  -436  -431  -439  -465  -503  -526  -505  -435  -366  -387  -527  -716  -871  -978  -1060  -1115  -1124  -1063  -925  -730  -553  -509  -686  -1039  -1316  -1079  58  2091  4497  6370  6788  5425  2781  -199  -2576  -3809  -3947  -3394  -2632  -2017  -1585  -1212  -913  -769  -722  -624  -400  -134  41  90  55  -21  -92  -66  118  384  559  566  479  400  358  334  331  393  570  832  1084  1270  1408  1546  1709  1865  1960  1979  1956  1928  1916  1921  1942  1974  1983  1932  1828  1673  1451  1179  902  644  409  228  132  87  5  -183  -438  -642  -735  -752  -742  -732  -723  -714  -713  -745  -830  -937  -991  -933  -766  -555  -386  -306  -301  -324  -349  -380  -436  -513  -582  -620  -628  -617  -593  -562  -522  -480  -448  -429  -423  -438  -498  -614  -746  -825  -797  -645  -431  -265  -198  -202  -235  -281  -331  -362  -364  -362  -380  -411  -428  -417  -388  -351  -310  -285  -327  -478  -695  -861  -898  -832  -736  -663  -615  -584  -572  -570  -571  -584  -618  -666  -710  -751  -800  -828  -750  -586  -551  -778  -1121  -1305  -991  133  2014  4115  5714  6194  5230  3059  475  -1696  -3008  -3375  -2994  -2312  -1724  -1309  -1038  -895  -802  -666  -463  -243  -62  64  150  214  270  311  336  363  403  454  520  595  660  710  745  766  788  837  917  1011  1108  1206  1308  1423  1560  1730  1928  2109  2208  2207  2142  2073  2034  2002  1908  1699  1417  1151  906  656  440  286  160  29  -94  -185  -259  -380  -575  -778  -905  -949  -952  -946  -925  -870  -791  -723  -685  -666  -642  -586  -503  -429  -380  -344  -320  -317  -322  -305  -260  -218  -203  -204  -206  -210  -229  -266  -306  -324  -304  -252  -192  -155  -175  -274  -433  -579  -649  -614  -469  -265  -100  -33  -69  -221  -473  -722  -849  -829  -729  -627  -554  -502  -463  -458  -510  -587  -641  -664  -676  -684  -646  -503  -272  -66  18  -6  -67  -130  -256  -521  -853  -1064  -1045  -830  -540  -315  -210  -224  -423  -852  -1261  -1095  66  2161  4588  6338  6493  4870  2127  -679  -2672  -3495  -3348  -2738  -2070  -1473  -990  -687  -539  -439  -335  -264  -256  -286  -305  -248  -61  233  512  627  551  408  328  333  395  510  652  766  854  966  1100  1191  1215  1219  1275  1414  1607  1786  1906  1978  2027  2060  2071  2049  1963  1791  1578  1416  1346  1329  1298  1175  901  525  190  -14  -135  -239  -330  -415  -539  -709  -862  -963  -1051  -1152  -1240  -1285  -1297  -1299  -1299  -1285  -1236  -1149  -1049  -964  -910  -867  -803  -707  -597  -497  -426  -391  -383  -384  -383  -392  -445  -570  -741  -884  -950  -935  -856  -756  -685  -663  -672  -698  -735  -770  -768  -691  -531  -344  -213  -172  -219  -350  -518  -639  -676  -657  -618  -588  -575  -567  -557  -545  -529  -494  -420  -319  -233  -185  -184  -228  -279  -304  -324  -367  -437  -516  -566  -578  -574  -559  -549  -579  -639  -703  -762  -814  -859  -890  -917  -1017  -1234  -1403  -1165  -257  1259  3064  4752  5779  5590  4122  1853  -573  -2475  -3324  -3136  -2414  -1681  -1205  -1018  -1001  -989  -880  -673  -431  -230  -106  -55  -54  -64  -57  -40  -27  1  100  284  485  627  696  722  728  734  767  845  958  1090  1246  1410  1522  1560  1565  1595  1684  1828  1980  2081  2116  2126  2146  2164  2108  1884  1511  1153  945  873  832  716  482  203  -3  -94  -128  -203  -361  -546  -663  -674  -602  -504  -437  -424  -448  -483  -509  -520  -517  -495  -460  -431  -421  -427  -441  -450  -442  -404  -325  -203  -77  -7  -14  -62  -99  -101  -85  -70  -64  -74  -123  -239  -417  -597  -712  -747  -717  -639  -533  -424  -335  -276  -243  -225  -212  -208  -240  -335  -471  -583  -627  -627  -650  -744  -885  -1003  -1048  -995  -815  -549  -316  -176  -92  -41  -36  -71  -119  -166  -212  -261  -317  -373  -422  -462  -491  -507  -525  -584  -702  -828  -904  -932  -934  -936  -928  -910  -982  -1183  -1256  -774  525  2543  4760  6301  6362  4787  2185  -499  -2479  -3352  -3232  -2648  -2082  -1695  -1458  -1307  -1196  -1100  -965  -735  -445  -180  37  216  319  339  323  313  311  313  323  354  401  454  515  589  692  823  933  980  981  965  946  937  978  1123  1375  1672  1942  2136  2217  2178  2061  1920  1799  1724  1666  1578  1455  1317  1148  897  564  252  79  32  -15  -166  -385  -551  -618  -653  -733  -850  -927  -910  -830  -758  -732  -747  -778  -801  -809  -820  -847  -866  -849  -794  -724  -666  -639  -628  -586  -486  -367  -306  -313  -334  -338  -330  -329  -344  -395  -511  -665  -782  -832  -837  -802  -705  -561  -431  -357  -325  -322  -346  -385  -418  -436  -440  -440  -435  -421  -391  -354  -321  -283  -225  -166  -165  -242  -337  -396  -424  -449  -478  -491  -462  -387  -305  -290  -394  -581  -752  -858  -928  -987  -1021  -1038  -1105  -1257  -1388  -1415  -1423  -1465  -1392  -986  -111  1298  3121  4829  5684  5263  3636  1240  -1192  -2918  -3626  -3528  -3053  -2553  -2169  -1855  -1524  -1184  -920  -778  -703  -601  -440  -250  -73  52  116  127  117  124  164  210  237  243  245  279  377  515  614  639  636  667  763  931  1154  1404  1659  1878  2033  2137  2195  2172  2042  1861  1723  1653  1611  1570  1510  1387  1157  843  527  285  145  67  -14  -121  -220  -277  -293  -284  -260  -223  -203  -278  -514  -838  -1078  -1163  -1150  -1089  -976  -813  -646  -528  -476  -469  -484  -506  -525  -546  -573  -609  -640  -635  -571  -463  -361  -304  -291  -309  -369  -493  -656  -782  -825  -808  -781  -775  -780  -770  -753  -750  -746  -691  -569  -421  -311  -265  -263  -272  -265  -237  -200  -174  -167  -175  -192  -205  -213  -217  -201  -155  -107  -86  -92  -115  -161  -233  -297  -316  -283  -241  -236  -235  -199  -203  -302  -438  -565  -677  -738  -765  -823  -878  -737  -110  1223  3158  5166  6476  6422  4846  2256  -443  -2377  -3119  -2844  -2100  -1414  -998  -793  -663  -526  -392  -300  -240  -174  -71  92  301  489  608  659  654  625  608  619  669  769  890  978  1010  1019  1054  1141  1263  1389  1512  1641  1777  1930  2124  2344  2528  2632  2665  2649  2581  2476  2367  2278  2213  2170  2133  2069  1948  1754  1490  1203  953  750  546  323  129  18  -21  -63  -170  -329  -454  -482  -431  -360  -289  -222  -168  -137  -129  -147  -173  -159  -73  63  180  240  263  277  284  254  146  -30  -193  -258  -209  -92  19  76  71  20  -54  -130  -195  -235  -245  -227  -196  -178  -192  -227  -259  -285  -318  -366  -408  -419  -388  -316  -223  -144  -101  -89  -75  -9  136  317  447  486  432  288  79  -129  -276  -342  -387  -481  -586  -649  -682  -713  -737  -748  -754  -757  -753  -727  -683  -637  -553  -401  -349  -601  -1086  -1518  -1486  -602  1143  3330  5289  6269  5780  3952  1437  -980  -2651  -3243  -2934  -2251  -1623  -1225  -1054  -997  -949  -863  -722  -553  -415  -335  -296  -281  -280  -288  -306  -329  -347  -353  -348  -327  -277  -193  -82  51  190  299  389  511  665  797  891  977  1065  1145  1208  1256  1293  1312  1307  1291  1280  1276  1257  1222  1183  1092  858  493  162  -3  -46  -116  -325  -659  -997  -1235  -1377  -1482  -1565  -1610  -1621  -1622  -1629  -1638  -1636  -1610  -1548  -1466  -1396  -1359  -1350  -1358  -1370  -1373  -1366  -1354  -1347  -1334  -1307  -1288  -1296  -1315  -1313  -1272  -1201  -1131  -1084  -1064  -1065  -1096  -1165  -1253  -1322  -1349  -1338  -1303  -1250  -1183  -1115  -1064  -1035  -1016  -994  -972  -964  -969  -977  -975  -966  -964  -968  -965  -958  -939  -877  -752  -589  -442  -348  -295  -258  -221  -190  -177  -212  -331  -521  -694  -763  -716  -613  -526  -488  -483  -497  -528  -577  -624  -648  -649  -648  -672  -705  -679  -576  -523  -690  -1046  -1189  -533  1152  3445  5496  6433  5727  3584  845  -1617  -3257  -3812  -3388  -2474  -1555  -879  -535  -465  -514  -585  -646  -691  -709  -673  -581  -463  -324  -162  -4  103  150  153  138  126  137  202  341  521  678  780  834  855  855  854  889  990  1136  1279  1400  1529  1715  1977  2250  2407  2344  2036  1620  1320  1212  1202  1202  1188  1127  968  712  426  185  8  -147  -324  -505  -636  -688  -678  -646  -618  -599  -586  -578  -576  -596  -651  -719  -736  -648  -463  -278  -208  -257  -333  -374  -379  -354  -291  -206  -133  -90  -68  -65  -106  -228  -424  -614  -713  -709  -657  -606  -565  -533  -512  -500  -482  -451  -413  -382  -363  -351  -355  -414  -537  -635  -588  -423  -276  -216  -195  -148  -56  48  125  162  175  184  204  237  271  285  244  117  -60  -197  -250  -248  -234  -237  -276  -361  -455  -489  -411  -247  -131  -219  -538  -909  -1020  -579  560  2317  4331  6040  6801  6107  4017  1287  -1167  -2721  -3123  -2628  -1842  -1244  -937  -787  -636  -429  -215  -64  25  97  179  270  350  395  399  387  392  450  588  768  905  963  974  978  994  1024  1072  1148  1264  1403  1529  1628  1719  1816  1938  2105  2293  2442  2521  2546  2548  2542  2528  2492  2418  2302  2162  2019  1879  1731  1542  1293  1026  811  657  495  232  -118  -424  -590  -645  -652  -650  -653  -661  -647  -579  -458  -342  -291  -317  -369  -410  -443  -483  -535  -591  -630  -627  -588  -545  -530  -544  -560  -543  -456  -284  -80  67  116  66  -86  -304  -495  -601  -636  -636  -624  -614  -611  -612  -614  -613  -602  -571  -532  -503  -489  -473  -441  -390  -317  -244  -214  -247  -306  -338  -331  -309  -291  -276  -262  -260  -300  -407  -562  -699  -764  -765  -743  -721  -703  -695  -709  -744  -785  -809  -760  -609  -500  -668  -1112  -1541  -1550  -800  734  2708  4621  5901  5961  4598  2229  -396  -2523  -3594  -3597  -3037  -2356  -1714  -1227  -967  -821  -622  -349  -110  10  40  46  64  84  68  -13  -127  -193  -141  -5  104  148  201  365  651  950  1150  1238  1256  1245  1229  1214  1202  1206  1262  1394  1564  1698  1778  1834  1882  1892  1850  1797  1777  1793  1803  1720  1465  1081  706  439  298  246  211  132  23  -57  -98  -145  -232  -381  -599  -834  -987  -1032  -1020  -1000  -984  -984  -1019  -1093  -1173  -1224  -1241  -1241  -1227  -1184  -1109  -1026  -949  -870  -771  -657  -559  -510  -504  -520  -544  -566  -577  -571  -577  -664  -871  -1107  -1216  -1156  -1021  -905  -845  -827  -817  -797  -769  -739  -698  -633  -568  -552  -604  -711  -861  -1023  -1131  -1152  -1106  -1039  -992  -999  -1075  -1203  -1341  -1453  -1509  -1486  -1383  -1238  -1107  -1008  -978  -1104  -1397  -1710  -1784  -1311  -135  1551  3312  4632  5004  4187  2432  300  -1650  -3023  -3679  -3704  -3299  -2757  -2329  -2041  -1800  -1562  -1311  -1047  -812  -647  -551  -494  -449  -389  -317  -251  -191  -132  -74  -6  111  310  540  693  731  714  725  819  984  1162  1300  1392  1468  1565  1693  1832  1965  2083  2212  2394  2610  2758  2736  2523  2221  1973  1808  1665  1504  1282  947  553  222  -10  -174  -267  -293  -296  -319  -368  -419  -443  -443  -431  -419  -412  -410  -405  -399  -396  -398  -402  -405  -416  -446  -493  -512  -435  -266  -85  45  111  108  19  -156  -357  -501  -561  -551  -491  -409  -348  -319  -304  -292  -278  -262  -247  -240  -238  -241  -262  -312  -376  -428  -458  -426  -287  -97  37  83  67  18  -67  -187  -295  -337  -318  -284  -256  -227  -205  -226  -309  -412  -480  -509  -547  -648  -800  -926  -980  -990  -994  -1027  -1112  -1176  -985  -273  1060  2856  4688  5948  6065  4861  2717  311  -1638  -2669  -2872  -2635  -2276  -1962  -1635  -1197  -772  -529  -459  -457  -457  -440  -383  -249  -26  227  432  557  634  711  794  836  784  665  571  562  633  744  855  953  1061  1217  1435  1670  1866  2013  2132  2223  2273  2272  2232  2177  2109  2007  1885  1800  1779  1784  1752  1639  1455  1236  987  695  383  107  -87  -216  -328  -449  -557  -619  -646  -677  -736  -813  -892  -957  -995  -995  -951  -886  -831  -797  -779  -746  -667  -562  -495  -492  -520  -548  -576  -607  -648  -713  -789  -850  -886  -898  -888  -868  -855  -852  -860  -872  -875  -856  -815  -777  -767  -777  -783  -783  -799  -840  -876  -846  -723  -566  -450  -397  -388  -392  -381  -341  -273  -212  -215  -313  -490  -680  -802  -826  -781  -714  -663  -643  -644  -649  -647  -633  -608  -586  -575  -572  -565  -537  -471  -366  -244  -207  -390  -725  -784  -32  1679  3892  5713  6224  5097  2831  334  -1616  -2659  -2855  -2489  -1906  -1359  -913  -559  -333  -230  -189  -164  -139  -115  -93  -70  -46  -20  6  33  60  111  219  374  520  625  698  753  802  865  961  1082  1199  1307  1409  1490  1581  1762  2032  2265  2354  2329  2270  2221  2203  2212  2202  2114  1907  1605  1319  1158  1112  1085  1005  880  747  592  372  84  -194  -362  -403  -380  -365  -410  -526  -662  -731  -708  -645  -584  -518  -447  -397  -390  -450  -563  -668  -710  -680  -589  -477  -397  -363  -346  -329  -314  -302  -283  -255  -225  -212  -226  -252  -268  -268  -264  -289  -365  -472  -556  -591  -601  -614  -629  -614  -531  -400  -305  -296  -330  -351  -350  -339  -329  -309  -260  -187  -125  -99  -121  -199  -311  -421  -512  -550  -482  -335  -211  -162  -160  -170  -196  -256  -340  -402  -404  -346  -261  -186  -137  -115  -131  -208  -342  -492  -610  -669  -661  -589  -484  -390  -329  -302  -305  -342  -415  -502  -567  -599  -611  -618  -594  -493  -348  -353  -670  -1199  -1656  -1698  -1024  446  2509  4690  6280  6585  5314  2878  174  -2008  -3226  -3417  -2949  -2299  -1727  -1325  -1084  -916  -749  -594  -502  -475  -453  -377  -233  -77  21  47  38  34  65  138  228  300  346  386  449  548  661  750  791  800  815  867  981  1181  1463  1747  1927  1981  1969  1948  1933  1915  1874  1809  1737  1686  1661  1625  1499  1228  853  513  309  219  158  83  4  -79  -180  -304  -438  -561  -651  -695  -706  -718  -757  -820  -889  -959  -1043  -1134  -1182  -1129  -938  -645  -368  -209  -167  -175  -191  -224  -295  -388  -453  -473  -469  -463  -454  -444  -464  -556  -714  -858  -905  -865  -801  -751  -716  -688  -630  -496  -312  -178  -148  -187  -262  -371  -497  -601  -668  -705  -711  -687  -650  -640  -681  -760  -839  -880  -858  -785  -700  -617  -516  -389  -268  -203  -225  -333  -478  -583  -617  -606  -579  -551  -539  -564  -641  -778  -942  -1060  -1060  -928  -716  -499  -335  -267  -297  -371  -420  -427  -434  -524  -761  -1109  -1445  -1653  -1630  -1267  -524  575  1993  3539  4756  5123  4347  2537  248  -1763  -2959  -3252  -2941  -2428  -1962  -1571  -1186  -818  -563  -472  -474  -461  -376  -235  -98  -7  37  57  84  132  196  268  362  491  627  718  750  753  752  746  735  748  842  1063  1397  1757  2037  2201  2287  2350  2428  2519  2589  2621  2617  2556  2409  2217  2071  1980  1852  1600  1248  923  718  592  445  215  -59  -277  -391  -440  -464  -475  -477  -484  -509  -542  -568  -594  -628  -666  -686  -674  -633  -570  -502  -450  -433  -440  -442  -417  -366  -309  -259  -228  -229  -251  -268  -266  -267  -306  -387  -472  -530  -560  -571  -570  -555  -516  -448  -369  -305  -267  -256  -278  -324  -380  -452  -531  -589  -615  -623  -620  -597  -550  -507  -494  -507  -521  -508  -467  -436  -420  -392  -338  -275  -223  -172  -90  14  114  209  300  352  310  123  -214  -598  -862  -950  -915  -794  -612  -440  -351  -343  -361  -375  -394  -431  -471  -493  -482  -455  -498  -720  -1143  -1581  -1567  -659  1152  3401  5325  6125  5424  3559  1262  -850  -2346  -2971  -2860  -2356  -1699  -1132  -881  -899  -964  -925  -745  -470  -212  -50  27  80  137  183  200  194  176  151  124  105  115  173  279  413  560  725  919  1140  1334  1443  1471  1473  1527  1681  1900  2094  2211  2259  2272  2271  2246  2152  1963  1735  1565  1480  1426  1353  1212  938  555  223  55  4  -44  -160  -328  -473  -546  -583  -615  -632  -637  -660  -742  -892  -1056  -1161  -1194  -1184  -1147  -1081  -1006  -956  -949  -979  -1026  -1070  -1092  -1052  -896  -638  -382  -238  -242  -367  -539  -676  -738  -744  -732  -727  -737  -764  -808  -863  -913  -946  -954  -928  -855  -738  -613  -537  -544  -633  -759  -852  -868  -799  -662  -519  -430  -402  -402  -413  -450  -513  -554  -527  -449  -380  -365  -394  -410  -384  -327  -242  -140  -46  27  74  77  7  -150  -338  -468  -518  -528  -523  -504  -474  -447  -430  -410  -374  -355  -471  -831  -1305  -1536  -1356  -989  -622  -37  1104  2851  4886  6530  6872  5449  2817  85  -1874  -2646  -2420  -1917  -1675  -1649  -1574  -1318  -922  -544  -288  -138  -35  53  133  196  245  284  312  327  335  342  348  347  343  342  347  370  440  574  765  984  1181  1316  1390  1440  1521  1695  1986  2327  2592  2720  2750  2725  2649  2530  2398  2263  2116  1967  1871  1856  1865  1759  1412  888  433  200  120  29  -173  -444  -652  -744  -780  -820  -859  -865  -832  -813  -855  -933  -990  -997  -950  -884  -843  -839  -846  -838  -814  -783  -728  -621  -483  -376  -329  -330  -384  -511  -681  -799  -801  -712  -605  -537  -513  -505  -503  -529  -590  -665  -737  -803  -870  -932  -946  -894  -815  -751  -726  -738  -743  -706  -644  -599  -584  -578  -557  -505  -427  -349  -313  -346  -419  -466  -460  -443  -455  -480  -485  -469  -458  -453  -405  -302  -196  -126  -89  -79  -100  -136  -162  -174  -190  -222  -239  -207  -151  -134  -171  -223  -266  -308  -374  -469  -562  -622  -638  -611  -561  -519  -477  -408  -348  -405  -621  -918  -1094  -787  285  2026  4026  5690  6283  5387  3353  918  -1319  -2849  -3386  -3176  -2647  -2019  -1460  -1116  -937  -774  -596  -472  -432  -418  -359  -248  -135  -61  -19  22  64  89  92  93  117  179  259  320  372  466  623  808  966  1066  1118  1152  1207  1316  1512  1816  2163  2417  2506  2461  2336  2174  2017  1893  1784  1658  1528  1433  1369  1275  1104  896  737  645  552  407  229  55  -106  -279  -469  -637  -740  -774  -758  -710  -655  -628  -670  -813  -1013  -1151  -1159  -1096  -1020  -926  -811  -706  -640  -618  -635  -687  -774  -872  -941  -959  -929  -858  -768  -690  -636  -613  -623  -647  -665  -669  -663  -661  -670  -688  -702  -710  -714  -716  -721  -744  -794  -847  -863  -822  -753  -701  -679  -663  -626  -572  -533  -522  -525  -519  -492  -458  -466  -557  -707  -843  -917  -936  -914  -849  -740  -620  -536  -503  -502  -511  -521  -534  -540  -528  -509  -498  -498  -507  -520  -521  -481  -372  -224  -105  -51  -57  -109  -181  -237  -262  -270  -268  -249  -209  -162  -129  -115  -115  -134  -187  -268  -346  -396  -417  -412  -393  -399  -487  -651  -859  -1128  -1330  -1091  -113  1583  3610  5278  5892  5146  3338  1147  -808  -2127  -2657  -2564  -2165  -1704  -1313  -1015  -729  -431  -216  -142  -152  -171  -155  -85  28  139  213  270  340  402  415  397  394  409  436  520  708  974  1214  1352  1411  1469  1547  1632  1729  1854  1988  2115  2254  2404  2516  2562  2568  2574  2596  2611  2579  2473  2308  2121  1935  1752  1567  1379  1196  1001  747  425  119  -79  -176  -234  -290  -359  -471  -639  -814  -942  -1005  -999  -920  -779  -624  -513  -444  -374  -312  -309  -364  -420  -451  -482  -535  -595  -638  -653  -633  -575  -494  -418  -355  -313  -315  -354  -394  -411  -412  -406  -396  -386  -398  -455  -546  -624  -659  -663  -660  -663  -678  -702  -725  -737  -738  -732  -707  -645  -560  -496  -473  -475  -481  -499  -550  -628  -695  -705  -650  -567  -502  -454  -392  -289  -149  -14  63  62  -8  -122  -230  -302  -345  -402  -513  -651  -742  -766  -757  -749  -746  -736  -697  -611  -494  -384  -287  -192  -147  -253  -564  -951  -1106  -748  263  1856  3669  5157  5754  5105  3366  1091  -1109  -2691  -3353  -3203  -2590  -1898  -1399  -1137  -990  -842  -681  -538  -398  -227  -46  80  129  129  115  105  118  172  264  352  401  410  401  391  400  450  546  674  821  1012  1280  1576  1774  1828  1812  1817  1893  2018  2143  2244  2324  2374  2377  2307  2154  1967  1827  1762  1711  1580  1320  983  690  510  382  173  -182  -586  -873  -1007  -1070  -1126  -1186  -1249  -1306  -1330  -1280  -1142  -958  -799  -694  -627  -581  -559  -558  -575  -608  -664  -743  -800  -792  -771  -820  -925  -1016  -1062  -1076  -1086  -1103  -1109  -1067  -937  -715  -474  -320  -318  -456  -652  -791  -827  -796  -750  -720  -712  -714  -717  -718  -722  -731  -745  -759  -768  -765  -736  -672  -603  -596  -695  -856  -986  -1034  -988  -839  -625  -429  -279  -139  0  93  99  6  -150  -302  -398  -446  -476  -499  -522  -552  -595  -653  -714  -757  -773  -776  -776  -773  -758  -728  -686  -627  -549  -491  -540  -716  -819  -461  594  2229  4062  5507  5991  5359  3853  1858  -146  -1697  -2519  -2604  -2184  -1574  -1033  -676  -471  -314  -141  25  137  175  164  149  170  258  416  603  741  794  792  788  827  936  1120  1339  1517  1616  1666  1708  1750  1783  1813  1867  1980  2157  2356  2509  2596  2656  2704  2725  2744  2815  2934  3058  3139  3135  3051  2908  2664  2270  1829  1514  1351  1211  1031  863  739  592  357  70  -169  -315  -377  -376  -358  -369  -401  -408  -359  -255  -123  -1  71  87  67  23  -53  -168  -290  -370  -398  -405  -416  -427  -401  -300  -153  -33  27  53  57  1  -160  -382  -545  -588  -539  -449  -355  -298  -308  -377  -452  -499  -536  -592  -659  -725  -815  -931  -1008  -993  -920  -863  -863  -927  -1042  -1171  -1255  -1265  -1211  -1107  -978  -850  -722  -593  -490  -434  -437  -487  -549  -611  -713  -887  -1093  -1249  -1324  -1342  -1318  -1253  -1186  -1182  -1303  -1538  -1781  -1932  -1974  -1909  -1709  -1370  -967  -676  -731  -1217  -1873  -2213  -1783  -354  1850  4088  5413  5127  3223  481  -2038  -3574  -3930  -3480  -2865  -2498  -2316  -2061  -1693  -1401  -1281  -1228  -1132  -984  -821  -682  -607  -624  -747  -950  -1142  -1242  -1220  -1081  -872  -668  -512  -388  -270  -160  -85  -43  10  134  342  572  738  830  915  1070  1280  1448  1516  1508  1463  1401  1334  1277  1235  1206  1186  1162  1122  1063  984  864  668  386  52  -261  -482  -599  -658  -703  -758  -837  -941  -1058  -1160  -1217  -1213  -1136  -964  -745  -588  -539  -555  -583  -607  -633  -662  -665  -612  -514  -415  -355  -349  -377  -419  -473  -550  -634  -671  -597  -405  -184  -57  -69  -152  -219  -240  -237  -244  -273  -301  -305  -299  -315  -350  -378  -375  -316  -208  -103  -45  -29  -27  -33  -76  -166  -265  -358  -442  -438  -318  -175  -84  -51  -49  -35  35  156  276  363  424  461  463  419  317  161  -8  -128  -161  -106  27  189  304  341  318  242  114  -36  -147  -190  -224  -309  -422  -531  -656  -790  -880  -887  -835  -792  -799  -679  12  1573  3707  5699  6796  6462  4748  2378  222  -1191  -1746  -1667  -1380  -1204  -1160  -1120  -979  -697  -313  48  265  319  282  229  210  255  389  599  817  966  1025  1027  1004  958  893  825  780  777  845  1016  1245  1428  1523  1588  1725  1990  2313  2546  2636  2644  2635  2630  2629  2624  2608  2573  2511  2419  2313  2210  2098  1931  1676  1389  1148  903  542  111  -194  -295  -280  -246  -236  -272  -366  -494  -617  -734  -842  -901  -885  -830  -784  -746  -680  -586  -515  -518  -612  -771  -927  -1030  -1074  -1059  -977  -837  -683  -566  -504  -482  -479  -490  -520  -575  -640  -679  -671  -625  -562  -501  -466  -487  -579  -708  -799  -802  -715  -590  -501  -495  -570  -690  -793  -839  -807  -680  -477  -284  -205  -279  -447  -603  -685  -692  -633  -505  -342  -210  -147  -138  -162  -222  -314  -416  -505  -560  -570  -562  -589  -675  -797  -893  -912  -860  -775  -687  -610  -545  -488  -475  -579  -790  -990  -1016  -603  483  2115  3832  5041  5185  4104  2174  26  -1757  -2800  -3040  -2749  -2348  -2041  -1713  -1260  -839  -610  -512  -409  -259  -111  -14  27  36  36  35  33  25  24  92  285  548  742  805  789  754  731  749  851  1042  1257  1424  1532  1610  1670  1718  1794  1942  2130  2268  2313  2297  2254  2209  2183  2187  2208  2197  2083  1821  1440  1012  598  253  39  -37  -49  -95  -232  -438  -656  -851  -993  -1063  -1080  -1078  -1076  -1075  -1074  -1082  -1112  -1155  -1175  -1131  -1015  -862  -728  -640  -606  -617  -645  -670  -693  -721  -740  -741  -734  -712  -658  -574  -473  -396  -405  -513  -669  -810  -888  -905  -897  -890  -876  -841  -793  -763  -774  -814  -840  -812  -743  -674  -640  -635  -617  -562  -491  -432  -402  -398  -409  -425  -438  -442  -430  -394  -341  -292  -271  -287  -330  -390  -455  -517  -564  -587  -591  -585  -571  -550  -530  -523  -530  -533  -523  -563  -764  -1117  -1430  -1501  -1236  -569  585  2199  3984  5398  5798  4835  2820  509  -1416  -2574  -2939  -2818  -2521  -2134  -1668  -1207  -861  -662  -560  -467  -333  -194  -72  56  149  106  -41  -159  -169  -82  59  215  353  448  493  520  568  663  831  1063  1289  1436  1518  1595  1704  1865  2086  2324  2509  2607  2635  2633  2625  2615  2595  2572  2544  2478  2330  2087  1785  1497  1293  1193  1147  1064  864  546  229  44  1  22  46  51  26  -36  -116  -182  -221  -230  -213  -190  -182  -194  -208  -194  -145  -102  -104  -154  -229  -298  -338  -357  -358  -319  -212  -66  53  113  126  122  118  116  98  36  -79  -214  -309  -343  -328  -287  -231  -185  -185  -229  -277  -303  -305  -281  -223  -150  -94  -73  -81  -123  -205  -296  -339  -325  -302  -307  -342  -394  -464  -527  -520  -388  -144  119  284  296  163  -53  -252  -368  -435  -530  -660  -759  -798  -809  -820  -835  -855  -883  -917  -947  -978  -1044  -1159  -1246  -1222  -1140  -1059  -820  -118  1241  3169  5199  6497  6284  4497  1832  -759  -2499  -3103  -2922  -2520  -2169  -1834  -1430  -1006  -692  -540  -475  -413  -337  -270  -225  -204  -198  -203  -226  -270  -293  -242  -129  -17  72  151  216  258  283  292  277  240  220  307  586  1003  1362  1539  1584  1610  1677  1776  1876  1966  2040  2076  2039  1896  1646  1340  1049  837  711  593  407  195  40  -103  -365  -730  -1025  -1152  -1173  -1173  -1176  -1177  -1179  -1196  -1244  -1346  -1519  -1712  -1808  -1743  -1585  -1450  -1387  -1379  -1394  -1420  -1458  -1494  -1476  -1367  -1216  -1147  -1217  -1348  -1427  -1435  -1420  -1409  -1393  -1351  -1274  -1185  -1123  -1104  -1114  -1140  -1169  -1190  -1203  -1214  -1226  -1233  -1233  -1227  -1223  -1222  -1222  -1225  -1238  -1246  -1231  -1201  -1176  -1166  -1167  -1170  -1164  -1139  -1102  -1077  -1094  -1152  -1178  -1091  -926  -806  -809  -912  -1013  -1007  -905  -806  -764  -761  -762  -754  -742  -733  -731  -733  -742  -771  -842  -958  -1083  -1140  -1076  -907  -702  -537  -455  -455  -515  -593  -648  -665  -657  -640  -618  -571  -487  -411  -474  -827  -1427  -1943  -1954  -1128  640  3070  5476  6994  6956  5300  2712  149  -1745  -2712  -2815  -2368  -1691  -1015  -520  -253  -106  31  168  254  277  282  321  406  495  556  613  715  867  1021  1127  1183  1231  1321  1463  1609  1709  1759  1779  1787  1799  1816  1834  1866  1937  2057  2201  2327  2442  2590  2798  3044  3279  3470  3599  3612  3438  3095  2716  2411  2163  1919  1683  1487  1328  1177  1022  889  802  761  714  606  454  336  288  281  272  249  220  180  107  -11  -156  -294  -379  -378  -285  -136  -3  69  99  120  141  158  163  155  141  130  125  130  145  168  185  175  118  21  -87  -188  -264  -288  -258  -215  -190  -169  -126  -60  0  21  5  -37  -108  -179  -210  -203  -182  -179  -231  -341  -441  -466  -435  -398  -350  -257  -130  -20  31  12  -80  -219  -337  -388  -374  -334  -309  -320  -351  -384  -415  -439  -434  -371  -231  -40  141  246  228  68  -189  -418  -507  -442  -293  -155  -83  -68  -75  -82  -82  -77  -72  -68  -66  -64  -57  -41  -21  -8  -9  -32  -83  -158  -231  -274  -291  -312  -348  -386  -437  -531  -647  -723  -732  -700  -682  -749  -918  -1042  -817  60  1682  3717  5439  6120  5408  3533  1206  -868  -2236  -2730  -2602  -2250  -1875  -1556  -1360  -1256  -1125  -896  -595  -301  -83  20  14  -68  -175  -249  -265  -236  -186  -133  -74  -9  22  -11  -79  -129  -133  -70  70  302  612  914  1109  1183  1224  1333  1518  1697  1810  1865  1884  1885  1894  1912  1899  1805  1604  1338  1084  874  718  639  621  586  447  174  -178  -495  -678  -723  -695  -660  -679  -820  -1091  -1386  -1572  -1621  -1566  -1432  -1271  -1180  -1209  -1318  -1427  -1480  -1474  -1434  -1390  -1366  -1383  -1428  -1469  -1492  -1509  -1530  -1558  -1579  -1540  -1381  -1127  -916  -867  -977  -1164  -1343  -1455  -1477  -1405  -1246  -1068  -989  -1076  -1273  -1458  -1554  -1581  -1572  -1508  -1350  -1142  -985  -930  -935  -947  -940  -915  -896  -909  -949  -984  -990  -976  -963  -955  -940  -900  -825  -718  -614  -545  -500  -463  -434  -415  -406  -419  -482  -604  -771  -963  -1150  -1294  -1370  -1393  -1392  -1381  -1351  -1291  -1200  -1100  -1023  -987  -980  -974  -946  -930  -1035  -1289  -1497  -1419  -915  106  1603  3303  4776  5428  4776  2969  648  -1592  -3233  -3897  -3730  -3212  -2640  -2088  -1599  -1219  -926  -667  -460  -361  -351  -348  -273  -110  84  241  326  343  347  385  436  464  482  526  625  789  995  1221  1451  1640  1741  1770  1783  1810  1860  1947  2074  2228  2425  2681  2947  3134  3207  3210  3200  3203  3205  3190  3164  3140  3123  3104  3039  2836  2453  1999  1620  1356  1182  1090  1061  1058]
