reading_id,reading_time,wire_id,result_classification,heart_rate,heart_rate_alert,firmware_version,device_app_version,hardware_version,waveform_samples
e804a380-622a-11ed-8080-808080808080,Sat Nov 12 01:39:53 UTC 2022,a101e3f91939,UNCLASSIFIABLE,104,NONE,20001.171.50,2.10.0,Charge 5,[-12718  -12850  -12758  -12176  -11034  -9659  -8542  -7883  -7420  -6776  -5847  -4718  -3533  -2510  -1614  -458  1202  3410  6026  8356  9474  8941  7020  4501  2397  1475  1813  2856  3949  4828  5697  6759  7848  8693  9239  9593  9877  10150  10445  10856  11446  12089  12571  12833  12954  13004  13039  13129  13335  13647  13987  14256  14408  14524  14764  15187  15688  16141  16506  16801  17054  17282  17489  17687  17899  18121  18332  18523  18671  18703  18528  18138  17681  17322  17078  16896  16772  16655  16356  15712  14855  14140  13778  13688  13690  13682  13678  13708  13750  13779  13812  13872  13897  13684  13051  12177  11520  11281  11291  11345  11385  11417  11422  11316  11009  10537  10088  9830  9744  9695  9588  9434  9273  9099  8883  8664  8508  8424  8370  8297  8178  8053  8004  8057  8125  8110  7962  7665  7288  6981  6785  6611  6418  6248  6109  5955  5770  5578  5388  5192  5001  4827  4689  4623  4615  4546  4280  3828  3340  2923  2668  2767  3409  4654  6338  7905  8512  7601  5303  2302  -470  -2208  -2656  -2219  -1493  -807  -310  -111  -148  -242  -283  -278  -311  -428  -574  -669  -693  -683  -690  -749  -852  -963  -1071  -1199  -1340  -1457  -1533  -1573  -1586  -1578  -1546  -1487  -1412  -1347  -1301  -1274  -1268  -1290  -1333  -1372  -1386  -1415  -1560  -1887  -2321  -2702  -2950  -3127  -3366  -3753  -4231  -4631  -4828  -4852  -4828  -4878  -5069  -5359  -5620  -5768  -5800  -5761  -5727  -5740  -5781  -5819  -5842  -5853  -5854  -5861  -5901  -5986  -6066  -6093  -6094  -6133  -6241  -6363  -6433  -6443  -6431  -6429  -6450  -6469  -6458  -6451  -6525  -6693  -6873  -6978  -6968  -6843  -6621  -6345  -6086  -5878  -5675  -5398  -5076  -4837  -4751  -4763  -4764  -4663  -4441  -4182  -3995  -3895  -3826  -3751  -3671  -3566  -3384  -3071  -2643  -2240  -2014  -1985  -2047  -2006  -1729  -1351  -1104  -990  -788  -243  856  2502  4198  5158  4907  3513  1408  -695  -2079  -2533  -2332  -1816  -1300  -1008  -878  -697  -393  -90  99  195  251  265  226  179  222  474  945  1444  1729  1754  1656  1571  1534  1519  1502  1475  1431  1377  1350  1401  1544  1729  1870  1931  1936  1907  1842  1758  1695  1676  1679  1638  1484  1235  976  746  513  262  16  -228  -508  -824  -1103  -1264  -1311  -1302  -1272  -1229  -1188  -1168  -1167  -1151  -1073  -922  -744  -582  -433  -295  -196  -140  -110  -126  -229  -410  -587  -692  -726  -722  -705  -683  -660  -644  -635  -626  -607  -559  -474  -385  -331  -329  -400  -516  -590  -579  -514  -456  -443  -448  -423  -359  -288  -241  -227  -249  -306  -378  -436  -482  -547  -630  -672  -644  -596  -580  -580  -544  -477  -490  -629  -674  -234  952  2757  4535  5325  4489  2249  -561  -3085  -4657  -5022  -4527  -3722  -2934  -2343  -2046  -1968  -1963  -1938  -1845  -1657  -1401  -1166  -1017  -938  -880  -805  -678  -510  -367  -288  -258  -234  -180  -86  27  137  255  401  573  786  1079  1437  1762  1983  2136  2284  2431  2536  2573  2518  2327  2030  1748  1561  1434  1290  1068  756  410  110  -115  -280  -392  -448  -493  -620  -880  -1212  -1513  -1724  -1828  -1830  -1751  -1635  -1557  -1579  -1704  -1901  -2115  -2284  -2376  -2413  -2436  -2451  -2426  -2331  -2169  -2001  -1904  -1903  -1953  -1986  -1962  -1903  -1854  -1829  -1814  -1789  -1756  -1724  -1686  -1619  -1512  -1387  -1280  -1215  -1192  -1208  -1256  -1319  -1369  -1395  -1413  -1456  -1578  -1784  -1981  -2050  -1949  -1764  -1635  -1610  -1643  -1698  -1762  -1810  -1773  -1585  -1286  -983  -706  -309  506  1891  3604  5041  5427  4275  1902  -797  -3074  -4518  -4969  -4623  -3821  -2777  -1781  -1162  -942  -876  -778  -638  -529  -484  -481  -491  -498  -504  -504  -479  -399  -249  -38  230  518  763  966  1171  1384  1600  1838  2132  2491  2850  3122  3293  3402  3479  3548  3636  3720  3758  3755  3729  3653  3486  3246  2991  2771  2632  2594  2581  2495  2336  2166  2014  1890  1809  1769  1743  1716  1698  1701  1716  1728  1743  1766  1804  1864  1938  2006  2065  2127  2189  2235  2258  2260  2217  2103  1958  1871  1868  1900  1914  1892  1836  1767  1706  1666  1635  1599  1577  1603  1688  1817  1956  2058  2102  2142  2239  2355  2384  2309  2219  2159  2045  1750  1321  977  843  852  880  832  655  382  151  107  292  599  867  1018  1021  750  101  -748  -1345  -1263  -312  1423  3559  5453  6438  6052  4261  1602  -1098  -3206  -4348  -4367  -3539  -2439  -1489  -884  -675  -724  -825  -886  -910  -918  -918  -887  -794  -666  -568  -519  -464  -353  -181  1  133  202  249  302  371  463  584  713  807  853  866  852  815  772  761  814  917  1019  1087  1129  1155  1133  995  728  428  200  61  -27  -97  -191  -349  -576  -816  -995  -1083  -1096  -1069  -1045  -1046  -1060  -1065  -1055  -1041  -1034  -1047  -1081  -1119  -1141  -1146  -1145  -1137  -1127  -1117  -1106  -1103  -1110  -1128  -1160  -1217  -1305  -1411  -1501  -1538  -1500  -1403  -1284  -1178  -1104  -1080  -1155  -1364  -1647  -1881  -1985  -1941  -1776  -1578  -1444  -1400  -1405  -1417  -1434  -1472  -1524  -1564  -1576  -1563  -1537  -1528  -1589  -1760  -1988  -2164  -2240  -2261  -2285  -2329  -2368  -2383  -2388  -2429  -2533  -2676  -2809  -2905  -2956  -2973  -3004  -2990  -2707  -1908  -463  1464  3397  4742  4942  3741  1487  -1092  -3293  -4608  -4905  -4499  -3884  -3327  -2850  -2455  -2179  -2025  -1952  -1907  -1870  -1848  -1838  -1806  -1710  -1558  -1403  -1253  -1067  -850  -653  -493  -373  -289  -186  8  263  467  593  714  870  1048  1225  1375  1464  1485  1441  1329  1191  1097  1058  1000  861  669  501  366  208  0  -220  -425  -624  -799  -910  -976  -1088  -1306  -1567  -1747  -1806  -1799  -1781  -1769  -1764  -1761  -1759  -1754  -1749  -1763  -1816  -1900  -1979  -2044  -2114  -2191  -2265  -2318  -2313  -2222  -2065  -1900  -1794  -1765  -1784  -1812  -1809  -1699  -1426  -1062  -772  -628  -585  -580  -550  -424  -200  39  205  271  276  288  371  540  729  850  853  728  506  281  141  89  85  114  195  335  486  589  633  657  696  775  903  1015  951  608  111  -174  213  1571  3761  6202  8040  8401  6883  3917  524  -2229  -3634  -3646  -2868  -1950  -1151  -564  -254  -133  -54  75  288  520  669  714  710  721  774  849  903  930  968  1054  1176  1282  1335  1336  1301  1242  1179  1177  1360  1808  2393  2853  3060  3093  3071  3050  3023  2972  2902  2843  2810  2795  2782  2756  2682  2511  2210  1787  1296  865  613  533  521  506  486  453  359  186  -18  -180  -264  -290  -293  -295  -303  -314  -320  -315  -301  -281  -259  -233  -209  -240  -410  -733  -1087  -1338  -1466  -1527  -1557  -1564  -1558  -1549  -1550  -1585  -1657  -1704  -1627  -1404  -1113  -855  -714  -698  -737  -774  -804  -826  -807  -709  -556  -420  -342  -306  -275  -227  -165  -109  -57  24  146  258  308  314  336  386  432  418  304  116  -81  -254  -377  -422  -366  -226  -52  98  148  5  -273  -341  327  2112  4798  7489  8996  8413  5786  2252  -790  -2533  -2902  -2455  -2037  -1977  -1934  -1608  -1067  -539  -200  -23  154  370  531  587  584  582  599  629  652  658  652  638  627  645  731  889  1080  1290  1547  1816  2009  2120  2258  2547  2981  3393  3610  3569  3288  2891  2575  2433  2407  2398  2337  2187  1946  1626  1271  952  702  488  285  125  40  -9  -102  -244  -362  -399  -377  -347  -331  -326  -323  -319  -319  -328  -345  -361  -368  -369  -367  -353  -317  -265  -216  -178  -146  -115  -76  -18  48  97  114  117  135  171  199  206  202  200  208  227  250  273  307  368  456  542  592  597  566  510  431  321  180  38  -66  -133  -208  -335  -518  -744  -991  -1215  -1375  -1453  -1462  -1430  -1384  -1328  -1250  -1139  -979  -812  -693  -435  406  2067  4234  6104  6716  5540  2894  -282  -2957  -4430  -4654  -4099  -3292  -2573  -2018  -1555  -1198  -1007  -943  -929  -935  -958  -983  -979  -930  -842  -720  -549  -335  -138  -33  -10  52  281  658  1039  1299  1412  1426  1403  1380  1378  1430  1580  1838  2131  2336  2411  2407  2370  2299  2198  2091  1987  1863  1717  1573  1403  1153  860  607  383  133  -117  -311  -438  -512  -542  -544  -538  -537  -551  -584  -634  -693  -743  -769  -773  -782  -821  -883  -933  -957  -981  -1037  -1121  -1193  -1217  -1209  -1207  -1238  -1304  -1373  -1411  -1430  -1452  -1486  -1523  -1552  -1562  -1545  -1491  -1410  -1317  -1200  -1034  -843  -687  -594  -562  -604  -739  -928  -1080  -1156  -1206  -1277  -1362  -1428  -1469  -1494  -1510  -1543  -1622  -1733  -1819  -1841  -1793  -1698  -1636  -1691  -1850  -1964  -1810  -1173  72  1847  3780  5234  5508  4265  1777  -1208  -3754  -5197  -5491  -5053  -4394  -3865  -3518  -3180  -2752  -2284  -1847  -1478  -1211  -1081  -1078  -1146  -1222  -1267  -1268  -1226  -1152  -1067  -984  -897  -807  -728  -628  -452  -180  139  428  660  870  1090  1304  1463  1543  1576  1612  1667  1707  1679  1552  1359  1176  1056  976  874  709  480  218  -15  -151  -179  -162  -187  -339  -622  -915  -1086  -1126  -1099  -1054  -1014  -996  -994  -974  -898  -779  -676  -626  -598  -532  -410  -282  -210  -203  -221  -213  -143  -30  65  111  128  144  167  207  278  358  387  324  212  124  78  44  10  -12  -27  -48  -68  -80  -92  -97  -60  0  -26  -173  -360  -531  -705  -899  -1087  -1222  -1289  -1312  -1318  -1321  -1340  -1375  -1411  -1486  -1690  -2016  -2222  -1889  -760  1039  3143  5019  5998  5584  3817  1238  -1416  -3461  -4517  -4692  -4349  -3755  -3042  -2324  -1723  -1333  -1136  -1014  -870  -704  -567  -496  -483  -513  -578  -643  -616  -429  -155  52  136  154  162  212  373  656  989  1283  1486  1598  1685  1841  2086  2363  2611  2793  2853  2771  2617  2499  2462  2487  2527  2483  2198  1629  994  573  407  331  221  73  -88  -268  -456  -596  -655  -659  -650  -649  -661  -677  -685  -650  -546  -405  -308  -298  -349  -422  -486  -520  -511  -460  -361  -208  -14  193  402  591  718  753  656  391  27  -266  -394  -408  -385  -340  -258  -154  -67  13  154  373  593  709  655  417  91  -152  -244  -240  -206  -164  -122  -96  -99  -132  -184  -230  -260  -274  -280  -302  -366  -467  -565  -630  -660  -639  -523  -357  -370  -785  -1451  -1802  -1180  733  3593  6431  8104  7836  5656  2465  -569  -2690  -3655  -3646  -3096  -2373  -1669  -1061  -597  -312  -179  -118  -73  -43  -34  -12  71  228  423  608  755  861  973  1151  1364  1518  1593  1660  1774  1919  2049  2161  2360  2782  3351  3814  4044  4123  4181  4271  4348  4352  4272  4133  3983  3875  3822  3778  3676  3486  3262  3102  3034  2984  2867  2658  2408  2189  2036  1931  1843  1769  1722  1693  1668  1634  1597  1567  1537  1491  1437  1401  1396  1411  1432  1457  1488  1522  1527  1475  1377  1252  1072  813  529  325  242  239  274  343  437  516  528  412  140  -213  -499  -640  -680  -698  -740  -820  -937  -1060  -1148  -1190  -1199  -1158  -1044  -887  -764  -709  -713  -786  -954  -1169  -1330  -1396  -1401  -1407  -1497  -1722  -2007  -2206  -2276  -2286  -2294  -2304  -2309  -2323  -2363  -2430  -2502  -2534  -2506  -2480  -2538  -2700  -2919  -3095  -3049  -2464  -1041  1124  3398  4858  4734  2900  49  -2781  -4809  -5723  -5713  -5251  -4676  -4120  -3674  -3375  -3182  -3040  -2932  -2869  -2848  -2811  -2677  -2428  -2148  -1938  -1827  -1762  -1667  -1519  -1367  -1277  -1263  -1293  -1302  -1207  -974  -667  -415  -297  -286  -299  -263  -137  70  317  549  718  807  835  836  821  765  624  387  109  -145  -355  -516  -625  -694  -761  -861  -988  -1093  -1152  -1190  -1228  -1260  -1254  -1174  -1014  -834  -717  -675  -667  -656  -638  -629  -657  -741  -875  -1024  -1147  -1218  -1224  -1165  -1050  -906  -768  -652  -548  -458  -412  -424  -469  -501  -511  -543  -612  -685  -739  -779  -804  -813  -812  -808  -815  -847  -872  -804  -609  -390  -258  -214  -192  -141  -60  15  56  68  77  106  149  169  145  108  88  79  70  59  40  10  -18  -31  -27  -8  19  46  63  74  85  110  182  322  493  612  616  499  310  119  -50  -207  -348  -454  -515  -521  -473  -395  -320  -268  -229  -171  -90  -50  -142  -358  -517  -289  705  2614  5013  6977  7507  6120  3257  25  -2561  -4020  -4378  -4024  -3409  -2779  -2227  -1813  -1517  -1222  -867  -541  -374  -405  -575  -753  -804  -721  -608  -520  -438  -359  -305  -281  -276  -279  -264  -178  0  227  443  640  835  1017  1177  1353  1598  1900  2162  2303  2338  2326  2286  2187  2013  1788  1558  1361  1223  1128  1036  922  789  645  495  357  268  229  209  190  175  166  158  138  100  53  10  -15  -10  28  89  150  198  225  228  228  258  331  439  560  655  705  723  727  722  699  633  493  274  46  -102  -154  -149  -113  -48  16  40  22  -1  -10  -19  -52  -109  -146  -139  -117  -103  -80  -30  35  91  114  68  -83  -305  -489  -566  -562  -541  -537  -540  -504  -383  -213  -90  -40  11  113  243  395  575  730  784  738  669  621  564  425  180  -81  -256  -311  -278  -199  -97  9  81  96  67  16  -40  -88  -134  -266  -577  -926  -913  -80  1757  4226  6459  7447  6546  3998  822  -1905  -3489  -3766  -3145  -2253  -1487  -953  -621  -409  -254  -140  -56  24  126  256  384  461  474  458  461  540  728  968  1138  1193  1188  1200  1271  1430  1669  1915  2075  2133  2143  2149  2153  2152  2163  2215  2317  2445  2541  2550  2476  2360  2201  1981  1724  1497  1360  1318  1315  1281  1150  914  654  475  383  301  189  77  0  -63  -132  -166  -124  -22  89  178  230  237  214  183  154  128  107  87  60  29  9  18  51  86  114  122  64  -104  -338  -507  -525  -408  -242  -122  -77  -81  -125  -226  -375  -541  -707  -851  -940  -972  -975  -968  -958  -950  -946  -944  -942  -941  -945  -951  -953  -932  -867  -762  -653  -570  -520  -496  -492  -503  -517  -521  -525  -565  -689  -899  -1119  -1249  -1269  -1235  -1201  -1182  -1170  -1149  -1085  -929  -694  -521  -583  -931  -1392  -1554  -1005  375  2396  4524  5867  5742  4211  1769  -982  -3263  -4484  -4665  -4194  -3491  -2892  -2519  -2300  -2156  -2056  -1952  -1803  -1626  -1484  -1398  -1339  -1285  -1224  -1138  -1024  -906  -773  -593  -390  -230  -143  -97  -66  -57  -43  63  326  678  987  1221  1418  1592  1724  1810  1885  1989  2110  2189  2187  2072  1830  1528  1256  1039  859  715  610  523  392  160  -137  -413  -620  -738  -746  -664  -546  -432  -333  -257  -208  -185  -186  -223  -310  -426  -521  -559  -546  -518  -496  -466  -396  -295  -205  -149  -113  -79  -48  -23  -5  -8  -44  -104  -162  -197  -207  -205  -204  -207  -215  -221  -208  -178  -162  -171  -186  -184  -148  -76  17  108  176  215  231  223  169  47  -109  -237  -308  -355  -447  -636  -873  -1040  -1094  -1081  -1047  -1016  -1020  -1090  -1225  -1379  -1405  -1025  -2  1614  3456  4949  5445  4577  2561  5  -2448  -4243  -5077  -5032  -4380  -3449  -2612  -2057  -1732  -1554  -1454  -1368  -1276  -1169  -1050  -945  -857  -757  -627  -475  -310  -177  -116  -56  76  217  299  367  488  640  760  820  831  824  907  1254  1882  2531  2902  2920  2687  2365  2103  1944  1839  1714  1500  1227  1015  917  869  786  635  436  218  -7  -242  -477  -729  -1010  -1266  -1425  -1479  -1479  -1468  -1463  -1452  -1423  -1377  -1313  -1199  -1032  -873  -780  -749  -748  -763  -791  -819  -835  -828  -807  -802  -819  -836  -854  -882  -911  -920  -883  -778  -616  -442  -295  -198  -166  -188  -230  -272  -317  -355  -371  -366  -356  -367  -436  -574  -737  -861  -925  -943  -915  -831  -714  -632  -654  -802  -1016  -1193  -1271  -1265  -1298  -1496  -1626  -1159  165  2115  4155  5534  5599  4295  2110  -333  -2457  -3845  -4389  -4276  -3839  -3347  -2889  -2449  -2046  -1694  -1354  -1030  -804  -686  -584  -449  -316  -217  -127  -20  91  171  176  97  -1  -32  34  187  409  642  802  900  1045  1303  1628  1939  2176  2315  2374  2393  2387  2352  2291  2184  1972  1654  1339  1136  1009  858  672  512  379  217  17  -181  -381  -626  -897  -1102  -1189  -1195  -1183  -1185  -1198  -1208  -1204  -1189  -1158  -1101  -1021  -946  -896  -874  -891  -956  -1049  -1111  -1116  -1092  -1079  -1082  -1080  -1039  -943  -828  -751  -729  -736  -746  -753  -756  -742  -700  -639  -597  -606  -677  -779  -854  -867  -818  -729  -640  -588  -572  -575  -592  -635  -696  -750  -782  -806  -826  -816  -777  -830  -1129  -1634  -2044  -1942  -1051  620  2776  4846  6182  6316  5075  2744  12  -2366  -3821  -4177  -3741  -2989  -2274  -1774  -1493  -1336  -1216  -1066  -846  -576  -319  -102  86  255  390  474  517  543  572  633  747  893  1015  1081  1109  1159  1290  1505  1755  1993  2201  2402  2642  2903  3099  3188  3207  3204  3202  3208  3221  3226  3176  3021  2758  2444  2154  1939  1788  1638  1428  1192  1027  964  958  979  1021  1069  1124  1207  1310  1392  1439  1465  1474  1444  1358  1254  1198  1206  1278  1434  1652  1863  2008  2070  2069  2044  2023  2020  2053  2139  2281  2428  2504  2496  2469  2476  2507  2541  2591  2675  2791  2927  3060  3134  3126  3082  3053  3051  3068  3097  3114  3057  2857  2562  2315  2193  2160  2162  2169  2154  2096  1998  1884  1775  1700  1655  1570  1498  1707  2517  4087  6198  8119  8912  8050  5774  2904  369  -1187  -1636  -1320  -723  -184  201  504  782  1027  1215  1347  1450  1552  1673  1787  1840  1839  1837  1854  1899  1958  1978  1947  1889  1828  1782  1772  1831  1986  2205  2406  2567  2726  2882  2985  3009  2979  2921  2836  2725  2613  2514  2420  2321  2219  2110  1931  1590  1084  563  203  24  -85  -220  -403  -676  -1111  -1622  -1980  -2092  -2071  -2055  -2096  -2168  -2226  -2277  -2362  -2480  -2587  -2662  -2713  -2740  -2742  -2736  -2755  -2821  -2912  -2980  -3004  -3016  -3055  -3131  -3218  -3287  -3351  -3451  -3597  -3741  -3828  -3850  -3842  -3847  -3873  -3903  -3931  -3975  -4046  -4134  -4215  -4283  -4336  -4364  -4372  -4404  -4506  -4655  -4776  -4823  -4803  -4734  -4637  -4548  -4498  -4486  -4486  -4486  -4500  -4567  -4717  -4941  -5173  -5338  -5413  -5425  -5398  -5333  -5251  -5194  -5190  -5239  -5308  -5357  -5360  -5319  -5256  -5199  -5168  -5192  -5303  -5494  -5711  -5890  -5981  -5965  -5861  -5741  -5696  -5733  -5787  -5820  -5841  -5878  -5954  -6017  -5810  -4953  -3282  -1025  1235  2605  2329  419  -2459  -5432  -7617  -8461  -8101  -7123  -6055  -5214  -4730  -4499  -4309  -4064  -3789  -3524  -3277  -3044  -2841  -2693  -2591  -2461  -2230  -1932  -1687  -1557  -1500  -1457  -1404  -1338  -1220  -1026  -816  -673  -605  -510  -253  193  722  1223  1640  1924  2055  2083  2075  2058  2026  1958  1857  1753  1684  1642  1559  1374  1129  944  874  869  842  740  601  534  605  759  895  976  1021  1042  1024  957  860  789  793  897  1083  1310  1533  1703  1789  1820  1855  1927  2043  2197  2336  2386  2349  2281  2226  2217  2254  2318  2400  2467  2450  2323  2145  2021  1987  2008  2056  2135  2244  2362  2463  2531  2563  2558  2508  2412  2282  2145  2035  1956  1881  1800  1743  1723  1722  1722  1731  1775  1883  2055  2240  2365  2398  2349  2234  2092  1980  1905  1840  1779  1733  1703  1671  1630  1593  1578  1588  1623  1670  1718  1769  1820  1855  1864  1855  1849  1873  1949  2059  2146  2185  2197  2195  2180  2154  2118  2041  1879  1661  1481  1392  1359  1340  1322  1305  1287  1269  1259  1296  1379  1383  1243  1085  1068  1408  2389  4078  6134  7874  8559  7769  5618  2728  -97  -2212  -3228  -3132  -2326  -1393  -715  -325  -100  104  394  729  958  998  884  699  524  411  383  444  566  681  721  698  677  700  784  917  1059  1171  1240  1278  1348  1546  1914  2367  2750  2966  3042  3057  3062  3071  3087  3102  3086  2985  2772  2476  2171  1932  1781  1672  1544  1398  1298  1261  1207  1043  786  561  439  358  222  35  -111  -170  -185  -226  -324  -456  -570  -627  -600  -456  -186  126  349  429  392  257  50  -162  -331  -445  -508  -541  -577  -622  -647  -610  -492  -339  -251  -282  -379  -463  -507  -543  -618  -743  -877  -973  -1011  -991  -919  -817  -726  -668  -652  -695  -814  -979  -1131  -1232  -1277  -1285  -1280  -1273  -1263  -1255  -1261  -1286  -1309  -1314  -1306  -1307  -1332  -1363  -1388  -1412  -1438  -1458  -1452  -1413  -1368  -1351  -1358  -1378  -1421  -1492  -1575  -1641  -1673  -1677  -1676  -1682  -1687  -1690  -1709  -1756  -1838  -1941  -2024  -2037  -1937  -1717  -1438  -1225  -1178  -1269  -1384  -1451  -1480  -1501  -1500  -1442  -1330  -1207  -1115  -1066  -1036  -988  -923  -875  -850  -813  -735  -613  -468  -348  -288  -276  -282  -291  -314  -373  -478  -601  -697  -749  -776  -807  -866  -946  -1021  -1075  -1097  -1065  -1010  -985  -934  -797  -697  -727  -692  -233  931  2805  4990  6714  7102  5846  3493  820  -1554  -3099  -3693  -3682  -3354  -2818  -2169  -1467  -787  -294  -76  -36  -39  -36  -26  -1  58  168  320  469  561  577  551  530  545  595  660  747  929  1258  1652  1951  2087  2117  2124  2182  2338  2564  2761  2871  2921  2966  3020  3067  3093  3086  2999  2761  2375  1972  1701  1586  1538  1447  1250  966  674  452  334  301  311  339  376  404  378  238  -12  -276  -444  -498  -492  -476  -470  -478  -499  -513  -459  -277  -9  217  340  410  480  520  495  429  363  307  252  165  28  -119  -215  -245  -244  -243  -247  -252  -257  -259  -250  -222  -184  -170  -213  -321  -466  -608  -736  -845  -918  -950  -971  -1008  -1086  -1196  -1273  -1264  -1206  -1154  -1119  -1086  -1037  -965  -877  -803  -777  -792  -824  -868  -916  -959  -993  -1015  -1027  -1032  -1023  -999  -974  -961  -957  -956  -961  -983  -1023  -1067  -1106  -1144  -1185  -1214  -1223  -1213  -1187  -1148  -1102  -1065  -1059  -1112  -1246  -1454  -1676  -1821  -1839  -1817  -1952  -2278  -2514  -2173  -854  1411  3991  5871  6217  4881  2376  -471  -2868  -4344  -4855  -4661  -4118  -3523  -3050  -2766  -2591  -2333  -1885  -1345  -929  -747  -716  -680  -546  -339  -147  -7  95  166  207  228  236  248  285  342  411  504  623  744  877  1066  1344  1674  1978  2218  2391  2506  2606  2740  2893  3014  3083  3124  3114  2936  2498  1924  1471  1228  1076  886  633  397  262  224  209  175  146  185  294  380  366  263  106  -98  -329  -520  -606  -550  -347  -76  124  204  211  190  136  28  -105  -202  -238  -247  -262  -278  -258  -158  18  205  312  282  148  13  -53  -66  -75  -105  -152  -205  -271  -365  -476  -565  -598  -564  -483  -397  -342  -314  -272  -199  -158  -198  -278  -332  -345  -331  -311  -296  -292  -313  -382  -510  -672  -795  -822  -760  -640  -463  -256  -98  -40  -61  -105  -134  -151  -177  -233  -350  -564  -832  -1028  -1091  -1073  -1043  -1023  -1004  -949  -812  -601  -391  -294  -413  -731  -1034  -962  -121  1638  3920  5888  6688  5905  3821  1185  -1264  -3013  -3891  -4100  -3903  -3421  -2753  -2062  -1503  -1131  -925  -823  -753  -674  -576  -455  -314  -146  55  258  400  452  441  420  426  477  573  706  881  1076  1236  1357  1479  1609  1755  1954  2221  2501  2723  2849  2891  2894  2900  2915  2899  2807  2633  2379  2061  1759  1570  1505  1470  1329  963  392  -166  -505  -627  -638  -632  -683  -790  -867  -857  -790  -737  -744  -781  -807  -828  -869  -916  -912  -813  -670  -597  -660  -802  -919  -960  -923  -816  -677  -571  -513  -468  -423  -408  -449  -512  -532  -480  -414  -419  -507  -639  -805  -985  -1110  -1121  -1019  -852  -686  -559  -483  -451  -442  -436  -427  -391  -290  -130  13  84  86  50  -21  -148  -323  -489  -586  -611  -605  -597  -582  -550  -511  -499  -527  -573  -626  -689  -723  -647  -455  -334  -501  -934  -1445  -1820  -1737  -828  1005  3464  5842  7100  6452  4059  855  -2094  -3966  -4502  -4115  -3374  -2552  -1832  -1419  -1300  -1267  -1170  -1007  -851  -740  -649  -559  -489  -464  -475  -488  -441  -291  -83  80  168  225  285  338  368  390  451  576  755  979  1274  1654  2033  2292  2413  2462  2495  2526  2549  2557  2520  2394  2176  1925  1707  1550  1445  1362  1261  1083  774  352  -55  -312  -406  -420  -407  -379  -352  -361  -439  -600  -809  -982  -1081  -1134  -1178  -1218  -1241  -1208  -1067  -818  -538  -327  -227  -207  -213  -219  -225  -229  -233  -263  -350  -488  -633  -747  -811  -813  -747  -634  -532  -492  -506  -515  -477  -406  -321  -237  -177  -167  -225  -363  -570  -775  -883  -846  -705  -552  -468  -471  -523  -567  -549  -470  -386  -321  -253  -201  -220  -345  -563  -818  -1033  -1169  -1238  -1274  -1293  -1291  -1248  -1177  -1153  -1175  -1005  -260  1307  3541  5846  7430  7567  6030  3386  549  -1800  -3269  -3792  -3675  -3301  -2850  -2317  -1696  -1078  -552  -167  51  125  124  108  97  87  75  66  67  84  126  199  297  400  479  537  605  694  792  906  1079  1333  1619  1840  1977  2086  2208  2335  2459  2589  2726  2865  2991  3054  2988  2749  2344  1848  1407  1148  1059  1007  837  467  13  -304  -431  -485  -553  -601  -562  -449  -335  -266  -242  -260  -329  -442  -556  -643  -706  -746  -747  -694  -603  -513  -455  -431  -426  -429  -442  -474  -516  -550  -580  -620  -646  -605  -514  -481  -598  -827  -1043  -1164  -1190  -1173  -1170  -1202  -1242  -1229  -1131  -1006  -927  -903  -879  -774  -548  -282  -132  -167  -304  -434  -526  -614  -703  -758  -771  -803  -934  -1160  -1373  -1467  -1432  -1337  -1242  -1160  -1081  -1007  -936  -857  -790  -800  -914  -980  -629  522  2479  4728  6446  6812  5468  2872  -38  -2448  -3871  -4292  -4116  -3707  -3180  -2575  -1976  -1477  -1100  -806  -573  -430  -405  -475  -587  -696  -768  -788  -737  -589  -361  -146  -34  -17  -1  115  362  680  970  1181  1360  1587  1870  2139  2315  2381  2380  2360  2337  2305  2255  2189  2125  2086  2082  2096  2093  2027  1882  1703  1543  1362  1076  701  334  22  -234  -425  -566  -698  -838  -960  -1015  -1006  -972  -924  -850  -756  -667  -577  -447  -284  -167  -162  -279  -462  -626  -721  -737  -687  -617  -566  -523  -461  -371  -263  -145  -14  128  262  369  446  503  536  489  308  51  -139  -201  -188  -166  -150  -125  -85  -60  -62  -63  -43  -19  -16  -32  -52  -70  -95  -165  -350  -674  -1027  -1250  -1286  -1176  -1017  -947  -1004  -986  -561  490  2155  4110  5651  5966  4733  2364  -313  -2471  -3605  -3787  -3476  -3075  -2774  -2589  -2386  -2034  -1607  -1307  -1198  -1133  -935  -581  -231  -36  4  -16  -31  -12  39  103  161  211  256  279  257  184  95  58  141  423  931  1509  1919  2102  2207  2368  2565  2703  2724  2614  2371  2010  1573  1127  741  451  236  47  -164  -402  -610  -740  -800  -834  -874  -912  -950  -1025  -1163  -1331  -1477  -1566  -1593  -1564  -1478  -1353  -1238  -1182  -1191  -1226  -1241  -1203  -1101  -950  -799  -693  -641  -623  -625  -639  -640  -613  -593  -645  -803  -1024  -1195  -1210  -1062  -834  -623  -493  -457  -490  -567  -656  -719  -727  -665  -536  -391  -291  -256  -273  -353  -503  -693  -851  -910  -856  -747  -653  -596  -563  -542  -531  -523  -516  -530  -601  -736  -869  -887  -820  -902  -1210  -1450  -1211  -186  1748  4276  6519  7481  6645  4205  1006  -1837  -3556  -3996  -3534  -2791  -2207  -1874  -1714  -1644  -1598  -1502  -1265  -862  -394  -2  237  335  330  268  191  150  172  231  289  334  361  389  450  554  672  815  1059  1416  1752  1942  2020  2109  2268  2447  2564  2600  2595  2574  2535  2481  2434  2399  2346  2229  1995  1643  1291  1081  1019  1008  982  917  741  368  -118  -484  -623  -632  -626  -628  -607  -530  -416  -311  -233  -167  -110  -70  -52  -49  -54  -58  -50  -21  23  57  52  -10  -132  -291  -445  -548  -581  -565  -531  -494  -454  -413  -379  -355  -340  -338  -350  -365  -395  -475  -629  -819  -968  -1040  -1063  -1057  -987  -805  -559  -368  -289  -296  -357  -461  -571  -645  -670  -665  -643  -601  -525  -431  -367  -371  -445  -544  -609  -633  -699  -902  -1208  -1461  -1556  -1373  -610  963  3106  5237  6722  6936  5639  3335  807  -1434  -3093  -3982  -4142  -3750  -2992  -2123  -1392  -884  -545  -298  -111  6  66  105  157  243  351  446  518  570  601  634  728  899  1085  1218  1288  1345  1438  1567  1699  1838  2007  2201  2410  2619  2791  2905  2974  3015  3027  3014  2971  2856  2651  2413  2223  2094  1974  1836  1702  1588  1454  1238  945  637  354  110  -86  -226  -299  -316  -283  -197  -81  6  18  -70  -252  -459  -607  -667  -662  -621  -568  -530  -519  -527  -543  -552  -547  -529  -500  -464  -443  -461  -513  -594  -708  -831  -908  -888  -778  -660  -642  -727  -814  -824  -761  -678  -600  -523  -489  -553  -686  -805  -872  -913  -960  -1004  -1037  -1065  -1082  -1081  -1076  -1069  -1019  -888  -679  -427  -198  -62  -43  -109  -215  -319  -392  -427  -430  -417  -408  -432  -511  -620  -704  -726  -685  -612  -572  -600  -650  -668  -656  -631  -609  -601  -602  -609  -617  -624  -631  -635  -619  -557  -444  -316  -224  -190  -225  -335  -487  -616  -692  -727  -746  -768  -809  -859  -890  -886  -848  -788  -721  -675  -688  -788  -965  -1170  -1396  -1655  -1893  -2057  -2077  -1689  -576  1300  3613  5713  6774  6174  3978  955  -1942  -3962  -4741  -4487  -3791  -3162  -2732  -2373  -2037  -1811  -1719  -1697  -1688  -1641  -1496  -1252  -1010  -871  -835  -838  -829  -787  -710  -601  -479  -363  -239  -92  49  166  290  436  558  618  629  639  726  980  1392  1828  2146  2297  2324  2313  2310  2298  2223  2031  1735  1444  1258  1162  1086  971  780  554  390  308  240  143  28  -92  -207  -289  -329  -342  -345  -339  -325  -305  -303  -328  -350  -339  -306  -263  -221  -193  -176  -150  -111  -75  -67  -101  -142  -125  -34  91  208  289  336  377  401  359  231  58  -81  -136  -111  -53  -4  20  30  30  9  -48  -134  -219  -274  -292  -260  -165  -34  65  95  46  -76  -227  -328  -337  -261  -132  -4  70  72  29  -26  -89  -153  -202  -235  -275  -339  -415  -470  -474  -408  -280  -140  -47  -12  -4  -1  -15  -81  -205  -339  -413  -407  -359  -333  -352  -377  -373  -364  -388  -432  -448  -396  -283  -155  -60  -16  -7  -2  12  28  41  64  117  190  242  259  261  275  303  325  310  233  108  -2  -45  -14  61  138  180  169  106  16  -55  -81  -73  -60  -104  -287  -616  -966  -1164  -1167  -1115  -1127  -1075  -622  515  2318  4407  6155  6859  6112  4125  1504  -1137  -3240  -4378  -4526  -4019  -3229  -2456  -1917  -1635  -1455  -1240  -979  -765  -661  -611  -529  -408  -311  -257  -211  -153  -101  -59  -11  33  54  91  258  609  1011  1270  1342  1318  1277  1245  1246  1341  1570  1857  2067  2170  2257  2391  2548  2663  2710  2712  2707  2716  2726  2667  2427  1956  1371  889  623  503  403  269  118  -16  -129  -199  -174  -64  40  83  80  71  67  38  -58  -231  -424  -564  -628  -642  -641  -636  -600  -487  -279  -33  150  214  168  52  -86  -214  -311  -355  -333  -256  -155  -81  -90  -169  -241  -266  -264  -259  -257  -241  -199  -154  -164  -269  -439  -586  -641  -615  -563  -523  -500  -482  -446  -383  -311  -255  -225  -210  -192  -172  -171  -225  -346  -491  -602  -670  -728  -794  -863  -910  -886  -738  -472  -195  -11  65  81  69  37  -17  -114  -273  -472  -651  -764  -811  -816  -804  -782  -753  -729  -721  -724  -716  -675  -623  -625  -723  -910  -1070  -904  -60  1633  3931  6046  6988  6125  3597  283  -2662  -4355  -4636  -4039  -3204  -2491  -2016  -1719  -1500  -1345  -1259  -1156  -926  -594  -300  -110  7  75  101  105  107  113  127  160  210  281  415  647  910  1089  1148  1148  1185  1344  1624  1920  2130  2260  2367  2466  2540  2595  2656  2712  2721  2664  2547  2389  2220  2049  1832  1534  1178  803  449  182  51  21  7  -40  -123  -219  -303  -381  -488  -653  -858  -1033  -1126  -1147  -1130  -1089  -1026  -960  -919  -912  -920  -894  -779  -578  -358  -200  -149  -204  -311  -410  -483  -537  -586  -629  -660  -674  -675  -669  -653  -616  -555  -486  -430  -393  -376  -378  -401  -445  -505  -590  -709  -836  -921  -956  -971  -980  -975  -937  -849  -699  -504  -315  -181  -120  -121  -168  -247  -344  -435  -476  -436  -344  -242  -155  -106  -126  -236  -406  -557  -649  -701  -734  -734  -686  -607  -546  -538  -563  -584  -589  -588  -603  -637  -638  -586  -619  -913  -1466  -2005  -2088  -1406  38  2059  4244  5944  6558  5800  3777  992  -1778  -3785  -4658  -4444  -3438  -2197  -1362  -1119  -1168  -1214  -1186  -1134  -1100  -1081  -1064  -1030  -938  -772  -587  -454  -372  -294  -168  7  177  310  455  652  855  984  1027  1036  1059  1113  1212  1387  1664  1980  2210  2304  2338  2415  2575  2807  3075  3281  3322  3211  3013  2703  2243  1718  1290  1039  931  896  879  827  682  438  179  6  -64  -73  -63  -75  -111  -155  -202  -249  -304  -384  -483  -577  -643  -674  -672  -640  -576  -483  -386  -324  -309  -323  -344  -358  -341  -243  -20  286  548  664  592  318  -65  -378  -535  -600  -642  -662  -646  -612  -594  -583  -519  -355  -142  6  35  -32  -147  -263  -350  -392  -388  -360  -341  -351  -390  -445  -501  -548  -581  -585  -548  -484  -422  -369  -322  -279  -249  -236  -253  -329  -511  -800  -1105  -1314  -1412  -1463  -1515  -1570  -1619  -1659  -1686  -1716  -1727  -1466  -545  1252  3806  6504  8292  8232  6146  2733  -903  -3728  -5132  -5245  -4663  -3868  -3141  -2591  -2160  -1800  -1551  -1426  -1360  -1262  -1053  -713  -344  -119  -185  -577  -1126  -1526  -1582  -1288  -779  -285  20  140  177  199  224  285  448  747  1115  1449  1696  1867  1984  2059  2129  2269  2511  2807  3084  3287  3387  3362  3168  2771  2203  1582  1052  657  377  217  168  167  139  33  -121  -242  -295  -317  -353  -419  -498  -573  -649  -757  -920  -1108  -1240  -1255  -1183  -1106  -1064  -1038  -994  -917  -818  -730  -681  -669  -673  -677  -675  -661  -629  -586  -549  -533  -548  -606  -700  -793  -878  -984  -1106  -1194  -1219  -1183  -1080  -921  -745  -551  -305  -21  218  350  396  395  321  125  -162  -442  -685  -946  -1223  -1411  -1416  -1223  -897  -556  -304  -188  -182  -236  -333  -456  -579  -700  -830  -972  -1137  -1309  -1260  -600  883  3082  5503  7200  7254  5476  2533  -519  -2797  -3906  -3967  -3466  -2923  -2554  -2277  -1951  -1496  -978  -562  -318  -199  -153  -163  -207  -242  -223  -164  -106  -44  66  216  335  398  431  456  476  485  480  470  486  571  740  976  1280  1661  2057  2356  2528  2653  2794  2930  3011  3018  2946  2789  2550  2237  1870  1457  980  508  195  91  99  114  80  -31  -200  -347  -422  -441  -442  -444  -448  -455  -462  -468  -480  -493  -503  -511  -513  -497  -447  -375  -317  -297  -300  -302  -292  -276  -256  -231  -211  -209  -235  -292  -361  -413  -438  -446  -446  -427  -365  -269  -187  -164  -198  -238  -249  -239  -241  -276  -335  -398  -467  -559  -644  -661  -593  -468  -332  -237  -205  -205  -193  -158  -137  -172  -250  -350  -463  -556  -595  -595  -608  -667  -755  -823  -858  -892  -959  -1067  -1182  -1259  -1286  -1307  -1392  -1558  -1691  -1522  -730  881  3231  5878  8007  8678  7428  4661  1260  -1878  -4005  -4867  -4777  -4164  -3349  -2576  -1991  -1630  -1406  -1165  -854  -566  -391  -299  -198  -87  -49  -145  -355  -592  -755  -809  -780  -664  -442  -170  40  160  239  327  486  792  1213  1591  1823  1944  2036  2135  2239  2318  2330  2259  2112  1894  1652  1453  1308  1185  1065  932  787  652  533  408  249  61  -113  -231  -305  -385  -498  -621  -728  -824  -942  -1091  -1234  -1328  -1361  -1338  -1263  -1140  -1003  -903  -848  -802  -741  -660  -562  -468  -406  -381  -379  -384  -385  -383  -385  -398  -419  -425  -408  -380  -341  -307  -311  -349  -396  -440  -461  -444  -405  -360  -307  -242  -159  -61  21  63  66  41  -13  -100  -200  -278  -314  -316  -304  -299  -323  -376  -446  -530  -620  -713  -813  -905  -950  -953  -1028  -1298  -1580  -1322  -66  2163  4897  7250  8134  6975  4192  817  -2146  -4061  -4811  -4749  -4303  -3700  -3046  -2457  -2017  -1706  -1441  -1185  -945  -740  -593  -500  -429  -363  -320  -321  -360  -407  -442  -465  -475  -450  -370  -253  -128  32  278  576  853  1117  1395  1659  1885  2082  2262  2450  2638  2766  2791  2725  2597  2429  2247  2065  1874  1657  1431  1206  958  701  512  417  351  256  116  -43  -177  -242  -226  -136  -8  98  146  116  -15  -229  -443  -577  -621  -602  -541  -456  -379  -329  -317  -340  -380  -406  -392  -323  -200  -51  89  207  298  345  299  96  -239  -561  -741  -785  -759  -692  -573  -407  -234  -87  30  116  164  186  200  210  188  100  -50  -234  -416  -560  -646  -699  -742  -760  -738  -700  -679  -675  -666  -630  -578  -612  -858  -1256  -1561  -1622  -1365  -669  525  2134  3946  5536  6277  5696  3883  1374  -1197  -3205  -4263  -4550  -4441  -4003  -3290  -2575  -1997  -1541  -1253  -1155  -1164  -1180  -1110  -901  -616  -405  -331  -343  -375  -399  -413  -431  -458  -463  -402  -263  -83  88  255  469  760  1074  1336  1533  1687  1799  1874  1945  2051  2179  2275  2311  2293  2226  2113  1969  1798  1570  1256  921  677  529  391  230  80  -46  -196  -373  -531  -654  -770  -882  -968  -1017  -1034  -1031  -1025  -1032  -1062  -1110  -1151  -1160  -1110  -987  -821  -676  -592  -562  -579  -663  -823  -1002  -1116  -1145  -1127  -1099  -1078  -1076  -1118  -1218  -1348  -1437  -1425  -1287  -1058  -815  -602  -435  -362  -417  -557  -694  -772  -797  -809  -844  -919  -1025  -1127  -1200  -1229  -1212  -1158  -1075  -982  -914  -877  -843  -795  -753  -745  -842  -1122  -1424  -1349  -561  1079  3371  5524  6489  5740  3521  555  -2256  -4162  -4889  -4676  -3933  -2986  -2153  -1694  -1598  -1653  -1705  -1708  -1627  -1392  -1014  -640  -423  -369  -388  -414  -432  -435  -395  -275  -85  114  271  374  446  529  655  797  923  1070  1323  1716  2197  2652  2960  3074  3037  2905  2739  2601  2500  2420  2370  2355  2342  2280  2121  1832  1440  1070  859  821  876  950  996  980  882  726  581  493  453  435  432  452  499  559  632  726  818  894  986  1094  1174  1203  1205  1202  1196  1180  1168  1199  1278  1355  1378  1343  1289  1287  1365  1457  1499  1500  1514  1578  1698  1849  2007  2147  2239  2277  2279  2242  2148  2014  1895  1813  1736  1619  1475  1370  1333  1329  1330  1341  1397  1523  1714  1918  2077  2182  2226  2140  1807  1212  651  655  1622  3577  6081  8292  9250  8403  6028  3016  273  -1510  -2030  -1554  -660  175  692  857  834  817  899  1086  1322  1518  1625  1635  1563  1478  1480  1588  1734  1847  1905  1916  1903  1876  1845  1853  1958  2171  2405  2555  2605  2601  2567  2503  2422  2366  2380  2494  2679  2849  2942  2965  2958  2945  2925  2889  2821  2706  2520  2193  1664  1013  448  117  -10  -89  -253  -499  -719  -859  -927  -899  -745  -543  -476  -659  -998  -1318  -1554  -1726  -1830  -1868  -1878  -1889  -1920  -1978  -2053  -2139  -2218  -2266  -2272  -2258  -2266  -2328  -2444  -2582  -2709  -2808  -2890  -2986  -3105  -3235  -3371  -3516  -3664  -3793  -3883  -3925  -3928  -3922  -3929  -3946  -3969  -4023  -4134  -4288  -4446  -4578  -4686  -4788  -4898  -5006  -5086  -5119  -5111  -5090  -5100  -5207  -5432  -5702  -5917  -6044  -6117  -6177  -6255  -6354  -6438  -6465  -6358  -5859  -4639  -2655  -297  1706  2476  1437  -1151  -4295  -6925  -8434  -8804  -8448  -7871  -7356  -6913  -6489  -6065  -5649  -5296  -5063  -4930  -4822  -4663  -4446  -4232  -4072  -3967  -3880  -3771  -3617  -3440  -3290  -3193  -3139  -3100  -3051  -2978  -2854  -2651  -2341  -1911  -1446  -1106  -955  -911  -869  -771  -614  -430  -275  -182  -135  -117  -154  -280  -472  -679  -907  -1157  -1371  -1513  -1597  -1642  -1704  -1868  -2128  -2366  -2493  -2508  -2409  -2182  -1900  -1706  -1690  -1848  -2093  -2296  -2371  -2305  -2138  -1949  -1807  -1710  -1618  -1527  -1443  -1330  -1140  -876  -607  -392  -249  -171  -128  -96  -83  -100  -112  -83  -19  60  142  212  255  269  277  310  387  528  727  914  1013  995  868  693  565  560  697  937  1173  1325  1389  1401  1385  1367  1395  1531  1770  2024  2209  2317  2383  2453  2558  2685  2780  2811  2781  2720  2672  2662  2678  2700  2718  2727  2728  2727  2733  2751  2779  2811  2845  2883  2924  2931  2830  2557  2177  1949  2255  3413  5443  7949  10188  11259  10574  8298  5213  2236  89  -875  -789  -123  652  1299  1750  2015  2169  2302  2433  2529  2597  2709  2895  3091  3178  3105  2936  2777  2688  2693  2815  3037  3286  3496  3648  3742  3781  3783  3763  3739  3755  3879  4138  4429  4614  4663  4645  4623  4625  4661  4721  4772  4749  4582  4252  3836  3444  3156  2979  2868  2794  2756  2745  2742  2695  2512  2139  1664  1268  1059  985  911  744  504  295  172  103  63  62  85  100  98  87  78  84  107  138  159  162  156  151  151  152  153  157  158  132  54  -57  -151  -210  -275  -392  -546  -660  -695  -687  -694  -751  -845  -936  -1002  -1045  -1070  -1079  -1061  -994  -883  -774  -708  -675  -648  -639  -688  -814  -963  -1021  -928  -768  -658  -610  -567  -493  -391  -279  -168  -50  96  261  391  453  465  461  434  320  69  -252  -502  -592  -538  -395  -218  -58  50  94  73  -10  -143  -327  -580  -799  -786  -570  -379  -195  327  1514  3396  5548  7064  6980  5030  1927  -1184  -3393  -4341  -4283  -3777  -3202  -2622  -2029  -1495  -1098  -857  -748  -711  -694  -673  -641  -619  -650  -768  -941  -1066  -1029  -777  -389  -41  161  246  289  337  397  472  558  625  650  659  718  907  1226  1564  1793  1882  1880  1852  1831  1807  1776  1748  1717  1667  1564  1378  1153  966  821  657  453  227  -32  -337  -624  -822  -943  -1029  -1083  -1100  -1108  -1131  -1163  -1180  -1179  -1205  -1312  -1494  -1670  -1749  -1688  -1481  -1180  -902  -743  -704  -734  -817  -969  -1166  -1336  -1437  -1470  -1440  -1358  -1276  -1250  -1256  -1232  -1180  -1131  -1092  -1061  -1031  -993  -953  -933  -975  -1112  -1313  -1483  -1550  -1516  -1426  -1326  -1245  -1199  -1185  -1191  -1202  -1202  -1191  -1177  -1150  -1084  -968  -839  -747  -707  -693  -680  -671  -684  -721  -767  -806  -828  -832  -828  -828  -844  -886  -968  -1079  -1161  -1170  -1134  -1090  -1025  -923  -809  -752  -827  -1071  -1425  -1725  -1742  -1130  477  2966  5503  7002  6720  4626  1465  -1687  -3992  -5061  -4992  -4222  -3254  -2450  -1903  -1541  -1321  -1212  -1137  -1039  -913  -775  -639  -520  -431  -366  -314  -278  -253  -220  -164  -91  -17  43  95  178  377  735  1135  1397  1476  1462  1435  1429  1492  1670  1910  2086  2145  2135  2117  2114  2130  2154  2130  1963  1621  1227  955  841  794  747  707  669  587  397  59  -363  -710  -876  -903  -880  -856  -834  -810  -789  -776  -770  -769  -762  -729  -655  -556  -460  -389  -356  -354  -361  -368  -381  -431  -541  -675  -743  -709  -627  -542  -451  -364  -314  -340  -496  -779  -1073  -1251  -1289  -1222  -1083  -919  -790  -711  -666  -655  -659  -627  -538  -436  -373  -356  -364  -379  -415  -512  -690  -904  -1082  -1185  -1224  -1224  -1191  -1132  -1069  -1028  -1012  -1006  -1003  -1031  -1149  -1351  -1486  -1299  -528  919  2801  4635  5801  5713  4264  1930  -634  -2759  -3893  -4060  -3772  -3422  -3112  -2814  -2442  -1969  -1517  -1205  -996  -822  -704  -673  -699  -734  -747  -707  -564  -304  -22  153  199  180  155  153  196  299  439  562  639  729  937  1273  1622  1889  2074  2231  2431  2710  3001  3185  3220  3148  3011  2820  2551  2192  1799  1470  1226  972  622  231  -66  -226  -313  -392  -484  -561  -580  -539  -466  -379  -299  -265  -295  -370  -478  -643  -854  -1032  -1115  -1108  -1048  -974  -919  -889  -863  -827  -787  -744  -672  -542  -362  -181  -49  18  30  -40  -232  -486  -672  -735  -721  -682  -626  -546  -461  -400  -370  -345  -298  -229  -154  -67  41  145  170  14  -361  -819  -1151  -1288  -1311  -1293  -1231  -1091  -902  -775  -788  -924  -1077  -1023  -467  757  2525  4381  5660  5757  4489  2283  -151  -2218  -3526  -4006  -3946  -3676  -3356  -3024  -2635  -2122  -1539  -1061  -775  -621  -530  -480  -461  -465  -485  -510  -535  -556  -571  -565  -479  -243  135  533  814  941  970  983  1031  1126  1283  1530  1844  2142  2357  2481  2582  2746  2978  3193  3305  3263  3028  2645  2267  2002  1819  1648  1481  1307  1073  741  376  103  -26  -51  -17  57  143  175  74  -197  -564  -872  -1022  -1037  -993  -947  -919  -910  -912  -921  -927  -904  -827  -710  -601  -522  -435  -301  -146  -49  -93  -307  -602  -822  -900  -873  -770  -612  -454  -356  -318  -298  -264  -200  -85  68  205  282  296  201  -79  -497  -854  -1013  -997  -876  -701  -532  -417  -366  -346  -337  -381  -541  -758  -880  -871  -722  -170  1099  3041  5217  6958  7517  6457  4068  1186  -1361  -3005  -3555  -3335  -2829  -2275  -1751  -1334  -1053  -851  -649  -423  -222  -95  -25  43  124  188  226  251  281  306  274  137  -50  -144  -36  226  499  670  745  790  841  906  1020  1230  1503  1752  1937  2076  2181  2246  2269  2253  2194  2099  1983  1859  1735  1609  1460  1262  998  676  347  78  -103  -213  -277  -329  -406  -521  -657  -774  -819  -779  -704  -650  -623  -603  -581  -560  -546  -544  -551  -555  -535  -474  -399  -379  -464  -617  -746  -801  -806  -799  -793  -770  -705  -578  -403  -247  -173  -170  -192  -213  -226  -232  -238  -251  -268  -276  -269  -256  -251  -262  -286  -306  -309  -317  -369  -475  -590  -647  -632  -591  -572  -594  -638  -658  -621  -530  -372  -145]
