reading_id,reading_time,wire_id,result_classification,heart_rate,heart_rate_alert,firmware_version,device_app_version,hardware_version,waveform_samples
b98df8f0-5e4f-11ed-8080-808080808080,Mon Nov 07 03:53:22 UTC 2022,a101e3f91939,UNCLASSIFIABLE,111,NONE,20001.171.50,2.10.0,Charge 5,[-13525  -15581  -16444  -15812  -14340  -12965  -12088  -11457  -10715  -9669  -8065  -5758  -3207  -1066  658  2344  4076  5771  7314  8483  9226  9736  10144  10441  10612  10746  11081  11895  13175  14481  15373  15869  16270  16702  17090  17479  18081  18892  19600  19958  20014  19950  19905  19994  20300  20753  21163  21421  21552  21610  21621  21541  21297  20935  20628  20541  20705  20966  21068  20977  20909  20960  21028  21055  21059  21057  21052  21049  21099  21290  21653  22104  22498  22731  22841  22940  23048  23094  22978  22658  22269  22023  21959  21942  21844  21666  21497  21412  21399  21320  20954  20170  19090  17969  16985  16266  15909  15864  15934  15900  15616  15104  14528  13993  13487  13006  12596  12267  11958  11605  11245  10964  10755  10552  10355  10225  10159  10088  9977  9850  9706  9520  9296  9066  8856  8690  8593  8562  8564  8530  8346  7915  7310  6756  6329  5882  5398  5085  5074  5224  5279  5221  5277  5408  5374  5365  5676  6024  5976  5593  5429  6207  8347  11408  14070  14961  13552  10369  6510  3050  795  -4  239  872  1400  1640  1668  1594  1461  1310  1181  1053  871  655  498  437  438  458  459  386  191  -73  -290  -400  -425  -407  -381  -341  -282  -246  -267  -361  -525  -680  -764  -801  -821  -818  -759  -606  -410  -300  -316  -403  -512  -597  -639  -691  -810  -965  -1077  -1121  -1144  -1167  -1151  -1071  -990  -991  -1104  -1272  -1407  -1469  -1472  -1448  -1445  -1511  -1660  -1881  -2152  -2442  -2672  -2762  -2708  -2590  -2492  -2437  -2411  -2405  -2425  -2493  -2638  -2821  -2948  -2984  -2983  -3020  -3127  -3269  -3381  -3434  -3440  -3408  -3333  -3241  -3196  -3234  -3321  -3396  -3429  -3405  -3300  -3124  -2974  -2972  -3161  -3468  -3754  -3918  -3957  -3909  -3792  -3655  -3585  -3626  -3730  -3826  -3897  -3961  -4014  -4032  -4011  -3996  -4030  -4078  -4062  -3942  -3772  -3650  -3611  -3602  -3566  -3498  -3416  -3319  -3216  -3137  -3085  -3034  -2983  -2949  -2938  -2933  -2926  -2917  -2908  -2896  -2876  -2862  -2887  -2994  -3174  -3345  -3423  -3404  -3356  -3306  -3224  -3171  -3316  -3720  -4116  -3989  -2946  -1003  1483  3897  5385  5254  3507  700  -2437  -5053  -6562  -7103  -7084  -6691  -6054  -5336  -4627  -4003  -3542  -3224  -2989  -2841  -2744  -2602  -2405  -2245  -2170  -2155  -2167  -2186  -2194  -2172  -2078  -1889  -1672  -1528  -1481  -1479  -1486  -1490  -1452  -1306  -1042  -728  -443  -230  -92  2  79  130  156  211  363  580  725  660  361  -34  -338  -520  -668  -803  -884  -899  -860  -777  -675  -603  -592  -654  -805  -1028  -1239  -1370  -1427  -1438  -1421  -1401  -1396  -1404  -1391  -1285  -1017  -626  -260  -41  27  14  -28  -96  -204  -335  -424  -445  -430  -417  -416  -418  -409  -381  -342  -313  -304  -306  -300  -281  -259  -257  -285  -353  -476  -615  -652  -510  -262  -62  16  2  -78  -213  -333  -327  -202  -77  -29  -41  -71  -97  -111  -95  -13  138  294  363  326  241  171  93  -49  -231  -331  -272  -102  65  159  171  93  -103  -396  -675  -838  -893  -911  -928  -928  -897  -859  -833  -829  -905  -1099  -1283  -1086  -85  1838  4375  6820  8190  7744  5507  2227  -1120  -3762  -5256  -5566  -5015  -4013  -2965  -2249  -1939  -1761  -1469  -1080  -758  -598  -556  -532  -467  -380  -340  -381  -443  -448  -403  -364  -348  -295  -144  64  231  339  449  574  677  755  840  949  1062  1138  1175  1229  1356  1523  1639  1685  1709  1730  1728  1683  1602  1519  1454  1382  1255  1065  863  707  609  536  426  213  -113  -450  -651  -671  -554  -354  -150  -59  -140  -315  -451  -494  -470  -400  -284  -130  43  198  268  224  120  36  5  7  14  36  110  232  330  320  152  -142  -426  -560  -526  -413  -315  -258  -233  -242  -281  -328  -367  -397  -414  -412  -389  -352  -317  -290  -278  -286  -289  -207  9  269  421  452  449  446  385  187  -135  -474  -745  -930  -1021  -1035  -1013  -992  -973  -925  -827  -704  -629  -637  -694  -796  -832  -398  916  3087  5544  7316  7521  5923  3083  -2  -2469  -3851  -4195  -4010  -3744  -3445  -3028  -2543  -2101  -1756  -1500  -1277  -1034  -796  -646  -613  -652  -704  -739  -772  -830  -894  -918  -898  -882  -877  -806  -589  -276  -18  113  163  202  298  505  807  1125  1376  1519  1587  1657  1750  1829  1870  1881  1857  1780  1639  1451  1274  1168  1122  1045  855  552  240  42  -24  -31  -52  -136  -285  -432  -494  -451  -358  -283  -244  -228  -233  -274  -342  -384  -370  -335  -308  -259  -142  18  141  196  218  217  121  -147  -514  -793  -902  -905  -874  -825  -752  -668  -597  -508  -342  -137  -37  -121  -310  -464  -540  -577  -586  -580  -615  -706  -793  -832  -841  -846  -856  -866  -874  -870  -850  -834  -834  -839  -851  -906  -1071  -1412  -1814  -1860  -1128  541  3018  5670  7381  7310  5500  2638  -380  -2736  -4051  -4530  -4536  -4216  -3592  -2752  -1925  -1347  -1059  -920  -799  -698  -661  -669  -655  -573  -398  -157  51  133  78  -57  -193  -255  -147  195  656  990  1103  1105  1123  1191  1279  1349  1381  1372  1357  1424  1668  2053  2400  2573  2592  2546  2486  2400  2240  2020  1837  1744  1632  1343  903  526  344  261  109  -135  -354  -446  -424  -355  -279  -174  -38  34  -41  -207  -351  -402  -322  -159  -11  79  111  79  -3  -99  -169  -208  -238  -269  -293  -308  -328  -356  -384  -408  -433  -458  -483  -511  -534  -544  -537  -519  -502  -499  -505  -501  -456  -377  -334  -381  -502  -670  -856  -1003  -1074  -1081  -1044  -967  -874  -808  -791  -813  -852  -869  -821  -773  -918  -1271  -1469  -1056  233  2369  4797  6604  7100  6060  3776  950  -1682  -3623  -4679  -4879  -4383  -3523  -2665  -1983  -1498  -1210  -1097  -1096  -1142  -1178  -1140  -978  -722  -471  -311  -270  -311  -349  -326  -260  -194  -139  -76  43  261  512  643  591  468  430  511  658  855  1090  1306  1485  1660  1820  1913  1938  1927  1867  1696  1407  1084  819  665  606  569  466  267  18  -196  -332  -390  -398  -386  -375  -376  -405  -476  -580  -667  -687  -668  -676  -717  -760  -788  -809  -832  -845  -826  -773  -704  -644  -606  -586  -566  -543  -526  -523  -535  -562  -604  -661  -718  -760  -790  -807  -788  -719  -626  -548  -495  -456  -434  -456  -541  -661  -761  -815  -833  -821  -796  -796  -844  -923  -960  -849  -549  -171  83  0  -580  -1576  -2582  -3132  -2954  -1959  -189  2157  4665  6685  7463  6535  4115  1005  -1821  -3640  -4284  -4146  -3767  -3471  -3292  -3044  -2522  -1796  -1183  -883  -807  -781  -740  -714  -730  -767  -792  -791  -746  -638  -462  -231  9  175  217  200  222  285  353  430  522  604  644  655  746  1048  1537  2014  2324  2466  2497  2448  2338  2189  2039  1924  1839  1770  1729  1715  1689  1604  1448  1258  1102  1014  972  936  895  856  815  754  677  625  658  804  1009  1156  1174  1079  945  849  815  818  830  849  880  912  934  968  1061  1209  1329  1362  1342  1320  1295  1232  1130  1023  951  942  1011  1165  1381  1588  1719  1774  1787  1787  1788  1789  1770  1697  1551  1348  1132  932  768  687  728  839  925  954  955  962  987  1014  979  809  592  481  334  -32  -219  514  2537  5507  8460  10102  9461  6758  3278  203  -1878  -2775  -2753  -2418  -2124  -1786  -1312  -837  -522  -395  -388  -408  -367  -212  14  206  307  340  360  410  492  574  628  645  637  621  603  570  518  483  511  598  697  770  812  837  894  1040  1253  1443  1560  1610  1588  1463  1233  978  790  691  649  632  623  610  566  470  331  165  -17  -194  -344  -495  -656  -790  -888  -969  -1022  -1013  -925  -774  -617  -512  -467  -468  -493  -504  -464  -388  -325  -321  -412  -634  -946  -1218  -1359  -1394  -1386  -1355  -1290  -1206  -1144  -1129  -1151  -1187  -1209  -1203  -1183  -1165  -1147  -1132  -1143  -1201  -1285  -1348  -1372  -1373  -1363  -1336  -1286  -1235  -1222  -1266  -1369  -1526  -1702  -1825  -1843  -1778  -1713  -1725  -1845  -2043  -2287  -2523  -2572  -2343  -2091  -2090  -2217  -2030  -1036  1003  3721  6035  6691  5194  2131  -1339  -4118  -5617  -6030  -5972  -5788  -5415  -4726  -3818  -3023  -2601  -2505  -2529  -2533  -2464  -2334  -2197  -2106  -2056  -1995  -1891  -1766  -1661  -1601  -1584  -1586  -1592  -1600  -1601  -1565  -1459  -1297  -1147  -1067  -1044  -1008  -893  -656  -296  98  395  540  585  597  611  627  629  604  551  488  431  372  300  232  172  33  -269  -654  -930  -1021  -995  -915  -806  -700  -633  -612  -617  -618  -589  -514  -382  -202  -19  113  161  74  -187  -528  -768  -835  -790  -703  -609  -536  -507  -522  -561  -607  -651  -680  -682  -664  -647  -657  -705  -769  -817  -838  -842  -840  -836  -828  -821  -818  -814  -786  -714  -601  -450  -256  -97  -117  -328  -572  -727  -791  -794  -753  -692  -663  -741  -968  -1288  -1570  -1719  -1683  -1402  -918  -525  -585  -1140  -1729  -1616  -334  1966  4651  6829  7585  6499  4015  1008  -1775  -3782  -4687  -4605  -3986  -3244  -2598  -2104  -1707  -1343  -1037  -836  -750  -787  -965  -1243  -1493  -1602  -1527  -1270  -873  -413  0  267  391  450  498  546  596  646  688  716  708  626  493  439  587  925  1350  1756  2054  2198  2224  2204  2190  2196  2199  2160  2038  1810  1539  1336  1229  1156  1069  974  900  850  810  781  768  765  760  753  764  827  961  1136  1303  1429  1518  1578  1582  1485  1275  996  727  559  548  704  985  1276  1469  1560  1600  1618  1567  1361  1001  641  435  379  388  413  473  605  796  965  1050  1066  1060  1046  1006  936  911  1024  1229  1381  1423  1419  1433  1463  1475  1457  1416  1324  1131  859  615  488  466  475  447  346  155  -130  -425  -509  -260  121  367  528  996  2122  3945  6185  8050  8481  7095  4449  1382  -1351  -3130  -3779  -3618  -3025  -2274  -1643  -1274  -1071  -902  -731  -551  -349  -144  24  131  182  192  164  85  -53  -218  -330  -315  -150  98  309  418  461  482  495  519  586  736  965  1193  1322  1342  1328  1370  1540  1859  2220  2423  2350  2047  1631  1216  902  720  638  610  595  556  457  281  64  -125  -249  -333  -423  -515  -525  -385  -178  -89  -190  -381  -521  -568  -566  -555  -534  -487  -418  -366  -364  -427  -540  -642  -668  -594  -465  -354  -312  -382  -598  -896  -1125  -1214  -1213  -1184  -1138  -1051  -909  -748  -619  -524  -416  -260  -67  113  230  276  274  215  57  -204  -510  -803  -1077  -1326  -1514  -1612  -1608  -1476  -1209  -912  -760  -835  -1042  -1150  -1033  -901  -1113  -1673  -2043  -1565  38  2639  5649  7797  7810  5638  2348  -934  -3339  -4307  -4134  -3685  -3372  -3126  -2885  -2602  -2240  -1870  -1576  -1361  -1199  -1076  -961  -829  -690  -558  -411  -247  -121  -62  -50  -66  -112  -197  -310  -398  -405  -285  -19  349  710  957  1074  1109  1109  1127  1245  1495  1782  1965  2014  1992  1955  1912  1844  1727  1532  1261  998  805  655  531  433  335  224  134  101  139  223  311  374  413  424  349  130  -170  -394  -469  -445  -373  -259  -134  -54  -31  -11  54  155  234  261  240  186  123  63  -39  -241  -489  -661  -712  -694  -664  -657  -700  -795  -887  -896  -820  -739  -702  -698  -713  -754  -823  -894  -935  -945  -938  -928  -919  -915  -917  -918  -906  -878  -855  -870  -934  -1056  -1213  -1329  -1332  -1292  -1373  -1527  -1444  -821  544  2638  4996  6766  7109  5670  2815  -501  -3181  -4558  -4713  -4221  -3571  -2933  -2357  -1924  -1694  -1603  -1491  -1277  -1041  -899  -869  -884  -880  -828  -750  -692  -672  -670  -666  -651  -632  -629  -638  -561  -245  322  912  1282  1409  1422  1430  1463  1487  1422  1205  900  665  584  652  849  1101  1274  1296  1202  1093  1066  1126  1205  1256  1291  1328  1325  1153  705  100  -379  -585  -606  -578  -550  -514  -471  -430  -373  -259  -73  149  337  423  408  349  297  264  239  234  239  162  -101  -494  -827  -1000  -1038  -939  -671  -311  -52  -30  -237  -552  -802  -894  -850  -726  -576  -451  -386  -394  -469  -589  -712  -801  -862  -926  -1008  -1069  -1054  -977  -907  -876  -844  -773  -672  -580  -508  -447  -445  -681  -1320  -2157  -2612  -2272  -1113  712  2877  4833  6036  6066  4708  2291  -345  -2390  -3419  -3544  -3309  -3191  -3228  -3168  -2858  -2405  -2002  -1730  -1495  -1138  -663  -263  -107  -191  -385  -582  -773  -933  -955  -763  -414  -71  117  135  90  110  258  490  731  978  1225  1401  1489  1565  1680  1810  1904  1943  1922  1821  1635  1429  1289  1242  1254  1283  1308  1324  1327  1305  1242  1146  1029  865  615  311  38  -156  -288  -386  -466  -531  -536  -416  -208  -51  -23  -82  -125  -87  18  122  168  145  88  40  15  -7  -62  -181  -335  -444  -472  -451  -424  -409  -410  -412  -378  -273  -121  26  156  272  348  374  376  368  327  226  87  -39  -170  -373  -659  -943  -1112  -1112  -961  -728  -502  -339  -267  -283  -341  -393  -417  -460  -660  -1084  -1540  -1683  -1260  -138  1731  4096  6278  7458  7021  4909  1814  -1193  -3282  -4152  -4027  -3424  -2820  -2417  -2165  -1973  -1804  -1641  -1473  -1284  -1070  -855  -674  -523  -384  -269  -210  -224  -305  -414  -496  -527  -512  -462  -398  -356  -356  -376  -357  -222  58  439  827  1146  1368  1491  1545  1590  1666  1743  1746  1629  1437  1275  1219  1254  1291  1276  1226  1150  989  715  423  241  191  206  222  189  69  -105  -229  -187  61  417  676  703  491  140  -182  -377  -477  -544  -582  -562  -458  -264  -19  182  281  292  266  231  197  163  118  21  -173  -430  -629  -712  -716  -681  -615  -515  -339  -28  361  655  748  638  334  -85  -446  -625  -655  -631  -604  -576  -556  -585  -671  -755  -789  -789  -791  -803  -779  -633  -392  -324  -679  -1262  -1521  -947  639  2933  5263  6873  7127  5772  3177  159  -2471  -4105  -4480  -3936  -3153  -2578  -2265  -2049  -1762  -1383  -1003  -696  -460  -277  -170  -153  -211  -301  -357  -342  -283  -214  -134  -38  52  119  190  321  500  653  742  776  778  759  727  715  823  1135  1558  1872  1981  1970  1957  2016  2136  2255  2337  2381  2365  2208  1786  1043  185  -415  -625  -610  -541  -451  -316  -160  -55  -44  -115  -206  -263  -306  -393  -527  -641  -685  -661  -614  -579  -562  -561  -567  -573  -573  -574  -584  -606  -629  -659  -728  -830  -910  -942  -948  -959  -978  -997  -1005  -1000  -983  -955  -876  -687  -413  -149  46  175  250  275  235  103  -116  -341  -479  -545  -618  -746  -922  -1123  -1303  -1381  -1290  -1085  -917  -872  -924  -1029  -1190  -1364  -1296  -604  900  3039  5284  6852  7104  5979  3907  1463  -819  -2531  -3476  -3773  -3738  -3545  -3246  -2919  -2548  -2044  -1440  -850  -388  -141  -111  -219  -368  -480  -513  -429  -201  97  306  315  126  -155  -379  -471  -465  -417  -351  -251  -64  273  765  1280  1636  1799  1874  1939  1993  2025  2043  2033  1939  1723  1447  1242  1169  1178  1170  1056  821  557  376  302  283  252  175  57  -85  -250  -405  -506  -549  -560  -547  -509  -453  -366  -255  -159  -104  -78  -58  -49  -113  -320  -626  -874  -966  -935  -868  -814  -767  -700  -607  -516  -435  -343  -238  -158  -117  -100  -89  -78  -61  -51  -92  -220  -398  -533  -572  -526  -410  -246  -109  -103  -248  -476  -709  -893  -1016  -1094  -1145  -1183  -1232  -1272  -1175  -841  -432  -339  -750  -1252  -1022  516  3239  6250  8175  8008  5860  2694  -418  -2710  -3896  -4207  -4118  -3926  -3631  -3163  -2594  -2067  -1609  -1149  -693  -368  -262  -321  -428  -497  -510  -478  -407  -316  -250  -225  -228  -241  -257  -258  -208  -75  116  304  461  650  956  1375  1789  2092  2261  2324  2288  2146  1953  1815  1781  1800  1788  1676  1458  1195  986  913  943  934  816  665  544  424  300  211  145  35  -151  -372  -554  -653  -678  -656  -589  -479  -342  -187  -16  136  213  199  96  -118  -424  -705  -851  -871  -854  -886  -980  -1038  -953  -739  -498  -318  -221  -136  33  268  450  500  418  215  -89  -417  -656  -774  -825  -822  -709  -491  -290  -197  -186  -184  -167  -172  -251  -388  -523  -655  -815  -973  -1075  -1144  -1267  -1532  -1852  -1820  -933  972  3597  6245  7933  7877  6066  3190  112  -2441  -3985  -4460  -4250  -3766  -3176  -2572  -2045  -1638  -1388  -1302  -1318  -1366  -1379  -1265  -961  -562  -272  -175  -197  -238  -264  -289  -313  -285  -145  96  354  535  615  610  526  366  186  108  294  810  1460  1907  2036  1971  1852  1731  1616  1511  1428  1377  1354  1352  1360  1354  1271  1016  567  84  -210  -250  -117  67  193  206  95  -116  -382  -626  -771  -812  -807  -799  -776  -700  -550  -338  -108  73  167  183  132  4  -160  -286  -349  -398  -489  -633  -795  -920  -966  -945  -911  -898  -896  -869  -797  -697  -619  -592  -627  -727  -856  -949  -993  -1028  -1074  -1110  -1119  -1106  -1097  -1133  -1251  -1414  -1532  -1562  -1541  -1516  -1485  -1432  -1414  -1561  -1803  -1748  -1005  549  2708  4902  6404  6601  5243  2674  -354  -3082  -4840  -5241  -4554  -3526  -2703  -2131  -1599  -992  -445  -143  -81  -154  -314  -556  -845  -1089  -1179  -1097  -889  -573  -176  181  398  517  637  776  875  917  972  1119  1334  1505  1577  1586  1575  1559  1540  1528  1533  1564  1655  1865  2170  2447  2596  2617  2536  2350  2074  1775  1500  1235  980  787  676  614  570  534  493  441  386  347  334  353  408  481  532  548  545  540  545  558  567  533  425  276  166  144  197  287  376  435  465  495  538  593  690  833  953  962  806  501  172  -29  -32  177  541  896  1093  1124  1070  997  915  802  679  615  630  636  560  447  364  321  304  302  297  277  244  204  160  134  176  205  -25  -495  -645  173  2197  5089  7889  9226  8181  5146  1462  -1551  -3124  -3290  -2802  -2404  -2196  -1913  -1496  -1040  -583  -160  176  406  530  560  526  474  430  390  356  344  356  383  403  400  375  340  322  343  390  448  527  637  774  952  1188  1451  1664  1791  1884  1999  2111  2166  2158  2062  1796  1378  974  707  523  313  69  -130  -224  -206  -98  45  155  200  198  162  84  -50  -231  -423  -602  -764  -905  -993  -996  -937  -888  -911  -1007  -1096  -1092  -1012  -940  -932  -982  -1054  -1104  -1120  -1123  -1142  -1195  -1274  -1344  -1383  -1395  -1396  -1381  -1331  -1243  -1138  -1035  -938  -855  -810  -843  -968  -1130  -1252  -1307  -1342  -1420  -1549  -1658  -1685  -1668  -1684  -1757  -1847  -1892  -1868  -1810  -1760  -1750  -1848  -2135  -2610  -3100  -3228  -2613  -1097  1182  3648  5461  6029  5099  2796  -241  -3217  -5457  -6468  -6260  -5348  -4329  -3646  -3402  -3325  -3135  -2816  -2482  -2220  -2044  -1895  -1717  -1550  -1456  -1434  -1444  -1473  -1529  -1601  -1652  -1657  -1620  -1567  -1528  -1520  -1538  -1567  -1553  -1403  -1054  -559  -65  282  452  512  543  574  611  645  648  592  469  316  194  130  111  117  136  153  123  -12  -256  -522  -750  -952  -1120  -1203  -1185  -1123  -1067  -995  -853  -660  -488  -380  -346  -369  -400  -415  -462  -614  -860  -1088  -1202  -1189  -1073  -901  -724  -527  -252  63  295  384  373  328  278  221  160  117  112  141  183  214  227  227  210  177  150  161  210  265  305  320  315  309  295  216  5  -329  -644  -799  -820  -806  -772  -670  -518  -470  -687  -1143  -1646  -1850  -1213  679  3624  6612  8373  8233  6323  3323  269  -1923  -3059  -3498  -3556  -3368  -3011  -2524  -1940  -1370  -937  -695  -597  -525  -412  -279  -159  -19  172  354  432  400  318  249  222  214  211  241  355  559  794  987  1094  1125  1134  1183  1369  1764  2252  2597  2707  2653  2514  2351  2221  2134  2061  1982  1871  1687  1451  1250  1115  1005  905  857  856  848  817  775  725  674  622  548  438  325  280  340  459  555  592  574  499  378  260  195  180  181  173  163  161  163  159  150  141  130  108  112  251  622  1157  1631  1885  1944  1879  1697  1405  1081  800  574  411  328  320  347  379  411  444  470  480  468  438  391  314  202  70  -55  -94  13  63  -219  -690  -905  -510  686  2644  4956  6914  7704  6805  4387  1267  -1525  -3206  -3613  -3299  -2977  -2850  -2682  -2266  -1672  -1130  -776  -593  -505  -444  -386  -350  -344  -349  -351  -355  -365  -358  -304  -219  -154  -129  -117  -94  -62  1  202  617  1126  1497  1636  1638  1620  1614  1591  1517  1394  1248  1118  1041  1020  1026  1025  992  922  860  839  826  781  709  620  528  453  375  242  61  -120  -308  -527  -732  -869  -941  -942  -843  -663  -479  -349  -284  -266  -267  -263  -265  -302  -371  -443  -476  -444  -362  -272  -224  -243  -287  -309  -324  -391  -549  -759  -938  -1041  -1084  -1102  -1100  -1008  -746  -355  -23  104  50  -74  -174  -233  -271  -291  -289  -281  -301  -385  -550  -769  -965  -1034  -940  -771  -647  -624  -701  -830  -923  -978  -992  -754  81  1784  4197  6543  7833  7397  5315  2413  -398  -2483  -3496  -3662  -3502  -3240  -2937  -2674  -2394  -2000  -1559  -1211  -992  -848  -745  -686  -653  -601  -513  -408  -304  -199  -87  13  55  9  -91  -180  -187  -60  189  464  677  823  936  1025  1102  1221  1431  1687  1874  1945  1948  1940  1938  1937  1929  1887  1781  1621  1451  1266  1013  718  486  381  374  390  374  329  264  171  45  -100  -209  -228  -190  -175  -217  -296  -375  -444  -486  -476  -439  -441  -505  -584  -622  -609  -586  -584  -584  -567  -538  -497  -445  -374  -259  -105  35  98  9  -287  -697  -988  -995  -724  -343  -63  35  9  -112  -345  -672  -988  -1175  -1219  -1201  -1199  -1243  -1314  -1377  -1426  -1472  -1497  -1440  -1247  -953  -716  -721  -1068  -1633  -1983  -1537  71  2660  5378  7078  6971  5023  1977  -1023  -3149  -4198  -4375  -4080  -3723  -3474  -3193  -2685  -1991  -1379  -1027  -857  -751  -715  -788  -928  -1045  -1095  -1092  -1052  -975  -856  -713  -576  -463  -383  -342  -325  -305  -277  -265  -274  -210  99  694  1334  1729  1837  1806  1758  1733  1732  1760  1822  1888  1881  1738  1481  1172  827  464  146  -66  -142  -87  40  161  229  240  161  -61  -380  -656  -790  -754  -554  -298  -165  -220  -340  -386  -357  -307  -248  -176  -110  -64  -37  -25  -30  -51  -104  -199  -277  -263  -184  -130  -134  -166  -194  -212  -218  -188  -96  38  132  86  -140  -456  -691  -765  -714  -580  -389  -194  -63  -18  -43  -115  -210  -324  -510  -798  -1102  -1296  -1345  -1288  -1159  -986  -826  -742  -791  -1023  -1385  -1673  -1683  -1290  -363  1173  3178  5249  6777  7093  5832  3342  451  -2120  -3788  -4294  -4102  -3781  -3410  -2921  -2301  -1547  -823  -397  -349  -564  -867  -1099  -1151  -933  -406  243  689  787  611  302  14  -144  -144  6  272  556  751  827  816  756  673  591  552  649  992  1515  1964  2153  2115  1983  1863  1784  1717  1608  1431  1226  1039  849  600  318  95  -10  -24  17  105  206  243  166  12  -138  -251  -314  -309  -252  -197  -181  -193  -210  -217  -229  -279  -377  -474  -509  -485  -440  -383  -309  -213  -99  -7  33  15  -95  -311  -550  -713  -799  -861  -897  -865  -746  -541  -303  -128  -33  44  140  231  289  312  296  243  160  35  -166  -428  -657  -773  -777  -713  -634  -582  -579  -621  -686  -744  -769  -724  -542  -234  -31  -259  -991  -1827  -2062  -1150  977  3949  6856  8368  7630  4969  1513  -1535  -3339  -3735  -3265  -2614  -2111  -1834  -1766  -1756  -1638  -1355  -980  -643  -415  -275  -186  -131  -104  -91  -88  -129  -253  -429  -553  -528  -334  -63  162  345  569  818  988  1041  1032  1032  1064  1121  1208  1325  1452  1567  1653  1696  1703  1683  1641  1586  1533  1490  1456  1430  1403  1372  1332  1256  1118  895  581  237  -66  -334  -574  -716  -717  -625  -512  -424  -383  -383  -392  -363  -264  -118  16  118  202  247  176  -76  -435  -731  -892  -971  -1006  -948  -741  -467  -327  -416  -608  -728  -745  -733  -732  -706  -581  -337  -65  101  115  44  -22  -60  -92  -154  -257  -384  -510  -632  -754  -873  -976  -1024  -992  -933  -910  -942  -1010  -1055  -1035  -967  -874  -758  -639  -562  -588  -690  -585  127  1591  3579  5600  6920  6828  5169  2432  -565  -2967  -4212  -4338  -3844  -3217  -2658  -2196  -1828  -1523  -1224  -925  -682  -550  -531  -575  -623  -654  -665  -628  -492  -257  0  166  175  70  -50  -132  -150  -15  378  958  1456  1694  1722  1655  1545  1436  1413  1530  1724  1878  1946  1963  1954  1907  1789  1586  1376  1291  1376  1509  1532  1439  1326  1190  938  597  318  159  74  28  -12  -97  -233  -397  -571  -699  -692  -568  -455  -425  -435  -405  -303  -134  59  194  236  222  161  20  -193  -426  -628  -768  -838  -844  -822  -818  -843  -832  -704  -447  -145  74  170  192  179  134  56  -69  -269  -527  -770  -913  -915  -799  -639  -530  -537  -661  -832  -954  -991  -982  -969  -973  -981  -945  -846  -796  -940  -1160  -1108  -406  1218  3582  5849  6996  6471  4435  1547  -1331  -3384  -4293  -4351  -3940  -3278  -2603  -2081  -1686  -1374  -1180  -1112  -1106  -1102  -1091  -1079  -1054  -996  -890  -741  -571  -416  -308  -242  -182  -88  71  303  543  698  744  727  685  634  603  644  818  1123  1470  1739  1870  1898  1900  1923  1969  2009  2007  1976  1963  1959  1846  1521  1079  746  583  459  311  188  80  -94  -327  -503  -568  -568  -556  -549  -546  -549  -567  -610  -670  -726  -765  -772  -701  -493  -176  101  207  105  -159  -457  -660  -754  -802  -837  -862  -868  -854  -840  -851  -896  -993  -1167  -1380  -1519  -1456  -1142  -700  -347  -166  -109  -136  -224  -334  -454  -600  -779  -963  -1106  -1193  -1240  -1265  -1282  -1309  -1354  -1385  -1343  -1183  -934  -735  -682  -749  -953  -1274  -1341  -509  1536  4355  6857  7786  6490  3409  -221  -3102  -4537  -4646  -3975  -3051  -2224  -1657  -1343  -1193  -1134  -1125  -1134  -1143  -1148  -1141  -1105  -1027  -913  -783  -626  -384  -28  344  590  699  769  848  906  923  909  887  868  851  839  860  970  1182  1431  1630  1742  1776  1775  1799  1891  2020  2113  2145  2154  2182  2208  2118  1782  1239  737  456  311  119  -149  -381  -500  -535  -512  -381  -97  235  422  381  219  89  49  64  84  63  -31  -183  -326  -405  -425  -408  -369  -312  -241  -171  -120  -107  -145  -242  -376  -477  -474  -340  -123  72  188  254  313  373  421  441  419  360  263  109  -112  -384  -630  -744  -699  -573  -441  -362  -354  -356  -318  -263  -218  -172  -88  -10  -114  -487  -974  -1344  -1382  -872  344  2276  4664  6808  7743  6967  4766  1859  -877  -2681  -3324  -3181  -2746  -2267  -1862  -1597  -1410  -1219  -1048  -944  -908  -896  -852  -751  -629  -544  -501  -422  -217  83  342  486  562  624  672  690  685  675  675  707  797  943  1110  1274  1423  1517  1531  1517  1565  1705  1943  2259  2558  2716  2626  2236  1676  1217  1002  963  982  995  963  850  640  355  63  -147  -244  -276  -304  -335  -355  -390  -463  -532  -524  -443  -359  -279  -150  10  86  -9  -240  -509  -761  -960  -1052  -1000  -814  -540  -269  -112  -123  -273  -472  -619  -672  -630  -496  -303  -120  0  32  -15  -102  -177  -244  -348  -515  -716  -904  -1040  -1109  -1123  -1099  -1033  -920  -794  -737  -846  -1149  -1529  -1802  -1864  -1685  -1298  -911  -775  -913  -1169  -1290  -916  217  2052  4243  6184  7035  6236  4051  1223  -1621  -3905  -5165  -5506  -5261  -4531  -3554  -2743  -2266  -2040  -1923  -1806  -1662  -1517  -1370  -1207  -1060  -961  -889  -823  -778  -776  -820  -889  -938  -906  -753  -521  -321  -225  -200  -186  -154  -91  68  406  855  1221  1397  1446  1461  1474  1465  1412  1331  1240  1096  855  575  367  276  255  222  102  -123  -371  -536  -598  -613  -621  -625  -598  -526  -427  -341  -284  -240  -206  -206  -271  -390  -510  -583  -601  -609  -671  -788  -883  -877  -753  -561  -371  -227  -154  -179  -312  -508  -686  -808  -878  -878  -755  -480  -114  207  389  436  370  186  -79  -308  -413  -389  -269  -113  3  37  -19  -167  -362  -521  -602  -626  -637  -670  -738  -808  -822  -737  -539  -285  -64  123  219  240  661  2008  4178  6421  7679  7103  4670  1294  -1759  -3603  -4073  -3637  -2970  -2481  -2212  -2054  -1856  -1483  -969  -519  -278  -196  -174  -182  -219  -254  -235  -122  62  228  310  324  318  319  313  274  228  240  312  386  482  708  1092  1505  1798  1941  1981  1965  1906  1819  1751  1727  1717  1704  1710  1739  1761  1718  1557  1298  1041  857  717  541  308  69  -121  -202  -144  -41  -32  -162  -345  -437  -381  -226  -59  53  100  110  87  8  -129  -279  -392  -452  -468  -454  -417  -356  -271  -190  -143  -134  -160  -241  -392  -579  -729  -805  -822  -790  -681  -465  -168  121  318  399  396  344  259  152  49  -22  -51  -43  -10  0  -104  -388  -769  -1037  -1030  -735  -310  11  91  -104  -525  -952  -1156  -1124  -925  -538  153  1386  3306  5569  7330  7658  6127  3132  -325  -3088  -4383  -4240  -3240  -1960  -857  -266  -218  -495  -838  -1069  -1143  -1084  -898  -608  -290  -44  19  -168  -522  -819  -888  -738  -487  -239  -40  127  305  472  553  526  470  475  586  827  1155  1448  1621  1682  1690  1689  1693  1678  1601  1442  1240  1064  952  879  803  718  653  640  653  585  357  9  -337  -580  -685  -696  -680  -678  -693  -703  -700  -699  -709  -696  -622  -505  -405  -356  -349  -385  -472  -578  -630  -585  -486  -401  -345  -301  -266  -253  -262  -289  -318  -327  -301  -235  -154  -95  -114  -264  -484  -640  -706  -735  -742  -715  -654  -586  -539  -496  -411  -254  -62  71  93  24  -75  -179  -337  -605  -909  -1101  -1114  -999  -904  -996  -1302  -1695  -1999  -1883  -905  1074  3730  6361  7947  7641  5465  2264  -900  -3131  -4033  -3944  -3452  -2886  -2414  -2134  -1961  -1720  -1389  -1107  -946  -854  -780  -706  -626  -569  -559  -565  -530  -417  -234  -46  88  175  255  360  476  549  553  520  490  498  619  919  1309  1595  1709  1753  1813  1879  1901  1857  1772  1676  1557  1386  1194  1063  1018  1002  932  751  467  167  -52  -166  -216  -254  -297  -330  -341  -335  -314  -285  -265  -278  -339  -435  -514  -515  -419  -303  -285  -378  -482  -531  -539  -536  -527  -501  -451  -392  -348  -336  -350  -371  -370  -326  -247  -166  -106  -78  -84  -121  -171  -207  -220  -214  -192  -165  -184  -316  -558  -811  -961  -986  -965  -952  -930  -877  -757  -537  -271  -95  -109  -334  -679  -971  -1095  -1062  -1016  -1175  -1562  -1792  -1286  323  2883  5694  7754  8095  6394  3348  96  -2469  -3864  -4132  -3841  -3531  -3228  -2764  -2213  -1741  -1394  -1148  -990  -920  -914  -912  -860  -752  -636  -566  -546  -555  -574  -580  -517  -340  -100  75  136  126  94  55  38  136  465  1004  1531  1830  1901  1878  1854  1840  1817  1773  1687  1528  1324  1167  1103  1114  1154  1141  993  716  408  169  39  -23  -89  -193  -333  -489  -623  -688  -677  -637  -598  -552  -485  -397  -304  -230  -178  -134  -97  -72  -76  -157  -350  -598  -787  -855  -775  -541  -254  -101  -170  -356  -501  -543  -482  -321  -109  58  142  155  113  36  -62  -164  -239  -282  -315  -338  -342  -334  -325  -318  -343  -446  -657  -918  -1102  -1136  -1039  -874  -726  -650  -644  -671  -680  -634  -625  -810  -1038  -816  283  2333  4904  7095  7905  6850  4374  1409  -1292  -3224  -4155  -4277  -3929  -3272  -2440  -1695  -1225  -995  -895  -859  -851  -842  -816  -776  -733  -674  -584  -485  -426  -421  -436  -404  -272  -60  145  286  362  407  447  480  503  559  705  944  1233  1528  1781  1942  2004  1996  1929  1794  1615  1457  1356  1265  1104  871  631  436  303  217  137  35  -67  -137  -178  -223  -286  -359  -430  -477  -500  -515  -529  -532  -536  -579  -669  -757  -795  -786  -759  -732  -701  -656  -586  -483  -352  -242  -201  -189  -152  -131  -170  -231  -265  -267  -268  -305  -387  -479  -521  -494  -444  -399  -309  -125  105  288  379  368  263  122  22  -28  -92  -199  -294  -324  -317  -337  -401  -485  -571  -642  -680  -683  -671  -675  -739  -861  -963  -977  -963  -1027  -1080  -799  175  2074  4651  6979  7964  7021  4388  1036  -1856  -3521  -3888  -3441  -2771  -2228  -1891  -1670  -1402  -1046  -736  -584  -559  -557  -508  -402  -284  -208  -159  -61  109  286  388  421  453  542  676  793  849  827  719  563  450  491  760  1199  1616  1875  1993  2027  2009  1968  1907  1817  1725  1667  1651  1664  1695  1710  1625  1363  991  661  405  166  -52  -196  -230  -187  -180  -294  -490  -671  -793  -848  -793  -576  -225  128  338  324  133  -93  -283  -447  -577  -625  -578  -501  -454  -439  -438  -451  -483  -512  -509  -477  -444  -425  -417  -413  -407  -397  -400  -448  -549  -636  -636  -544  -391  -244  -164  -149  -147  -134  -124  -138  -197  -314  -463  -581  -623  -570  -417  -217  -64  -15  -94  -312  -597  -805  -848  -730  -499  -291  -313  -588  -776  -356  1046  3326  5782  7488  7737  6289  3643  768  -1609  -3086  -3503  -3151  -2547  -2012  -1662  -1477  -1336  -1178  -1043  -958  -894  -819  -732  -665  -639  -613  -515  -319  -84  108  228  266  226  147  80  42  36  100  282  531  732  843  919  1014  1142  1296  1465  1628  1750  1800  1774  1709  1642  1574  1464  1288  1082  902  762  628  457  225  -25  -220  -328  -369  -377  -370  -359  -376  -460  -605  -765  -893  -963  -980  -966  -938  -909  -906  -950  -1032  -1120  -1185  -1218  -1228  -1234  -1244  -1241  -1174  -1016  -819  -678  -632  -650  -697  -750  -787  -801  -804  -801  -792  -776  -756  -732  -696  -643  -583  -532  -509  -517  -527  -530  -541  -555  -560  -558  -554  -553  -551  -545  -536  -544  -608  -745  -898  -976  -998  -1135  -1516  -1953  -2111  -1825  -983  538  2641  4922  6698  7218  6126  3720  746  -1956  -3698  -4266  -3991  -3311  -2551  -1975  -1672  -1531  -1444  -1379  -1315  -1240  -1166  -1110  -1060  -961  -763  -470  -131  191  444  592  646  625  531  379  221  105  55  99  267  538  865  1231  1586  1822  1876  1817  1814  1943  2090  2151  2145  2106  2035  1916  1743  1555  1411  1316  1207  1038  854  716  581  350  12  -328  -552  -620  -578  -496  -425  -383  -362  -347  -326  -288  -240  -202  -177  -153  -128  -108  -92  -74  -69  -125  -275  -466  -590  -618  -599  -572  -544  -499  -426  -336  -257  -192  -130  -59  54  202  286  234  86  -45  -102  -132  -185  -240  -264  -263  -255  -251  -252  -264  -290  -325  -354  -374  -397  -421  -429  -461  -583  -787  -1071  -1455  -1770  -1659  -733  1177  3755  6201  7512  7070  5098  2338  -471  -2697  -3941  -4329  -4167  -3476  -2450  -1641  -1311  -1263  -1268  -1215  -1054  -770  -423  -140  -1  25  9  -28  -109  -221  -302  -276  -123  54  125  147  249  392  491  587  785  1118  1487  1749  1857  1880  1916  2025  2170  2239  2159  1966  1755  1593  1502  1463  1432  1361  1231  1064  892  739  621  527  424  305  192  105  46  10  -26  -86  -160  -215  -251  -286  -324  -360  -401  -439  -463  -488  -538  -617  -705  -774  -807  -815  -818  -814  -778  -698  -594  -516  -490  -496  -473  -372  -211  -68  0  -1  -56  -150  -244  -300  -310  -287  -247  -225  -291  -506  -810  -1049  -1143  -1096  -899  -577  -258  -83  -75  -199  -465  -883  -1329  -1594  -1554  -1280  -1040  -1101  -1363  -1282  -265  1817  4471  6736  7594  6595  4176  1266  -1303  -3063  -3923  -4099  -3862  -3364  -2731  -2140  -1713  -1433  -1208  -1000  -845  -772  -774  -819  -850  -806  -658  -447  -271  -189  -175  -158  -101  -40  -21  -10  57  182  330  519  777  1040  1218  1320  1429  1602  1828  2035  2159  2199  2193  2160  2089  1956  1729  1403  1067  847  752  685  583  456  330  226  159  119  82  23  -81  -210  -304  -338  -331  -305  -262  -217  -201  -225  -247  -219  -156  -118  -144  -219  -309  -388  -429  -388  -234  -15  137  115  -101  -404  -627  -710  -701  -628  -482  -302  -175  -130  -112  -37  115  255  238  46  -196  -391  -530  -643  -760  -878  -976  -1047  -1101  -1124  -1062  -869  -604  -408  -360  -456  -640  -765  -740  -728  -950  -1326  -1423  -741  947  3420  5947  7451  7135  5059  2002  -1039  -3205  -4117  -3994  -3352  -2670  -2163  -1765  -1365  -978  -689  -550  -532  -589  -703  -865  -1053  -1233  -1347  -1320  -1093  -712  -359  -172  -115  -67  54  237  406  525  608  668  721  797  911  1021  1066  1047  1042  1127  1297  1476  1575  1566  1513  1480  1475  1473  1459  1429  1378  1282  1112  882  641  434  291  224  194  119  -67  -343  -610  -785  -861  -874  -841  -741  -573  -400  -293  -262  -266  -274  -281  -292  -309  -325  -336  -363  -460  -645  -846  -953  -923  -801  -643  -479  -334  -235  -184  -173  -205  -288  -409  -538  -650  -724  -728  -627  -446  -279  -208  -230  -288  -323  -308  -248  -162  -75  -26  -67  -227  -446  -605  -660  -660  -654  -659  -686  -746  -828  -876  -863  -891  -1168  -1721  -2155  -1949  -857  1098  3581  5955  7560  7830  6540  4090  1178  -1539  -3455  -4244  -4088  -3470  -2863  -2505  -2321  -2120  -1813  -1459  -1175  -991  -841  -658  -422  -170  40  195  307  342  270  141  42  6  8  22  49  87  130  192  337  628  1016  1356  1556  1663  1744  1807  1842  1867  1895  1897  1839  1728  1595  1451  1324  1238  1159  1013  788  575  476  508  590  640  615  488  273  28  -184  -355  -530  -718  -850  -858  -737  -549  -375  -264  -215  -204  -202  -191  -177  -165  -165  -187  -225  -268  -331  -424  -519  -580  -606  -620  -629  -629  -616  -597  -581  -596  -689  -858  -1030  -1148  -1202  -1195  -1110  -918  -640  -365  -168  -72  -73  -157  -282  -357  -329  -250  -188  -155  -140  -158  -244  -383  -506  -569  -590  -589  -573  -538  -467  -339  -194  -142  -257  -480  -668  -754  -766  -720  -595  -456  -493  -787  -1056  -841  185  2045  4297  6209  7078  6463  4501  1797  -970  -3081  -3983  -3794  -3068  -2224  -1554  -1262  -1268  -1341  -1359  -1281  -1068  -690  -225  143  300  228  -52  -444  -764  -880  -731  -308  229  611  733  696  625  592  651  834  1084  1285  1359  1248  899  454  279  620  1316  1972  2343  2408  2239  1946  1643  1374  1147  993  913  864  811  735  598  395  189  46  -56  -177  -317  -417  -448  -436  -417  -406  -405  -409  -411  -401  -373  -336  -306  -278  -232  -171  -132  -131  -146  -147  -128  -116  -155  -259  -403  -539  -624  -655  -659  -649  -600  -495  -365  -268  -228  -231  -261  -295  -312  -305  -277  -246  -224  -225  -261  -318  -382  -456  -525  -562  -556  -509  -433  -361  -314  -291  -280  -282  -311  -388  -493  -567  -551  -432  -264  -138  -92  -108  -192  -382  -664  -901  -980  -984  -1056  -1185  -1272  -1179  -601  780  2947  5421  7328  7746  6368  3674  544  -2105  -3687  -4192  -4004  -3552  -3067  -2590  -2153  -1813  -1537  -1266  -1033  -902  -857  -836  -809  -752  -636  -484  -361  -285  -219  -137  -57  0  50  119  205  304  433  596  774  946  1084  1175  1247  1332  1421  1499  1578  1664  1731  1780  1834  1886  1885  1809  1678  1509  1321  1134  927  690  478  334  210  28  -211  -433  -559  -576  -503  -364  -205  -90  -73  -161  -300  -422  -503  -527  -485  -417  -369  -354  -359  -372  -390  -401  -368  -256  -97  24  72  78  78  46  -73  -287  -530  -716  -804  -818  -808  -803  -798  -781  -747  -711  -680  -638  -589  -543  -491  -425  -367  -351  -400  -499  -602  -651  -575  -326  10  259  337  297  193  46  -112  -219  -248  -228  -209  -241  -349  -496  -627  -730  -813  -865  -879  -871  -852  -828  -780  -661  -496  -480  -777  -1289  -1716  -1568  -327  2026  4874  7310  8468  7817  5440  2089  -1151  -3436  -4443  -4313  -3511  -2630  -2103  -1953  -1880  -1671  -1368  -1106  -965  -919  -879  -763  -551  -316  -157  -90  -59  -28  10  53  94  147  226  312  374  409  423  420  432  534  758  1035  1283  1490  1677  1828  1927  1983  2001  1942  1762  1515  1331  1276  1302  1319  1250  1070  827  606  447  336  253  205  197  219  257  289  264  119  -147  -433  -635  -736  -765  -752  -720  -689  -665  -642  -610  -579  -560  -538  -494  -430  -388  -402  -462  -536  -571  -540  -485  -483  -558  -660  -718  -719  -702  -693  -687  -650  -523  -277  -8  124  88  -33  -184  -334  -439  -489  -510  -500  -442  -356  -279  -225  -206  -230  -272  -307  -342  -377  -399  -402  -398  -412  -462  -535  -600  -646  -680  -729  -861  -1094  -1288  -1257  -997  -754  -735  -681  44  1878  4548  7051  8175  7190  4411  1041  -1735  -3309  -3696  -3406  -3002  -2731  -2521  -2244  -1966  -1810  -1720  -1561  -1299  -1002  -743  -535  -408  -402  -472  -502  -434  -299  -130  75  290  448  517  494  379  215  84  26  29  117  376  814  1268  1579  1751  1861  1927  1950  1955  1958  1943  1867  1717  1552  1456  1423  1351  1146  839  550  372  309  310  296  208  49  -127  -289  -430  -556  -659  -729  -759  -762  -760  -760  -762  -762  -753  -728  -690  -644  -586  -509  -420  -339  -276  -230  -206  -207  -230  -296  -407  -501  -509  -428  -324  -276  -296  -332  -354  -371  -407  -467  -531  -556  -507  -398  -293  -251  -265  -290  -299  -298  -318  -373  -436  -461  -452  -452  -478  -516  -569  -655  -775  -894  -981  -1031  -1045  -1025  -975  -912  -880  -911  -946  -890  -671  -91  1186  3211  5486  7183  7467  5922  2980  -282  -2854  -4212  -4363  -3773  -3008  -2400  -2032  -1806  -1599  -1386  -1204  -1080  -985  -850  -669  -479  -304  -178  -127  -128  -144  -153  -154  -159  -183  -213  -199  -123  -20  80  187  327  561  927  1370  1752  1960  2004  1986  1998  2068  2168  2236  2243  2213  2154  2028  1791  1472  1150  897  750  696  665  590  453  296  185  128  41  -170  -470  -707  -771  -686  -576  -547  -577  -587  -559  -518  -466  -389  -301  -240  -214  -194  -169  -175  -215  -223  -184  -179  -231  -281  -296  -270  -225  -213  -244  -274  -270  -236  -205  -194  -189  -153  -75  10  58  61  49  53  73  84  67  24  -34  -87  -125  -154  -171  -168  -146  -131  -195  -406  -719  -983  -1111  -1140  -1136  -1127  -1110  -1092  -1103  -1151  -1150  -846  108  1835  4068  6263  7683  7626  5957  3300  499  -1857  -3397  -4006  -3924  -3502  -2923  -2296  -1783  -1443  -1179  -914  -680  -545  -501  -486  -462  -441  -438  -443  -426  -359  -250  -153  -113  -78  63  302  494  558  547  548  608  719  850  1003  1210  1471  1747  2003  2207  2323  2345  2293  2183  2019  1840  1698  1589  1454  1261  1049  864  709  567  431  298  165  54  -7  -19  -14  -44  -152  -317  -459  -523  -525  -511  -519  -569  -644  -696  -679  -576  -431  -317  -259  -224  -191  -171  -187  -255  -374  -510  -606  -622  -541  -371  -187  -105  -181  -363  -545  -655  -683  -641  -545  -430  -340  -301  -307  -339  -378  -411  -447  -519  -639  -772  -864  -892  -875  -850  -845  -885  -994  -1146  -1256  -1315  -1401  -1539  -1702  -1801  -1558  -688  915  3104  5310  6701  6665  5067  2301  -729  -3057  -4263  -4501  -4143  -3628  -3264  -3025  -2754  -2415  -2053  -1714  -1448  -1298  -1210  -1053  -772  -441  -174  -29  -1  -68  -221  -410  -544  -561  -456  -258  -19  205  378  489  546  572  623  798  1154  1588  1903  2033  2060  2067  2076  2087  2088  2019  1801  1450  1125  960  937  951  908  764  526  268  95  43  60  90  88  8  -167  -389  -582  -717  -813  -892  -947  -971  -977  -943  -821  -607  -370  -220  -244  -457  -757  -968  -965  -747  -440  -220  -181  -293  -477  -674  -877  -1067  -1160  -1095  -916  -733  -624  -589  -589  -595  -599  -603  -612  -622  -630  -636  -640  -653  -698  -780  -877  -961  -1030  -1084  -1118  -1132  -1135  -1124  -1080  -1013  -977  -1003  -1125  -1371  -1545  -1257  -225  1654  4183  6618  7902  7340  5007  1632  -1689  -3955  -4830  -4606  -3821  -3051  -2576  -2289  -2051  -1803  -1496  -1167  -917  -767  -670  -611  -589  -590  -598  -607  -607  -584  -534  -458  -372  -306  -260  -202  -130  -31  135  355  544  677  812  970  1095  1157  1200  1283  1411  1548  1659  1729  1750  1695  1534  1314  1136  1032  957  860  697  455  171  -103  -333  -496  -585  -618  -622  -619  -619  -612  -585  -536  -482  -450  -459  -516  -605  -697  -779  -846  -885  -891  -865  -812  -748  -685  -629  -570  -495  -425  -392  -380  -367  -393  -490  -622  -737  -798  -805  -787  -763  -730  -692  -663  -660  -672  -679  -673  -665  -671  -690  -710  -741  -806  -907  -1013  -1094  -1150  -1218  -1327  -1455  -1556  -1613  -1599  -1463  -1261  -1160  -1222  -1207  -638  846  3159  5711  7566  7838  6225  3213  -238  -3148  -4798  -4974  -4079  -2932  -2214  -2034  -2093  -2091  -1874  -1440  -957  -645  -557  -599  -691  -807  -900  -890  -755  -555  -373  -235  -111  17  132  205  216  167  129  203  412  678  896  1051  1205  1406  1645  1888  2102  2267  2368  2412  2413  2371  2258  2051  1779  1513  1278  1047  829  676  600  565  537  517  526  558  583  591  583  582  617  659  638  518  348  223  179  177  186  216  309  483  691  848  921  939  933  924  961  1106  1350  1579  1676  1608  1430  1217  996  732  394  0]
