reading_id,reading_time,wire_id,result_classification,heart_rate,heart_rate_alert,firmware_version,device_app_version,hardware_version,waveform_samples
26971480-655e-11ed-8080-808080808080,Wed Nov 16 03:24:16 UTC 2022,a101e3f91939,NSR,87,NONE,20001.171.50,2.10.0,Charge 5,[-4116  -4178  -4138  -3869  -3305  -2432  -1121  734  2826  4692  6336  8006  9645  11099  12391  13428  14082  14610  15333  16377  17951  20137  22672  25216  27188  27671  26189  23252  20056  17839  17265  18135  19531  20574  21081  21273  21337  21397  21507  21603  21594  21424  21076  20647  20300  20085  19934  19812  19751  19744  19701  19523  19224  18942  18770  18622  18338  17839  17232  16755  16543  16529  16577  16617  16640  16650  16627  16528  16322  16033  15748  15520  15319  15086  14796  14476  14175  13886  13566  13229  12892  12465  11861  11222  10795  10591  10397  10065  9652  9324  9154  9023  8747  8285  7800  7472  7307  7192  7043  6868  6721  6610  6479  6250  5878  5371  4816  4369  4139  4081  4033  3852  3546  3271  3115  2973  2656  2125  1578  1237  1126  1132  1131  1040  851  627  382  33  -411  -803  -1046  -1167  -1218  -1224  -1192  -1147  -1136  -1221  -1441  -1762  -2121  -2481  -2780  -2941  -2969  -2954  -3005  -3204  -3534  -3860  -4104  -4320  -4524  -4608  -4522  -4484  -4757  -5121  -5218  -5232  -5343  -5212  -4536  -3317  -1701  -113  670  -60  -2286  -5213  -7886  -9591  -10039  -9514  -8667  -8007  -7652  -7562  -7655  -7785  -7854  -7839  -7711  -7458  -7163  -6951  -6873  -6877  -6869  -6781  -6616  -6428  -6275  -6204  -6232  -6324  -6364  -6229  -5955  -5707  -5571  -5508  -5460  -5414  -5356  -5251  -5103  -4965  -4882  -4857  -4851  -4767  -4525  -4212  -4066  -4223  -4561  -4874  -5113  -5326  -5516  -5664  -5759  -5795  -5786  -5772  -5770  -5761  -5727  -5678  -5645  -5690  -5865  -6145  -6415  -6568  -6601  -6578  -6547  -6536  -6563  -6622  -6662  -6636  -6535  -6356  -6119  -5911  -5808  -5794  -5810  -5813  -5792  -5755  -5719  -5688  -5676  -5750  -5979  -6308  -6578  -6694  -6652  -6432  -6023  -5517  -5043  -4668  -4404  -4221  -4082  -4004  -4006  -4050  -4067  -3981  -3758  -3480  -3287  -3224  -3234  -3270  -3325  -3382  -3407  -3379  -3303  -3181  -2992  -2734  -2462  -2284  -2253  -2295  -2281  -2164  -1979  -1732  -1342  -576  848  2784  4529  5344  4823  3000  483  -1773  -3108  -3397  -2945  -2177  -1296  -535  -248  -391  -592  -672  -636  -492  -267  -42  111  164  140  121  127  115  102  169  358  598  755  785  763  812  1015  1375  1803  2167  2369  2416  2418  2497  2717  3047  3372  3571  3587  3409  3067  2678  2372  2198  2129  2110  2108  2150  2300  2551  2795  2937  2984  2968  2850  2582  2219  1859  1531  1284  1213  1305  1503  1804  2112  2231  2063  1727  1440  1291  1222  1212  1270  1316  1275  1188  1129  1111  1118  1142  1160  1099  871  497  105  -201  -408  -514  -497  -355  -121  178  474  644  655  611  612  673  772  887  984  1043  1033  908  693  480  333  232  82  -205  -560  -799  -872  -905  -970  -934  -665  -321  -206  -448  -867  -889  174  2387  4950  6803  7119  5548  2642  -265  -2098  -2643  -2244  -1451  -832  -583  -445  -218  8  135  159  110  48  27  68  174  306  382  364  308  278  280  292  307  344  421  537  682  818  894  913  926  933  911  886  890  921  982  1072  1164  1234  1291  1364  1469  1587  1679  1696  1578  1286  888  543  309  74  -255  -603  -836  -921  -919  -909  -952  -1069  -1246  -1458  -1661  -1800  -1871  -1912  -1938  -1937  -1890  -1815  -1756  -1709  -1636  -1555  -1504  -1492  -1522  -1583  -1666  -1771  -1835  -1805  -1754  -1771  -1836  -1900  -1965  -2037  -2105  -2114  -1965  -1643  -1309  -1119  -1072  -1082  -1109  -1193  -1387  -1681  -1974  -2172  -2279  -2345  -2361  -2261  -1989  -1589  -1219  -1005  -918  -860  -797  -802  -921  -975  -811  -711  -911  -983  -318  1239  3451  5677  6870  6333  4373  1838  -436  -1744  -1938  -1523  -1009  -533  -61  358  636  754  759  717  691  765  1007  1354  1645  1801  1881  1967  2076  2156  2169  2122  2052  2004  2005  2052  2119  2180  2242  2320  2409  2488  2542  2574  2606  2647  2676  2672  2646  2619  2588  2524  2411  2313  2291  2311  2322  2328  2347  2337  2193  1852  1413  1031  729  478  297  150  -88  -472  -888  -1179  -1296  -1305  -1283  -1253  -1207  -1154  -1152  -1244  -1380  -1474  -1506  -1512  -1510  -1469  -1354  -1195  -1075  -1031  -1045  -1102  -1192  -1291  -1360  -1372  -1324  -1219  -1049  -851  -695  -591  -505  -440  -428  -462  -489  -486  -497  -551  -628  -715  -828  -990  -1201  -1401  -1498  -1458  -1307  -1094  -959  -1056  -1310  -1549  -1769  -1982  -1997  -1471  -113  2032  4296  5688  5625  4175  2000  70  -1155  -1827  -2025  -1810  -1383  -733  165  972  1374  1441  1412  1429  1501  1581  1651  1736  1837  1929  1994  2011  1984  1969  1998  2027  2008  1924  1776  1630  1556  1555  1591  1630  1660  1695  1740  1778  1802  1851  1977  2157  2292  2297  2162  1958  1805  1759  1788  1833  1808  1597  1167  680  356  261  294  325  293  174  -96  -543  -1014  -1290  -1313  -1196  -1059  -952  -887  -857  -835  -793  -748  -761  -874  -1020  -1063  -932  -702  -511  -418  -397  -412  -444  -482  -513  -536  -555  -568  -575  -581  -584  -562  -491  -388  -304  -288  -382  -610  -898  -1111  -1221  -1307  -1407  -1479  -1503  -1523  -1591  -1700  -1797  -1850  -1863  -1868  -1916  -2039  -2195  -2280  -2266  -2237  -2277  -2282  -1967  -1094  356  2025  3177  3162  1798  -540  -2985  -4621  -5008  -4337  -3235  -2336  -1931  -1869  -1812  -1616  -1319  -986  -673  -429  -284  -198  -92  69  284  550  817  983  1029  1059  1174  1360  1526  1633  1705  1759  1795  1813  1809  1786  1779  1881  2170  2571  2887  3002  2942  2789  2614  2462  2341  2218  2072  1936  1838  1781  1793  1814  1744  1627  1530  1412  1232  1007  751  511  366  334  358  390  437  508  558  542  491  460  458  469  469  433  352  252  163  83  9  -6  82  247  393  481  547  606  660  732  816  875  894  904  935  985  1027  1040  1028  1017  1024  1045  1065  1051  980  869  761  679  616  548  479  465  550  702  839  930  991  985  806  414  -53  -313  -4  1172  3147  5295  6700  6689  5229  2926  635  -997  -1793  -1944  -1734  -1379  -952  -465  -50  167  252  326  426  519  568  578  575  575  577  566  528  455  361  276  212  171  162  184  210  216  182  70  -148  -413  -627  -761  -845  -898  -930  -937  -893  -770  -614  -557  -688  -955  -1198  -1289  -1223  -1120  -1124  -1302  -1596  -1882  -2104  -2293  -2461  -2596  -2699  -2786  -2890  -3050  -3232  -3324  -3284  -3191  -3109  -3020  -2925  -2850  -2815  -2828  -2865  -2880  -2841  -2710  -2470  -2191  -1996  -1927  -1929  -1937  -1904  -1791  -1603  -1393  -1206  -1035  -866  -730  -660  -625  -554  -414  -235  -86  -14  -16  -53  -72  -38  21  53  4  -158  -382  -553  -623  -629  -612  -573  -500  -412  -362  -387  -463  -498  -463  -505  -643  -556  9  1058  2597  4469  6044  6533  5564  3392  737  -1538  -2752  -2787  -2150  -1396  -790  -447  -355  -369  -358  -290  -199  -158  -195  -248  -237  -149  -26  92  197  294  380  433  455  472  467  405  335  363  552  844  1087  1200  1239  1275  1301  1291  1270  1275  1312  1361  1397  1412  1413  1407  1388  1362  1356  1408  1508  1585  1534  1291  919  575  358  250  186  129  100  124  162  146  58  -37  -41  60  190  272  283  244  171  48  -102  -187  -152  -46  37  60  49  61  147  310  490  614  666  657  568  358  56  -210  -350  -388  -377  -293  -88  180  357  369  284  200  154  127  78  -30  -204  -423  -657  -872  -1032  -1109  -1106  -1055  -979  -882  -789  -771  -829  -786  -550  -344  -408  -731  -1085  -1002  62  2192  4651  6246  6124  4250  1383  -1356  -3140  -3751  -3495  -2900  -2379  -2079  -1930  -1815  -1702  -1610  -1561  -1542  -1502  -1390  -1223  -1083  -1016  -999  -989  -947  -842  -687  -544  -446  -383  -334  -303  -303  -319  -295  -180  -10  128  194  208  203  200  202  206  208  216  250  325  456  611  665  548  375  287  286  310  300  210  26  -225  -486  -692  -805  -825  -744  -549  -302  -147  -181  -399  -707  -967  -1094  -1109  -1078  -1005  -860  -677  -549  -512  -527  -543  -533  -488  -426  -378  -358  -356  -361  -384  -451  -565  -688  -764  -773  -721  -625  -527  -466  -426  -386  -351  -311  -238  -146  -86  -86  -122  -154  -168  -159  -126  -73  -21  12  31  34  12  -43  -127  -202  -217  -175  -127  -106  -105  -107  -106  -110  -137  -190  -233  -217  -133  -90  -256  -606  -914  -937  -426  752  2464  4371  6004  6800  6332  4653  2250  -206  -2003  -2716  -2506  -1855  -1157  -568  -130  102  130  61  10  19  58  105  184  305  441  562  648  693  696  684  723  851  1016  1147  1240  1316  1364  1370  1359  1404  1586  1907  2256  2507  2623  2645  2619  2557  2455  2337  2246  2192  2146  2087  2029  1985  1950  1911  1856  1783  1716  1674  1634  1548  1385  1152  918  777  741  715  607  418  212  11  -172  -295  -336  -312  -241  -142  -58  -18  -14  -24  -30  -21  12  62  102  118  114  98  72  45  45  91  127  72  -96  -329  -546  -694  -772  -805  -816  -824  -836  -849  -856  -844  -818  -796  -794  -811  -834  -845  -842  -838  -852  -900  -977  -1081  -1199  -1285  -1298  -1231  -1086  -881  -687  -579  -558  -573  -591  -600  -601  -595  -579  -568  -606  -742  -948  -1118  -1186  -1165  -1092  -990  -888  -825  -809  -815  -835  -919  -1141  -1443  -1605  -1577  -1538  -1541  -1426  -939  147  1852  3937  5745  6310  5177  2792  37  -2193  -3355  -3523  -3175  -2726  -2367  -2163  -2084  -2034  -1952  -1843  -1730  -1647  -1594  -1484  -1237  -959  -870  -997  -1163  -1244  -1254  -1226  -1144  -993  -818  -688  -610  -543  -458  -376  -326  -303  -272  -208  -122  -53  -25  -44  -108  -191  -249  -262  -247  -239  -285  -416  -585  -702  -743  -769  -839  -941  -1019  -1051  -1063  -1090  -1196  -1441  -1768  -2010  -2077  -2022  -1947  -1896  -1859  -1819  -1776  -1734  -1704  -1689  -1692  -1725  -1795  -1863  -1863  -1791  -1706  -1652  -1624  -1590  -1540  -1524  -1574  -1642  -1652  -1580  -1463  -1353  -1250  -1099  -911  -767  -700  -661  -600  -517  -441  -394  -382  -392  -391  -357  -299  -254  -252  -286  -329  -372  -423  -497  -562  -541  -401  -197  -17  97  184  283  374  406  354  244  146  102  91  85  97  180  367  618  841  967  983  926  825  670  482  337  271  253  260  305  386  447  430  367  332  319  302  300  324  285  16  -445  -709  -575  -334  -121  303  1159  2476  4169  6015  7453  7700  6426  4055  1411  -700  -1808  -1989  -1724  -1421  -1099  -596  11  475  740  933  1120  1268  1312  1218  1045  900  846  867  902  913  914  956  1079  1280  1507  1688  1748  1659  1486  1335  1270  1322  1532  1866  2182  2368  2432  2428  2398  2369  2351  2340  2304  2210  2064  1874  1612  1312  1076  947  937  1117  1438  1605  1374  861  387  127  33  0  -48  -156  -322  -485  -571  -565  -522  -484  -458  -443  -432  -416  -400  -395  -399  -400  -391  -355  -278  -189  -129  -120  -161  -225  -271  -298  -333  -378  -389  -315  -161  17  157  228  230  184  108  -3  -155  -299  -379  -390  -360  -326  -322  -343  -335  -238  -64  48  -3  -151  -291  -394  -473  -580  -783  -1043  -1220  -1224  -1060  -740  -302  113  363  436  419  386  358  327  281  203  72  -82  -187  -212  -201  -187  -147  -42  99  190  179  96  -7  -101  -188  -285  -364  -376  -339  -337  -444  -645  -694  -184  1144  3179  5390  6968  7235  6030  3673  854  -1482  -2741  -3042  -2782  -2366  -2129  -2017  -1784  -1446  -1180  -1044  -994  -980  -970  -955  -939  -915  -855  -752  -638  -538  -427  -281  -112  52  175  233  240  230  219  212  216  247  319  431  552  643  682  699  749  861  995  1077  1079  1034  994  982  990  1003  1018  1026  1006  921  757  544  340  198  123  79  39  3  -20  -32  -27  -17  -56  -185  -357  -482  -539  -581  -635  -680  -703  -717  -721  -673  -522  -294  -68  101  165  100  -36  -178  -303  -377  -365  -258  -109  -4  0  -90  -220  -311  -316  -238  -124  -38  -23  -100  -259  -434  -553  -604  -622  -628  -628  -645  -695  -768  -829  -858  -851  -802  -727  -652  -576  -475  -360  -278  -247  -248  -280  -353  -441  -469  -388  -236  -102  -27  0  2  -34  -133  -272  -385  -429  -385  -237  -35  111  117  -37  -301  -576  -799  -956  -1029  -1027  -1010  -1016  -1024  -1018  -1015  -1054  -1169  -1317  -1395  -1442  -1619  -1776  -1454  -380  1461  3789  5818  6643  5856  3681  808  -1851  -3525  -3975  -3534  -2770  -2151  -1894  -1936  -2037  -2015  -1853  -1626  -1419  -1277  -1206  -1180  -1145  -1087  -1080  -1177  -1290  -1294  -1206  -1125  -1071  -973  -781  -547  -368  -285  -246  -161  3  198  358  462  534  617  728  857  985  1089  1167  1248  1335  1398  1428  1430  1404  1345  1281  1249  1227  1145  970  752  589  522  512  518  538  561  517  320  7  -275  -451  -538  -555  -520  -474  -451  -438  -381  -245  -66  97  222  266  199  87  11  -15  -5  31  100  205  304  333  276  166  72  66  145  245  341  447  547  602  574  441  239  60  -33  -39  14  84  131  149  149  119  41  -63  -132  -113  -1  157  297  385  427  441  444  444  429  386  328  286  278  292  309  320  331  349  384  440  511  581  638  694  762  807  789  703  550  382  295  284  281  287  283  207  84  -9  -47  -46  -29  -13  -36  -141  -312  -454  -559  -746  -1010  -1106  -687  540  2580  4971  7014  8012  7378  5170  2308  -260  -2031  -2772  -2645  -2153  -1661  -1249  -934  -747  -664  -622  -574  -496  -401  -332  -307  -309  -319  -343  -387  -429  -444  -428  -389  -342  -289  -229  -167  -110  -54  12  84  95  -3  -121  -120  40  275  460  543  557  546  537  545  576  619  654  670  673  677  694  706  647  458  173  -93  -273  -381  -457  -528  -615  -749  -938  -1129  -1255  -1322  -1393  -1513  -1648  -1699  -1614  -1452  -1298  -1155  -995  -842  -739  -696  -688  -688  -701  -753  -835  -864  -768  -589  -400  -226  -86  -22  -55  -142  -214  -244  -256  -283  -345  -424  -472  -457  -391  -312  -239  -158  -71  -13  -30  -144  -318  -477  -576  -622  -638  -635  -614  -589  -581  -583  -571  -525  -446  -347  -268  -262  -328  -402  -440  -446  -449  -484  -575  -688  -751  -727  -654  -597  -579  -582  -580  -561  -534  -508  -462  -367  -237  -120  -42  -24  -94  -245  -409  -518  -590  -694  -834  -939  -973  -977  -1004  -1066  -1124  -1129  -1083  -1034  -1011  -978  -878  -745  -769  -1065  -1458  -1607  -1213  -97  1716  3910  6000  7425  7507  5926  3225  353  -1853  -2861  -2750  -2100  -1427  -973  -717  -508  -289  -119  -31  -1  -2  -21  -32  36  245  532  746  823  820  797  764  703  618  547  518  529  570  633  695  732  737  725  725  774  902  1117  1379  1595  1704  1723  1706  1681  1641  1561  1436  1330  1301  1290  1211  1106  1064  1079  1058  901  627  374  229  167  123  65  -9  -114  -242  -346  -384  -365  -326  -292  -273  -269  -277  -302  -365  -460  -537  -548  -476  -323  -115  84  209  244  235  223  222  228  230  205  131  2  -142  -238  -267  -262  -260  -272  -290  -316  -353  -385  -385  -340  -266  -236  -344  -591  -863  -1041  -1092  -1037  -897  -714  -563  -479  -441  -435  -489  -638  -833  -951  -912  -771  -674  -699  -772  -807  -808  -812  -827  -826  -786  -720  -667  -647  -650  -659  -675  -710  -769  -845  -939  -1044  -1131  -1176  -1185  -1178  -1162  -1137  -1111  -1095  -1096  -1111  -1127  -1106  -1033  -964  -956  -1011  -1112  -1103  -636  482  2184  4252  6159  7117  6597  4692  1973  -788  -2759  -3433  -3001  -2082  -1277  -903  -875  -950  -998  -995  -962  -883  -685  -370  -58  149  255  279  251  233  257  313  390  459  496  511  518  511  480  447  494  703  1026  1309  1464  1518  1539  1570  1599  1582  1510  1438  1432  1493  1563  1606  1632  1644  1619  1524  1377  1222  1069  907  765  667  598  528  443  321  133  -92  -268  -347  -363  -353  -306  -193  -54  17  -7  -66  -97  -101  -115  -158  -215  -262  -294  -313  -319  -317  -317  -325  -343  -369  -388  -353  -216  -15  136  184  169  143  119  90  44  -8  -51  -79  -105  -145  -213  -302  -401  -553  -805  -1099  -1295  -1299  -1096  -760  -441  -258  -220  -260  -309  -343  -388  -473  -575  -648  -698  -735  -725  -681  -659  -671  -669  -574  -366  -221  -378  -785  -1137  -1280  -1290  -1264  -1237  -1221  -1230  -1260  -1286  -1313  -1383  -1485  -1548  -1598  -1706  -1753  -1458  -580  918  2777  4507  5518  5358  4033  2020  -59  -1750  -2832  -3276  -3189  -2819  -2507  -2340  -2103  -1720  -1372  -1211  -1215  -1278  -1334  -1351  -1255  -978  -601  -322  -218  -210  -212  -197  -184  -211  -304  -434  -533  -567  -552  -506  -442  -369  -266  -88  175  464  696  853  947  959  914  879  882  909  933  927  856  696  492  336  255  210  176  140  59  -90  -290  -503  -725  -994  -1305  -1564  -1701  -1744  -1748  -1730  -1686  -1622  -1565  -1527  -1481  -1399  -1287  -1192  -1161  -1194  -1239  -1251  -1265  -1305  -1298  -1206  -1106  -1061  -1058  -1067  -1080  -1103  -1124  -1100  -990  -827  -704  -669  -693  -737  -794  -859  -902  -878  -768  -612  -491  -446  -470  -551  -655  -726  -738  -707  -664  -616  -550  -489  -462  -443  -356  -163  70  232  265  179  29  -130  -301  -466  -571  -602  -602  -602  -599  -582  -556  -548  -559  -551  -512  -481  -533  -679  -778  -751  -758  -818  -591  278  1872  3939  5962  7299  7371  5998  3597  984  -1037  -1994  -1899  -1262  -725  -548  -548  -444  -141  266  608  778  810  826  923  1125  1376  1569  1632  1584  1496  1420  1366  1340  1398  1572  1792  1963  2075  2171  2278  2411  2573  2734  2868  3001  3179  3388  3570  3734  3972  4303  4605  4756  4741  4630  4510  4414  4318  4237  4204  4195  4152  4036  3867  3704  3591  3533  3509  3486  3447  3393  3330  3222  3042  2871  2848  2983  3159  3300  3400  3454  3463  3444  3414  3397  3429  3537  3692  3834  3954  4064  4150  4199  4208  4184  4158  4158  4176  4171  4128  4090  4099  4136  4137  4076  4004  3963  3919  3836  3745  3687  3666  3654  3603  3471  3292  3153  3105  3111  3099  3040  2942  2822  2711  2607  2484  2363  2281  2235  2217  2215  2198  2123  1974  1806  1701  1700  1794  1930  2041  2081  2000  1758  1430  1176  1055  990  905  783  631  472  345  282  288  308  201  -175  -764  -1319  -1686  -1884  -1951  -1917  -1847  -1771  -1688  -1656  -1803  -2127  -2394  -2475  -2544  -2746  -2964  -2834  -1886  28  2416  4366  4992  3918  1583  -1106  -3398  -4859  -5439  -5465  -5251  -4867  -4411  -4095  -4017  -4094  -4205  -4278  -4312  -4341  -4380  -4419  -4475  -4584  -4748  -4916  -5035  -5094  -5113  -5129  -5185  -5285  -5389  -5463  -5513  -5560  -5625  -5739  -5897  -6041  -6127  -6166  -6190  -6191  -6121  -5966  -5771  -5608  -5528  -5531  -5574  -5607  -5610  -5603  -5601  -5618  -5699  -5879  -6110  -6302  -6438  -6584  -6778  -6965  -7082  -7136  -7168  -7188  -7159  -7057  -6924  -6816  -6741  -6696  -6674  -6636  -6544  -6423  -6333  -6290  -6256  -6205  -6143  -6063  -5944  -5801  -5682  -5608  -5554  -5492  -5416  -5350  -5320  -5311  -5272  -5172  -5055  -5000  -5019  -5040  -4982  -4835  -4656  -4515  -4444  -4450  -4520  -4626  -4751  -4869  -4910  -4776  -4427  -3988  -3664  -3536  -3511  -3459  -3328  -3166  -3046  -2977  -2916  -2812  -2639  -2420  -2202  -1992  -1784  -1593  -1436  -1301  -1149  -939  -675  -423  -264  -210  -211  -227  -237  -197  -57  175  416  583  675  743  814  865  868  853  928  1171  1503  1752  1846  1840  1787  1692  1566  1449  1382  1380  1452  1595  1769  1938  2109  2235  2202  1989  1721  1516  1395  1337  1325  1362  1466  1616  1764  1887  1993  2071  2110  2119  2118  2107  2066  1956  1755  1526  1428  1576  1911  2244  2457  2594  2724  2827  2859  2811  2686  2525  2404  2357  2319  2197  2070  2280  3222  4993  7285  9536  11088  11380  10229  7986  5369  3112  1738  1403  1824  2465  2924  3174  3373  3568  3701  3769  3848  4002  4188  4308  4301  4191  4083  4123  4367  4700  4956  5065  5073  5052  5038  5037  5030  4992  4899  4779  4733  4825  4999  5165  5269  5279  5212  5110  4981  4829  4698  4618  4589  4589  4597  4592  4561  4506  4444  4384  4314  4204  4034  3810  3573  3368  3189  2989  2743  2438  2063  1691  1458  1402  1425  1429  1413  1391  1314  1107  789  493  377  516  855  1219  1443  1509  1494  1439  1346  1248  1213  1261  1323  1331  1298  1266  1233  1179  1111  1037  964  905  877  879  895  915  934  948  932  840  665  478  361  328  347  391  440  471  474  466  459  456  450  420  348  237  114  10  -48  -68  -75  -71  -21  101  232  261  180  92  51  0  -143  -388  -668  -889  -950  -783  -451  -129  40  34  -114  -356  -613  -793  -850  -812  -741  -681  -633  -594  -581  -629  -746  -884  -986  -1050  -1104  -1152  -1188  -1220  -1264  -1308  -1351  -1436  -1589  -1768  -1896  -1943  -1907  -1773  -1558  -1352  -1236  -1210  -1250  -1358  -1553  -1826  -2111  -2321  -2428  -2473  -2503  -2530  -2546  -2554  -2579  -2646  -2739  -2809  -2818  -2776  -2707  -2595  -2398  -2200  -2222  -2542  -2948  -3103  -2680  -1421  711  3367  5776  6968  6310  3963  814  -2033  -3760  -4155  -3632  -2842  -2271  -2035  -1961  -1882  -1755  -1574  -1347  -1142  -1032  -1022  -1065  -1088  -1000  -774  -513  -346  -291  -293  -311  -341  -370  -357  -286  -206  -146  -83  5  106  196  262  300  320  340  371  407  438  505  683  966  1231  1376  1411  1386  1314  1180  994  809  680  601  517  395  231  30  -208  -491  -776  -969  -1033  -1021  -992  -978  -1015  -1131  -1294  -1428  -1501  -1538  -1568  -1592  -1595  -1553  -1456  -1330  -1222  -1147  -1088  -1031  -972  -905  -847  -845  -929  -1079  -1239  -1339  -1337  -1239  -1098  -977  -904  -883  -918  -994  -1078  -1126  -1130  -1134  -1134  -1090  -1036  -1037  -1094  -1134  -1101  -1019  -947  -935  -987  -1048  -1065  -1047  -1039  -1071  -1111  -1071  -888  -605  -355  -251  -304  -436  -555  -632  -683  -713  -723  -709  -667  -609  -563  -546  -546  -537  -504  -456  -416  -376  -318  -277  -318  -431  -524  -523  -440  -340  -267  -213  -170  -175  -244  -347  -438  -493  -513  -509  -490  -489  -529  -583  -613  -635  -685  -758  -829  -902  -948  -857  -478  319  1531  2989  4391  5294  5241  4036  1983  -205  -1844  -2625  -2600  -2085  -1591  -1467  -1560  -1544  -1397  -1245  -1086  -897  -734  -644  -618  -621  -610  -561  -489  -433  -408  -401  -403  -413  -415  -346  -139  159  403  512  538  584  694  820  887  872  810  769  791  849  918  1078  1431  1897  2233  2312  2198  2013  1823  1614  1382  1162  961  785  674  647  682  748  796  709  354  -225  -787  -1131  -1263  -1305  -1334  -1350  -1349  -1402  -1580  -1826  -1954  -1880  -1728  -1643  -1632  -1636  -1619  -1601  -1653  -1807  -1982  -2099  -2168  -2197  -2149  -2002  -1776  -1542  -1357  -1222  -1149  -1182  -1313  -1464  -1573  -1620  -1612  -1561  -1483  -1397  -1309  -1215  -1131  -1082  -1078  -1106  -1147  -1174  -1168  -1122  -1051  -974  -894  -814  -755  -732  -735  -751  -767  -771  -739  -642  -493  -355  -267  -209  -167  -169  -233  -288  -238  -86  64  150  174  147  79  -3  -56  -62  -49  -38  -4  89  218  307  307  245  195  200  225  231  222  216  208  199  210  197  172  428  1278  2810  4939  7178  8623  8596  7037  4471  1863  116  -523  -444  -182  -45  -6  90  277  540  928  1431  1890  2149  2221  2231  2251  2261  2235  2182  2134  2114  2107  2089  2076  2123  2267  2472  2650  2744  2799  2905  3076  3253  3426  3626  3849  4073  4290  4536  4846  5155  5348  5408  5387  5315  5222  5178  5231  5345  5444  5488  5469  5370  5180  4919  4632  4400  4277  4217  4128  3986  3835  3703  3595  3510  3451  3424  3423  3431  3441  3452  3469  3506  3553  3593  3623  3650  3659  3639  3606  3588  3591  3611  3657  3771  3980  4219  4386  4461  4483  4476  4434  4342  4218  4092  3999  3973  4020  4090  4117  4093  4061  4047  4033  3991  3923  3860  3830  3831  3831  3804  3734  3621  3488  3371  3268  3152  3033  2949  2910  2886  2873  2887  2924  2938  2900  2834  2763  2680  2600  2540  2446  2251  1991  1778  1673  1631  1578  1512  1467  1439  1406  1369  1331  1302  1296  1300  1252  1088  827  550  304  105  -37  -156  -281  -428  -637  -912  -1179  -1365  -1452  -1479  -1513  -1561  -1598  -1714  -2014  -2414  -2786  -2947  -2508  -1231  634  2620  4215  4834  4113  2187  -457  -3233  -5464  -6600  -6665  -6171  -5630  -5377  -5485  -5709  -5768  -5594  -5308  -5110  -5182  -5580  -6129  -6524  -6652  -6633  -6602  -6601  -6613  -6629  -6656  -6692  -6732  -6781  -6833  -6872  -6901  -6931  -6962  -6990  -7016  -7055  -7115  -7157  -7124  -7027  -6941  -6906  -6900  -6891  -6865  -6835  -6837  -6895  -6978  -7051  -7134  -7279  -7502  -7765  -8059  -8434  -8860  -9196  -9398  -9575  -9795  -9998  -10154  -10339  -10620  -10949  -11243  -11482  -11687  -11863  -11987  -12041  -12031  -11964  -11841  -11681  -11537  -11486  -11566  -11720  -11851  -11914  -11893  -11735  -11408  -11027  -10770  -10693  -10737  -10851  -10983  -11033  -10886  -10495  -9953  -9462  -9188  -9124  -9160  -9219  -9274  -9272  -9114  -8710  -8086  -7454  -7072  -6995  -7053  -7079  -6992  -6782  -6504  -6252  -6043  -5811  -5528  -5216  -4870  -4515  -4243  -4082  -3948  -3762  -3519  -3265  -3045  -2868  -2720  -2577  -2383  -2109  -1828  -1635  -1513  -1368  -1140  -833  -510  -248  -61  86  208  284  319  351  426  566  735  875  995  1146  1319  1462  1584  1760  2018  2288  2479  2588  2687  2827  3028  3290  3567  3782  3910  3981  4010  3996  3965  3973  4082  4329  4643  4875  4975  5022  5106  5261  5465  5647  5743  5762  5774  5838  5952  6059  6115  6125  6119  6119  6138  6170  6199  6212  6234  6312  6439  6552  6611  6632  6643  6655  6666  6687  6741  6827  6912  6974  7011  7037  7058  7078  7103  7128  7139  7129  7100  7069  7070  7111  7155  7172  7179  7192  7211  7225  7233  7232  7215  7171  7118  7112  7171  7226  7222  7161  7068  6998  6981  6978  6963  6968  7015  7062  7014  6806  6497  6226  6079  6032  6026  6028  6018  5982  5899  5734  5489  5226  5083  5205  5422  5277  4738  4432  5058  6850  9437  11991  13569  13511  11789  9069  6233  3926  2560  2244  2575  3004  3315  3531  3654  3664  3583  3467  3379  3340  3331  3344  3387  3458  3532  3564  3502  3317  3066  2866  2780  2775  2808  2877  2984  3095  3139  3064  2888  2691  2553  2511  2575  2734  2926  3073  3145  3155  3110  3024  2925  2850  2815  2809  2817  2836  2860  2853  2718  2375  1903  1508  1280  1125  950  789  697  617  399  -18  -509  -894  -1142  -1347  -1542  -1672  -1713  -1703  -1691  -1697  -1728  -1796  -1917  -2065  -2191  -2269  -2305  -2311  -2305  -2296  -2283  -2260  -2231  -2203  -2162  -2079  -1964  -1856  -1775  -1724  -1708  -1730  -1784  -1849  -1901  -1934  -1962  -1990  -2011  -2023  -2032  -2039  -2045  -2054  -2070  -2098  -2134  -2160  -2167  -2167  -2168  -2167  -2151  -2122  -2110  -2147  -2226  -2304  -2346  -2332  -2251  -2104  -1939  -1841  -1843  -1901  -1956  -1985  -1989  -1941  -1808  -1630  -1500  -1455  -1447  -1398  -1260  -1070  -929  -880  -889  -926  -987  -1076  -1176  -1257  -1293  -1266  -1179  -1074  -1022  -1050  -1123  -1183  -1212  -1214  -1176  -1074  -936  -834  -808  -846  -918  -986  -1023  -1039  -1071  -1150  -1267  -1385  -1465  -1482  -1422  -1279  -1072  -878  -799  -903  -1177  -1498  -1699  -1676  -1429  -1079  -812  -711  -711  -726  -727  -759  -911  -1235  -1655  -1998  -2164  -2195  -2179  -2163  -2141  -2091  -2022  -1968  -1957  -1996  -2084  -2203  -2305  -2360  -2388  -2379  -2363  -2472  -2645  -2451  -1450  446  2909  5217  6400  5765  3507  537  -2256  -4174  -4790  -4382  -3666  -3105  -2810  -2718  -2705  -2699  -2694  -2694  -2697  -2696  -2683  -2649  -2609  -2583  -2556  -2501  -2439  -2417  -2439  -2460  -2466  -2496  -2560  -2590  -2521  -2367  -2191  -2021  -1877  -1796  -1779  -1784  -1766  -1690  -1537  -1339  -1152  -999  -881  -792  -727  -683  -640  -544  -342  -88  62  19  -137  -275  -339  -376  -469  -650  -889  -1126  -1316  -1458  -1569  -1638  -1654  -1620  -1554  -1495  -1477  -1500  -1539  -1543  -1492  -1427  -1374  -1307  -1193  -1005  -766  -575  -496  -465  -380  -232  -101  -5  135  331  486  543  543  538  556  610  710  842  962  1036  1060  1041  999  965  952  951  950  954  968  994  1019  1032  1032  1039  1085  1194  1334  1428  1442  1405  1346  1268  1164  1029  863  679  530  460  476  560  672  750  751  670  539  407  304  233  191  177  176  157  92  -2  -72  -76  -38  -31  -83  -131  -114  -49  16  55  65  60  54  48  42  41  53  82  129  195  240  229  186  149  109  31  -140  -412  -692  -873  -949  -977  -1006  -1053  -1110  -1151  -1163  -1142  -1093  -1036  -1007  -1049  -1167  -1272  -1266  -1130  -822  -163  1074  2858  4765  6131  6316  5120  2927  433  -1598  -2685  -2931  -2722  -2348  -2028  -1861  -1763  -1581  -1244  -840  -532  -385  -344  -336  -336  -333  -321  -292  -224  -89  78  198  240  241  263  346  477  627  817  1075  1368  1627  1828  1971  2053  2100  2161  2240  2314  2396  2528  2705  2877  2995  3047  3054  3049  3052  3055  3029  2940  2794  2632  2469  2261  1972  1666  1452  1331  1201  977  685  431  280  203  143  59  -61  -202  -334  -454  -557  -619  -633  -615  -591  -577  -574  -570  -552  -519  -480  -441  -399  -353  -306  -255  -206  -186  -210  -262  -304  -320  -320  -319  -320  -319  -302  -264  -227  -222  -237  -236  -228  -249  -309  -379  -424  -435  -430  -426  -424  -417  -403  -386  -372  -358  -346  -336  -322  -293  -243  -194  -159  -112  -47  -21  -105  -335  -660  -920  -1009  -958  -837  -713  -639  -622  -629  -637  -640  -643  -643  -638  -628  -632  -659  -701  -733  -704  -568  -370  -222  -170  -174  -185  -192  -208  -249  -320  -423  -530  -599  -625  -649  -704  -784  -862  -924  -966  -980  -967  -950  -937  -900  -822  -754  -741  -800  -1022  -1450  -1853  -1858  -1191  304  2563  5091  7121  7899  6906  4310  1096  -1674  -3397  -3850  -3322  -2509  -1896  -1548  -1379  -1304  -1229  -1103  -961  -864  -814  -771  -694  -571  -430  -326  -291  -309  -341  -364  -383  -389  -327  -142  111  310  407  456  509  571  628  690  775  867  933  971  1060  1308  1693  2054  2284  2407  2475  2514  2525  2460  2258  1961  1707  1565  1484  1405  1313  1208  1066  856  581  286  6  -298  -678  -1051  -1254  -1238  -1112  -1008  -965  -951  -945  -961  -1015  -1103  -1202  -1282  -1324  -1307  -1217  -1079  -948  -852  -769  -676  -585  -521  -463  -356  -196  -51  15  13  -5  3  58  152  256  335  345  241  10  -257  -428  -433  -296  -106  32  86  78  28  -53  -136  -185  -200  -212  -252  -310  -349  -350  -324  -297  -287  -302  -346  -419  -506  -572  -570  -467  -284  -95  19  46  32  13  5  8  20  20  -30  -160  -331  -450  -440  -294  -84  69  97  -5  -201  -408  -547  -608  -624  -621  -607  -588  -578  -598  -648  -705  -743  -755  -748  -721  -671  -618  -639  -849  -1258  -1611  -1443  -379  1583  4060  6401  7780  7511  5592  2717  -234  -2466  -3479  -3386  -2740  -2046  -1562  -1328  -1240  -1178  -1095  -992  -885  -806  -766  -716  -592  -408  -237  -129  -79  -69  -82  -106  -122  -98  14  226  467  641  723  743  736  732  759  845  997  1170  1312  1397  1433  1471  1594  1826  2087  2268  2340  2345  2300  2194  2040  1894  1802  1767  1742  1644  1407  1041  640  317  118  -9  -151  -333  -528  -709  -855  -948  -986  -984  -966  -955  -973  -1024  -1088  -1128  -1124  -1081  -1014  -946  -902  -888  -895  -912  -932  -946  -939  -900  -839  -788  -769  -777  -795  -801  -787  -746  -676  -589  -493  -393  -326  -349  -457  -578  -662  -687  -644  -554  -455  -370  -305  -265  -258  -267  -255  -194  -117  -93  -155  -259  -315  -283  -222  -186  -163  -112  -22  67  101  67  6  -52  -120  -195  -227  -172  -57  59  158  219  200  104  4  -31  0  52  92  128  165  196  218  227  213  174  121  79  75  104  138  160  174  182  185  184  182  183  187  193  184  142  66  -19  -117  -247  -350  -261  245  1351  3064  5156  7174  8443  8326  6663  3917  952  -1375  -2515  -2389  -1505  -587  -9  187  111  -46  -159  -212  -233  -241  -228  -178  -82  71  272  465  592  644  621  519  388  321  368  489  633  766  839  826  772  781  929  1183  1437  1620  1733  1807  1866  1909  1929  1925  1922  1965  2093  2275  2413  2418  2243  1918  1572  1316  1136  959  766  599  473  313  47  -287  -615  -923  -1211  -1426  -1537  -1571  -1573  -1565  -1553  -1544  -1564  -1655  -1817  -1979  -2072  -2098  -2091  -2064  -2010  -1945  -1901  -1882  -1870  -1862  -1862  -1864  -1848  -1804  -1750  -1720  -1715  -1711  -1696  -1664  -1614  -1559  -1535  -1562  -1620  -1674  -1708  -1725  -1706  -1622  -1480  -1330  -1225  -1198  -1227  -1252  -1237  -1179  -1104  -1032  -949  -843  -728  -631  -564  -523  -497  -478  -458  -444  -443  -440  -400  -303  -174  -65  -8  0  -19  -39  -40  -32  -28  -27  -24  -28  -58  -126  -241  -404  -576  -689  -719  -707  -696  -716  -776  -832  -834  -768  -634  -470  -438  -641  -936  -988  -409  1019  3146  5419  7035  7300  6048  3731  1015  -1492  -3154  -3604  -3149  -2400  -1733  -1330  -1238  -1279  -1263  -1171  -1037  -872  -715  -604  -547  -530  -529  -528  -530  -555  -617  -676  -659  -545  -394  -270  -185  -130  -103  -93  -79  -74  -82  -50  60  229  421  635  890  1169  1391  1485  1458  1376  1300  1262  1255  1260  1262  1234  1136  960  741  515  287  32  -264  -553  -758  -859  -876  -854  -878  -980  -1098  -1189  -1259  -1324  -1385  -1411  -1375  -1306  -1247  -1208  -1184  -1172  -1170  -1172  -1167  -1149  -1124  -1099  -1070  -1026  -967  -905  -855  -820  -777  -700  -580  -436  -308  -242  -242  -247  -225  -237  -301  -286  -128  -3  -87  -299  -447  -479  -469  -477  -496  -485  -404  -238  -31  153  303  429  509  534  529  518  507  501  526  605  715  790  794  750  694  650  627  620  618  618  635  685  753  797  805  821  913  1097  1269  1287  1149  966  809  678  611  731  1259  2376  4042  6036  7954  9135  9021  7621  5396  2950  961  -110  -380  -219  178  717  1261  1706  2008  2162  2195  2142  2020  1889  1876  2072  2394  2651  2756  2768  2760  2756  2742  2713  2695  2715  2758  2802  2845  2897  2972  3063  3127  3147  3158  3181  3219  3306  3470  3684  3887  4021  4065  4033  3953  3854  3760  3684  3616  3549  3509  3497  3436  3227  2881  2514  2190  1882  1580  1316  1101  906  726  589  476  327  136  -47  -188  -289  -370  -451  -530  -585  -609  -617  -618  -591  -508  -386  -290  -269  -314  -396  -494  -589  -647  -625  -512  -354  -239  -212  -262  -353  -442  -495  -508  -499  -491  -493  -501  -508  -513  -518  -539  -602  -725  -891  -1038  -1119  -1143  -1143  -1139  -1135  -1129  -1113  -1087  -1062  -1050  -1052  -1060  -1080  -1121  -1180  -1243  -1304  -1384  -1514  -1714  -1968  -2212  -2391  -2504  -2581  -2637  -2680  -2709  -2714  -2696  -2687  -2724  -2802  -2880  -2935  -2981  -3042  -3147  -3314  -3517  -3731  -3870  -3595  -2505  -587  1713  3693  4641  4215  2596  318  -2033  -4091  -5570  -6168  -5943  -5349  -4752  -4297  -4019  -3845  -3719  -3648  -3613  -3585  -3559  -3534  -3509  -3488  -3476  -3472  -3481  -3506  -3535  -3520  -3412  -3223  -3037  -2925  -2872  -2817  -2730  -2613  -2463  -2304  -2197  -2164  -2172  -2180  -2177  -2162  -2121  -2014  -1807  -1527  -1264  -1089  -1000  -968  -971  -1020  -1143  -1343  -1556  -1703  -1777  -1826  -1902  -2044  -2251  -2462  -2621  -2735  -2839  -2980  -3189  -3415  -3563  -3605  -3592  -3571  -3563  -3586  -3658  -3758  -3834  -3837  -3753  -3602  -3436  -3296  -3187  -3108  -3047  -2975  -2890  -2820  -2778  -2750  -2737  -2752  -2748  -2651  -2483  -2347  -2286  -2249  -2170  -2009  -1771  -1503  -1290  -1211  -1244  -1248  -1144  -1012  -942  -925  -908  -864  -801  -737  -652  -524  -389  -300  -265  -255  -242  -207  -158  -119  -101  -83  -32  47  115  141  138  148  215  348  527  728  921  1076  1183  1243  1246  1179  1054  916  808  727  647  570  538  582  676  758  800  832  897  1011  1158  1292  1365  1338  1219  1082  1004  973  883  700  652  1188  2654  4958  7526  9506  10054  8852  6470  3810  1487  -67  -653  -513  -29  529  973  1228  1350  1411  1460  1531  1635  1755  1867  1973  2065  2124  2171  2258  2390  2518  2606  2655  2676  2680  2673  2660  2649  2653  2704  2816  2957  3088  3219  3388  3600  3800  3921  3967  4012  4107  4231  4335  4396  4412  4379  4308  4240  4218  4242  4288  4324  4293  4112  3717  3145  2578  2188  1972  1810  1638  1482  1368  1265  1131  960  777  625  542  522  525  529  548  603  687  757  769  712  637  616  654  696  690  638  605  629  666  658  598  512  423  346  291  260  245  241  246  265  289  304  302  298  323  406  524  601  573  432  225  40  -54  -85  -110  -132  -129  -106  -99  -152  -270  -398  -468  -457  -398  -337  -286  -239  -208  -212  -260  -338  -412  -456  -467  -453  -435  -426  -416  -391  -359  -350  -398  -514  -650  -757  -834  -896  -922  -899  -847  -806  -790  -789  -796  -820  -870  -936  -997  -1018  -955  -800  -622  -511  -492  -537  -623  -721  -790  -806  -787  -769  -760  -739  -684  -616  -579  -593  -633  -664  -666  -644  -621  -609  -602  -592  -572  -552  -556  -618  -741  -872  -955  -985  -969  -905  -796  -676  -584  -517  -442  -357  -297  -278  -283  -290  -286  -263  -228  -209  -234  -299  -365  -397  -378  -300  -165  20  236  446  624  763  842  854  816  759  713  693  691  692  691  694  717  761  807  847  887  922  940  962  1013  1083  1137  1156  1153  1156  1177  1215  1265  1313  1343  1354  1358  1357  1346  1324  1291  1237  1143  1020  916  856  835  842  860  878  882  858  803  713  583  450  364  331  321  306  297  287  171  3  224  1282  3203  5609  7860  9154  8842  7010  4413  1787  -348  -1572  -1832  -1525  -1048  -570  -215  -38  64  172  253  281  274  263  257  250  241  244  275  323  357  379  447  633  902  1122  1216  1222  1195  1152  1095  1030  969  929  955  1099  1345  1593  1771  1908  2042  2157  2239  2298  2338  2352  2338  2307  2268  2224  2174  2129  2104  2097  2080  2008  1854  1627  1340  980  562  159  -136  -280  -297  -269  -279  -385  -587  -836  -1073  -1248  -1342  -1378  -1395  -1412  -1428  -1434  -1434  -1433  -1430  -1424  -1417  -1414  -1412  -1397  -1350  -1277  -1213  -1193  -1223  -1286  -1346  -1380  -1397  -1420  -1448  -1454  -1416  -1356  -1316  -1319  -1375  -1498  -1658  -1783  -1840  -1851  -1844  -1835  -1832  -1850  -1902  -1986  -2083  -2171  -2225  -2247  -2254  -2257  -2262  -2282  -2333  -2399  -2444  -2455  -2460  -2497  -2578  -2648  -2608  -2451  -2342  -2440  -2689  -2899  -2972  -2952  -2913  -2890  -2895  -2937  -3017  -3107  -3168  -3186  -3178  -3155  -3121  -3083  -3045  -3009  -2991  -2998  -3021  -3050  -3094  -3152  -3196  -3190  -3120  -3016  -2946  -2944  -2983  -3023  -3049  -3064  -3066  -3032  -2941  -2819  -2730  -2699  -2702  -2709  -2711  -2713  -2725  -2751  -2782  -2811  -2836  -2855  -2870  -2896  -2945  -3003  -3072  -3172  -3271  -3291  -3196  -3031  -2861  -2699  -2551  -2475  -2529  -2677  -2795  -2846  -2912  -2922  -2538  -1437  331  2386  4200  5124  4695  3026  620  -1856  -3635  -4252  -3946  -3332  -2849  -2616  -2537  -2448  -2276  -2053  -1826  -1617  -1445  -1343  -1303  -1254  -1145  -996  -869  -801  -782  -783  -776  -730  -618  -436  -199  70  333  531  637  689  763  889  1023  1109  1163  1261  1447  1697  1963  2191  2335  2397  2419  2419  2414  2435  2489  2531  2532  2503  2478  2453  2360  2120  1747  1362  1069  874  732  614  518  425  312  187  84  28  14  23  39  46  8  -105  -261  -379  -424  -418  -369  -261  -108  37  142  208  243  256  253  242  241  274  356  467  573  666  749  805  824  818  794  749  697  659  635  606  573  543  514  480  461  498  647  920  1221  1407  1404  1229  969  733  583  520  521  560  613  660  690  707  718  738  781  854  938  983  963  923  939  1052  1220  1348  1395  1392  1378  1384  1428  1493  1539  1554  1549  1540  1532  1524  1517  1520  1541  1579  1617  1619  1522  1295  1020  827  759  760  784  825  886  954  1003  1008  973  936  933  967  1015  1022  958  845  717  702  1119  2235  3946  5809  7280  7845  7197  5525  3407  1377  -182  -1013  -1165  -909  -447  52  416  600  692  776  866  937  981  1028  1123  1279  1447  1554  1581  1565  1545  1533  1536  1586  1718  1902  2059  2152  2203  2224  2221  2204  2191  2192  2225  2326  2525  2783  3017  3194  3331  3434  3504  3557  3614  3674  3716  3727  3708  3663  3609  3567  3520  3374  3009  2446  1890  1527  1375  1342  1321  1243  1088  884  666  460  301  214  175  139  84  27  -9  -25  -29  -3  64  126  128  87  61  84  156  251  353  474  597  683  731  765  799  819  820  811  789  766  778  845  928  955  918  883  889  914  919  889  839  794  764  734  688  632  586  562  559  571  584  579  545  489  429  391  382  390  397  378  318  236  176  156  155  151  148  172  248  359  447  484  487  485  487  490  490  496  511  528  539  549  561  562  550  552  591  639  666  697  779  889  949  935  898  883  887  884  849  759  607  416  252  162  125  96  67  63  77  68  0  -142  -328  -481  -582  -693  -887  -1142  -1338  -1394  -1386  -1386  -1256  -707  551  2606  4966  6615  6702  5096  2394  -488  -2798  -4159  -4602  -4408  -3876  -3331  -3024  -2959  -3016  -3105  -3167  -3187  -3183  -3176  -3176  -3192  -3232  -3287  -3320  -3286  -3201  -3128  -3099  -3093  -3089  -3099  -3172  -3327  -3468  -3448  -3269  -3073  -2950  -2898  -2900  -2913  -2862  -2702  -2481  -2307  -2229  -2215  -2215  -2193  -2119  -1996  -1853  -1717  -1615  -1580  -1670  -1929  -2278  -2562  -2732  -2841  -2953  -3160  -3546  -4069  -4559  -4850  -4922  -4873  -4819  -4831  -4940  -5143  -5386  -5587  -5719  -5817  -5901  -5956  -5979  -5985  -5968  -5891  -5740  -5567  -5445  -5395  -5390  -5403  -5431  -5482  -5543  -5533  -5355  -5060  -4824  -4733  -4733  -4749  -4753  -4742  -4717  -4675  -4604  -4490  -4361  -4278  -4261  -4272  -4276  -4268  -4252  -4236  -4219  -4201  -4189  -4193  -4201  -4150  -3978  -3716  -3487  -3361  -3311  -3303  -3346  -3450  -3554  -3554  -3422  -3236  -3071  -2937  -2806  -2665  -2554  -2515  -2527  -2521  -2434  -2243  -2014  -1848  -1763  -1703  -1630  -1529  -1392  -1225  -1045  -865  -717  -645  -633  -601  -486  -312  -156  -38  90  266  467  635  728  745  709  672  674  735  879  1106  1361  1537  1556  1461  1370  1329  1318  1327  1358  1404  1453  1505  1569  1643  1725  1821  1901  1887  1738  1533  1527  2194  3900  6440  9115  11074  11580  10398  8019  5309  2980  1438  812  942  1500  2161  2662  2881  2905  2902  2981  3179  3433  3616  3688  3713  3728  3682  3550  3415  3349  3327  3329  3451  3810  4318  4716  4874  4865  4786  4676  4558  4463  4409  4391  4411  4517  4753  5069  5331  5476  5551  5601  5626  5638  5696  5860  6118  6359  6461  6403  6271  6154  6017  5742  5329  4953  4749  4681  4633  4518  4320  4068  3774  3435  3070  2716  2393  2110  1868  1680  1555  1493  1476  1475  1472  1474  1509  1597  1708  1785  1796  1755  1694  1645  1628  1658  1747  1867  1941  1900  1741  1542  1408  1370  1375  1377  1379  1411  1489  1589  1670  1721  1755  1764  1700  1524  1289  1106  1037  1050  1078  1080  1046  985  910  840  777  706  628  570  550  552  550  528  481  410  324  241  147  9  -165  -327  -427  -466  -471  -450  -393  -307  -231  -194  -189  -196  -206  -214  -218  -213  -198  -187  -230  -380  -608  -799  -882  -880  -852  -852  -933  -1114  -1331  -1489  -1552  -1551  -1525  -1489  -1450  -1419  -1407  -1414  -1438  -1473  -1520  -1605  -1763  -1969  -2137  -2140  -1827  -1118  27  1674  3629  5337  6154  5630  3808  1241  -1304  -3030  -3543  -3190  -2578  -2068  -1855  -1961  -2142  -2161  -1993  -1724  -1469  -1326  -1306  -1360  -1432  -1490  -1525  -1539  -1518  -1430  -1262  -1030  -759  -509  -365  -338  -367  -390  -355  -235  -73  45  100  151  245  363  471  567  657  742  845  1003  1196  1364  1480  1558  1614  1644  1635  1572  1422  1181  936  770  644  414  8  -448  -765  -914  -984  -1038  -1094  -1163  -1243  -1330  -1422  -1508  -1565  -1595  -1625  -1664  -1705  -1739  -1768  -1803  -1849  -1885  -1868  -1752  -1552  -1355  -1249  -1250  -1328  -1432  -1510  -1535  -1502  -1407  -1280  -1186  -1156  -1175  -1217  -1258  -1283  -1279  -1227  -1109  -953  -831  -786  -800  -831  -854  -867  -883  -895  -891  -874  -869  -872  -855  -793  -674  -532  -426  -373  -335  -293  -264  -258  -265  -274  -277  -273  -257  -235  -213  -191  -169  -162  -180  -204  -208  -184  -150  -125  -107  -82  -24  79  215  330  403  468  547  598  526  263  -101  -369  -438  -356  -204  -41  87  147  129  68  15  -10  -33  -81  -105  14  256  389  291  265  833  2202  4127  6116  7527  7756  6654  4651  2338  243  -1145  -1645  -1463  -960  -480  -227  -171  -171  -161  -150  -126  -56  55  171  269  344  386  394  381  370  398  505  699  932  1128  1226  1196  1046  848  707  664  683  722  769  830  920  1060  1252  1451  1594  1669  1716  1795  1950  2146  2292  2336  2281  2130  1881  1570  1266  1007  763  471  131  -172  -368  -467  -529  -603  -691  -817  -1054  -1416  -1777  -2011  -2134  -2217  -2285  -2329  -2349  -2361  -2378  -2404  -2430  -2455  -2476  -2495  -2515  -2527  -2505  -2420  -2291  -2189  -2149  -2114  -2023  -1890  -1778  -1710  -1664  -1620  -1577  -1553  -1563  -1597  -1640  -1683  -1718  -1739  -1750  -1747  -1705  -1605  -1479  -1391  -1373  -1412  -1450  -1399  -1231  -1029  -882  -809  -773  -747  -730  -733  -745  -726  -629  -453  -265  -114]
