reading_id,reading_time,wire_id,result_classification,heart_rate,heart_rate_alert,firmware_version,device_app_version,hardware_version,waveform_samples
bcb6d9e0-6a19-11ed-8080-808080808080,Tue Nov 22 03:57:09 UTC 2022,a101e3f91939,UNCLASSIFIABLE,101,NONE,20001.171.50,2.10.0,Charge 5,[-8960  -9029  -8927  -8519  -7858  -7104  -6308  -5549  -5047  -4880  -4861  -4741  -4386  -3839  -3260  -2749  -2295  -1889  -1570  -1327  -1061  -669  -147  391  834  1178  1524  1972  2528  3123  3697  4203  4609  4947  5289  5662  6051  6459  6843  7099  7202  7233  7270  7340  7422  7484  7516  7541  7573  7610  7640  7664  7697  7746  7826  7953  8106  8245  8376  8533  8719  8913  9110  9347  9633  9892  10041  10079  10065  10044  10027  10011  9997  9999  10038  10108  10146  10092  9967  9841  9765  9738  9718  9669  9645  9750  9961  10125  10148  10079  10004  9937  9805  9573  9319  9155  9094  9074  9037  8945  8793  8596  8365  8130  7942  7800  7649  7480  7338  7237  7138  7015  6892  6796  6734  6703  6709  6787  6940  6983  6664  6039  5473  5394  6164  7898  10232  12386  13453  12804  10500  7282  4162  2013  1180  1387  2111  2863  3318  3450  3436  3419  3468  3607  3779  3863  3800  3658  3550  3518  3523  3506  3439  3341  3264  3232  3239  3273  3318  3344  3309  3190  3013  2847  2749  2719  2709  2677  2617  2547  2480  2423  2380  2342  2294  2214  2063  1844  1614  1401  1192  973  722  412  61  -271  -556  -803  -1040  -1261  -1454  -1630  -1802  -1960  -2092  -2190  -2251  -2289  -2322  -2358  -2386  -2387  -2349  -2268  -2160  -2065  -2050  -2155  -2327  -2468  -2534  -2558  -2580  -2653  -2860  -3259  -3729  -4049  -4157  -4172  -4210  -4272  -4313  -4307  -4275  -4257  -4237  -4157  -4032  -3934  -3894  -3869  -3814  -3715  -3566  -3361  -3142  -2994  -2943  -2946  -2962  -2979  -3006  -3061  -3144  -3234  -3291  -3311  -3344  -3426  -3569  -3760  -3924  -3985  -3939  -3835  -3779  -3861  -4043  -4110  -3654  -2278  -1  2625  4765  5589  4615  2123  -972  -3714  -5428  -5903  -5496  -4787  -4154  -3697  -3383  -3147  -2944  -2779  -2673  -2621  -2625  -2706  -2851  -2983  -3012  -2897  -2659  -2388  -2193  -2104  -2069  -2044  -1994  -1890  -1755  -1643  -1576  -1523  -1444  -1316  -1120  -858  -576  -317  -112  7  52  78  141  258  401  530  604  598  512  333  40  -296  -529  -609  -629  -705  -883  -1116  -1322  -1471  -1577  -1635  -1624  -1542  -1433  -1356  -1334  -1340  -1338  -1310  -1261  -1205  -1145  -1089  -1060  -1066  -1082  -1075  -1035  -995  -988  -1005  -1026  -1060  -1117  -1189  -1264  -1299  -1249  -1115  -927  -749  -638  -605  -614  -628  -620  -572  -495  -428  -397  -386  -372  -352  -346  -366  -399  -431  -492  -630  -814  -953  -1007  -1013  -1016  -1041  -1081  -1121  -1150  -1154  -1098  -957  -795  -763  -953  -1225  -1181  -372  1329  3591  5782  7113  6907  5066  2188  -803  -3042  -3991  -3735  -2885  -2007  -1337  -964  -885  -949  -998  -978  -892  -772  -654  -542  -416  -290  -220  -229  -267  -278  -242  -154  -27  97  195  290  393  483  581  751  981  1182  1318  1428  1555  1701  1829  1900  1926  1951  1998  2043  2046  2003  1939  1862  1756  1633  1532  1443  1292  1017  657  325  75  -110  -246  -328  -371  -405  -455  -535  -632  -701  -718  -695  -650  -600  -555  -522  -499  -467  -397  -298  -219  -196  -232  -320  -460  -663  -911  -1144  -1296  -1332  -1278  -1202  -1161  -1166  -1184  -1187  -1178  -1174  -1177  -1177  -1145  -1070  -1007  -1042  -1184  -1344  -1432  -1411  -1304  -1173  -1062  -986  -942  -922  -924  -951  -987  -1016  -1028  -1001  -911  -760  -607  -533  -536  -612  -808  -986  -753  234  2010  4234  6225  7150  6465  4361  1601  -978  -2694  -3228  -2840  -2112  -1493  -1045  -648  -316  -111  39  218  401  523  574  587  601  635  696  774  860  956  1043  1100  1141  1202  1284  1348  1377  1392  1404  1409  1408  1418  1465  1572  1732  1888  1981  2017  2065  2184  2344  2469  2524  2513  2405  2170  1875  1639  1487  1353  1155  843  444  79  -153  -268  -335  -397  -463  -525  -564  -576  -561  -517  -456  -405  -383  -419  -534  -696  -821  -873  -880  -866  -815  -708  -579  -488  -453  -449  -451  -447  -429  -391  -341  -312  -328  -370  -397  -391  -376  -386  -411  -413  -385  -363  -354  -314  -193  -23  109  165  162  119  46  -24  -63  -84  -144  -277  -454  -602  -682  -705  -689  -618  -472  -289  -186  -244  -463  -798  -1040  -832  56  1654  3803  5919  7093  6706  4798  2004  -739  -2638  -3392  -3235  -2679  -2184  -1874  -1607  -1306  -1023  -780  -569  -416  -365  -390  -379  -279  -170  -128  -133  -126  -80  7  110  184  209  205  218  318  528  769  925  983  1020  1100  1245  1468  1746  1999  2152  2211  2232  2237  2216  2158  2069  1971  1880  1782  1615  1333  988  703  550  471  351  172  18  -55  -74  -97  -164  -269  -376  -451  -488  -498  -488  -451  -383  -305  -252  -248  -291  -358  -404  -389  -298  -168  -64  -14  -5  -12  -25  -36  -47  -66  -96  -130  -161  -186  -203  -215  -224  -226  -202  -141  -83  -69  -98  -140  -172  -184  -184  -180  -179  -213  -343  -582  -841  -1005  -1050  -1028  -993  -967  -944  -916  -894  -932  -1096  -1388  -1685  -1810  -1704  -1533  -1521  -1659  -1558  -681  1194  3707  6023  7173  6536  4270  1256  -1469  -3240  -3903  -3697  -3064  -2405  -1932  -1684  -1553  -1379  -1127  -881  -699  -582  -525  -512  -506  -461  -351  -183  -20  58  40  -19  -74  -98  -65  29  166  318  474  631  769  865  942  1034  1152  1294  1463  1654  1853  2039  2190  2284  2306  2254  2154  2042  1945  1856  1740  1565  1319  1030  750  515  318  153  37  -44  -138  -276  -452  -635  -832  -1097  -1405  -1620  -1645  -1487  -1239  -1026  -917  -887  -887  -888  -898  -938  -1018  -1120  -1196  -1195  -1128  -1056  -1014  -1005  -1019  -1049  -1093  -1145  -1190  -1229  -1264  -1268  -1213  -1124  -1065  -1077  -1149  -1250  -1341  -1375  -1321  -1197  -1067  -986  -957  -949  -939  -922  -918  -959  -1068  -1215  -1331  -1385  -1392  -1368  -1322  -1264  -1206  -1165  -1159  -1189  -1231  -1261  -1263  -1255  -1291  -1382  -1516  -1723  -1883  -1554  -304  1857  4452  6702  7681  6805  4329  1175  -1672  -3499  -4072  -3742  -3031  -2273  -1699  -1397  -1240  -1078  -884  -710  -593  -533  -511  -488  -408  -250  -51  129  255  318  337  344  368  428  507  571  615  675  775  916  1085  1252  1386  1497  1600  1678  1728  1792  1909  2054  2154  2173  2128  2033  1904  1766  1649  1564  1497  1410  1257  987  588  171  -93  -173  -171  -190  -266  -387  -517  -622  -680  -693  -685  -675  -665  -654  -654  -691  -772  -836  -788  -619  -418  -261  -154  -87  -71  -112  -178  -220  -220  -197  -164  -117  -65  -38  -52  -95  -135  -156  -170  -185  -192  -183  -162  -142  -140  -155  -175  -199  -234  -276  -326  -405  -513  -601  -604  -485  -269  -31  157  261  288  258  174  48  -69  -140  -161  -156  -145  -146  -176  -241  -321  -387  -431  -464  -514  -591  -661  -713  -805  -1000  -1225  -1143  -284  1561  4088  6526  7861  7379  5187  2072  -979  -3118  -3971  -3783  -3096  -2348  -1768  -1425  -1261  -1175  -1101  -993  -829  -633  -468  -378  -353  -365  -409  -487  -540  -460  -216  79  289  381  404  403  400  403  432  516  667  863  1071  1253  1384  1479  1563  1631  1675  1718  1776  1837  1886  1919  1943  1961  1946  1831  1568  1201  855  637  540  466  334  129  -124  -392  -628  -796  -890  -930  -937  -909  -834  -732  -652  -612  -597  -588  -577  -566  -559  -558  -559  -555  -541  -520  -496  -479  -472  -471  -466  -443  -392  -324  -271  -258  -267  -268  -258  -255  -273  -312  -365  -436  -516  -580  -605  -598  -581  -573  -567  -532  -464  -397  -358  -332  -263  -112  80  233  312  324  277  196  112  53  25  19  19  10  -9  -31  -46  -56  -62  -63  -63  -63  -58  -38  -7  7  -37  -157  -331  -579  -865  -979  -645  401  2323  4823  7113  8294  7702  5344  2086  -943  -2961  -3668  -3322  -2524  -1763  -1244  -985  -873  -769  -619  -466  -367  -325  -306  -278  -222  -146  -76  -27  17  82  158  206  208  197  248  414  646  823  899  925  966  1056  1201  1368  1520  1665  1831  1997  2129  2235  2337  2422  2473  2484  2429  2263  1993  1695  1443  1250  1095  957  824  674  481  235  -46  -315  -499  -576  -598  -620  -655  -692  -724  -752  -782  -813  -832  -837  -841  -852  -865  -873  -881  -899  -925  -950  -974  -1010  -1059  -1098  -1117  -1127  -1136  -1141  -1133  -1116  -1109  -1116  -1108  -1055  -962  -875  -842  -863  -900  -927  -937  -930  -916  -897  -872  -827  -741  -629  -526  -426  -295  -157  -80  -102  -181  -235  -243  -277  -360  -416  -393  -334  -309  -343  -405  -460  -519  -601  -683  -720  -690  -618  -566  -596  -735  -950  -1075  -799  196  2039  4483  6794  7926  7153  4669  1425  -1481  -3213  -3579  -3122  -2501  -1988  -1623  -1392  -1212  -998  -783  -638  -564  -515  -468  -425  -394  -381  -383  -371  -294  -115  128  337  451  502  539  584  647  731  820  911  1035  1190  1322  1423  1566  1784  2017  2190  2291  2347  2370  2347  2265  2125  1953  1787  1651  1552  1475  1391  1273  1119  952  776  544  236  -129  -565  -1038  -1431  -1683  -1830  -1898  -1870  -1751  -1607  -1486  -1383  -1288  -1227  -1241  -1359  -1558  -1752  -1846  -1767  -1481  -1097  -813  -706  -702  -730  -765  -805  -860  -949  -1080  -1235  -1383  -1499  -1578  -1606  -1557  -1431  -1264  -1114  -1024  -992  -995  -1016  -1034  -1040  -1038  -1026  -986  -884  -710  -506  -326  -210  -165  -164  -173  -171  -156  -140  -148  -205  -344  -579  -847  -1037  -1100  -1055  -916  -718  -531  -404  -348  -358  -399  -453  -627  -1018  -1404  -1325  -446  1267  3540  5819  7312  7259  5513  2707  -223  -2433  -3398  -3229  -2578  -2002  -1636  -1402  -1192  -953  -711  -509  -370  -311  -336  -421  -516  -569  -554  -454  -252  1  200  291  316  353  451  599  741  832  858  843  830  867  1008  1270  1604  1947  2239  2417  2473  2462  2433  2397  2353  2305  2277  2279  2287  2247  2107  1859  1566  1306  1097  906  684  407  86  -210  -410  -501  -531  -541  -541  -538  -541  -569  -633  -699  -706  -639  -544  -481  -463  -470  -482  -488  -474  -420  -340  -284  -284  -314  -354  -417  -499  -562  -583  -551  -468  -357  -265  -226  -228  -238  -246  -274  -333  -404  -471  -535  -582  -588  -553  -512  -496  -497  -491  -465  -437  -423  -420  -418  -412  -403  -394  -390  -392  -398  -412  -450  -528  -628  -711  -752  -763  -770  -779  -765  -719  -665  -621  -588  -569  -584  -663  -823  -1082  -1390  -1477  -878  688  3015  5476  7179  7282  5642  2916  4  -2302  -3498  -3636  -3215  -2653  -2128  -1724  -1438  -1178  -910  -688  -553  -489  -466  -460  -458  -453  -438  -405  -344  -234  -87  54  177  291  401  505  605  706  828  976  1118  1217  1283  1353  1462  1627  1807  1932  2018  2143  2306  2415  2405  2297  2154  2040  1971  1901  1765  1532  1236  947  710  527  386  262  102  -116  -337  -493  -579  -628  -664  -712  -802  -907  -964  -935  -829  -700  -617  -599  -612  -602  -530  -403  -283  -226  -221  -232  -237  -244  -266  -304  -354  -405  -444  -465  -470  -467  -459  -448  -433  -409  -361  -278  -188  -133  -107  -111  -175  -268  -328  -359  -400  -485  -626  -790  -908  -917  -834  -728  -642  -556  -414  -189  55  198  174  42  -80  -162  -250  -371  -505  -631  -724  -739  -660  -543  -471  -474  -513  -545  -572  -635  -734  -788  -787  -897  -1162  -1216  -548  1021  3239  5481  6857  6689  5011  2435  -289  -2503  -3792  -4129  -3765  -3025  -2256  -1736  -1468  -1257  -1033  -882  -821  -760  -617  -413  -236  -134  -82  -33  31  100  152  170  163  166  201  269  378  516  642  741  834  933  1038  1145  1250  1358  1487  1637  1771  1849  1875  1898  1961  2047  2101  2101  2075  2040  1922  1625  1186  774  506  355  237  102  -48  -193  -333  -490  -653  -781  -869  -953  -1048  -1115  -1122  -1092  -1056  -1023  -998  -985  -979  -976  -974  -972  -972  -978  -995  -1014  -1004  -935  -818  -693  -596  -540  -524  -533  -548  -554  -555  -557  -564  -567  -562  -582  -650  -731  -776  -760  -696  -618  -533  -417  -283  -187  -160  -183  -236  -299  -346  -351  -299  -207  -118  -65  -49  -56  -66  -60  -14  76  184  270  302  257  134  -23  -150  -211  -221  -214  -218  -248  -312  -389  -446  -464  -444  -395  -372  -457  -634  -816  -972  -964  -470  765  2750  5191  7375  8301  7336  4787  1613  -1195  -2944  -3473  -3212  -2717  -2220  -1754  -1372  -1097  -868  -654  -458  -257  -54  92  150  127  34  -95  -202  -245  -227  -169  -86  -1  52  72  98  170  304  491  700  878  1001  1091  1168  1244  1343  1486  1647  1798  1933  2049  2135  2181  2190  2160  2067  1875  1601  1314  1041  759  489  304  224  162  2  -296  -651  -931  -1078  -1139  -1184  -1239  -1293  -1330  -1348  -1355  -1356  -1355  -1351  -1350  -1353  -1355  -1347  -1329  -1310  -1285  -1216  -1078  -913  -808  -816  -936  -1102  -1225  -1274  -1275  -1246  -1189  -1116  -1058  -1033  -1033  -1046  -1067  -1092  -1118  -1139  -1143  -1121  -1083  -1061  -1066  -1058  -1025  -1008  -1035  -1083  -1115  -1114  -1079  -992  -845  -683  -570  -526  -525  -539  -553  -558  -549  -527  -491  -429  -327  -208  -119  -83  -85  -103  -128  -156  -180  -175  -135  -84  -44  -23  -12  2  20  3  -88  -200  -291  -440  -563  -253  887  2927  5501  7816  8877  8027  5477  2204  -748  -2657  -3243  -2833  -2069  -1386  -933  -700  -566  -428  -290  -193  -136  -87  -16  64  125  161  189  229  293  376  456  502  509  499  508  567  680  825  996  1193  1373  1481  1522  1528  1526  1555  1677  1907  2182  2409  2546  2625  2701  2787  2854  2861  2742  2442  1979  1448  974  665  525  469  413  305  140  -36  -197  -354  -495  -581  -608  -607  -597  -579  -556  -532  -508  -486  -473  -466  -455  -450  -495  -627  -802  -900  -846  -685  -513  -399  -351  -346  -349  -340  -319  -297  -296  -340  -435  -541  -586  -539  -432  -326  -254  -234  -294  -443  -623  -749  -792  -782  -758  -737  -725  -719  -723  -753  -807  -831  -754  -595  -451  -377  -349  -333  -324  -347  -430  -558  -678  -762  -824  -888  -960  -1032  -1086  -1106  -1088  -1036  -963  -877  -796  -752  -801  -976  -1215  -1394  -1463  -1487  -1574  -1745  -1781  -1258  147  2369  4877  6787  7164  5675  2906  -125  -2481  -3574  -3494  -2872  -2268  -1907  -1742  -1617  -1468  -1318  -1170  -1025  -899  -801  -722  -654  -598  -536  -436  -309  -204  -127  -36  61  125  171  236  302  337  363  420  527  685  900  1159  1405  1609  1802  2032  2300  2540  2682  2720  2697  2650  2579  2459  2269  2022  1778  1600  1480  1335  1115  862  634  428  237  71  -92  -276  -453  -583  -655  -680  -681  -678  -681  -683  -693  -732  -812  -896  -935  -927  -899  -869  -851  -849  -848  -841  -834  -829  -812  -754  -652  -558  -514  -512  -523  -527  -509  -468  -427  -408  -416  -450  -489  -516  -556  -619  -667  -680  -680  -683  -689  -691  -695  -707  -719  -704  -629  -492  -343  -230  -154  -100  -70  -62  -69  -87  -116  -148  -175  -191  -199  -208  -236  -324  -496  -713  -886  -948  -887  -736  -565  -452  -411  -411  -440  -545  -799  -1132  -1232  -720  618  2710  5093  6946  7450  6233  3628  561  -1971  -3366  -3571  -3040  -2376  -1838  -1382  -1046  -892  -829  -739  -595  -412  -217  -49  60  119  147  153  150  161  193  239  298  377  469  556  632  699  774  905  1113  1343  1533  1692  1858  2032  2210  2387  2535  2631  2677  2680  2648  2590  2525  2489  2492  2493  2416  2208  1901  1572  1241  920  665  481  304  106  -77  -202  -267  -323  -426  -572  -718  -834  -914  -964  -986  -982  -956  -920  -895  -882  -868  -841  -810  -790  -784  -769  -723  -652  -589  -555  -550  -559  -559  -557  -588  -651  -725  -798  -853  -885  -914  -952  -974  -951  -873  -775  -709  -708  -765  -852  -934  -994  -1035  -1060  -1076  -1092  -1104  -1082  -1006  -907  -828  -789  -767  -732  -676  -622  -596  -609  -656  -738  -851  -975  -1080  -1149  -1183  -1192  -1194  -1198  -1211  -1237  -1272  -1295  -1268  -1153  -998  -974  -1192  -1536  -1626  -956  761  3303  5856  7307  6923  4807  1740  -1245  -3272  -4006  -3723  -2923  -2041  -1378  -1014  -844  -737  -620  -496  -406  -354  -291  -192  -91  -27  4  35  76  121  181  274  377  445  462  448  435  463  567  734  913  1066  1182  1290  1449  1668  1900  2115  2308  2480  2653  2807  2860  2766  2563  2345  2202  2151  2129  2037  1785  1369  897  501  221  1  -199  -365  -485  -595  -737  -911  -1070  -1157  -1154  -1086  -1000  -946  -935  -941  -948  -952  -959  -968  -985  -1016  -1053  -1083  -1089  -1046  -961  -885  -849  -843  -849  -854  -854  -843  -815  -768  -700  -626  -578  -584  -650  -742  -807  -819  -798  -775  -767  -767  -761  -750  -746  -751  -759  -764  -767  -764  -720  -605  -453  -319  -207  -117  -86  -142  -278  -441  -560  -616  -635  -645  -649  -646  -658  -705  -762  -769  -713  -663  -677  -719  -732  -697  -633  -591  -645  -872  -1182  -1209  -580  879  3104  5558  7266  7399  5815  3056  2  -2462  -3814  -4055  -3482  -2514  -1609  -1014  -726  -646  -656  -682  -696  -682  -624  -538  -463  -420  -394  -346  -234  -64  103  231  336  428  488  505  496  474  457  497  658  923  1177  1340  1442  1544  1664  1809  1990  2195  2384  2513  2574  2591  2574  2489  2313  2108  1952  1803  1533  1134  769  568  500  473  441  364  134  -314  -829  -1154  -1217  -1132  -1007  -878  -740  -592  -476  -455  -518  -583  -602  -592  -574  -560  -548  -529  -502  -470  -426  -364  -301  -250  -211  -180  -154  -125  -95  -66  -20  41  89  93  31  -92  -232  -325  -340  -301  -261  -227  -185  -164  -187  -234  -269  -253  -186  -118  -84  -82  -100  -123  -150  -180  -199  -185  -141  -100  -98  -147  -222  -279  -302  -306  -303  -289  -253  -198  -167  -221  -355  -498  -590  -632  -652  -651  -591  -483  -442  -589  -886  -1031  -493  1155  3766  6507  8191  7901  5637  2338  -800  -2905  -3659  -3369  -2653  -1989  -1560  -1326  -1163  -1010  -880  -779  -688  -581  -466  -372  -321  -314  -321  -309  -284  -258  -221  -150  -43  65  128  135  116  111  167  317  553  810  1038  1244  1429  1566  1663  1783  1957  2147  2293  2370  2401  2414  2412  2380  2303  2173  2020  1861  1650  1341  972  601  243  -89  -359  -545  -657  -714  -736  -759  -834  -957  -1037  -1007  -909  -824  -783  -772  -781  -820  -901  -1012  -1122  -1192  -1196  -1139  -1061  -982  -900  -821  -747  -669  -592  -554  -574  -618  -649  -665  -680  -694  -710  -736  -785  -844  -886  -904  -911  -918  -918  -875  -759  -601  -473  -401  -360  -335  -321  -312  -306  -302  -299  -297  -307  -335  -364  -377  -388  -419  -471  -531  -581  -607  -602  -573  -548  -553  -592  -659  -739  -796  -795  -751  -742  -803  -924  -1143  -1358  -1131  -25  2008  4567  6775  7562  6433  3825  697  -1946  -3420  -3664  -3166  -2472  -1904  -1584  -1457  -1380  -1261  -1092  -914  -767  -671  -627  -621  -623  -588  -468  -244  6  163  193  154  97  47  45  145  370  639  831  904  916  950  1081  1337  1661  1956  2159  2268  2308  2312  2306  2291  2258  2214  2183  2183  2209  2222  2137  1877  1488  1107  791  511  244  -21  -294  -564  -795  -942  -994  -996  -991  -995  -997  -979  -936  -881  -831  -809  -823  -855  -879  -886  -883  -867  -832  -789  -768  -791  -851  -917  -951  -902  -736  -507  -322  -220  -180  -194  -256  -339  -413  -457  -481  -510  -559  -618  -667  -683  -671  -655  -646  -638  -626  -603  -557  -496  -442  -412  -402  -386  -334  -261  -198  -156  -124  -108  -143  -280  -506  -737  -891  -937  -878  -758  -657  -613  -610  -616  -624  -648  -698  -766  -843  -927  -992  -980  -927  -1002  -1243  -1305  -677  881  3172  5566  7125  7096  5421  2748  -23  -2156  -3263  -3433  -3088  -2562  -1999  -1504  -1172  -994  -887  -802  -737  -679  -597  -468  -312  -183  -106  -56  -11  31  75  149  284  455  583  637  663  708  787  887  975  1026  1058  1132  1308  1576  1863  2093  2235  2320  2397  2476  2523  2505  2417  2280  2141  2036  1962  1863  1687  1429  1132  853  614  393  159  -91  -316  -477  -586  -656  -676  -656  -635  -638  -670  -726  -811  -934  -1060  -1126  -1110  -1051  -1005  -976  -922  -824  -723  -664  -636  -566  -407  -248  -242  -394  -553  -623  -629  -622  -621  -615  -588  -547  -518  -512  -526  -549  -574  -591  -598  -606  -624  -638  -624  -593  -578  -600  -653  -701  -714  -703  -683  -641  -589  -557  -548  -539  -518  -485  -449  -429  -436  -470  -536  -629  -732  -837  -938  -1013  -1043  -1009  -881  -669  -468  -388  -469  -657  -841  -950  -1043  -1231  -1463  -1420  -685  920  3190  5555  7187  7336  5836  3250  421  -1953  -3352  -3619  -3116  -2329  -1578  -1115  -990  -978  -896  -740  -559  -398  -299  -265  -268  -282  -289  -268  -199  -75  85  241  352  409  433  459  513  606  728  869  1016  1137  1212  1260  1342  1534  1856  2207  2464  2613  2683  2685  2647  2595  2541  2476  2370  2220  2065  1920  1741  1485  1165  835  556  361  233  120  -22  -224  -493  -768  -944  -997  -988  -972  -958  -936  -905  -878  -866  -870  -898  -963  -1047  -1106  -1108  -1050  -962  -886  -838  -809  -804  -831  -862  -847  -760  -636  -543  -508  -513  -541  -591  -647  -674  -664  -649  -663  -708  -765  -833  -923  -1002  -1002  -916  -806  -713  -646  -612  -613  -637  -664  -687  -710  -727  -731  -724  -716  -711  -707  -703  -682  -626  -537  -452  -409  -413  -444  -466  -484  -535  -606  -639  -614  -574  -559  -552  -535  -524  -538  -569  -594  -605  -615  -644  -691  -727  -751  -855  -1085  -1322  -1364  -963  144  2053  4507  6875  8319  8150  6252  3221  33  -2391  -3554  -3569  -2917  -2098  -1444  -1035  -790  -631  -501  -376  -268  -182  -115  -70  -40  -2  43  73  87  108  165  257  354  447  558  682  783  856  931  1026  1131  1228  1308  1370  1437  1570  1823  2157  2445  2610  2679  2708  2720  2713  2694  2684  2695  2679  2566  2338  2025  1657  1248  832  489  283  177  74  -74  -261  -475  -702  -891  -1000  -1041  -1040  -999  -922  -851  -840  -895  -977  -1052  -1110  -1151  -1174  -1183  -1180  -1158  -1110  -1044  -973  -906  -853  -811  -763  -715  -685  -672  -665  -662  -669  -702  -782  -890  -969  -984  -962  -942  -945  -976  -1007  -1002  -962  -913  -881  -868  -864  -861  -856  -854  -873  -941  -1047  -1132  -1142  -1047  -833  -562  -369  -324  -393  -512  -630  -719  -768  -784  -781  -778  -798  -860  -950  -1026  -1063  -1071  -1067  -1059  -1044  -1019  -992  -1008  -1140  -1411  -1711  -1860  -1705  -1055  298  2356  4750  6791  7652  6813  4492  1524  -1171  -2952  -3582  -3286  -2546  -1779  -1234  -991  -957  -967  -914  -789  -649  -534  -438  -348  -263  -190  -131  -87  -39  40  143  226  275  314  363  417  478  577  730  909  1070  1212  1368  1551  1731  1903  2116  2398  2681  2863  2928  2939  2947  2933  2818  2565  2248  1975  1751  1519  1278  1078  935  801  607  338  36  -224  -394  -491  -581  -700  -835  -952  -1032  -1064  -1060  -1053  -1095  -1214  -1371  -1485  -1513  -1458  -1338  -1175  -1007  -872  -787  -746  -725  -702  -669  -631  -583  -540  -538  -595  -695  -803  -885  -928  -944  -945  -931  -905  -877  -847  -802  -739  -680  -637  -602  -579  -595  -664  -752  -816  -842  -835  -774  -633  -453  -325  -284  -289  -303  -315  -335  -369  -415  -463  -506  -533  -541  -532  -506  -473  -451  -454  -483  -530  -572  -588  -580  -569  -573  -605  -655  -696  -740  -825  -930  -866  -287  1059  3097  5408  7232  7710  6503  4036  1097  -1548  -3260  -3778  -3413  -2701  -2021  -1543  -1249  -1000  -709  -435  -265  -207  -213  -231  -244  -246  -228  -179  -99  -5  94  218  374  515  579  567  539  556  653  828  1025  1185  1319  1467  1625  1772  1934  2173  2467  2695  2802  2841  2859  2843  2761  2630  2511  2442  2402  2334  2177  1895  1497  1041  620  316  122  -34  -189  -330  -450  -536  -589  -631  -667  -699  -759  -868  -990  -1072  -1098  -1079  -1013  -908  -796  -719  -685  -676  -673  -678  -701  -727  -711  -644  -583  -569  -583  -593  -594  -597  -615  -655  -704  -749  -784  -810  -816  -778  -693  -588  -500  -444  -401  -354  -299  -225  -138  -77  -97  -221  -406  -560  -632  -640  -613  -572  -538  -532  -563  -608  -646  -692  -762  -838  -868  -802  -661  -550  -546  -632  -715  -587  4  1163  2766  4389  5345  5069  3513  1120  -1368  -3136  -3747  -3417  -2704  -2078  -1729  -1583  -1475  -1304  -1038  -728  -494  -391  -358  -329  -290  -247  -198  -139  -83  -54  -50  -32  55  225  414  538  576  569  565  596  689  836  990  1140  1345  1637  1944  2163  2256  2264  2246  2236  2242  2255  2245  2156  1957  1716  1540  1457  1415  1363  1257  1038  684  274  -73  -342  -578  -786  -941  -1044  -1130  -1230  -1335  -1402  -1395  -1307  -1177  -1073  -1046  -1084  -1140  -1175  -1197  -1218  -1218  -1171  -1068  -944  -862  -858  -913  -974  -976  -898  -801  -745  -726  -718  -715  -719  -720  -693  -624  -553  -543  -600  -668  -704  -712  -694  -617  -461  -276  -153  -144  -246  -405  -543  -635  -699  -748  -782  -807  -837  -887  -947  -988  -1002  -989  -928  -811  -682  -617  -684  -852  -863  -378  768  2494  4423  5883  6147  4906  2553  -108  -2284  -3427  -3554  -3210  -2887  -2692  -2507  -2211  -1795  -1379  -1086  -942  -890  -876  -860  -810  -713  -577  -425  -297  -219  -175  -139  -108  -101  -120  -130  -85  13  153  345  563  710  735  695  734  1038  1666  2417  3006  3307  3358  3261  3113  2975  2858  2728  2527  2248  1922  1585  1270  1018  836  692  541  334  48  -257  -481  -589  -643  -714  -813  -904  -962  -986  -986  -977  -985  -1036  -1127  -1215  -1235  -1156  -1025  -921  -872  -859  -862  -866  -863  -857  -853  -833  -780  -708  -653  -618  -571  -502  -454  -449  -455  -460  -482  -512  -527  -533  -539  -547  -553  -551  -527  -470  -409  -413  -486  -563  -597  -589  -558  -526  -519  -563  -680  -837  -964  -1018  -1015  -987  -950  -913  -908  -985  -1138  -1247  -1236  -1238  -1362  -1400  -925  393  2536  5080  7190  7871  6733  4265  1309  -1306  -2949  -3489  -3278  -2745  -2142  -1628  -1318  -1199  -1127  -963  -708  -494  -426  -440  -418  -342  -260  -197  -150  -117  -89  -65  -50  -44  -26  27  131  267  392  494  603  738  893  1088  1324  1553  1736  1895  2065  2260  2464  2639  2735  2703  2519  2232  1955  1761  1648  1579  1501  1361  1160  946  747  541  287  -55  -457  -800  -1007  -1107  -1144  -1129  -1062  -962  -872  -818  -806  -853  -976  -1137  -1255  -1291  -1262  -1187  -1067  -915  -771  -678  -645  -652  -667  -675  -678  -693  -741  -830  -929  -976  -922  -766  -565  -394  -303  -295  -323  -330  -300  -260  -225  -181  -117  -47  3  16  -16  -61  -66  -31  -19  -77  -184  -288  -368  -433  -486  -516  -513  -466  -382  -302  -261  -249  -231  -188  -164  -275  -528  -612  -28  1528  3925  6523  8333  8457  6678  3738  768  -1435  -2473  -2427  -1874  -1330  -909  -567  -307  -129  2  108  187  241  277  314  374  451  518  559  591  642  735  871  1027  1164  1242  1257  1243  1235  1258  1337  1480  1664  1872  2143  2463  2725  2859  2905  2947  3031  3136  3219  3266  3287  3288  3263  3195  3060  2842  2550  2222  1906  1626  1351  1028  668  350  125  -23  -120  -189  -291  -481  -711  -868  -894  -820  -706  -602  -528  -506  -545  -605  -634  -612  -556  -506  -493  -514  -567  -647  -729  -775  -773  -747  -713  -669  -613  -575  -581  -611  -630  -621  -578  -512  -452  -417  -408  -438  -536  -686  -816  -868  -843  -787  -739  -705  -673  -648  -638  -626  -580  -483  -361  -250  -149  -56  1  12  -1  -31  -132  -374  -705  -968  -1081  -1094  -1075  -1045  -1003  -959  -938  -954  -995  -1046  -1090  -1093  -1037  -1005  -1120  -1384  -1549  -1136  246  2519  5115  7147  7686  6349  3645  579  -1962  -3474  -3924  -3667  -3105  -2503  -2012  -1689  -1526  -1476  -1471  -1461  -1412  -1294  -1124  -962  -843  -754  -688  -654  -647  -646  -637  -622  -631  -691  -777  -811  -752  -648  -567  -488  -321  -55  212  398  507  595  696  813  934  1041  1108  1127  1092  996  872  788  774  795  780  649  373  8  -356  -672  -942  -1154  -1279  -1340  -1408  -1545  -1753  -1963  -2102  -2150  -2124  -2043  -1941  -1869  -1848  -1871  -1924  -1995  -2050  -2049  -2001  -1953  -1923  -1882  -1792  -1669  -1586  -1587  -1632  -1664  -1662  -1631  -1590  -1535  -1444  -1329  -1241  -1221  -1281  -1390  -1446  -1385  -1283  -1235  -1241  -1255  -1253  -1229  -1185  -1128  -1068  -1013  -951  -858  -729  -574  -421  -319  -278  -275  -294  -338  -400  -461  -513  -553  -587  -628  -668  -686  -671  -629  -594  -602  -640  -677  -677  -592  -416  -266  -273  -456  -737  -914  -657  328  2136  4518  6821  8179  7899  5903  2883  -124  -2305  -3259  -3073  -2272  -1439  -857  -538  -405  -360  -314  -238  -152  -52  75  194  261  283  308  363  437  504  559  599  633  678  729  758  742  692  662  714  873  1102  1336  1557  1795  2042  2244  2375  2458  2515  2554  2574  2574  2557  2536  2516  2482  2416  2290  2050  1670  1174  653  246  26  -78  -192  -355  -524  -651  -744  -838  -938  -1021  -1062  -1054  -1002  -912  -793  -666  -557  -487  -491  -590  -735  -825  -813  -744  -685  -660  -658  -665  -676  -688  -699  -706  -698  -654  -560  -434  -333  -317  -377  -442  -464  -446  -412  -375  -334  -283  -227  -171  -130  -130  -190  -302  -418  -487  -506  -508  -504  -491  -477  -468  -462  -456  -450  -458  -509  -624  -789  -947  -1035  -1000  -864  -781  -893  -989  -530  881  3132  5622  7469  7834  6408  3699  649  -1913  -3418  -3699  -3094  -2147  -1316  -877  -789  -785  -707  -576  -427  -277  -161  -83  -29  0  5  24  91  200  302  367  405  455  572  763  954  1069  1103  1110  1158  1286  1471  1652  1805  1954  2106  2250  2383  2508  2611  2653  2605  2500  2414  2385  2388  2377  2298  2096  1761  1381  1057  770  451  135  -110  -296  -448  -544  -570  -555  -539  -560  -653  -811  -970  -1084  -1147  -1161  -1110  -978  -809  -678  -615  -596  -593  -603  -636  -705  -816  -938  -1012  -971  -783  -519  -315  -232  -232  -285  -398  -548  -669  -732  -753  -746  -689  -557  -393  -277  -246  -277  -348  -445  -545  -613  -635  -628  -619  -624  -641  -673  -722  -783  -837  -872  -903  -958  -1036  -1097  -1102  -1028  -910  -866  -953  -1129  -1369  -1536  -1269  -250  1574  3942  6158  7238  6567  4373  1413  -1435  -3377  -4066  -3768  -2998  -2179  -1589  -1313  -1215  -1117  -984  -875  -816  -778  -728  -644  -516  -372  -264  -210  -186  -171  -153  -117  -47  35  107  186  311  485  662  789  872  983  1176  1404  1580  1696  1831  2056  2340  2582  2717  2753  2730  2671  2590  2508  2447  2391  2304  2175  1974  1639  1213  865  671  548  398  186  -68  -302  -459  -542  -582  -596  -586  -567  -551  -539  -527  -513  -495  -479  -469  -474  -508  -581  -662  -695  -661  -603  -560  -530  -506  -498  -514  -546  -563  -538  -474  -387  -300  -243  -245  -309  -411  -509  -574  -605  -611  -608  -624  -665  -712  -754  -798  -826  -789  -640  -410  -215  -141  -177  -260  -337  -398  -462  -536  -607  -657  -690  -735  -806  -884  -937  -955  -942  -915  -883  -854  -854  -959  -1232  -1618  -1899  -1746  -837  921  3268  5635  7245  7380  5829  3073  -1  -2527  -3929  -4142  -3609  -2864  -2187  -1700  -1457  -1362  -1246  -1049  -853  -744  -723  -735  -731  -695  -640  -582  -530  -493  -473  -460  -427  -332  -151  59  224  336  435  555  716  914  1112  1259  1361  1482  1665  1863  2004  2078  2109  2117  2119  2123  2114  2065  1981  1901  1849  1816  1768  1659  1433  1066  606  151  -217  -457  -568  -600  -613  -646  -720  -847  -1012  -1158  -1228  -1209  -1133  -1027  -899  -776  -695  -668  -670  -681  -699  -728  -754  -752  -716  -667  -625  -599  -584  -571  -556  -540  -527  -523  -530  -550  -578  -591  -565  -506  -450  -425  -435  -462  -488  -501  -503  -506  -517  -534  -542  -525  -488  -468  -499  -573  -650  -709  -760  -822  -908  -1042  -1236  -1425  -1515  -1476  -1370  -1287  -1260  -1253  -1238  -1206  -1168  -1189  -1344  -1580  -1676  -1269  -33  1999  4328  6216  6969  6211  4123  1343  -1342  -3241  -4024  -3856  -3171  -2359  -1666  -1200  -936  -784  -680  -621  -603  -586  -509  -346  -152  -14  43  58  62  65  68  65  48  40  115  340  667  939  1064  1081  1074  1109  1234  1473  1775  2025  2164  2222  2256  2290  2322  2346  2364  2382  2398  2404  2381  2298  2140  1932  1694  1420  1136  869  577  248  -30  -219  -373  -524  -644  -717  -752  -767  -792  -859  -957  -1041  -1072  -1022  -871  -672  -529  -483  -492  -507  -513  -509  -498  -482  -463  -433  -388  -343  -315  -310  -314  -316  -304  -280  -268  -307  -418  -568  -690  -748  -759  -740  -682  -573  -427  -286  -193  -156  -150  -154  -182  -254  -350  -419  -439  -428  -418  -443  -529  -670  -814  -913  -958  -962  -927  -842  -737  -687  -740  -867  -1017  -1179  -1347  -1501  -1566  -1258  -221  1596  3903  6115  7366  6966  4966  2082  -782  -2824  -3640  -3458  -2831  -2161  -1641  -1332  -1193  -1103  -952  -751  -591  -501  -431  -347  -269  -212  -173  -146  -121  -87  -44  13  111  265  445  587  660  691  730  813  945  1103  1266  1449  1672  1907  2082  2166  2205  2257  2324  2366  2368  2347  2320  2294  2245  2115  1861  1519  1184  932  743  532  282  56  -139  -377  -676  -961  -1151  -1235  -1257  -1260  -1251  -1217  -1160  -1104  -1074  -1065  -1062  -1057  -1053  -1044  -1020  -978  -911  -811  -717  -702  -777  -867  -908  -900  -887  -897  -918  -927  -912  -884  -859  -839  -809  -763  -716  -706  -747  -801  -811  -765  -695  -636  -580  -504  -407  -310  -234  -188  -171  -180  -222  -306  -412  -494  -535  -581  -688  -835  -948  -988  -974  -916  -817  -710  -643  -634  -674  -728  -795  -927  -1060  -851  84  1799  3993  6079  7223  6771  4788  1975  -769  -2673  -3405  -3227  -2668  -2113  -1701  -1410  -1153  -864  -579  -398  -358  -411  -488  -545  -564  -534  -441  -307  -196  -141  -115  -63  43  183  305  390  458  535  627  752  951  1237  1552  1803  1941  1999  2042  2133  2304  2510  2662  2727  2723  2633  2420  2130  1898  1791  1752  1678  1493  1199  880  604  372  175  25  -83  -179  -286  -420  -576  -727  -849  -934  -980  -992  -978  -947  -910  -879  -861  -847  -841  -846  -856  -863  -862  -852  -841  -838  -839  -835  -825  -810  -799  -800  -805  -796  -745  -664  -636  -699  -773  -781  -741  -688  -626  -552  -465  -383  -330  -308  -302  -302  -320  -376  -462  -518  -504  -465  -467  -536  -645  -744  -802  -826  -839  -858  -884  -910  -925  -919  -889  -833  -780  -762  -777  -870  -1055  -1019  -241  1469  3790  6068  7436  7129  5089  2064  -949  -3125  -3986  -3642  -2713  -1798  -1177  -889  -831  -840  -819  -750  -634  -496  -382  -319  -294  -276  -244  -194  -134  -71  -2  92  216  331  407  465  547  666  827  1028  1248  1444  1582  1671  1745  1821  1907  2041  2262  2524  2719  2799  2799  2762  2705  2630  2526  2380  2194  1958  1649  1307  1026  826  640  400  98  -201  -408  -507  -557  -601  -632  -642  -638  -637  -651  -691  -749  -805  -840  -854  -855  -844  -815  -774  -738  -730  -764  -829  -884  -908  -911  -911  -916  -929  -935  -894  -770  -601  -481  -463  -528  -642  -773  -872  -917  -923  -918  -906  -871  -787  -646  -486  -355  -256  -179  -137  -167  -296  -484  -649  -742  -773  -770  -748  -721  -720  -769  -850  -920  -961  -982  -997  -1001  -977  -922  -879  -908  -1035  -1224  -1372  -1249  -474  1164  3428  5706  7142  6940  4997  2073  -780  -2763  -3571  -3463  -2949  -2410  -1987  -1637  -1313  -1067  -914  -761  -563  -386  -288  -253  -242  -232  -221  -207  -180  -136  -80  1  132  319  537  738  871  923  926  923  948  1015  1124  1267  1431  1621  1823  1995  2132  2276  2442  2587  2668  2690  2687  2668  2611  2486  2285  2044  1815  1596  1292  856  385  3  -242  -386  -494  -617  -772  -928  -1035  -1082  -1086  -1047  -949  -818  -718  -680  -682  -701  -736  -779  -804  -790  -747  -713  -729  -818  -954  -1073  -1103  -1017  -875  -763  -709  -698  -722  -787  -890  -1005  -1074  -1049  -926  -785  -737  -792  -867  -911  -928  -941  -952  -938  -879  -796  -719  -653  -598  -557  -536  -533  -546  -583  -654  -744  -815  -848  -857  -862  -864  -853  -837  -835  -864  -934  -1046  -1171  -1271  -1304  -1245  -1105  -960  -928  -1084  -1376  -1489  -911  627  2896  5293  6994  7217  5748  3121  165  -2376  -3901  -4218  -3671  -2777  -1917  -1329  -1078  -1022  -963  -823  -643  -480  -348  -214  -49  130  273  350  373  373  386  433  501  566  606  624  646  712  823  931  1003  1073  1201  1422  1745  2139  2499  2724  2841  2934  3030  3104  3147  3168  3157  3084  2929  2703  2447  2202  1955  1662  1356  1130  989  848  670  491  334  185  47  -68  -166  -254  -350  -478  -635  -784  -880  -884  -777  -612  -481  -422  -416  -446  -512  -606  -696  -755  -775  -755  -700  -619  -526  -444  -413  -446  -508  -553  -575  -602  -654  -702  -700  -660  -644  -672  -706  -722  -730  -749  -777  -784  -742  -663  -591  -551  -530  -494  -426  -331  -241  -196  -247  -430  -694  -915  -1020  -997  -861  -687  -594  -636  -747  -840  -889  -908  -916  -945  -1023  -1158  -1325  -1465  -1535  -1540  -1423  -972  70  1811  4063  6234  7425  6908  4709  1614  -1341  -3345  -4059  -3718  -2918  -2172  -1647  -1299  -1057  -886  -787  -752  -753  -755  -729  -658  -544  -413  -304  -228  -165  -109  -75  -69  -65  -11  109  263  397  499  578  637  694  770  875  1014  1191  1425  1736  2065  2298  2388  2374  2324  2291  2288  2295  2284  2228  2110  1920  1664  1354  1009  639  279  6  -141  -236  -386  -588  -747  -820  -859  -918  -995  -1050  -1068  -1061  -1048  -1041  -1044  -1055  -1075  -1102  -1131  -1154  -1164  -1149  -1088  -981  -878  -861  -951  -1053  -1075  -1034  -986  -955  -930  -877  -766  -624  -544  -600  -778  -983  -1115  -1139  -1075  -962  -839  -720  -613  -543  -515  -498  -452  -363  -243  -103  45  169  221  154  -53  -351  -617  -775  -835  -837  -826  -812  -762  -683  -643  -687  -770  -813  -800  -775  -768  -767  -794  -922  -1130  -1285  -1312  -1157  -644  434  2129  4191  6040  6893  6211  4113  1334  -1209  -2841  -3355  -3052  -2461  -1931  -1555  -1323  -1179  -1039  -861  -649  -437  -267  -151  -71  -20  24  100  186  224  212  194  210  275  365  431  465  514  644  856  1070  1215  1319  1469  1723  2032  2291  2462  2595  2734  2875  2989  3050  3030  2903  2704  2519  2380  2252  2101  1921  1703  1441  1157  893  688  544  426  314  220  87  -178  -531  -791  -875  -852  -808  -776  -761  -753  -735  -687  -616  -552  -515  -502  -503  -509  -510  -500  -477  -442  -411  -421  -509  -668  -847  -982  -1011  -916  -760  -650  -622  -634  -641  -632  -615  -593  -564  -521  -471  -438  -431  -444  -457  -457  -439  -414  -391  -379  -371  -350  -315  -286  -269  -257  -251  -288  -402  -565  -696  -759  -783  -801  -813  -805  -770  -717  -672  -649  -655  -702  -785  -893  -1026  -1179  -1275  -1082  -252  1328  3370  5382  6721  6728  5241  2754  18  -2241  -3485  -3648  -3170  -2550  -2032  -1677  -1453  -1237  -961  -690  -499  -392  -346  -327  -308  -279  -251  -236  -238  -244  -227  -162  -64  26  100  165  233  352  562  811  1007  1137  1241  1351  1492  1666  1858  2053  2230  2359  2422  2434  2427  2423  2418  2372  2251  2075  1882  1655  1352  1015  755  638  607  523  291  -38  -332  -524  -652  -767  -871  -940  -969  -974  -971  -965  -960  -970  -1020  -1122  -1222  -1233  -1152  -1060  -1006  -982  -972  -970  -971  -974  -977  -972  -931  -823  -664  -525  -471  -525  -663  -818  -923  -961  -953  -904  -811  -722  -704  -749  -803  -844  -857  -835  -782  -699  -608  -529  -439  -329  -231  -167  -140  -162  -252  -391  -516  -584  -614  -648  -699  -753  -786  -788  -746  -654  -546  -473  -447  -451  -471  -499  -512  -495  -513  -676  -967  -1139  -761  529  2702  5250  7323  7996  6812  4164  997  -1725  -3345  -3697  -3131  -2246  -1500  -1040  -796  -669  -604  -554  -472  -355  -249  -194  -175  -139  -51  66  154  177  160  139  130  120  111  145  293  558  843  1046  1152  1212  1276  1348  1409  1456  1542  1758  2105  2440  2632  2695  2718  2742  2750  2683  2493  2195  1860  1534  1211  916  714  618  538  371  107  -179  -437  -650  -792  -857  -893  -955  -1037  -1078  -1042  -966  -903  -869  -864  -933  -1131  -1418  -1658  -1751  -1662  -1381  -1013  -745  -651  -662  -706  -750  -782  -798  -796  -754  -659  -565  -564  -658  -756  -797  -793  -779  -774  -782  -814  -883  -975  -1048  -1076  -1055  -977  -846  -706  -607  -564  -559  -564  -553  -512  -446  -377  -312  -247  -185  -130  -81  -55  -76  -154  -283  -416  -490  -489  -450  -416  -403  -409  -434  -480  -540  -601  -653  -697  -739  -762  -738  -663  -586  -585  -713  -923  -929  -252  1376  3725  6159  7806  7856  6124  3278  331  -1930  -3079  -3165  -2677  -2098  -1638  -1352  -1203  -1076  -889  -664  -475  -366  -323  -317  -324  -327  -311  -263  -188  -103  -25  31  75  126  200  312  465  622  754  886  1052  1229  1374  1488  1603  1732  1885  2086  2312  2481  2575  2649  2735  2806  2837  2836  2817  2757  2581  2225  1761  1367  1122  953  771  544  283  32  -177  -356  -520  -654  -740  -793  -841  -877  -867  -806  -749  -752  -804  -870  -923  -951  -962  -966  -961  -946  -913  -856  -782  -719  -685  -672  -673  -665  -618  -533  -461  -464  -561  -696  -777  -765  -690  -609  -562  -551  -560  -589  -656  -747  -816  -841  -830  -790  -729  -673  -645  -652  -679  -701  -698  -663  -608  -544  -489  -454  -435  -423  -422  -449  -520  -612  -679  -701  -671  -562  -372  -177  -59  -27  -40  -78  -148  -251  -367  -469  -547  -596  -620  -628  -631  -637  -651  -694  -789  -918  -1016  -1022  -910  -709  -534  -515  -733  -1116  -1280  -689  918  3322  5909  7789  8070  6484  3640  502  -2073  -3493  -3706  -3166  -2374  -1635  -1135  -922  -873  -823  -714  -590  -496  -427  -353  -264  -180  -126  -93  -57  -20  2  5  -4  0  40  119  220  339  486  649  797  918  1029  1131  1221  1326  1504  1761  2022  2222  2375  2509  2603  2634  2605  2517  2387  2270  2192  2092  1873  1541  1209  933  683  417  100  -246  -519  -662  -730  -796  -869  -926  -959  -979  -997  -1019  -1034  -1032  -1021  -1024  -1066  -1149  -1240  -1304  -1323  -1292  -1211  -1112  -1035  -995  -987  -996  -1000  -990  -966  -917  -833  -719  -596  -494  -438  -447  -529  -674  -837  -953  -1001  -1009  -1004  -972  -889  -778  -694  -658  -643  -625  -609  -610  -624  -642  -664  -687  -709  -728  -739  -735  -715  -689  -664  -638  -614  -592  -566  -534  -486  -404  -303  -219  -167  -146  -149  -159  -177  -224  -316  -437  -554  -647  -703  -719  -711  -708  -720  -731  -718  -675  -616  -563  -534  -531  -545  -583  -700  -902  -973  -543  667  2669  5090  7170  8030  7136  4683  1517  -1353  -3209  -3823  -3467  -2674  -1889  -1325  -993  -797  -650  -534  -472  -457  -429  -335  -197  -88  -40  -32  -39  -42  -12  74  182  243  248  247  282  357  465  601  761  938  1106  1245  1371  1523  1711  1921  2157  2397  2587  2723  2834  2918  2952  2940  2895  2815  2672  2439  2123  1771  1430  1109  785  456  165  -49  -198  -307  -396  -484  -577  -665  -736  -792  -827  -840  -845  -875  -956  -1064  -1151  -1191  -1188  -1159  -1118  -1060  -987  -917  -865  -832  -817  -812  -805  -786  -747  -693  -646  -617  -604  -608  -624  -643  -657  -664  -671  -687  -716  -748  -763  -750  -725  -709  -708  -708  -694  -655  -603  -566  -553  -554  -547  -515  -445  -342  -227  -127  -62  -34  -37  -76  -165  -308  -472  -601  -678  -724  -756  -778  -795  -801  -770  -673  -535  -437  -457  -614  -838  -1016  -1113  -1196  -1331  -1412  -1117  -111  1704  4041  6176  7232  6679  4659  1879  -801  -2661  -3367  -3176  -2618  -2055  -1681  -1535  -1446  -1249  -964  -701  -522  -410  -317  -227  -162  -127  -103  -79  -49  -5  46  95  145  200  247  288  362  503  683  832  920  977  1047  1146  1310  1593  1958  2274  2478  2602  2670  2690  2676  2639  2583  2517  2453  2383  2280  2134  1924  1609  1187  711  258  -69  -230  -299  -403  -603  -837  -999  -1057  -1062  -1075  -1121  -1190  -1253  -1293  -1303  -1271  -1188  -1081  -1000  -966  -967  -992  -1037  -1096  -1148  -1178  -1188  -1179  -1135  -1050  -959  -912  -919  -949  -983  -1025  -1065  -1063  -988  -874  -798  -804  -863  -922  -960  -982  -995  -993  -976  -951  -921  -881  -817  -725  -624  -553  -525  -529  -550  -585  -625  -662  -703  -764  -831  -879  -908  -945  -1003  -1063  -1100  -1101  -1072  -1028  -987  -958  -957  -1044  -1263  -1587  -1906  -1969  -1418  -64  1972  4327  6344  7202  6396  4117  1149  -1576  -3364  -3979  -3692  -3023  -2364  -1865  -1511  -1220  -942  -716  -599  -579  -604  -626  -612  -544  -427  -285  -144  -32  38  93  167  269  369  429  446  446  463  516  595  712  919  1224  1541  1794  1994  2163  2292  2376  2433  2502  2610  2726  2774  2732  2658  2599  2529  2407  2229  1987  1652  1244  863  586  388  218  65  -64  -167  -241  -299  -369  -446  -497  -520  -540  -568  -583  -574  -556  -551  -550  -521  -438  -328  -251  -229  -225  -185  -91  13  62  34  -23  -55  -63  -77  -86  -61  -8  49  108  172  223  245  249  244  230  216  223  261  312  345  361  403  498  597  634  624  619  635  661  680  683  655  556  333  0]
