reading_id,reading_time,wire_id,result_classification,heart_rate,heart_rate_alert,firmware_version,device_app_version,hardware_version,waveform_samples
4817ea90-6c6f-11ed-8080-808080808080,Fri Nov 25 03:14:32 UTC 2022,a101e3f91939,NSR,98,NONE,20001.171.50,2.10.0,Charge 5,[0  -1037  -2778  -5105  -7308  -8771  -9354  -9330  -9032  -8676  -8373  -8128  -7903  -7719  -7616  -7580  -7557  -7485  -7327  -7083  -6782  -6493  -6286  -6176  -6122  -6063  -5945  -5776  -5652  -5646  -5685  -5644  -5507  -5327  -5156  -5022  -4910  -4778  -4604  -4390  -4160  -3940  -3727  -3492  -3253  -3077  -3000  -2996  -3032  -3099  -3185  -3258  -3291  -3293  -3288  -3282  -3270  -3247  -3248  -3353  -3616  -3956  -4211  -4324  -4355  -4364  -4350  -4297  -4244  -4250  -4319  -4371  -4307  -4116  -3878  -3683  -3593  -3594  -3586  -3505  -3365  -3200  -3034  -2878  -2729  -2623  -2642  -2783  -2929  -2988  -2958  -2886  -2797  -2681  -2552  -2457  -2419  -2415  -2425  -2436  -2436  -2401  -2330  -2249  -2176  -2092  -1975  -1842  -1742  -1695  -1692  -1754  -1914  -2103  -2141  -1910  -1525  -1225  -1110  -1108  -1124  -1121  -1104  -1107  -1185  -1343  -1475  -1472  -1360  -1232  -1131  -1057  -1012  -1005  -1051  -1178  -1392  -1634  -1804  -1857  -1801  -1654  -1502  -1533  -1852  -2279  -2396  -1762  -134  2340  5071  7189  7903  6877  4435  1350  -1499  -3391  -4017  -3551  -2445  -1295  -654  -614  -795  -883  -876  -855  -841  -815  -767  -708  -650  -571  -444  -278  -110  8  51  45  52  84  102  108  150  246  374  510  654  793  882  916  982  1173  1455  1705  1852  1897  1899  1956  2087  2201  2219  2161  2115  2116  2090  1981  1809  1595  1336  1071  851  664  465  272  136  56  -4  -62  -100  -110  -109  -108  -102  -87  -68  -66  -79  -63  2  89  181  286  378  405  361  300  272  281  296  292  273  256  249  249  252  263  277  269  213  130  77  76  89  84  83  106  117  56  -66  -176  -236  -282  -354  -440  -480  -418  -286  -179  -142  -132  -94  -21  70  167  240  281  314  323  260  147  58  26  16  -22  -117  -266  -432  -567  -660  -715  -718  -684  -641  -571  -467  -376  -331  -314  -314  -352  -488  -818  -1238  -1352  -772  635  2750  5219  7339  8159  7168  4724  1707  -977  -2663  -3110  -2664  -1948  -1354  -977  -789  -713  -678  -650  -603  -511  -377  -238  -143  -106  -95  -72  -20  39  75  106  201  378  568  704  777  811  813  781  741  750  861  1070  1295  1449  1510  1528  1563  1643  1736  1799  1819  1820  1818  1809  1772  1700  1620  1576  1568  1509  1269  840  398  127  39  8  -78  -223  -360  -450  -505  -568  -679  -813  -906  -947  -972  -997  -999  -949  -854  -762  -702  -662  -623  -589  -566  -555  -549  -541  -544  -553  -523  -442  -350  -273  -209  -169  -150  -131  -107  -92  -99  -123  -164  -241  -363  -516  -673  -792  -819  -734  -581  -450  -376  -327  -286  -267  -264  -264  -262  -262  -269  -273  -243  -149  -23  39  -13  -131  -233  -303  -363  -420  -472  -519  -554  -566  -566  -610  -749  -943  -1082  -1106  -1052  -982  -909  -813  -752  -891  -1318  -1755  -1772  -1428  -1030  -440  721  2594  4946  7040  7766  6460  3609  392  -2165  -3463  -3494  -2879  -2290  -1944  -1755  -1649  -1603  -1598  -1604  -1539  -1316  -976  -674  -503  -434  -405  -406  -478  -618  -739  -774  -728  -639  -546  -459  -367  -262  -129  53  257  403  470  512  571  649  713  729  722  764  895  1129  1437  1716  1880  1951  1986  1990  1922  1732  1409  1018  688  500  410  324  212  114  59  11  -117  -355  -611  -759  -742  -580  -362  -208  -165  -187  -223  -251  -281  -323  -374  -415  -431  -418  -390  -359  -315  -251  -176  -102  -38  4  29  37  -5  -150  -374  -570  -653  -624  -518  -363  -204  -114  -136  -250  -383  -467  -493  -495  -501  -498  -430  -260  -40  118  170  136  33  -112  -243  -316  -346  -378  -437  -508  -564  -602  -643  -683  -686  -626  -522  -427  -369  -343  -351  -408  -524  -692  -869  -1015  -1117  -1182  -1290  -1545  -1756  -1427  -206  1881  4474  6846  7994  7323  5185  2433  -157  -1981  -2816  -2928  -2675  -2283  -1932  -1710  -1517  -1208  -812  -476  -266  -152  -103  -96  -101  -100  -92  -84  -78  -66  -51  -36  11  135  317  476  549  556  565  659  890  1237  1586  1807  1872  1843  1757  1628  1496  1454  1588  1845  2066  2170  2181  2138  2067  1992  1905  1739  1456  1126  850  669  577  530  464  325  79  -258  -586  -790  -844  -761  -537  -246  -40  0  -97  -245  -357  -396  -379  -340  -300  -260  -221  -199  -230  -331  -459  -541  -567  -569  -543  -489  -458  -503  -615  -731  -803  -827  -814  -757  -653  -533  -437  -381  -352  -328  -288  -228  -158  -95  -57  -76  -173  -313  -424  -471  -477  -472  -472  -485  -508  -528  -540  -552  -574  -605  -644  -712  -820  -931  -991  -1000  -1009  -1079  -1204  -1294  -1299  -1278  -1241  -1030  -429  659  2213  4090  5835  6701  6145  4264  1670  -859  -2550  -3063  -2822  -2402  -1902  -1321  -869  -654  -580  -548  -529  -527  -527  -472  -309  -87  79  163  223  291  354  404  440  456  454  479  581  754  920  1023  1102  1232  1432  1638  1790  1904  2024  2143  2218  2239  2232  2210  2178  2140  2093  2007  1864  1680  1476  1253  1028  845  727  628  485  295  99  -93  -323  -594  -835  -968  -995  -1009  -1123  -1342  -1569  -1729  -1819  -1868  -1883  -1802  -1579  -1304  -1138  -1142  -1232  -1308  -1342  -1361  -1384  -1404  -1409  -1403  -1395  -1399  -1437  -1505  -1545  -1507  -1412  -1299  -1191  -1099  -1000  -860  -689  -543  -483  -535  -666  -822  -968  -1076  -1129  -1142  -1141  -1131  -1089  -991  -847  -731  -714  -778  -865  -969  -1083  -1199  -1310  -1397  -1446  -1457  -1396  -1231  -1029  -954  -1076  -1184  -865  173  1905  3995  5790  6515  5802  3950  1561  -732  -2319  -2966  -2923  -2508  -1973  -1552  -1358  -1322  -1312  -1230  -1038  -776  -538  -384  -315  -331  -445  -639  -829  -920  -872  -684  -376  -31  237  401  498  535  513  483  507  600  760  1009  1307  1540  1666  1728  1761  1780  1813  1894  2027  2150  2179  2115  2010  1887  1776  1724  1715  1652  1442  1121  824  629  520  456  404  337  244  121  -32  -206  -381  -500  -512  -462  -433  -442  -449  -425  -390  -388  -367  -213  39  202  187  89  14  -18  -43  -69  -85  -89  -100  -142  -207  -258  -277  -275  -268  -263  -262  -275  -303  -322  -316  -297  -266  -183  -28  147  279  361  407  395  307  164  12  -125  -284  -491  -685  -764  -699  -569  -472  -442  -449  -458  -462  -472  -502  -558  -620  -602  -412  -194  -294  -714  -922  -368  1191  3746  6689  8699  8710  6697  3428  54  -2375  -3435  -3388  -2851  -2318  -1902  -1542  -1250  -1059  -926  -781  -610  -452  -332  -244  -188  -162  -140  -91  -27  21  76  191  368  546  670  724  714  651  563  503  519  630  804  977  1135  1310  1503  1660  1739  1763  1776  1798  1818  1817  1783  1711  1602  1456  1282  1107  961  862  776  660  534  420  263  -15  -391  -737  -963  -1078  -1125  -1136  -1134  -1139  -1157  -1172  -1182  -1196  -1174  -1072  -950  -900  -938  -1017  -1090  -1135  -1164  -1185  -1196  -1191  -1166  -1116  -1039  -947  -870  -842  -861  -896  -923  -935  -927  -891  -825  -746  -681  -641  -618  -610  -611  -625  -677  -766  -849  -897  -909  -901  -902  -916  -908  -863  -819  -844  -936  -1022  -1061  -1071  -1080  -1091  -1109  -1143  -1198  -1281  -1375  -1447  -1444  -1088  -37  1671  3783  5892  7153  6854  5123  2576  -74  -2077  -3064  -3250  -2958  -2427  -1921  -1579  -1370  -1243  -1151  -1048  -936  -844  -746  -602  -437  -322  -283  -287  -296  -304  -321  -334  -309  -234  -131  -18  117  282  432  540  633  749  905  1088  1251  1343  1367  1368  1379  1404  1448  1535  1668  1803  1887  1865  1712  1508  1349  1229  1086  903  667  345  -8  -263  -374  -403  -398  -366  -319  -285  -284  -327  -401  -478  -532  -559  -567  -569  -573  -577  -579  -587  -626  -689  -676  -529  -352  -268  -269  -298  -318  -322  -317  -323  -359  -411  -407  -315  -207  -158  -165  -204  -276  -387  -511  -599  -631  -635  -645  -674  -703  -728  -763  -804  -833  -844  -840  -814  -758  -683  -618  -591  -635  -777  -978  -1136  -1191  -1161  -1135  -1323  -1799  -2117  -1636  -129  2228  4966  7226  8113  7227  4846  1778  -1009  -2805  -3446  -3325  -2952  -2514  -2004  -1492  -1054  -719  -522  -457  -466  -495  -512  -494  -432  -329  -199  -42  127  256  321  383  491  605  675  703  722  767  840  936  1066  1209  1308  1365  1445  1586  1774  1977  2129  2166  2122  2084  2070  2027  1914  1760  1626  1529  1444  1322  1153  1004  928  883  790  603  325  7  -285  -508  -655  -756  -836  -884  -893  -888  -891  -897  -872  -770  -611  -498  -466  -431  -364  -331  -350  -376  -386  -391  -394  -380  -332  -276  -256  -240  -175  -85  -13  49  97  103  48  -52  -156  -248  -348  -440  -485  -490  -483  -483  -505  -570  -690  -826  -920  -951  -947  -932  -918  -911  -900  -823  -589  -242  -104  -416  -983  -1470  -1614  -1014  625  3017  5393  6906  6919  5354  2778  -3  -2232  -3388  -3496  -3010  -2353  -1725  -1252  -1025  -964  -913  -823  -718  -629  -591  -590  -577  -542  -495  -438  -372  -295  -224  -211  -224  -134  68  242  331  395  472  554  653  774  876  927  950  993  1086  1206  1301  1382  1509  1667  1749  1691  1541  1389  1260  1130  982  789  514  210  -16  -126  -189  -314  -548  -815  -1008  -1104  -1149  -1188  -1239  -1289  -1322  -1331  -1315  -1268  -1182  -1072  -979  -929  -919  -931  -944  -952  -956  -950  -911  -817  -692  -602  -573  -575  -570  -534  -466  -384  -306  -246  -213  -211  -226  -244  -263  -290  -312  -281  -156  32  182  209  97  -113  -354  -565  -716  -818  -894  -932  -898  -789  -659  -577  -564  -578  -586  -624  -746  -927  -1114  -1198  -920  42  1865  4286  6528  7656  7016  4668  1515  -1278  -2953  -3335  -2795  -2057  -1674  -1595  -1492  -1265  -975  -678  -446  -330  -316  -347  -372  -367  -327  -255  -161  -62  29  117  218  329  416  466  477  424  293  177  261  631  1150  1588  1825  1892  1878  1838  1777  1698  1624  1572  1528  1473  1425  1410  1392  1321  1222  1105  920  683  489  373  279  135  -57  -240  -374  -471  -544  -604  -654  -674  -650  -618  -612  -625  -642  -658  -673  -686  -712  -780  -884  -953  -939  -885  -852  -852  -866  -854  -771  -610  -446  -384  -428  -500  -578  -709  -884  -1010  -1007  -870  -678  -543  -503  -513  -511  -472  -409  -352  -300  -228  -137  -61  -28  -37  -77  -146  -241  -365  -533  -720  -847  -862  -776  -618  -444  -332  -308  -348  -429  -540  -644  -688  -649  -586  -637  -884  -1195  -1160  -289  1535  3919  6190  7565  7406  5664  2954  138  -2001  -2992  -2964  -2459  -1945  -1632  -1475  -1304  -1037  -701  -388  -199  -147  -165  -193  -205  -206  -210  -221  -230  -202  -95  93  317  528  694  796  839  849  840  802  727  671  725  897  1106  1294  1453  1592  1725  1863  2002  2120  2200  2232  2195  2059  1807  1474  1164  946  788  643  521  429  367  337  330  298  190  5  -196  -369  -531  -694  -806  -819  -724  -554  -393  -326  -370  -465  -540  -568  -566  -560  -556  -553  -548  -546  -559  -575  -525  -392  -264  -209  -201  -201  -199  -213  -286  -447  -642  -763  -774  -728  -690  -673  -643  -581  -517  -502  -554  -637  -672  -613  -487  -330  -169  -25  83  126  72  -75  -280  -479  -613  -682  -740  -813  -868  -879  -868  -869  -900  -960  -1026  -1071  -1095  -1120  -1144  -1116  -1043  -1074  -1247  -1285  -811  445  2528  5034  7166  8051  7150  4640  1395  -1503  -3319  -3888  -3469  -2530  -1632  -1161  -1073  -1086  -1052  -996  -949  -894  -793  -618  -391  -213  -172  -236  -306  -326  -297  -231  -111  66  241  341  360  337  322  394  614  918  1147  1224  1184  1076  960  955  1163  1551  1976  2304  2465  2404  2102  1656  1257  996  843  769  735  673  543  349  113  -109  -259  -352  -469  -655  -856  -976  -979  -898  -779  -668  -606  -595  -601  -597  -594  -619  -687  -775  -813  -760  -675  -628  -623  -635  -649  -654  -626  -564  -474  -352  -212  -118  -144  -311  -545  -720  -782  -775  -757  -753  -764  -764  -708  -560  -366  -227  -191  -224  -274  -305  -308  -288  -257  -224  -192  -185  -257  -407  -546  -619  -667  -759  -896  -981  -930  -803  -684  -590  -554  -615  -724  -811  -862  -913  -988  -1050  -1053  -1074  -1221  -1424  -1390  -707  847  3072  5429  7157  7479  6131  3562  632  -1758  -3054  -3297  -2998  -2648  -2377  -2051  -1581  -1078  -732  -593  -584  -620  -642  -585  -399  -144  42  94  49  -32  -103  -133  -102  0  155  317  461  586  686  760  843  980  1170  1386  1609  1794  1898  1931  1920  1865  1776  1709  1724  1823  1926  1913  1759  1557  1400  1305  1237  1138  971  746  507  299  137  -4  -159  -329  -471  -539  -545  -534  -557  -649  -798  -937  -1020  -1056  -1063  -996  -789  -477  -204  -85  -151  -394  -717  -947  -983  -841  -602  -358  -183  -122  -172  -297  -447  -567  -613  -578  -511  -484  -522  -591  -630  -604  -539  -467  -392  -303  -182  -31  108  185  180  114  6  -123  -249  -348  -415  -462  -500  -525  -532  -531  -529  -528  -526  -522  -518  -524  -549  -598  -683  -809  -903  -884  -845  -970  -1176  -1071  -240  1508  3984  6400  7682  7223  5168  2246  -559  -2522  -3415  -3372  -2815  -2270  -1935  -1647  -1284  -930  -682  -544  -480  -445  -406  -356  -312  -278  -240  -165  -23  152  277  327  349  379  411  429  429  430  484  627  816  956  1023  1093  1238  1454  1685  1876  2007  2068  2064  2024  1981  1927  1820  1659  1504  1400  1331  1243  1096  897  712  584  470  309  113  -81  -270  -447  -578  -651  -692  -734  -791  -840  -860  -859  -859  -868  -879  -880  -876  -878  -888  -879  -812  -672  -512  -392  -324  -294  -291  -310  -363  -472  -635  -810  -935  -991  -1005  -1008  -1021  -1031  -992  -859  -667  -517  -468  -512  -604  -672  -669  -631  -611  -614  -619  -602  -547  -456  -355  -271  -215  -186  -181  -199  -253  -362  -503  -603  -623  -596  -566  -551  -548  -571  -646  -762  -836  -809  -716  -632  -615  -672  -765  -898  -1077  -1251  -1377  -1235  -388  1313  3581  5940  7619  7722  5977  2959  -274  -2654  -3687  -3572  -2821  -2008  -1537  -1371  -1234  -1042  -887  -803  -752  -687  -580  -433  -280  -168  -133  -159  -202  -235  -239  -168  29  315  562  696  746  767  788  830  899  963  1014  1093  1240  1452  1680  1851  1938  1987  2050  2125  2169  2143  2062  1959  1831  1671  1499  1312  1092  878  716  614  556  512  435  293  89  -157  -422  -629  -675  -581  -483  -466  -519  -596  -654  -674  -644  -556  -439  -355  -338  -381  -455  -523  -558  -543  -460  -300  -105  46  83  -28  -253  -489  -654  -729  -732  -693  -636  -592  -577  -590  -615  -633  -632  -624  -618  -619  -621  -622  -610  -567  -471  -320  -156  -47  -11  -10  -11  -17  -61  -151  -249  -336  -428  -509  -548  -554  -552  -552  -557  -575  -610  -686  -827  -1005  -1136  -1169  -1128  -1084  -1069  -1086  -1136  -1141  -830  150  1937  4316  6589  7721  7072  4870  1912  -894  -2770  -3399  -3138  -2571  -2010  -1588  -1355  -1231  -1121  -990  -834  -670  -519  -390  -291  -220  -163  -114  -91  -99  -115  -113  -72  15  139  272  383  461  502  495  477  574  870  1253  1519  1608  1604  1580  1549  1524  1556  1688  1890  2058  2105  2017  1856  1699  1556  1404  1257  1126  971  724  399  104  -94  -226  -337  -433  -503  -565  -671  -846  -1036  -1165  -1216  -1224  -1212  -1182  -1139  -1100  -1060  -999  -922  -845  -790  -793  -859  -943  -1008  -1033  -1002  -915  -792  -672  -602  -593  -625  -670  -708  -740  -769  -788  -791  -778  -758  -731  -689  -635  -592  -573  -572  -580  -591  -600  -590  -543  -452  -319  -144  31  113  54  -74  -173  -221  -262  -340  -442  -512  -514  -456  -378  -320  -341  -504  -756  -948  -1018  -1013  -983  -947  -910  -901  -954  -1039  -1102  -1147  -1086  -661  449  2423  4995  7320  8282  7252  4588  1258  -1672  -3361  -3635  -3021  -2178  -1563  -1316  -1242  -1092  -846  -645  -564  -542  -491  -396  -308  -265  -245  -187  -30  213  426  523  551  584  625  652  670  693  734  787  836  879  956  1126  1375  1599  1720  1772  1829  1918  2015  2116  2239  2356  2415  2370  2176  1859  1553  1362  1249  1129  996  909  865  769  521  140  -238  -492  -601  -629  -646  -682  -725  -743  -721  -688  -691  -755  -856  -936  -956  -901  -762  -573  -420  -350  -330  -312  -296  -311  -368  -444  -503  -542  -587  -641  -703  -777  -847  -881  -859  -769  -621  -451  -324  -314  -459  -733  -1032  -1230  -1289  -1262  -1186  -1034  -770  -468  -267  -208  -215  -214  -200  -211  -259  -302  -294  -244  -225  -279  -357  -408  -440  -468  -490  -507  -534  -585  -671  -773  -810  -752  -674  -638  -644  -698  -810  -960  -1163  -1422  -1568  -1334  -506  1021  3161  5471  7149  7411  6008  3405  486  -1859  -3075  -3214  -2794  -2269  -1851  -1601  -1453  -1276  -1030  -805  -683  -649  -629  -555  -414  -261  -153  -105  -90  -71  -22  71  202  317  361  351  335  339  379  483  685  971  1244  1405  1447  1429  1403  1430  1567  1819  2101  2302  2364  2292  2137  1983  1890  1845  1792  1678  1473  1204  953  759  562  308  46  -130  -215  -261  -295  -315  -325  -350  -427  -562  -701  -783  -808  -816  -834  -833  -745  -547  -319  -178  -164  -223  -280  -306  -309  -305  -302  -299  -296  -299  -322  -369  -414  -420  -375  -294  -211  -161  -172  -248  -359  -467  -573  -690  -815  -924  -965  -858  -582  -246  -16  52  31  2  -24  -99  -263  -474  -641  -729  -769  -797  -833  -890  -975  -1083  -1197  -1285  -1308  -1245  -1121  -996  -904  -861  -914  -1057  -1101  -906  -658  -593  -617  -319  762  2770  5203  7015  7224  5556  2623  -416  -2550  -3454  -3450  -3041  -2597  -2347  -2224  -1970  -1577  -1199  -845  -491  -215  -115  -210  -400  -554  -610  -550  -366  -114  86  158  125  61  31  80  224  404  523  564  587  667  864  1182  1529  1783  1895  1896  1842  1781  1750  1771  1803  1792  1747  1685  1591  1479  1402  1375  1352  1263  1058  765  480  277  166  111  43  -104  -327  -551  -717  -815  -854  -855  -849  -850  -834  -782  -715  -676  -672  -675  -662  -646  -641  -646  -652  -650  -624  -562  -477  -405  -369  -359  -350  -323  -283  -263  -311  -433  -555  -618  -653  -664  -631  -614  -657  -739  -821  -843  -773  -654  -531  -422  -335  -263  -211  -186  -181  -184  -186  -189  -196  -206  -222  -261  -341  -451  -551  -613  -629  -607  -580  -617  -768  -966  -1090  -1110  -1077  -1021  -925  -786  -720  -863  -1122  -1126  -396  1290  3654  6062  7646  7531  5537  2458  -596  -2756  -3491  -3005  -2197  -1672  -1333  -1053  -911  -879  -827  -695  -515  -345  -216  -137  -99  -63  19  143  246  294  306  317  344  380  432  521  629  730  851  1014  1169  1263  1314  1381  1493  1638  1791  1921  1999  2023  2019  2000  1962  1913  1867  1819  1755  1676  1567  1406  1235  1105  1004  896  739  476  122  -210  -429  -575  -745  -938  -1076  -1129  -1110  -1002  -794  -567  -457  -525  -703  -884  -1016  -1085  -1069  -971  -839  -725  -649  -607  -592  -593  -600  -606  -608  -609  -615  -635  -662  -686  -702  -715  -713  -660  -548  -422  -307  -228  -289  -503  -717  -815  -818  -797  -787  -773  -723  -638  -556  -506  -486  -482  -491  -514  -548  -592  -641  -661  -610  -491  -377  -362  -461  -617  -757  -836  -843  -801  -743  -703  -700  -738  -809  -905  -1015  -1139  -1383  -1766  -1787  -780  1325  4068  6718  8301  8062  5964  2743  -446  -2694  -3655  -3524  -2855  -2111  -1524  -1206  -1092  -1022  -926  -799  -647  -490  -348  -225  -137  -97  -82  -73  -76  -81  -63  -13  46  82  91  106  162  266  438  728  1095  1380  1495  1504  1528  1628  1771  1878  1922  1931  1928  1901  1836  1752  1695  1679  1664  1601  1490  1379  1300  1198  985  678  416  282  209  98  -77  -283  -469  -589  -632  -626  -606  -597  -630  -732  -864  -927  -854  -686  -526  -435  -394  -355  -280  -165  -63  -32  -74  -163  -255  -326  -403  -533  -680  -732  -625  -432  -283  -228  -228  -253  -320  -449  -604  -712  -744  -737  -740  -765  -793  -815  -831  -846  -852  -824  -745  -635  -543  -493  -471  -455  -433  -410  -400  -398  -384  -352  -361  -486  -695  -876  -953  -922  -836  -751  -694  -662  -644  -638  -651  -682  -721  -755  -777  -800  -863  -996  -1137  -1138  -1043  -1097  -1261  -1124  -283  1492  4089  6696  8156  7812  5818  2880  -150  -2518  -3745  -3898  -3363  -2370  -1237  -527  -396  -490  -526  -433  -220  44  252  342  332  278  238  237  258  281  300  311  322  349  406  474  521  565  667  839  1025  1201  1402  1616  1770  1844  1890  1948  2007  2053  2089  2110  2104  2057  1969  1860  1743  1624  1518  1442  1391  1323  1160  872  527  238  55  -71  -209  -379  -547  -644  -627  -518  -403  -388  -531  -824  -1197  -1520  -1642  -1447  -931  -313  91  142  -86  -418  -667  -751  -694  -550  -384  -264  -215  -210  -211  -209  -224  -270  -323  -359  -374  -403  -493  -641  -776  -831  -805  -743  -681  -619  -545  -480  -437  -402  -362  -323  -307  -342  -432  -541  -626  -671  -687  -688  -679  -650  -600  -556  -536  -529  -530  -546  -563  -562  -557  -597  -730  -945  -1192  -1419  -1558  -1556  -1404  -1154  -899  -726  -670  -708  -821  -1010  -1250  -1480  -1563  -1193  11  2125  4694  6922  7913  7109  4788  1843  -863  -2706  -3467  -3436  -2965  -2259  -1554  -1028  -661  -398  -254  -215  -219  -229  -271  -379  -516  -575  -495  -331  -175  -30  138  299  391  418  443  541  763  1055  1281  1382  1418  1457  1509  1555  1574  1558  1527  1505  1522  1606  1764  1967  2161  2299  2368  2359  2201  1833  1342  940  742  669  586  456  331  237  118  -78  -314  -510  -641  -745  -851  -950  -1021  -1060  -1073  -1068  -1050  -1002  -889  -737  -620  -577  -590  -644  -736  -841  -924  -985  -1053  -1117  -1142  -1119  -1067  -1017  -981  -950  -919  -881  -808  -692  -575  -525  -601  -806  -1058  -1242  -1323  -1322  -1225  -1007  -742  -583  -595  -699  -787  -826  -846  -874  -901  -897  -821  -620  -334  -146  -181  -348  -509  -615  -684  -738  -768  -758  -729  -712  -708  -707  -710  -735  -798  -883  -952  -999  -1047  -1109  -1153  -1146  -1165  -1270  -1276  -962  -199  1232  3368  5629  7154  7371  6012  3213  -122  -2691  -3696  -3302  -2332  -1533  -1206  -1288  -1508  -1639  -1595  -1353  -980  -633  -383  -198  -98  -77  -8  161  303  306  208  144  187  250  252  250  311  444  665  964  1253  1437  1507  1538  1596  1685  1783  1901  2043  2179  2254  2259  2228  2197  2168  2115  1979  1718  1398  1160  1047  997  960  918  808  563  251  34  -41  -90  -238  -491  -747  -911  -959  -903  -758  -561  -380  -286  -333  -537  -815  -1014  -1049  -941  -765  -598  -482  -418  -389  -378  -391  -420  -445  -459  -467  -477  -489  -502  -519  -528  -518  -506  -510  -525  -538  -560  -601  -659  -714  -714  -594  -377  -183  -91  -80  -90  -99  -123  -182  -257  -290  -249  -172  -135  -178  -270  -340  -371  -415  -522  -700  -887  -991  -976  -884  -777  -666  -541  -496  -703  -1118  -1329  -1035  -499  -225  -365  -521  -111  1281  3672  6254  7743  7431  5387  2222  -898  -2903  -3589  -3384  -2778  -2169  -1773  -1537  -1308  -1054  -866  -780  -725  -656  -636  -706  -739  -580  -282  -47  32  20  -7  -35  -62  -29  156  496  851  1088  1183  1185  1165  1191  1290  1427  1539  1618  1700  1796  1872  1909  1915  1907  1897  1885  1860  1823  1779  1733  1703  1688  1611  1359  925  476  192  76  -2  -136  -315  -512  -728  -929  -1049  -1062  -999  -909  -837  -805  -807  -821  -811  -751  -686  -696  -783  -871  -907  -905  -899  -902  -911  -925  -942  -947  -893  -735  -515  -346  -271  -242  -232  -281  -423  -599  -702  -717  -705  -676  -607  -493  -375  -300  -274  -275  -303  -375  -480  -567  -590  -546  -496  -520  -619  -709  -711  -620  -511  -456  -454  -476  -508  -533  -541  -549  -600  -716  -858  -971  -1029  -1003  -906  -832  -901  -1098  -1140  -651  520  2221  4055  5505  6092  5562  3950  1614  -728  -2360  -3053  -2961  -2345  -1613  -1097  -820  -692  -660  -674  -694  -714  -735  -750  -732  -638  -453  -232  -50  74  167  239  317  433  568  657  675  667  700  807  952  1059  1094  1096  1152  1328  1610  1918  2168  2326  2416  2493  2556  2524  2315  1989  1721  1611  1609  1608  1539  1384  1165  932  729  530  268  -38  -287  -414  -449  -463  -509  -599  -710  -819  -912  -976  -994  -972  -943  -944  -973  -983  -923  -810  -735  -749  -781  -750  -682  -639  -623  -594  -517  -410  -330  -312  -344  -402  -476  -573  -678  -755  -796  -841  -919  -1016  -1080  -1069  -976  -850  -759  -709  -653  -577  -519  -501  -501  -499  -490  -475  -461  -451  -444  -450  -494  -605  -774  -944  -1071  -1148  -1190  -1212  -1221  -1220  -1214  -1203  -1154  -1031  -862  -722  -632  -560  -523  -636  -957  -1336  -1495  -1178  -215  1407  3500  5629  7078  7175  5790  3332  537  -1634  -2622  -2662  -2280  -1884  -1638  -1436  -1210  -1007  -804  -587  -403  -260  -159  -115  -83  1  103  148  142  158  284  536  810  982  1029  1011  981  948  919  936  1043  1221  1406  1548  1636  1682  1718  1805  2001  2307  2630  2832  2854  2741  2587  2472  2385  2257  2063  1831  1549  1198  850  609  477  367  212  26  -123  -202  -225  -215  -190  -179  -256  -490  -829  -1111  -1240  -1257  -1239  -1223  -1208  -1184  -1125  -992  -794  -601  -481  -440  -446  -467  -476  -453  -421  -425  -418  -327  -216  -229  -412  -682  -902  -1002  -988  -881  -693  -455  -242  -143  -203  -370  -534  -622  -640  -629  -617  -605  -594  -590  -589  -574  -531  -473  -429  -397  -341  -247  -164  -146  -148  -99  -24  19  35  44  30  -66  -282  -569  -818  -959  -1004  -999  -963  -886  -788  -715  -692  -705  -751  -876  -1124  -1387  -1496  -1516  -1570  -1401  -547  1209  3719  6384  8218  8355  6677  3919  1011  -1404  -2834  -3158  -2827  -2312  -1761  -1248  -914  -791  -775  -771  -750  -698  -587  -395  -152  70  233  342  409  447  472  475  435  369  350  394  402  323  250  301  514  842  1168  1386  1529  1725  1987  2199  2289  2296  2282  2275  2277  2262  2198  2080  1932  1783  1643  1517  1415  1321  1180  957  691  456  281  161  76  -19  -186  -446  -741  -967  -1068  -1083  -1075  -1079  -1091  -1092  -1085  -1121  -1246  -1422  -1560  -1613  -1602  -1531  -1337  -1002  -649  -433  -377  -426  -543  -692  -814  -871  -861  -809  -753  -723  -718  -724  -729  -724  -698  -638  -567  -529  -548  -611  -694  -773  -826  -847  -849  -840  -824  -817  -865  -1007  -1203  -1347  -1393  -1372  -1317  -1214  -1032  -802  -631  -566  -549  -537  -530  -517  -487  -423  -301  -146  -33  -20  -108  -248  -363  -425  -469  -524  -594  -668  -723  -745  -741  -722  -701  -684  -678  -702  -780  -899  -1014  -1084  -1077  -967  -793  -728  -903  -1145  -1104  -435  1165  3649  6366  8350  8731  7137  4082  781  -1691  -2916  -3020  -2490  -1906  -1557  -1348  -1085  -761  -517  -415  -393  -378  -347  -302  -234  -118  26  148  208  215  203  200  211  216  196  154  134  206  403  688  992  1258  1443  1531  1561  1597  1662  1761  1909  2087  2228  2304  2340  2355  2345  2293  2198  2100  2042  1992  1847  1547  1169  862  697  621  545  420  251  73  -122  -371  -645  -857  -974  -1025  -1031  -994  -938  -900  -896  -908  -921  -942  -977  -1000  -972  -874  -726  -582  -486  -435  -406  -378  -339  -303  -285  -281  -281  -288  -315  -353  -363  -298  -171  -36  70  146  192  173  22  -290  -671  -941  -1012  -956  -881  -824  -778  -722  -637  -561  -545  -599  -679  -696  -601  -436  -268  -135  -61  -39  -45  -70  -129  -232  -370  -521  -655  -737  -754  -723  -653  -561  -480  -431  -410  -406  -410  -429  -478  -559  -634  -666  -653  -607  -556  -521  -496  -470  -451  -438  -411  -353  -254  -130  -46  -28  -29  -23  -12  20  44  -5  -121  -257  -387  -492  -585  -678  -768  -853  -921  -940  -925  -935  -983  -1022  -996  -885  -717  -592  -590  -660  -778  -1000  -1083  -475  1175  3712  6425  8306  8559  7023  4306  1386  -976  -2440  -2961  -2738  -2165  -1559  -1030  -678  -569  -614  -690  -746  -782  -817  -830  -769  -615  -407  -178  59  272  410  465  464  442  430  423  409  400  436  539  683  832  979  1137  1293  1432  1551  1667  1797  1944  2095  2229  2329  2378  2358  2264  2140  2059  2051  2077  2037  1828  1447  1033  739  606  544  411  156  -121  -294  -339  -308  -241  -179  -217  -456  -860  -1229  -1394  -1366  -1255  -1152  -1098  -1078  -1040  -971  -934  -983  -1062  -1072  -971  -802  -634  -505  -457  -510  -611  -712  -816  -906  -924  -836  -693  -578  -509  -462  -460  -543  -684  -810  -864  -819  -709  -600  -514  -440  -395  -416  -509  -596  -575  -482  -440  -484  -558  -621  -677  -748  -811  -806  -698  -539  -427  -401  -415  -432  -452  -525  -705  -959  -1161  -1206  -1090  -868  -619  -435  -369  -401  -488  -596  -691  -712  -617  -437  -263  -154  -101  -91  -119  -152  -169  -204  -321  -525  -742  -887  -928  -885  -798  -715  -658  -622  -612  -657  -768  -906  -1012  -1076  -1108  -1032  -756  -452  -474  -835  -1100  -707  748  3152  5785  7695  8041  6529  3724  678  -1670  -2774  -2690  -2099  -1671  -1509  -1425  -1313  -1136  -919  -724  -563  -426  -341  -318  -318  -288  -184  -7  186  326  397  432  456  467  462  448  445  481  582  724  850  935  977  976  964  1035  1284  1664  1996  2174  2239  2274  2330  2408  2455  2419  2274  2038  1782  1581  1443  1319  1172  988  773  548  343  178  73  18  -33  -95  -142  -178  -229  -353  -601  -923  -1190  -1327  -1334  -1254  -1157  -1094  -1067  -1039  -971  -857  -733  -644  -605  -596  -595  -588  -577  -567  -552  -518  -469  -435  -456  -553  -685  -784  -828  -846  -851  -840  -826  -820  -816  -781  -686  -542  -412  -343  -328  -332  -338  -340  -342  -367  -438  -535  -606  -629  -627  -621  -619  -614  -596  -568  -549  -541  -508  -391  -139  230  609  856  913  810  589  315  86  -43  -100  -154  -262  -419  -566  -663  -704  -678  -561  -383  -250  -236  -308  -410  -516  -626  -769  -944  -1078  -1068  -812  -222  759  2229  4182  6241  7675  7755  6253  3585  588  -1751  -2785  -2632  -2035  -1688  -1648  -1579  -1300  -815  -238  214  411  417  341  225  92  -14  -60  -54  -23  38  156  316  472  635  842  1072  1295  1528  1721  1793  1795  1851  1970  2078  2167  2296  2501  2750  2942  2972  2861  2751  2731  2771  2809  2820  2818  2836  2896  2978  2973  2745  2313  1864  1538  1316  1096  819  527  300  183  138  78  -36  -164  -244  -267  -248  -198  -133  -76  -39  -17  -15  -55  -151  -275  -335  -256  -73  104  183  140  27  -91  -203  -302  -366  -391  -404  -421  -434  -417  -346  -234  -152  -174  -278  -376  -415  -423  -464  -573  -706  -775  -745  -661  -580  -516  -451  -373  -287  -218  -197  -230  -275  -279  -243  -216  -218  -230  -240  -279  -388  -553  -702  -782  -796  -788  -808  -868  -926  -953  -961  -970  -1011  -1107  -1231  -1329  -1392  -1431  -1427  -1330  -1150  -1034  -1148  -1513  -1971  -2174  -1680  -166  2282  5034  7117  7602  6168  3384  179  -2540  -3992  -4108  -3548  -2867  -2320  -2048  -1994  -1998  -1984  -1938  -1855  -1727  -1556  -1375  -1244  -1194  -1203  -1227  -1217  -1119  -913  -665  -477  -396  -387  -401  -415  -430  -438  -407  -301  -140  6  100  164  250  405  623  843  1039  1226  1394  1502  1548  1554  1531  1474  1370  1203  985  751  516  259  -25  -289  -465  -537  -548  -569  -680  -921  -1219  -1437  -1525  -1538  -1528  -1505  -1470  -1451  -1493  -1616  -1787  -1945  -2045  -2045  -1908  -1667  -1434  -1303  -1273  -1290  -1320  -1367  -1446  -1544  -1611  -1595  -1482  -1317  -1174  -1090  -1071  -1138  -1288  -1467  -1601  -1678  -1723  -1750  -1758  -1759  -1770  -1803  -1867  -1945  -2008  -2040  -2052  -2062  -2078  -2070  -1950  -1621  -1137  -710  -508  -569  -868  -1297  -1679  -1912  -2006  -2017  -1995  -1975  -1962  -1953  -1946  -1944  -1950  -1958  -1931  -1814  -1608  -1399  -1280  -1276  -1377  -1557  -1774  -1996  -2245  -2507  -2541  -1935  -422  1914  4623  6829  7546  6433  3949  875  -1883  -3533  -3916  -3518  -2867  -2244  -1824  -1667  -1636  -1557  -1385  -1179  -1006  -897  -851  -821  -725  -517  -214  144  490  722  813  816  773  687  587  547  622  784  962  1126  1312  1553  1801  1968  2053  2146  2289  2419  2492  2580  2793  3101  3349  3451  3417  3257  2989  2665  2314  1940  1596  1358  1249  1216  1177  1075  931  783  630  469  311  136  -58  -212  -284  -306  -317  -315  -280  -197  -84  4  38  44  62  118  203  280  320  328  324  316  301  285  302  380  473  502  474  460  507  615  751  860  922  941  934  923  900  855  803  752  686  605  514  412  297  182  100  93  165  298  484  686  836  910  940  942  887  737  538  391  332  321  330  381  500  658  766  726  475  82  -259  -410  -384  -270  -149  -57  16  61  -3  -262  -745  -1316  -1568  -985  769  3543  6565  8819  9429  7992  5036  1712  -1016  -2586  -2870  -2300  -1512  -883  -521  -387  -366  -364  -345  -288  -193  -83  0  25  20  8  -37  -117  -175  -179  -129  -20  166  422  665  779  761  733  773  865  991  1152  1347  1576  1804  1985  2114  2218  2325  2441  2556  2675  2784  2819  2730  2557  2388  2264  2154  1994  1751  1451  1129  815  560  410  345  288  170  -14  -208  -358  -467  -553  -613  -659  -720  -792  -844  -865  -872  -881  -889  -890  -884  -879  -888  -909  -920  -887  -796  -683  -609  -590  -598  -609  -616  -614  -596  -551  -481  -404  -346  -314  -306  -349  -473  -637  -738  -724  -645  -580  -545  -510  -466  -460  -559  -773  -1010  -1166  -1223  -1223  -1191  -1123  -992  -799  -596  -452  -392  -400  -436  -493  -595  -737  -878  -998  -1107  -1210  -1291  -1322  -1289  -1214  -1139  -1089  -1064  -1049  -1042  -1057  -1103  -1178  -1266  -1338  -1375  -1385  -1375  -1423  -1652  -1880  -1472  123  2784  5742  7937  8337  6593  3423  -43  -2879  -4396  -4475  -3640  -2528  -1619  -1158  -1059  -1089  -1113  -1093  -1002  -832  -635  -483  -411  -393  -386  -378  -369  -355  -321  -252  -143  3  198  429  645  791  841  810  743  681  637  631  748  1074  1535  1915  2088  2109  2090  2092  2121  2161  2197  2233  2275  2300  2256  2107  1896  1682  1416  1040  637  352  227  194  132  -39  -280  -501  -672  -781  -825  -833  -833  -807  -729  -618  -532  -501  -503  -509  -506  -503  -523  -585  -670  -728  -744  -737  -729  -728  -736  -753  -741  -629  -442  -343  -407  -531  -602  -616  -636  -716  -839  -938  -966  -918  -830  -776  -801  -871  -944  -1019  -1095  -1154  -1181  -1191  -1203  -1215  -1197  -1148  -1101  -1033  -856  -553  -248  -70  -33  -96  -243  -446  -638  -782  -906  -1039  -1156  -1213  -1183  -1068  -931  -849  -847  -888  -937  -992  -1049  -1090  -1142  -1315  -1670  -2090  -2323  -2071  -1106  578  2827  5338  7448  8326  7453  4879  1353  -1872  -3758  -4089  -3393  -2378  -1566  -1176  -1109  -1132  -1130  -1105  -1087  -1085  -1066  -931  -587  -128  210  327  317  287  260  231  206  205  243  316  405  505  619  726  810  878  954  1082  1280  1482  1625  1731  1849  2010  2221  2426  2513  2433  2266  2135  2094  2113  2145  2138  2031  1795  1458  1074  707  436  300  262  255  222  102  -139  -447  -711  -863  -935  -1005  -1087  -1080  -893  -601  -382  -314  -356  -466  -610  -732  -798  -801  -759  -682  -561  -407  -275  -224  -282  -423  -576  -667  -672  -599  -483  -382  -344  -369  -422  -463  -478  -474  -463  -449  -434  -421  -415  -419  -425  -427  -427  -430  -460  -544  -659  -732  -702  -559  -341  -128  0  36  41  43  -10  -214  -576  -949  -1179  -1243  -1187  -1036  -839  -687  -634  -654  -694  -721  -732  -725  -714  -752  -873  -1120  -1440  -1435  -671  852  2915  5215  7066  7618  6544  4182  1167  -1703  -3642  -4329  -4022  -3175  -2187  -1432  -1110  -1064  -1023  -896  -716  -534  -396  -314  -281  -300  -367  -440  -483  -496  -499  -499  -473  -382  -209  4  188  298  333  329  359  488  692  875  991  1122  1376  1727  2013  2122  2100  2042  1988  1913  1801  1676  1579  1514  1462  1417  1371  1287  1131  933  752  598  453  304  119  -127  -397  -607  -727  -805  -876  -920  -918  -891  -823  -696  -557  -443  -355  -299  -272  -250  -233  -236  -267  -339  -482  -689  -888  -1001  -1010  -916  -733  -532  -403  -381  -443  -544  -624  -668  -695  -716  -736  -751  -730  -665  -605  -610  -712  -895  -1105  -1288  -1395  -1362  -1124  -709  -282  -25  8  -101  -246  -386  -529  -688  -843  -943  -962  -913  -825  -725  -644  -618  -660  -719  -729  -687  -666  -717  -834  -1006  -1200  -1336  -1349  -1220  -982  -716  -543  -579  -862  -1160  -963  127  2057  4352  6353  7423  7111  5416  2850  162  -1931  -3007  -3108  -2622  -1963  -1385  -999  -778  -606  -428  -288  -228  -241  -295  -347  -363  -340  -274  -126  125  405  595  661  658  650  677  758  867  950  989  1013  1041  1092  1194  1334  1463  1565  1661  1775  1917  2062  2164  2221  2274  2357  2469  2554  2554  2496  2447  2371  2129  1676  1182  856  714  638  529  346  83  -218  -463  -600  -684  -791  -932  -1069  -1158  -1194  -1189  -1125  -974  -776  -617  -539  -553  -667  -841  -989  -1054  -1035  -940  -762  -519  -297  -177  -163  -220  -313  -424  -546  -673  -774  -819  -811  -771  -708  -606  -480  -384  -347  -352  -389  -475  -628  -829  -1007  -1102  -1102  -1007  -822  -599  -418  -332  -322  -342  -363  -376  -367  -303  -165  17  173  223  127  -77  -310  -515  -689  -848  -959  -958  -861  -764  -721  -713  -714  -739  -819  -947  -1071  -1157  -1218  -1286  -1337  -1295  -1173  -1127  -1174  -936  100  2079  4645  7056  8312  7728  5548  2619  -243  -2337  -3266  -3216  -2684  -2043  -1479  -1100  -919  -846  -770  -657  -540  -457  -379  -264  -124  -3  75  126  165  176  140  89  87  189  386  602  755  810  788  755  775  864  1015  1230  1501  1762  1921  1959  1937  1931  2007  2175  2354  2412  2287  2057  1854  1723  1598  1404  1142  891  718  636  626  646  655  639  548  306  -56  -394  -621  -778  -905  -972  -971  -944  -928  -922  -915  -903  -887  -874  -874  -891  -907  -873  -735  -495  -231  -35  28  -66  -279  -507  -662  -730  -739  -716  -676  -619  -528  -413  -324  -288  -289  -314  -377  -499  -667  -798  -792  -663  -534  -486  -506  -547  -576  -584  -582  -589  -619  -670  -721  -763  -800  -825  -810  -714  -534  -347  -231  -189  -171  -160  -170  -211  -314  -514  -764  -941  -957  -828  -649  -540  -555  -655  -759  -814  -846  -888  -924  -936  -930  -938  -998  -1110  -1217  -1312  -1400  -1281  -654  662  2651  4940  6863  7739  7092  4944  1950  -914  -2823  -3457  -3132  -2504  -2042  -1814  -1661  -1462  -1196  -872  -548  -321  -216  -158  -95  -42  -19  -10  16  67  116  153  192  240  307  416  566  712  814  870  889  893  916  995  1131  1306  1514  1736  1922  2040  2102  2123  2123  2123  2125  2110  2053  1951  1819  1670  1529  1428  1348  1223  998  694  407  206  84  7  -35  -60  -110  -225  -406  -609  -779  -904  -996  -1049  -1062  -1053  -1030  -991  -947  -916  -907  -909  -910  -902  -872  -811  -728  -641  -565  -515  -490  -479  -482  -500  -520  -531  -533  -519  -480  -431  -419  -487  -618  -746  -818  -839  -837  -805  -714  -579  -463  -418  -450  -536  -640  -727  -779  -782  -702  -523  -304  -147  -90  -95  -141  -236  -346  -371  -252  -57  67  53  -58  -202  -335  -435  -507  -598  -759  -957  -1088  -1103  -1042  -963  -901  -872  -872  -880  -867  -825  -765  -708  -696  -782  -967  -1140  -1024  -265  1256  3311  5535  7382  8012  6861  4276  1173  -1542  -3090  -3200  -2449  -1720  -1423  -1375  -1256  -1042  -872  -792  -757  -696  -578  -444  -348  -288  -227  -118  73  306  471  536  559  584  607  615  616  637  732  937  1193  1371  1420  1389  1338  1303  1312  1396  1562  1781  2011  2215  2361  2405  2307  2113  1948  1876  1836  1724  1517  1307  1191  1171  1149  986  601  70  -405  -670  -731  -682  -586  -483  -415  -410  -478  -620  -793  -922  -980  -1000  -1020  -1046  -1065  -1055  -1005  -901  -741  -572  -459  -434  -490  -612  -756  -843  -846  -815  -811  -842  -877  -897  -911  -919  -891  -802  -678  -580  -543  -564  -633  -729  -807  -826  -790  -718  -612  -490  -410  -444  -624  -891  -1117  -1223  -1189  -1013  -742  -478  -293  -188  -160  -208  -280  -318  -320  -311  -313  -325  -319  -291  -271  -288  -353  -451  -547  -605  -613  -585  -542  -514  -536  -634  -782  -909  -967  -952  -875  -750  -628  -594  -599  -352  433  1856  3846  6019  7559  7653  6111  3383  256  -2267  -3474  -3445  -2688  -1717  -1034  -844  -905  -940  -907  -826  -669  -436  -206  -57  2  14  15  21  31  42  67  127  237  379  522  643  720  739  714  679  669  729  896  1171  1496  1762  1899  1926  1913  1900  1885  1863  1851  1873  1915  1935  1888  1782  1677  1621  1587  1468  1161  722  349  140  27  -85  -231  -395  -549  -691  -814  -877  -865  -824  -795  -775  -757  -768  -851  -981  -1082  -1118  -1111  -1091  -1064  -1032  -994  -938  -874  -848  -897  -1010  -1118  -1136  -1055  -951  -877  -830  -800  -783  -781  -819  -928  -1062  -1105  -975  -727  -496  -364  -333  -375  -465  -587  -709  -787  -812  -812  -801  -768  -701  -605  -507  -443  -438  -512  -670  -848  -959  -1000  -1014  -994  -899  -745  -614  -553  -537  -545  -604  -755  -972  -1162  -1253  -1220  -1048  -778  -567  -611  -950  -1336  -1405  -872  445  2525  5027  7258  8252  7312  4658  1292  -1680  -3446  -3728  -3022  -2202  -1767  -1655  -1591  -1418  -1155  -897  -706  -580  -451  -232  66  324  429  367  203  16  -136  -228  -272  -277  -163  154  575  846  867  781  741  751  764  813  990  1302  1636  1898  2113  2313  2458  2519  2521  2501  2471  2437  2400  2321  2147  1890  1630  1427  1280  1146  969  734  489  290  128  -31  -210  -405  -584  -733  -888  -1050  -1170  -1226  -1233  -1193  -1082  -897  -684  -506  -391  -344  -361  -422  -499  -567  -617  -651  -674  -674  -629  -549  -483  -479  -561  -714  -867  -947  -940  -895  -858  -846  -849  -856  -862  -857  -821  -749  -669  -624  -625  -631  -605  -558  -513  -473  -437  -413  -406  -404  -400  -399  -421  -488  -582  -662  -721  -772  -813  -835  -822  -778  -734  -724  -761  -824  -840  -781  -721  -735  -797  -866  -936  -1009  -1099  -1249  -1477  -1660  -1564  -951  413  2565  5060  7090  7813  6775  4306  1333  -1200  -2711  -3171  -3031  -2736  -2390  -1947  -1490  -1196  -1103  -1102  -1109  -1102  -1049  -902  -677  -446  -235  -38  110  174  166  126  77  20  -12  54  286  620  895  1034  1070  1059  1045  1056  1088  1126  1186  1312  1507  1701  1824  1869  1874  1867  1861  1852  1813  1708  1540  1364  1241  1185  1142  1007  721  375  111  -39  -137  -227  -349  -544  -781  -974  -1063  -1054  -981  -887  -820  -807  -846  -910  -943  -920  -898  -929  -979  -987  -955  -926  -919  -921  -916  -891  -855  -828  -823  -839  -856  -840  -775  -711  -711  -781  -872  -943  -989  -1028  -1072  -1114  -1136  -1138  -1137  -1133  -1114  -1063  -946  -765  -589  -480  -430  -407  -415  -479  -600  -732  -820  -842  -820  -802  -830  -909  -1002  -1044  -1009  -950  -931  -960  -1004  -1031  -1044  -1057  -1071  -1087  -1102  -1078  -947  -750  -666  -803  -1098  -1399  -1378  -554  1314  3932  6559  8266  8297  6538  3619  503  -1950  -3241  -3444  -3067  -2532  -1997  -1537  -1181  -857  -536  -311  -227  -193  -101  53  196  281  319  337  348  346  305  200  56  -37  46  391  889  1290  1485  1581  1684  1795  1877  1917  1927  1922  1913  1922  2001  2195  2466  2697  2810  2825  2808  2797  2802  2816  2809  2711  2448  2043  1624  1309  1114  987  880  786  702  596  468  389  408  488  554  581  588  588  560  466  325  235  260  351  430  475  508  554  605  626  596  530  476  498  619  782  896  937  957  999  1045  1065  1065  1073  1110  1167  1217  1239  1212  1099  889  693  678  879  1188  1508  1772  1914  1911  1787  1614  1493  1488  1594  1751  1886  1971  2034  2100  2156  2145  2032  1877  1777  1760  1779  1793  1802  1831  1895  1965  2023  2076  2118  2146  2185  2249  2312  2329  2305  2269  2173  1902  1464  1092  1074  1677  3137  5436  8134  10468  11528  10688  8142  4828  1804  -109  -568  64  1037  1792  2142  2191  2195  2335  2606  2883  3053  3108  3106  3087  3069  3072  3105  3161  3223  3293  3373  3448  3511  3567  3585  3550  3537  3613  3748  3886  4022  4149  4241  4305  4387  4484  4549  4568  4596  4691  4847  4997  5106  5182  5227  5222  5137  4970  4764  4557  4307  3934  3457  3011  2681  2457  2326  2271  2221  2105  1929  1756  1601  1434  1245  1037  801  561  392  354  482  774  1107  1259  1107  748  394  187  125  133  124  34  -150  -365  -528  -624  -708  -825  -957  -1059  -1138  -1228  -1333  -1436  -1536  -1643  -1757  -1883  -2035  -2216  -2425  -2633  -2788  -2898  -3039  -3268  -3565  -3845  -4011  -4046  -4026  -4045  -4159  -4365  -4601  -4803  -4962  -5159  -5468  -5833  -6141  -6353  -6520  -6706  -6929  -7177  -7476  -7859  -8292  -8703  -9073  -9407  -9707  -9987  -10255  -10493  -10705  -10944  -11247  -11588  -11952  -12377  -12831  -13179  -13353  -13365  -13123  -12392  -11070  -9429  -7973  -6900]
