reading_id,reading_time,wire_id,result_classification,heart_rate,heart_rate_alert,firmware_version,device_app_version,hardware_version,waveform_samples
d8f33620-6baf-11ed-8080-808080808080,Thu Nov 24 04:24:12 UTC 2022,a101e3f91939,NSR,90,NONE,20001.171.50,2.10.0,Charge 5,[0  1260  2229  2944  3620  4390  5270  6150  6831  7220  7418  7587  7846  8224  8643  9007  9288  9529  9773  10055  10417  10820  11156  11377  11504  11535  11457  11369  11386  11338  10978  10461  10318  11156  13289  16322  19188  20677  20102  17693  14440  11448  9442  8615  8610  8858  9070  9222  9314  9349  9349  9331  9303  9275  9257  9251  9258  9280  9314  9342  9333  9249  9092  8921  8775  8624  8454  8313  8225  8136  7995  7820  7667  7542  7402  7244  7118  7055  7041  7056  7107  7202  7315  7401  7435  7391  7189  6775  6275  5905  5701  5510  5226  4868  4508  4197  3951  3752  3535  3237  2865  2513  2259  2073  1895  1747  1659  1590  1495  1382  1282  1214  1173  1102  914  599  275  55  -61  -130  -190  -264  -352  -421  -448  -420  -349  -318  -405  -570  -738  -862  -897  -844  -764  -704  -670  -669  -739  -917  -1160  -1368  -1516  -1667  -1860  -2073  -2268  -2422  -2515  -2544  -2532  -2520  -2558  -2682  -2877  -3124  -3425  -3706  -3851  -3909  -4034  -4149  -3902  -2928  -979  1837  4691  6254  5638  3071  -410  -3650  -5740  -6400  -6097  -5487  -4957  -4566  -4175  -3762  -3469  -3354  -3345  -3350  -3324  -3266  -3188  -3105  -3027  -2941  -2858  -2823  -2847  -2891  -2907  -2851  -2696  -2482  -2303  -2222  -2228  -2271  -2292  -2245  -2126  -1965  -1774  -1570  -1399  -1306  -1284  -1293  -1273  -1170  -993  -823  -727  -698  -692  -683  -683  -731  -870  -1069  -1244  -1353  -1470  -1677  -1930  -2139  -2293  -2422  -2531  -2640  -2788  -2981  -3166  -3278  -3308  -3297  -3277  -3254  -3220  -3170  -3110  -3049  -2990  -2926  -2831  -2702  -2575  -2481  -2418  -2380  -2350  -2291  -2163  -1964  -1729  -1522  -1402  -1371  -1374  -1368  -1350  -1331  -1317  -1309  -1306  -1294  -1254  -1196  -1179  -1255  -1402  -1564  -1709  -1807  -1815  -1744  -1669  -1633  -1614  -1576  -1526  -1474  -1386  -1237  -1104  -1100  -1270  -1545  -1624  -1074  336  2509  4962  6790  7050  5432  2495  -747  -3278  -4492  -4543  -4061  -3511  -2993  -2490  -2046  -1755  -1642  -1617  -1563  -1430  -1266  -1127  -1015  -945  -953  -1023  -1095  -1130  -1124  -1074  -958  -730  -390  -46  184  315  423  532  653  794  906  947  960  982  1002  1028  1116  1324  1643  1961  2176  2285  2341  2380  2410  2382  2230  1971  1693  1471  1330  1234  1122  986  876  812  752  628  366  -80  -598  -966  -1098  -1081  -1023  -966  -917  -896  -930  -1018  -1123  -1189  -1187  -1154  -1133  -1123  -1097  -1043  -976  -925  -907  -899  -870  -830  -843  -970  -1166  -1287  -1253  -1111  -965  -893  -894  -910  -901  -859  -768  -632  -491  -407  -452  -650  -925  -1148  -1253  -1261  -1229  -1198  -1183  -1184  -1214  -1296  -1430  -1576  -1696  -1842  -2107  -2364  -2224  -1316  487  2952  5401  6931  6847  5018  2029  -1179  -3760  -5073  -4982  -4041  -2994  -2280  -2025  -2055  -2038  -1858  -1652  -1504  -1387  -1285  -1221  -1215  -1245  -1264  -1256  -1244  -1236  -1203  -1105  -931  -726  -548  -418  -331  -295  -297  -269  -124  147  442  651  773  885  1053  1249  1386  1435  1460  1514  1583  1629  1656  1709  1799  1846  1792  1696  1643  1644  1664  1663  1594  1433  1225  1049  919  766  553  341  206  142  108  71  13  -41  -54  -26  21  65  83  80  94  144  199  224  214  186  158  134  125  182  360  615  821  919  963  1005  1035  1032  996  964  982  1052  1135  1198  1235  1265  1299  1295  1197  1032  888  820  806  800  783  783  827  897  960  1006  1036  1033  962  772  500  318  260  172  156  694  2195  4673  7615  9938  10489  8852  5699  2285  -316  -1542  -1506  -929  -437  -87  254  517  610  611  648  746  843  913  999  1136  1309  1476  1600  1668  1691  1690  1678  1651  1611  1585  1619  1743  1917  2048  2096  2085  2052  2036  2099  2291  2557  2789  2958  3098  3211  3279  3303  3292  3246  3168  3073  2970  2871  2796  2746  2678  2551  2382  2226  2105  2013  1931  1820  1637  1362  1018  704  529  498  525  507  368  97  -236  -541  -752  -860  -890  -863  -786  -652  -494  -381  -336  -318  -299  -299  -347  -445  -576  -724  -853  -929  -954  -954  -951  -952  -963  -986  -1026  -1103  -1237  -1374  -1424  -1388  -1334  -1310  -1332  -1374  -1366  -1284  -1180  -1124  -1165  -1334  -1627  -1989  -2323  -2558  -2680  -2714  -2704  -2694  -2700  -2706  -2689  -2651  -2626  -2650  -2716  -2802  -2889  -2965  -3037  -3152  -3339  -3526  -3564  -3157  -1897  386  3331  6094  7568  6935  4379  953  -2316  -4752  -5930  -5974  -5438  -4719  -4025  -3552  -3351  -3288  -3223  -3119  -3047  -3127  -3436  -3864  -4179  -4272  -4204  -4063  -3908  -3785  -3717  -3681  -3621  -3492  -3289  -3053  -2830  -2630  -2422  -2168  -1885  -1643  -1486  -1376  -1231  -1036  -855  -739  -673  -596  -442  -211  12  155  219  236  211  130  7  -123  -250  -363  -438  -489  -587  -783  -1020  -1192  -1268  -1296  -1316  -1339  -1372  -1420  -1475  -1510  -1517  -1509  -1493  -1441  -1312  -1105  -883  -709  -609  -572  -569  -563  -538  -497  -439  -363  -280  -206  -152  -115  -100  -127  -187  -241  -265  -269  -286  -339  -415  -475  -496  -483  -444  -395  -357  -346  -374  -447  -547  -664  -798  -910  -962  -968  -965  -966  -962  -950  -940  -923  -890  -860  -848  -843  -817  -745  -621  -445  -258  -115  -10  114  273  411  470  399  175  -115  -318  -379  -363  -337  -320  -307  -300  -305  -325  -348  -351  -339  -363  -464  -617  -732  -785  -916  -1175  -1206  -432  1521  4484  7646  9791  9871  7709  4216  711  -1839  -3000  -2893  -2146  -1427  -1002  -792  -640  -471  -273  -66  107  216  270  298  310  303  294  328  448  619  745  777  743  698  696  804  1067  1404  1652  1761  1819  1893  1961  1989  1986  1996  2057  2177  2334  2505  2656  2744  2769  2762  2746  2719  2686  2661  2652  2652  2655  2661  2672  2674  2625  2474  2201  1853  1540  1347  1236  1115  973  870  810  728  583  395  210  77  10  -23  -57  -72  -34  52  146  219  297  426  597  743  798  724  528  294  136  90  110  141  149  124  67  -3  -65  -106  -114  -82  -44  -54  -133  -218  -233  -223  -280  -397  -504  -601  -736  -900  -1012  -1027  -953  -828  -681  -522  -376  -281  -243  -231  -228  -266  -393  -585  -752  -844  -896  -963  -1042  -1094  -1108  -1113  -1116  -1075  -951  -771  -620  -538  -494  -418  -271  -95  25  37  -33  -82  -59  -43  -86  -171  -283  -397  -482  -542  -580  -599  -601  -589  -573  -558  -548  -553  -604  -704  -801  -883  -992  -1152  -1376  -1526  -1146  222  2662  5760  8481  9522  8228  5054  1219  -1980  -3715  -3939  -3293  -2541  -2061  -1811  -1633  -1451  -1252  -1026  -808  -664  -615  -621  -634  -628  -574  -439  -230  -13  162  306  428  523  605  685  763  831  898  973  1059  1144  1213  1271  1355  1514  1738  1958  2116  2198  2231  2259  2301  2348  2390  2440  2489  2507  2490  2457  2394  2252  2027  1782  1608  1542  1546  1533  1425  1224  1004  819  645  447  241  61  -67  -138  -188  -262  -355  -420  -424  -368  -286  -216  -169  -152  -200  -359  -607  -836  -956  -968  -920  -851  -781  -705  -608  -515  -460  -451  -465  -475  -483  -515  -584  -696  -842  -990  -1120  -1225  -1290  -1296  -1245  -1167  -1097  -1036  -967  -898  -836  -770  -713  -690  -686  -661  -600  -525  -472  -442  -413  -383  -362  -356  -353  -347  -340  -342  -355  -385  -425  -442  -417  -385  -380  -394  -422  -473  -523  -529  -467  -363  -270  -213  -175  -141  -87  23  157  211  139  0  -138  -268  -402  -513  -572  -575  -529  -438  -311  -188  -136  -194  -339  -505  -635  -712  -764  -851  -905  -571  583  2679  5397  7978  9382  8881  6548  3134  -309  -2761  -3715  -3480  -2750  -2019  -1535  -1360  -1355  -1329  -1182  -958  -778  -700  -687  -695  -704  -690  -619  -490  -353  -264  -227  -217  -218  -223  -224  -216  -188  -124  -19  103  207  269  309  380  492  615  736  865  1012  1167  1306  1420  1521  1608  1656  1620  1478  1285  1127  1024  933  814  675  544  440  357  266  138  -32  -237  -455  -656  -814  -919  -982  -1021  -1058  -1106  -1156  -1154  -1051  -877  -722  -641  -610  -578  -528  -472  -421  -389  -379  -383  -393  -404  -402  -375  -336  -320  -352  -407  -414  -350  -277  -245  -243  -246  -246  -256  -288  -336  -368  -372  -349  -293  -200  -86  12  49  13  -38  -47  -45  -92  -167  -221  -254  -275  -284  -281  -273  -259  -237  -199  -152  -118  -102  -94  -93  -127  -227  -364  -466  -505  -508  -489  -441  -394  -435  -602  -817  -967  -1016  -1000  -972  -957  -976  -1047  -1171  -1305  -1396  -1460  -1578  -1648  -1290  -116  2009  4776  7252  8260  7180  4337  735  -2483  -4474  -5014  -4591  -3885  -3265  -2821  -2531  -2335  -2188  -2064  -1949  -1838  -1712  -1571  -1464  -1421  -1422  -1440  -1463  -1476  -1446  -1343  -1185  -1044  -987  -1001  -987  -895  -756  -608  -466  -347  -255  -183  -120  -36  97  289  517  724  863  944  987  999  995  1024  1132  1302  1462  1569  1600  1513  1332  1151  1015  915  853  811  739  611  440  241  28  -163  -293  -366  -421  -508  -666  -868  -1005  -997  -862  -704  -594  -521  -468  -445  -445  -444  -431  -407  -378  -345  -311  -282  -247  -174  -52  81  155  139  80  32  -12  -109  -272  -461  -622  -713  -700  -564  -342  -141  -59  -107  -222  -331  -402  -426  -382  -259  -123  -56  -40  -2  55  95  107  110  121  144  172  189  197  204  199  131  -53  -314  -541  -666  -685  -592  -397  -178  -43  -59  -226  -467  -659  -740  -702  -569  -478  -570  -629  -129  1302  3650  6420  8633  9281  8001  5242  1887  -1079  -2869  -3352  -3007  -2373  -1776  -1350  -1051  -750  -422  -189  -125  -173  -252  -312  -334  -303  -205  -66  57  143  208  274  350  442  550  652  716  740  776  879  1052  1238  1382  1456  1446  1367  1263  1191  1185  1246  1364  1548  1774  1983  2159  2316  2435  2494  2500  2453  2328  2116  1831  1503  1179  906  693  526  398  302  211  97  -49  -221  -409  -576  -673  -694  -672  -639  -610  -594  -594  -604  -607  -575  -488  -363  -243  -156  -120  -173  -347  -582  -757  -818  -803  -757  -699  -637  -565  -486  -420  -377  -357  -353  -355  -362  -378  -414  -471  -531  -575  -612  -665  -742  -822  -870  -865  -826  -795  -797  -804  -776  -723  -685  -675  -659  -584  -424  -246  -168  -217  -309  -371  -403  -415  -409  -398  -387  -386  -425  -527  -662  -762  -801  -799  -766  -691  -629  -731  -1041  -1405  -1697  -1831  -1522  -404  1678  4511  7359  9113  8951  6891  3690  378  -2146  -3425  -3604  -3217  -2703  -2224  -1851  -1634  -1539  -1470  -1344  -1139  -915  -770  -730  -743  -759  -765  -769  -785  -809  -802  -707  -548  -433  -427  -483  -509  -457  -357  -278  -243  -217  -172  -116  -43  83  274  485  671  820  918  954  950  946  991  1135  1360  1571  1697  1770  1855  1942  1962  1884  1711  1453  1171  929  744  621  527  362  67  -297  -602  -774  -821  -794  -741  -695  -670  -664  -662  -651  -632  -612  -597  -592  -592  -581  -547  -499  -463  -448  -444  -446  -473  -542  -627  -670  -638  -561  -492  -458  -455  -477  -519  -562  -584  -588  -596  -644  -759  -926  -1079  -1168  -1210  -1222  -1184  -1072  -929  -828  -801  -831  -896  -971  -1026  -1045  -1029  -976  -903  -835  -785  -753  -743  -744  -723  -652  -558  -510  -558  -680  -815  -915  -963  -965  -937  -896  -851  -814  -811  -889  -1076  -1315  -1511  -1623  -1647  -1598  -1552  -1458  -978  293  2488  5263  7781  9110  8675  6455  3127  -195  -2641  -3845  -3893  -3296  -2610  -2034  -1563  -1221  -1015  -882  -756  -627  -535  -495  -482  -474  -463  -445  -426  -405  -348  -201  24  229  335  358  347  311  231  136  125  286  580  860  1019  1076  1101  1131  1164  1225  1349  1518  1683  1827  1965  2103  2228  2313  2344  2309  2182  1980  1783  1650  1568  1503  1422  1296  1107  872  628  423  282  187  101  16  -44  -85  -128  -167  -183  -204  -284  -423  -552  -631  -688  -740  -758  -713  -625  -534  -447  -364  -320  -329  -336  -303  -258  -234  -231  -244  -274  -319  -382  -474  -583  -662  -692  -696  -693  -671  -616  -547  -498  -464  -394  -268  -147  -116  -209  -359  -473  -536  -603  -680  -694  -583  -396  -243  -192  -240  -350  -457  -506  -500  -458  -362  -210  -42  90  160  160  92  -33  -178  -272  -277  -260  -307  -391  -447  -473  -501  -534  -556  -556  -544  -537  -533  -508  -456  -407  -413  -519  -742  -1056  -1392  -1677  -1801  -1543  -666  941  3178  5657  7725  8647  7927  5701  2720  -159  -2314  -3427  -3587  -3153  -2428  -1627  -1006  -716  -671  -704  -738  -761  -765  -730  -633  -489  -360  -297  -292  -302  -292  -248  -196  -166  -161  -163  -145  -74  78  269  402  433  415  438  581  852  1145  1329  1377  1363  1375  1469  1661  1888  2046  2098  2077  2017  1938  1865  1814  1782  1764  1749  1709  1604  1403  1122  817  534  302  126  -2  -84  -136  -221  -382  -572  -703  -748  -749  -749  -762  -774  -773  -755  -740  -768  -848  -928  -954  -904  -791  -669  -574  -511  -510  -577  -645  -658  -621  -575  -542  -514  -494  -492  -516  -562  -613  -653  -678  -671  -620  -548  -480  -431  -416  -479  -658  -886  -1000  -910  -705  -542  -485  -504  -560  -636  -731  -861  -995  -1057  -1017  -936  -888  -884  -873  -831  -771  -711  -684  -710  -746  -739  -667  -562  -485  -459  -463  -459  -422  -354  -289  -252  -245  -258  -288  -323  -350  -379  -435  -509  -564  -580  -568  -547  -535  -553  -614  -697  -754  -771  -774  -799  -845  -898  -1040  -1343  -1643  -1563  -695  1209  4015  7068  9257  9526  7618  4247  612  -2185  -3572  -3756  -3369  -2814  -2213  -1686  -1323  -1134  -1070  -1058  -1046  -999  -883  -705  -520  -391  -343  -339  -322  -286  -270  -302  -360  -405  -431  -442  -387  -189  135  452  657  763  830  909  1024  1144  1220  1254  1296  1379  1499  1630  1748  1858  1974  2090  2191  2271  2330  2360  2349  2284  2142  1930  1696  1480  1273  1062  874  753  699  633  460  181  -88  -242  -288  -294  -286  -262  -237  -228  -235  -248  -258  -278  -326  -390  -436  -449  -439  -424  -413  -404  -391  -376  -379  -425  -503  -568  -595  -597  -592  -590  -591  -593  -593  -592  -593  -596  -593  -572  -534  -498  -459  -416  -418  -479  -534  -544  -530  -515  -512  -527  -574  -657  -757  -825  -814  -732  -642  -593  -579  -577  -592  -654  -749  -785  -715  -639  -644  -688  -689  -614  -498  -391  -302  -223  -174  -189  -276  -383  -434  -403  -329  -256  -209  -193  -220  -310  -453  -607  -745  -861  -941  -972  -934  -806  -605  -413  -320  -392  -650  -1003  -1301  -1409  -1111  -116  1689  4153  6837  8831  9065  7253  4109  678  -2072  -3517  -3732  -3277  -2615  -1962  -1460  -1178  -1024  -860  -678  -554  -519  -524  -514  -463  -362  -239  -152  -124  -129  -140  -147  -130  -62  66  215  342  432  499  559  600  600  578  607  783  1127  1514  1771  1839  1804  1773  1778  1805  1883  2058  2287  2461  2531  2519  2420  2211  1937  1705  1568  1479  1379  1262  1138  967  692  334  -15  -278  -429  -499  -534  -531  -473  -397  -343  -301  -234  -142  -83  -172  -488  -922  -1242  -1345  -1301  -1196  -1060  -921  -818  -768  -755  -753  -740  -715  -705  -740  -803  -847  -843  -802  -770  -789  -855  -891  -839  -743  -690  -729  -871  -1059  -1194  -1237  -1230  -1218  -1212  -1188  -1124  -1038  -976  -957  -959  -940  -872  -768  -673  -615  -584  -548  -468  -333  -178  -58  -12  -44  -129  -248  -396  -548  -652  -688  -685  -677  -669  -647  -619  -614  -658  -748  -847  -929  -1008  -1071  -1073  -1054  -1124  -1254  -1239  -823  202  1916  4150  6388  7852  7848  6176  3254  -32  -2601  -3768  -3728  -3084  -2360  -1939  -1771  -1526  -1203  -999  -899  -800  -692  -614  -580  -569  -545  -480  -369  -243  -154  -119  -108  -85  -26  65  174  282  369  431  490  553  604  668  798  986  1145  1232  1284  1357  1471  1615  1780  1974  2185  2363  2459  2473  2427  2334  2196  2014  1835  1715  1609  1382  1003  605  341  236  201  131  0  -143  -258  -337  -404  -493  -612  -732  -835  -926  -1007  -1089  -1159  -1175  -1104  -963  -832  -792  -814  -826  -814  -800  -780  -739  -692  -666  -652  -630  -615  -634  -678  -712  -717  -705  -691  -686  -698  -735  -792  -842  -875  -906  -937  -949  -921  -822  -661  -505  -403  -341  -293  -258  -242  -231  -202  -146  -77  -25  -17  -81  -225  -395  -507  -540  -532  -519  -516  -528  -563  -621  -669  -647  -546  -428  -358  -339  -318  -255  -207  -324  -647  -1038  -1305  -1173  -327  1349  3669  6154  8039  8520  7270  4657  1496  -1282  -2998  -3534  -3238  -2569  -1936  -1589  -1488  -1389  -1131  -793  -558  -485  -500  -519  -504  -447  -364  -299  -268  -247  -211  -149  -56  53  160  263  365  466  555  618  656  686  718  776  892  1040  1144  1167  1164  1263  1561  1994  2362  2541  2564  2502  2374  2184  1960  1764  1656  1638  1647  1613  1490  1259  920  551  288  181  137  17  -265  -673  -1044  -1249  -1304  -1299  -1301  -1327  -1356  -1359  -1326  -1258  -1170  -1085  -1010  -948  -910  -907  -946  -1020  -1102  -1156  -1156  -1105  -1038  -981  -926  -880  -869  -910  -983  -1024  -990  -925  -879  -841  -787  -731  -695  -687  -690  -690  -676  -658  -674  -749  -824  -807  -705  -607  -548  -480  -334  -102  124  254  292  294  280  205  22  -225  -433  -550  -598  -611  -611  -600  -570  -515  -444  -372  -303  -242  -227  -338  -617  -959  -1111  -1010  -936  -1045  -997  -255  1468  4045  6900  9068  9567  8026  4986  1498  -1496  -3329  -3752  -3201  -2378  -1649  -1132  -870  -784  -754  -722  -675  -608  -517  -403  -274  -160  -95  -80  -72  -34  28  84  117  154  228  331  413  440  423  389  377  449  649  914  1111  1201  1266  1381  1556  1760  1956  2102  2174  2187  2182  2187  2201  2209  2199  2171  2113  2004  1864  1757  1692  1585  1323  897  426  34  -224  -350  -394  -445  -563  -727  -876  -998  -1115  -1204  -1224  -1180  -1143  -1151  -1164  -1155  -1163  -1207  -1246  -1232  -1134  -956  -757  -622  -566  -535  -500  -483  -503  -543  -572  -587  -616  -686  -784  -865  -892  -861  -807  -767  -756  -756  -752  -741  -741  -771  -809  -807  -759  -707  -696  -734  -774  -757  -691  -638  -629  -638  -616  -533  -413  -313  -251  -208  -178  -161  -153  -144  -143  -182  -276  -409  -548  -663  -750  -826  -898  -944  -941  -881  -794  -730  -703  -672  -593  -495  -504  -715  -1090  -1494  -1630  -1021  757  3712  7119  9633  10043  8037  4337  330  -2652  -3973  -3800  -2825  -1819  -1216  -1005  -959  -915  -871  -896  -993  -1066  -1028  -879  -650  -393  -195  -92  -46  -16  10  36  63  92  131  222  414  658  817  809  686  593  630  765  946  1152  1351  1518  1654  1766  1850  1921  2035  2243  2499  2670  2650  2428  2117  1877  1750  1660  1553  1443  1351  1272  1192  1082  901  636  311  -24  -304  -501  -641  -755  -855  -952  -1046  -1124  -1172  -1194  -1207  -1211  -1158  -1001  -784  -617  -561  -602  -717  -847  -891  -790  -611  -484  -467  -517  -576  -617  -637  -642  -626  -577  -506  -447  -432  -467  -522  -566  -591  -603  -613  -647  -719  -816  -908  -968  -972  -927  -876  -857  -861  -845  -775  -656  -531  -450  -434  -474  -549  -630  -689  -719  -726  -718  -707  -708  -729  -771  -824  -851  -761  -478  -88  195  241  84  -155  -366  -513  -598  -591  -498  -375  -258  -161  -94  -54  -25  -4  11  21  23  23  30  38  3  -126  -321  -481  -554  -572  -582  -586  -575  -569  -582  -581  -535  -491  -584  -909  -1330  -1643  -1797  -1625  -653  1470  4478  7547  9640  9769  7609  4027  383  -2378  -3723  -3643  -2806  -1930  -1336  -1069  -991  -931  -840  -739  -643  -542  -439  -372  -348  -319  -237  -117  -16  28  25  10  18  63  135  204  242  234  205  205  272  417  639  901  1117  1227  1249  1240  1251  1333  1514  1760  1996  2156  2225  2231  2217  2206  2192  2156  2086  1979  1805  1526  1189  922  781  704  630  584  588  576  485  280  -71  -495  -797  -885  -848  -801  -774  -731  -644  -558  -545  -598  -635  -609  -549  -502  -485  -477  -467  -465  -474  -462  -394  -290  -207  -169  -160  -174  -217  -274  -313  -323  -314  -301  -292  -308  -378  -483  -561  -582  -575  -568  -544  -467  -335  -204  -129  -124  -188  -316  -485  -653  -781  -849  -861  -812  -688  -513  -368  -306  -334  -437  -574  -671  -680  -599  -464  -339  -279  -323  -487  -713  -892  -974  -980  -904  -726  -492  -307  -241  -343  -646  -1049  -1345  -1436  -1370  -1213  -997  -757  -550  -434  -409  -425  -442  -459  -472  -473  -450  -396  -315  -233  -178  -154  -149  -170  -238  -356  -487  -582  -615  -604  -589  -581  -576  -573  -589  -654  -788  -970  -1129  -1200  -1163  -1035  -840  -681  -772  -1183  -1643  -1746  -1118  503  3006  5892  8352  9353  8295  5578  2223  -780  -2771  -3570  -3445  -2819  -2073  -1485  -1137  -951  -842  -767  -696  -597  -451  -291  -178  -141  -172  -249  -337  -390  -367  -251  -82  70  179  257  325  412  521  622  706  799  906  998  1053  1067  1057  1071  1170  1370  1618  1872  2115  2288  2349  2332  2294  2262  2231  2193  2142  2071  1994  1944  1937  1950  1931  1801  1467  937  390  22  -143  -211  -262  -313  -356  -388  -423  -485  -573  -662  -715  -714  -678  -654  -673  -726  -780  -816  -825  -787  -675  -518  -390  -334  -337  -370  -411  -451  -485  -503  -483  -434  -402  -422  -467  -498  -515  -529  -538  -516  -450  -375  -350  -396  -493  -597  -653  -657  -664  -715  -836  -1026  -1212  -1288  -1206  -1006  -797  -667  -603  -541  -464  -407  -407  -467  -562  -641  -675  -665  -622  -565  -519  -494  -491  -509  -530  -521  -456  -349  -241  -162  -121  -112  -135  -196  -276  -333  -333  -276  -192  -121  -77  -73  -179  -455  -818  -1073  -1119  -997  -821  -694  -658  -699  -783  -866  -979  -1180  -1419  -1484  -991  469  2949  5903  8363  9351  8386  5771  2388  -705  -2648  -3251  -3056  -2704  -2481  -2364  -2184  -1842  -1405  -1001  -688  -454  -288  -195  -165  -175  -211  -264  -316  -340  -311  -226  -107  5  71  61  -10  -81  -72  78  358  641  813  879  923  1010  1166  1364  1551  1691  1786  1875  1989  2130  2299  2476  2606  2661  2630  2471  2181  1877  1697  1656  1654  1589  1405  1100  742  434  194  -52  -348  -669  -981  -1231  -1369  -1406  -1392  -1361  -1319  -1276  -1250  -1246  -1247  -1228  -1193  -1182  -1216  -1241  -1170  -979  -746  -575  -500  -480  -467  -452  -477  -587  -744  -848  -847  -781  -707  -649  -595  -542  -517  -557  -660  -759  -787  -769  -776  -809  -824  -803  -759  -705  -637  -563  -510  -482  -452  -411  -371  -341  -317  -305  -305  -317  -335  -347  -350  -359  -364  -339  -295  -269  -283  -334  -415  -517  -625  -696  -707  -669  -611  -563  -531  -506  -493  -521  -626  -813  -1052  -1293  -1449  -1353  -930  -455  -356  -651  -809  -167  1623  4368  7210  8866  8498  6219  2793  -667  -3059  -3950  -3713  -2958  -2154  -1597  -1366  -1326  -1287  -1168  -1011  -883  -811  -791  -793  -751  -614  -423  -282  -233  -229  -211  -161  -83  16  103  137  128  145  253  475  754  984  1098  1122  1123  1152  1264  1515  1849  2114  2239  2275  2284  2283  2269  2245  2222  2206  2198  2199  2202  2187  2139  2070  1993  1881  1675  1344  950  610  336  37  -293  -561  -722  -809  -861  -892  -912  -922  -925  -922  -920  -921  -913  -873  -781  -654  -540  -471  -438  -434  -491  -650  -865  -1028  -1090  -1081  -1008  -856  -676  -576  -591  -646  -659  -617  -559  -518  -491  -463  -435  -427  -475  -581  -668  -672  -628  -583  -542  -514  -504  -498  -479  -453  -446  -475  -527  -564  -577  -586  -601  -599  -557  -496  -464  -480  -518  -561  -630  -733  -846  -929  -966  -971  -963  -951  -948  -976  -1054  -1171  -1289  -1373  -1404  -1373  -1303  -1282  -1428  -1648  -1513  -598  1268  3958  6787  8569  8358  6158  2839  -475  -2846  -3842  -3801  -3473  -3236  -3017  -2759  -2448  -2002  -1450  -983  -749  -712  -746  -782  -847  -977  -1106  -1110  -974  -788  -620  -500  -457  -471  -492  -480  -410  -243  40  385  683  867  956  1003  1035  1048  1056  1126  1339  1675  2021  2297  2479  2563  2576  2551  2500  2438  2384  2341  2288  2202  2082  1971  1914  1891  1787  1473  970  491  205  81  18  -29  -99  -232  -405  -545  -631  -687  -729  -767  -819  -877  -919  -935  -931  -903  -833  -703  -535  -396  -309  -239  -181  -153  -146  -145  -166  -238  -362  -492  -579  -610  -606  -604  -639  -714  -775  -796  -803  -791  -712  -587  -490  -458  -463  -473  -482  -495  -508  -510  -521  -576  -649  -698  -752  -834  -882  -828  -681  -510  -380  -312  -285  -277  -286  -312  -332  -326  -296  -274  -286  -329  -392  -470  -575  -733  -928  -1070  -1088  -995  -888  -861  -908  -960  -954  -887  -868  -983  -1145  -1254  -1223  -708  694  2996  5797  8303  9454  8616  6064  2665  -600  -2883  -3794  -3584  -2800  -1944  -1351  -1046  -868  -731  -646  -609  -558  -441  -311  -281  -376  -510  -599  -612  -550  -410  -195  57  270  387  422  434  454  473  480  493  561  726  970  1203  1343  1378  1370  1407  1572  1863  2177  2399  2490  2489  2460  2437  2430  2441  2480  2539  2584  2556  2400  2132  1845  1614  1443  1289  1080  793  499  266  49  -217  -488  -657  -700  -680  -659  -678  -754  -860  -939  -968  -958  -918  -854  -787  -736  -710  -703  -708  -708  -696  -686  -697  -717  -702  -638  -555  -501  -495  -551  -689  -892  -1079  -1177  -1181  -1124  -1051  -999  -978  -971  -970  -982  -1009  -1027  -1006  -954  -922  -929  -940  -927  -916  -954  -1054  -1165  -1217  -1196  -1149  -1119  -1112  -1119  -1115  -1063  -945  -792  -665  -607  -605  -618  -588  -474  -306  -188  -240  -507  -879  -1153  -1245  -1210  -1108  -982  -896  -926  -1106  -1358  -1539  -1582  -1523  -1411  -1261  -1043  -769  -589  -663  -951  -1298  -1550  -1365  -275  1886  4785  7602  9201  8698  6156  2662  -508  -2603  -3400  -3210  -2737  -2360  -1959  -1496  -1124  -875  -703  -601  -552  -506  -442  -388  -357  -328  -282  -226  -184  -180  -227  -317  -423  -487  -431  -204  116  361  446  427  392  416  552  793  1072  1320  1493  1606  1696  1772  1838  1913  2005  2127  2296  2491  2657  2746  2724  2557  2263  1960  1756  1635  1510  1356  1226  1150  1071  884  539  91  -321  -571  -647  -641  -625  -624  -639  -657  -677  -702  -722  -731  -735  -733  -706  -626  -512  -435  -438  -481  -511  -519  -520  -526  -531  -515  -465  -404  -375  -372  -330  -224  -114  -60  -95  -240  -476  -709  -860  -914  -879  -760  -597  -470  -425  -441  -474  -486  -465  -427  -393  -368  -344  -325  -328  -366  -427  -479  -502  -504  -508  -533  -584  -635  -656  -641  -589  -490  -371  -301  -325  -433  -547  -593  -585  -579  -571  -511  -374  -215  -114  -92  -108  -121  -126  -132  -147  -164  -178  -201  -265  -394  -561  -688  -734  -720  -680  -639  -605  -574  -548  -541  -531  -483  -468  -631  -1035  -1572  -1953  -1711  -371  2124  5196  7953  9439  8878  6397  3023  -202  -2530  -3492  -3215  -2343  -1507  -1017  -870  -872  -880  -883  -901  -918  -895  -778  -540  -259  -62  21  44  33  -15  -84  -131  -131  -87  -6  102  207  274  297  294  284  279  302  403  632  961  1287  1556  1781  1950  2034  2076  2157  2272  2348  2350  2313  2281  2257  2225  2180  2131  2047  1884  1669  1489  1361  1214  999  756  535  304  26  -232  -391  -478  -575  -697  -792  -825  -815  -791  -780  -793  -834  -909  -1000  -1068  -1088  -1038  -891  -679  -498  -408  -390  -410  -455  -511  -558  -592  -615  -630  -634  -623  -598  -569  -545  -520  -493  -475  -493  -564  -699  -899  -1115  -1259  -1293  -1238  -1123  -986  -873  -782  -690  -604  -537  -499  -531  -634  -735  -787  -807  -817  -823  -824  -818  -791  -722  -618  -520  -460  -435  -437  -454  -452  -383  -234  -57  66  106  84  22  -55  -127  -186  -235  -279  -335  -415  -509  -590  -633  -649  -676  -739  -808  -832  -802  -752  -709  -678  -671  -739  -947  -1289  -1580  -1561  -1050  92  1955  4405  6949  8724  8877  7132  4011  580  -2104  -3527  -3814  -3417  -2802  -2237  -1772  -1421  -1190  -1029  -902  -811  -764  -742  -710  -646  -534  -389  -270  -203  -142  -34  141  351  508  575  592  604  617  610  584  573  610  689  780  867  969  1110  1275  1447  1664  1941  2215  2418  2515  2511  2439  2354  2311  2317  2342  2368  2392  2385  2268  1992  1632  1326  1121  978  854  712  533  319  71  -185  -376  -454  -461  -463  -497  -558  -618  -652  -628  -523  -382  -293  -299  -365  -432  -480  -517  -526  -471  -368  -293  -304  -372  -430  -463  -503  -562  -588  -536  -455  -437  -524  -680  -822  -884  -860  -795  -738  -699  -662  -623  -601  -614  -655  -716  -795  -881  -959  -987  -926  -816  -737  -707  -681  -633  -602  -631  -691  -728  -715  -640  -505  -337  -187  -106  -129  -263  -467  -661  -812  -958  -1106  -1190  -1151  -1009  -868  -821  -851  -885  -912  -942  -968  -1012  -1155  -1436  -1743  -1942  -1951  -1532  -352  1717  4452  7108  8532  7926  5459  2016  -1289  -3454  -4124  -3774  -3080  -2458  -2047  -1773  -1551  -1379  -1265  -1202  -1180  -1169  -1130  -1029  -882  -744  -643  -562  -467  -337  -209  -134  -113  -112  -114  -121  -124  -80  61  319  621  834  907  907  919  987  1130  1350  1625  1897  2099  2216  2280  2313  2334  2372  2436  2514  2549  2471  2295  2100  1914  1730  1551  1359  1124  849  574  358  224  122  -28  -260  -532  -759  -869  -867  -813  -748  -679  -593  -463  -318  -258  -348  -532  -696  -782  -806  -813  -832  -861  -862  -800  -688  -571  -480  -419  -401  -443  -534  -627  -676  -685  -700  -744  -798  -849  -895  -923  -924  -906  -882  -852  -809  -769  -754  -761  -777  -774  -714  -589  -447  -352  -320  -317  -306  -266  -209  -184  -245  -375  -493  -544  -542  -531  -548  -610  -695  -762  -803  -834  -867  -896  -910  -908  -892  -861  -821  -784  -761  -777  -897  -1181  -1555  -1789  -1619  -817  830  3316  6106  8242  8832  7531  4816  1714  -887  -2542  -3184  -3144  -2854  -2469  -2035  -1655  -1366  -1162  -1060  -1052  -1082  -1096  -1039  -877  -666  -517  -442  -318  -50  244  371  322  227  149  87  45  23  11  28  128  349  652  937  1130  1233  1264  1245  1229  1298  1510  1810  2074  2264  2422  2556  2641  2659  2607  2494  2327  2140  1989  1840  1594  1280  1038  870  627  257  -105  -326  -407  -433  -488  -600  -721  -801  -838  -851  -849  -849  -889  -999  -1148  -1268  -1340  -1389  -1402  -1286  -953  -510  -192  -86  -94  -121  -165  -264  -406  -527  -581  -585  -579  -591  -626  -663  -679  -666  -636  -607  -592  -582  -591  -649  -750  -833  -852  -816  -770  -734  -690  -612  -508  -405  -296  -179  -77  4  78  134  143  105  52  9  -4  11  21  -33  -213  -529  -880  -1117  -1179  -1112  -1006  -934  -910  -912  -920  -939  -963  -942  -878  -909  -1147  -1415  -1244  -165  1990  4961  7924  9667  9314  6952  3459  -108  -2808  -4048  -3971  -3219  -2328  -1634  -1309  -1275  -1336  -1318  -1093  -701  -357  -201  -188  -226  -276  -329  -367  -368  -310  -195  -69  11  43  56  74  105  143  177  208  259  355  494  641  781  936  1146  1439  1774  2034  2149  2164  2147  2125  2098  2071  2056  2060  2077  2093  2105  2122  2151  2152  2017  1639  1045  421  -60  -351  -505  -608  -704  -798  -901  -1016  -1114  -1169  -1185  -1185  -1185  -1184  -1158  -1086  -992  -922  -890  -866  -839  -830  -863  -927  -986  -1018  -1031  -1039  -1050  -1053  -1028  -957  -845  -728  -656  -637  -624  -552  -424  -348  -419  -592  -783  -946  -1016  -947  -788  -635  -540  -499  -488  -486  -486  -488  -487  -482  -477  -479  -484  -480  -448  -371  -254  -128  -40  -4  2  -2  -24  -76  -162  -270  -375  -440  -456  -444  -435  -456  -527  -626  -697  -718  -710  -700  -716  -771  -844  -898  -927  -983  -1095  -1238  -1410  -1458  -895  727  3368  6478  9093  10060  8696  5414  1468  -1872  -3731  -3893  -2964  -1793  -905  -599  -906  -1385  -1531  -1244  -772  -412  -261  -237  -257  -295  -342  -372  -372  -357  -346  -345  -353  -369  -380  -372  -352  -341  -327  -234  9  327  539  584  569  650  917  1292  1598  1777  1912  2045  2137  2177  2220  2308  2416  2483  2454  2308  2100  1937  1865  1844  1827  1773  1644  1422  1110  748  438  249  140  31  -119  -305  -491  -651  -771  -842  -866  -862  -822  -726  -609  -565  -657  -836  -983  -1030  -993  -907  -795  -691  -648  -695  -818  -959  -1061  -1100  -1071  -974  -847  -753  -718  -717  -730  -760  -811  -865  -880  -837  -764  -709  -688  -688  -697  -722  -763  -800  -833  -893  -976  -1039  -1069  -1079  -1081  -1080  -1079  -1079  -1079  -1079  -1074  -1053  -1003  -905  -747  -559  -401  -294  -219  -158  -112  -91  -151  -352  -654  -913  -1048  -1099  -1117  -1099  -1035  -952  -887  -857  -850  -855  -878  -934  -1023  -1125  -1214  -1305  -1406  -1446  -1373  -1300  -1397  -1632  -1558  -531  1677  4648  7511  9202  8976  6874  3675  433  -2001  -3157  -3090  -2391  -1708  -1345  -1259  -1223  -1115  -979  -848  -707  -558  -420  -315  -276  -312  -379  -418  -400  -308  -151  32  193  294  339  382  482  629  743  766  743  753  832  986  1190  1385  1541  1694  1878  2057  2172  2228  2288  2374  2457  2524  2574  2580  2518  2413  2323  2272  2242  2201  2110  1923  1644  1342  1058  765  449  165  -26  -144  -241  -330  -406  -491  -623  -783  -895  -905  -812  -664  -532  -458  -438  -457  -500  -568  -659  -749  -816  -870  -928  -979  -988  -945  -870  -794  -725  -642  -519  -408  -415  -536  -652  -673  -603  -497  -424  -420  -486  -593  -701  -788  -846  -868  -853  -815  -757  -681  -628  -658  -757  -835  -840  -789  -733  -688  -634  -552  -447  -350  -323  -409  -582  -751  -814  -766  -696  -663  -660  -667  -672  -678  -682  -671  -626  -550  -477  -437  -434  -454  -486  -511  -498  -409  -243  -72  23  33  1  -36  -70  -107  -164  -257  -394  -538  -633  -666  -666  -661  -657  -655  -657  -666  -688  -714  -732  -744  -784  -887  -1016  -1102  -1075  -716  353  2317  4908  7454  9043  8871  6814  3613  313  -2262  -3645  -3902  -3517  -2909  -2258  -1661  -1235  -1042  -1020  -1056  -1071  -1023  -880  -650  -385  -161  -34  -1  -19  -61  -109  -140  -143  -110  -43  55  183  310  391  427  458  507  576  675  806  952  1104  1240  1337  1411  1512  1670  1862  2034  2157  2258  2351  2408  2403  2334  2226  2121  2038  1950  1800  1560  1290  1086  958  826  624  359  65  -227  -464  -593  -625  -613  -602  -610  -637  -663  -669  -643  -584  -518  -473  -450  -437  -427  -412  -392  -369  -334  -293  -260  -241  -226  -218  -242  -325  -445  -543  -597  -628  -651  -665  -665  -635  -561  -461  -387  -373  -417  -497  -575  -621  -632  -617  -577  -522  -479  -466  -478  -495  -496  -484  -486  -541  -664  -791  -816  -734  -650  -628  -637  -637  -626  -614  -597  -549  -469  -395  -330  -218  -76  1  -17  -99  -194  -272  -353  -465  -592  -700  -770  -814  -849  -868  -867  -881  -923  -972  -1014  -1057  -1106  -1160  -1177  -1054  -778  -535  -524  -661  -583  179  1940  4513  7139  8735  8453  6286  3036  -232  -2601  -3657  -3641  -3118  -2549  -2097  -1726  -1384  -1099  -926  -867  -861  -832  -738  -602  -484  -395  -278  -91  85  102  -45  -200  -258  -237  -189  -114  29  246  481  672  790  851  898  983  1152  1386  1593  1705  1742  1757  1794  1866  1966  2080  2194  2297  2376  2425  2450  2466  2478  2461  2367  2176  1931  1699  1481  1218  880  502  154  -98  -239  -298  -306  -301  -349  -455  -551  -612  -692  -805  -880  -868  -811  -771  -757  -742  -704  -653  -608  -570  -524  -468  -400  -330  -284  -277  -309  -359  -388  -372  -333  -316  -378  -556  -816  -1045  -1154  -1150  -1099  -1051  -1007  -949  -886  -827  -770  -744  -772  -824  -864  -893  -909  -893  -820  -686  -530  -415  -393  -479  -641  -802  -901  -931  -915  -871  -804  -728  -672  -652  -671  -729  -807  -873  -902  -884  -811  -687  -514  -279  -33  120  140  81  37  52  95  123  134  144  142  82  -72  -281  -438  -484  -470  -470  -509  -579  -657  -714  -738  -741  -716  -640  -519  -399  -359  -455  -683  -1056  -1555  -1895  -1588  -220  2288  5424  8168  9496  8843  6382  3027  -68  -2157  -3030  -2992  -2657  -2401  -2186  -1907  -1570  -1196  -821  -537  -412  -419  -496  -587  -652  -681  -686  -663  -597  -496  -399  -332  -267  -138  95  377  581  638  570  449  380  416  511  640  849  1134  1387  1511  1544  1603  1763  1989  2190  2324  2404  2463  2536  2622  2680  2657  2544  2386  2228  2043  1784  1494  1264  1118  970  724  396  101  -77  -142  -141  -141  -221  -411  -643  -814  -909  -978  -1045  -1099  -1129  -1129  -1091  -989  -822  -652  -549  -518  -510  -490  -459  -435  -426  -426  -428  -432  -441  -453  -462  -466  -464  -455  -440  -415  -385  -371  -395  -455  -546  -663  -764  -802  -746  -591  -404  -285  -287  -395  -546  -666  -730  -763  -784  -788  -756  -664  -518  -369  -271  -219  -186  -176  -210  -288  -383  -487  -624  -807  -1008  -1165  -1207  -1121  -978  -857  -779  -728  -686  -635  -576  -523  -494  -475  -433  -331  -151  72  245  267  78  -283  -670  -935  -1042  -1036  -948  -793  -599  -410  -279  -238  -263  -309  -364  -427  -496  -586  -722  -891  -1029  -1087  -1070  -999  -907  -827  -774  -744  -706  -610  -498  -563  -898  -1304  -1577  -1600  -1031  524  3040  5991  8388  9119  7755  4862  1499  -1349  -3011  -3369  -2905  -2131  -1274  -618  -418  -531  -657  -700  -703  -705  -719  -732  -698  -581  -412  -256  -152  -98  -61  -13  54  128  199  283  387  477  524  546  585  675  817  976  1113  1215  1308  1427  1578  1718  1809  1871  1977  2192  2495  2768  2912  2941  2932  2925  2896  2796  2627  2471  2410  2402  2279  1877  1232  589  173  20  12  31  36  29  -20  -169  -400  -605  -683  -632  -546  -533  -641  -836  -1023  -1115  -1063  -859  -591  -400  -327  -297  -245  -169  -96  -49  -28  -26  -64  -169  -316  -434  -486  -490  -482  -495  -546  -615  -646  -608  -528  -462  -435  -441  -461  -486  -505  -519  -527  -519  -477  -390  -284  -194  -124  -63  -31  -95  -308  -607  -836  -915  -870  -749  -608  -510  -480  -502  -564  -638  -673  -618  -471  -280  -113  -38  -110  -289  -453  -523  -515  -494  -505  -549  -595  -622  -629  -628  -629  -629  -611  -555  -472  -418  -417  -425  -407  -373  -349  -362  -414  -485  -545  -554  -512  -445  -361  -288  -268  -312  -399  -484  -533  -550  -548  -522  -452  -350  -255  -197  -193  -232  -252  -194  -54  114  216  202  128  35  -107  -284  -414  -454  -438  -412  -398  -400  -424  -470  -521  -574  -637  -690  -705  -695  -672  -625  -527  -374  -335  -666  -1079  -672  1130  4071  7319  9672  10005  8102  4776  1088  -1968  -3558  -3655  -2991  -2230  -1676  -1377  -1191  -976  -721  -514  -434  -462  -522  -569  -590  -580  -524  -408  -254  -128  -63  -28  3  7  -30  -37  83  326  579  738  777  728  651  612  639  722  855  1062  1334  1590  1744  1799  1831  1930  2106  2283  2429  2573  2691  2717  2622  2442  2270  2184  2159  2091  1891  1600  1347  1146  890  559  275  104  -33  -226  -443  -592  -647  -643  -611  -574  -566  -648  -850  -1097  -1263  -1306  -1265  -1172  -1036  -876  -724  -608  -539  -507  -496  -508  -545  -605  -681  -757  -805  -797  -703  -508  -272  -119  -151  -384  -705  -939  -1015  -983  -903  -807  -727  -685  -689  -726  -770  -803  -825  -843  -870  -900  -890  -791  -634  -515  -482  -498  -511  -511  -544  -644  -778  -878  -923  -929  -917  -897  -856  -758  -587  -392  -260  -228  -287  -432  -669  -957  -1192  -1289  -1257  -1163  -1072  -990  -884  -758  -668  -637  -629  -608  -578  -567  -583  -603  -607  -597  -588  -588  -593  -592  -562  -465  -301  -138  -45  -38  -96  -192  -307  -441  -588  -706  -758  -750  -733  -745  -776  -793  -779  -732  -675  -644  -685  -853  -1122  -1337  -1391  -1355  -1308  -1100  -350  1276  3774  6646  8898  9487  8099  5308  1993  -987  -2916  -3624  -3473  -2831  -1993  -1316  -986  -903  -905  -908  -882  -825  -729  -593  -455  -354  -281  -214  -153  -114  -90  -43  46  150  221  240  211  150  97  104  219  482  849  1182  1389  1472  1485  1491  1558  1734  1978  2170  2254  2272  2295  2389  2592  2845  3023  3052  2952  2792  2646  2558  2529  2501  2369  2049  1565  1071  731  570  459  250  -93  -468  -744  -865  -846  -744  -638  -576  -555  -571  -655  -821  -1003  -1084  -1015  -866  -744  -680  -647  -636  -648  -660  -654  -621  -551  -470  -427  -446  -527  -648  -773  -869  -918  -929  -932  -956  -997  -1033  -1047  -1025  -953  -849  -763  -722  -714  -728  -778  -875  -967  -972  -893  -813  -796  -835  -887  -929  -954  -953  -923  -871  -803  -745  -717  -710  -708  -707  -703  -698  -702  -736  -798  -831  -772  -630  -480  -389  -363  -357  -335  -288  -208  -88  11  -17  -184  -391  -580  -744  -871  -967  -1058  -1136  -1181  -1192  -1185  -1148  -1060  -941  -848  -816  -852  -944  -1073  -1236  -1362  -1208  -437  1189  3650  6466  8644  9133  7498  4215  471  -2446  -3843  -3868  -3218  -2573  -2204  -1951  -1569  -1072  -678  -505  -485  -506  -526  -560  -612  -634  -561  -394  -209  -90  -50  -51  -61  -71  -59  -2  97  205  323  503  738  926  1004  1004  984  976  1000  1091  1285  1594  1961  2263  2423  2501  2611  2785  2948  3024  2972  2783  2533  2344  2255  2210  2157  2080  1979  1854  1712  1565  1390  1096  598  -16  -495  -690  -686  -639  -665  -812  -1032  -1210  -1288  -1288  -1244  -1165  -1052  -924  -804  -685  -564  -483  -505  -627  -763  -860  -936  -1015  -1066  -1020  -838  -588  -405  -339  -341  -368  -428  -533  -658  -773  -871  -948  -994  -1014  -1018  -1008  -985  -950  -911  -882  -869  -868  -876  -892  -909  -903  -857  -786  -730  -710  -725  -770  -828  -872  -887  -872  -837  -800  -762  -670  -460  -168  84  217  196  -13  -377  -733  -930  -968  -928  -873  -827  -802  -791  -772  -738  -707  -701  -722  -757  -793  -806  -789  -786  -878  -1114  -1399  -1396  -656  1094  3693  6441  8355  8621  7009  4017  606  -2205  -3738  -3941  -3257  -2223  -1319  -873  -881  -1059  -1167  -1173  -1136  -1101  -1084  -1067  -1022  -945  -843  -704  -500  -255  -37  102  152  120  31  -67  -144  -209  -280  -318  -251  -60  206  468  672  828  993  1212  1487  1788  2082  2364  2605  2741  2753  2677  2573  2495  2458  2466  2537  2637  2635  2419  2062  1754  1554  1362  1127  892  653  348  0  -287  -469  -586  -667  -716  -760  -843  -959  -1065  -1126  -1137  -1105  -1033  -933  -832  -750  -706  -715  -765  -807  -788  -674  -497  -341  -258  -228  -218  -223  -250  -293  -331  -350  -364  -394  -452  -533  -617  -679  -697  -665  -601  -531  -443  -308  -147  -41  -69  -252  -511  -711  -795  -784  -711  -621  -561  -536  -501  -403  -248  -95  29  113  136  132  165  218  218  126  -27  -173  -275  -333  -353  -346  -326  -322  -383  -520  -671  -767  -801  -801  -780  -741  -703  -688  -704  -793  -1031  -1419  -1836  -2002  -1463  164  2897  6219  9019  9990  8597  5502  1903  -1119  -2884  -3389  -3204  -2807  -2322  -1835  -1494  -1306  -1155  -986  -833  -728  -656  -561  -403  -221  -105  -91  -135  -180  -198  -178  -108  -4  89  145  174  190  199  212  246  307  403  561  799  1073  1298  1419  1450  1448  1484  1629  1878  2137  2344  2532  2715  2838  2881  2886  2884  2853  2730  2481  2168  1904  1728  1577  1368  1082  757  430  115  -136  -278  -345  -422  -550  -709  -845  -915  -929  -919  -908  -898  -880  -855  -826  -797  -770  -745  -719  -703  -698  -696  -700  -711  -720  -716  -694  -678  -706  -760  -771  -685  -510  -361  -380  -559  -744  -839  -864  -843  -763  -644  -533  -463  -443  -494  -630  -801  -896  -860  -753  -668  -634  -621  -596  -556  -514  -487  -478  -481  -489  -500  -496  -438  -291  -98  38  53  -39  -176  -289  -355  -395  -424  -434  -417  -395  -397  -427  -461  -465  -448  -474  -605  -807  -974  -1047  -1036  -912  -620  -294  -271  -700  -1289  -1446  -544  1657  4721  7694  9470  9277  7175  3941  453  -2446  -4011  -4141  -3394  -2379  -1557  -1164  -1097  -1080  -940  -680  -418  -261  -212  -209  -217  -227  -226  -182  -83  33  115  146  148  147  149  149  152  188  287  433  578  700  809  910  1039  1249  1520  1740  1859  1949  2111  2369  2642  2820  2879  2885  2897  2912  2860  2697  2493  2362  2333  2349  2334  2240  2057  1788  1443  1072  768  586  499  424  273  -2  -322  -537  -603  -581  -534  -486  -455  -444  -441  -424  -376  -300  -214  -156  -139  -141  -143  -151  -169  -201  -249  -290  -285  -230  -160  -107  -69  -27  10  32  44  43  -3  -123  -268  -339  -316  -265  -238  -227  -207  -173  -132  -88  -48  -34  -54  -72  -51  -12  -50  -222  -445  -588  -605  -526  -392  -230  -51  112  209  236  230  222  217  202  152  43  -129  -325  -480  -567  -605  -629  -652  -641  -561  -453  -403  -459  -595  -776  -987  -1194  -1332  -1384  -1388  -1367  -1313  -1169  -671  591  2580  4529  5702  6008  5529  4057  1637  -895  -2539  -3083  -3010  -2779  -2562  -2389  -2255  -2125  -1970  -1799  -1643  -1530  -1476  -1470  -1483  -1493  -1497  -1509  -1542  -1599  -1669  -1727  -1753  -1728  -1619  -1432  -1251  -1175  -1241  -1397  -1554  -1652  -1691  -1698  -1698  -1690  -1643  -1518  -1302  -1051  -839  -659  -437  -151]
