reading_id,reading_time,wire_id,result_classification,heart_rate,heart_rate_alert,firmware_version,device_app_version,hardware_version,waveform_samples
10b00ef0-5b23-11ed-8080-808080808080,Thu Nov 03 02:56:08 UTC 2022,a101e3f91939,NSR,80,NONE,20001.171.50,2.10.0,Charge 5,[-5327  -5331  -5327  -5309  -5274  -5231  -5189  -5148  -5107  -5061  -5009  -4955  -4902  -4846  -4785  -4736  -4718  -4736  -4763  -4730  -4560  -4261  -3958  -3766  -3676  -3612  -3524  -3409  -3283  -3142  -2953  -2668  -2283  -1868  -1529  -1330  -1256  -1240  -1215  -1133  -986  -814  -651  -503  -365  -236  -114  6  112  188  231  259  321  465  664  827  915  992  1135  1321  1455  1502  1501  1500  1501  1462  1349  1217  1165  1190  1204  1166  1105  1090  1157  1268  1377  1491  1655  1865  1961  1774  1387  1079  1086  1560  2546  3897  5355  6582  7098  6518  4933  2894  1037  -185  -608  -388  155  771  1306  1652  1810  1905  2054  2238  2368  2406  2398  2413  2494  2627  2751  2826  2866  2914  2999  3141  3307  3422  3453  3443  3455  3525  3638  3743  3830  3915  3993  4051  4107  4199  4345  4538  4733  4864  4904  4894  4886  4900  4920  4920  4887  4819  4715  4575  4401  4186  3924  3649  3411  3254  3201  3198  3091  2754  2291  1950  1815  1750  1611  1404  1236  1170  1177  1196  1199  1191  1186  1187  1190  1196  1209  1215  1174  1048  871  741  722  812  961  1111  1215  1242  1186  1091  1021  1002  1017  1032  1000  882  700  528  422  388  402  418  402  361  324  307  299  284  261  238  228  235  212  105  -58  -199  -294  -377  -498  -654  -776  -818  -805  -767  -710  -640  -572  -515  -509  -628  -871  -1120  -1184  -810  150  1559  3060  4153  4308  3300  1397  -830  -2730  -3849  -4119  -3767  -3151  -2571  -2109  -1704  -1330  -1042  -871  -771  -690  -631  -597  -565  -519  -470  -414  -332  -212  -82  15  73  95  95  109  159  218  262  299  374  518  687  806  859  882  935  1088  1362  1662  1866  1945  1933  1857  1739  1616  1519  1458  1414  1344  1222  1057  881  723  583  425  187  -131  -431  -616  -698  -726  -716  -690  -688  -715  -741  -745  -741  -762  -839  -982  -1150  -1264  -1285  -1234  -1143  -1039  -959  -919  -913  -936  -977  -1010  -1001  -929  -822  -734  -694  -688  -696  -713  -757  -850  -972  -1058  -1069  -1034  -990  -951  -907  -813  -628  -398  -230  -175  -202  -270  -347  -398  -416  -411  -382  -317  -219  -103  20  132  209  259  311  364  385  340  217  68  -24  -45  -32  -20  -30  -64  -111  -142  -138  -89  -13  67  131  140  28  -211  -449  -435  101  1300  3010  4738  5796  5613  4108  1846  -367  -1989  -2823  -2957  -2668  -2203  -1651  -1036  -459  -73  89  124  123  116  111  114  133  160  174  163  134  105  83  67  59  67  90  136  220  325  394  407  410  472  616  788  904  941  941  953  1003  1112  1287  1480  1622  1701  1746  1771  1777  1772  1766  1748  1680  1533  1325  1103  890  683  489  319  175  46  -77  -182  -249  -295  -359  -443  -512  -539  -528  -507  -485  -456  -420  -397  -399  -409  -388  -288  -116  49  137  134  66  -28  -119  -204  -291  -365  -404  -396  -321  -186  -44  46  78  71  15  -112  -282  -436  -559  -661  -726  -743  -734  -725  -724  -732  -748  -767  -769  -738  -669  -540  -357  -227  -262  -420  -580  -656  -621  -510  -393  -311  -255  -203  -162  -178  -271  -403  -512  -568  -585  -591  -600  -616  -659  -748  -881  -1024  -1141  -1214  -1247  -1258  -1252  -1206  -1117  -1035  -1009  -1084  -1301  -1500  -1257  -288  1219  2827  4033  4247  3182  1199  -1040  -2971  -4149  -4399  -3962  -3260  -2620  -2177  -1889  -1695  -1586  -1533  -1473  -1367  -1209  -1020  -850  -748  -696  -633  -528  -404  -288  -198  -142  -112  -97  -105  -140  -177  -156  -45  119  265  353  423  532  669  773  821  839  845  848  859  878  900  924  938  920  859  753  596  387  174  21  -87  -225  -395  -543  -699  -969  -1346  -1661  -1797  -1803  -1787  -1807  -1859  -1913  -1963  -2009  -2037  -2035  -1998  -1929  -1847  -1778  -1735  -1719  -1734  -1786  -1874  -1951  -1947  -1853  -1727  -1613  -1517  -1418  -1315  -1242  -1217  -1221  -1230  -1234  -1244  -1281  -1352  -1439  -1505  -1515  -1440  -1277  -1083  -943  -885  -882  -901  -922  -937  -940  -919  -870  -807  -756  -727  -696  -653  -613  -590  -582  -567  -522  -456  -384  -301  -184  -50  48  87  88  81  62  -14  -196  -435  -611  -669  -660  -641  -630  -601  -518  -380  -245  -152  -96  -96  -237  -560  -959  -1180  -904  33  1522  3219  4576  5030  4361  2738  605  -1393  -2711  -3188  -2977  -2402  -1808  -1378  -1092  -851  -600  -355  -158  -28  50  132  275  469  646  766  850  909  917  882  856  874  921  974  1041  1150  1310  1489  1634  1722  1775  1833  1933  2080  2227  2316  2364  2452  2628  2835  2971  2998  2951  2880  2814  2765  2751  2771  2776  2712  2539  2233  1850  1513  1282  1107  923  737  608  567  595  654  711  740  713  608  439  262  122  32  -24  -66  -89  -85  -59  -16  60  166  260  315  334  316  267  220  201  202  208  211  207  192  167  124  18  -193  -447  -599  -575  -424  -250  -126  -65  -40  -11  42  97  124  127  125  122  112  80  19  -54  -105  -107  -60  15  95  174  248  315  378  429  444  412  345  298  319  390  450  473  470  451  415  366  319  272  203  122  64  41  37  43  60  73  35  -71  -176  -273  -457  -629  -443  412  1970  3825  5246  5606  4675  2724  418  -1560  -2778  -3126  -2848  -2348  -1890  -1545  -1268  -989  -702  -450  -261  -143  -88  -75  -97  -144  -179  -161  -104  -44  10  55  81  104  174  353  618  858  994  1044  1053  1049  1067  1131  1227  1315  1401  1541  1737  1918  2040  2113  2151  2154  2109  2017  1913  1847  1835  1860  1886  1843  1645  1298  928  645  459  330  217  73  -132  -377  -606  -763  -802  -741  -669  -649  -667  -687  -692  -688  -684  -693  -719  -750  -776  -807  -873  -982  -1077  -1104  -1079  -1045  -1014  -979  -934  -890  -861  -852  -867  -912  -984  -1078  -1202  -1366  -1548  -1704  -1801  -1840  -1852  -1858  -1846  -1797  -1721  -1661  -1638  -1639  -1644  -1657  -1694  -1753  -1802  -1815  -1779  -1696  -1583  -1470  -1376  -1307  -1244  -1158  -1032  -878  -782  -833  -987  -1140  -1240  -1279  -1274  -1252  -1231  -1220  -1219  -1209  -1151  -1023  -868  -744  -653  -573  -539  -563  -556  -501  -564  -835  -1097  -935  -67  1440  3165  4419  4525  3297  1190  -1086  -2946  -3948  -3950  -3333  -2622  -2043  -1653  -1450  -1324  -1167  -951  -713  -532  -447  -431  -445  -464  -472  -467  -460  -455  -446  -413  -326  -166  53  268  399  433  416  387  376  436  622  895  1127  1241  1275  1298  1344  1413  1501  1599  1689  1747  1773  1796  1834  1878  1911  1932  1947  1928  1817  1593  1313  1053  841  670  521  371  222  102  19  -47  -98  -138  -205  -317  -441  -529  -563  -557  -527  -462  -344  -202  -96  -53  -57  -69  -53  7  115  239  322  321  237  113  11  -43  -60  -37  40  156  259  312  326  326  310  253  147  17  -115  -259  -423  -581  -688  -728  -726  -705  -671  -629  -597  -593  -628  -691  -757  -822  -893  -948  -947  -867  -710  -532  -410  -362  -332  -260  -133  11  138  213  199  78  -106  -283  -390  -424  -417  -399  -384  -385  -430  -536  -669  -768  -807  -769  -626  -355  143  1005  2209  3541  4589  4792  3842  2009  -96  -1859  -2829  -2936  -2500  -1908  -1401  -1047  -777  -558  -438  -407  -405  -404  -401  -380  -287  -66  256  566  752  771  630  364  70  -127  -182  -129  -12  133  282  419  532  630  735  839  919  1001  1150  1368  1579  1715  1794  1873  1962  2004  1955  1840  1716  1598  1484  1403  1365  1331  1285  1226  1099  847  510  202  3  -99  -196  -364  -592  -800  -924  -964  -959  -946  -938  -932  -921  -908  -901  -903  -893  -831  -691  -507  -347  -243  -197  -211  -249  -250  -206  -170  -195  -289  -395  -442  -429  -399  -373  -344  -301  -244  -192  -177  -209  -259  -299  -330  -350  -350  -332  -307  -278  -240  -194  -148  -101  -50  -12  6  22  69  176  327  452  471  360  150  -87  -270  -365  -401  -403  -372  -315  -254  -199  -127  -1  145  168  -10  -234  -289  -45  618  1716  3000  4033  4384  3838  2486  632  -1262  -2646  -3181  -2914  -2101  -1113  -388  -123  -142  -194  -176  -83  46  151  204  229  250  264  260  252  293  439  674  894  1016  1043  1028  1021  1062  1167  1310  1451  1577  1685  1762  1834  1947  2084  2196  2293  2402  2510  2588  2624  2633  2635  2643  2661  2677  2658  2564  2395  2192  1981  1740  1474  1239  1077  975  870  699  469  262  125  17  -120  -271  -375  -413  -413  -396  -357  -292  -212  -136  -78  -38  -13  -4  -26  -84  -157  -216  -251  -257  -212  -105  -5  -14  -136  -280  -403  -508  -578  -589  -534  -440  -362  -333  -336  -341  -342  -363  -429  -525  -609  -653  -668  -671  -669  -654  -615  -573  -588  -708  -893  -1043  -1115  -1127  -1100  -1031  -920  -804  -730  -709  -714  -728  -754  -791  -806  -771  -707  -677  -737  -872  -1006  -1077  -1087  -1072  -1064  -1062  -1044  -995  -938  -901  -869  -807  -711  -618  -555  -523  -526  -578  -689  -832  -972  -1084  -1164  -1222  -1268  -1282  -1260  -1226  -1202  -1191  -1186  -1192  -1218  -1279  -1379  -1469  -1443  -1340  -1402  -1693  -1913  -1687  -763  884  2863  4431  4927  4109  2260  49  -1853  -3046  -3452  -3330  -3011  -2646  -2306  -2072  -1963  -1920  -1862  -1733  -1522  -1286  -1118  -1034  -966  -869  -768  -703  -683  -678  -667  -660  -668  -681  -684  -671  -649  -634  -633  -642  -647  -618  -508  -265  95  455  699  815  863  888  907  929  974  1060  1176  1277  1319  1292  1218  1118  991  830  649  483  347  202  -9  -270  -476  -569  -596  -617  -662  -746  -853  -936  -974  -987  -995  -1005  -1016  -1032  -1050  -1054  -1027  -980  -938  -913  -894  -852  -752  -586  -398  -253  -159  -91  -53  -76  -185  -349  -494  -586  -624  -606  -555  -531  -578  -681  -778  -827  -833  -810  -764  -691  -600  -513  -450  -419  -408  -401  -391  -376  -354  -332  -317  -311  -311  -313  -312  -312  -315  -322  -329  -332  -332  -330  -329  -329  -331  -336  -344  -351  -357  -360  -351  -316  -264  -219  -179  -111  -4  107  185  234  286  360  457  571  676  741  759  753  731  681  603  513  427  343  274  238  230  234  241  245  243  251  303  434  620  752  718  488  144  -20  372  1441  3009  4781  6268  6854  6210  4491  2127  -265  -1990  -2686  -2489  -1784  -1000  -430  -106  68  162  216  265  329  404  480  543  584  601  602  603  617  663  759  918  1124  1313  1418  1427  1370  1293  1241  1247  1327  1462  1599  1715  1818  1916  2002  2090  2225  2411  2597  2730  2793  2788  2726  2628  2503  2334  2131  1961  1881  1873  1872  1823  1703  1526  1311  1062  768  456  183  -16  -151  -247  -324  -388  -441  -495  -558  -608  -624  -611  -598  -596  -588  -540  -443  -331  -250  -213  -203  -202  -200  -199  -199  -199  -200  -201  -202  -201  -201  -211  -242  -293  -340  -364  -366  -359  -353  -350  -352  -359  -368  -375  -379  -380  -373  -354  -325  -299  -288  -310  -379  -474  -544  -551  -497  -413  -334  -270  -225  -202  -231  -391  -668  -882  -916  -838  -751  -700  -680  -672  -666  -659  -663  -683  -711  -734  -747  -751  -748  -741  -725  -706  -697  -706  -724  -738  -745  -746  -742  -731  -716  -720  -763  -829  -881  -903  -900  -882  -854  -838  -871  -950  -1018  -1034  -1013  -972  -916  -850  -783  -724  -683  -668  -682  -720  -764  -791  -813  -886  -1035  -1210  -1330  -1369  -1358  -1319  -1248  -1158  -1081  -1021  -952  -874  -823  -816  -828  -827  -800  -741  -659  -574  -495  -454  -504  -625  -729  -769  -767  -755  -741  -730  -741  -790  -860  -909  -908  -858  -785  -723  -676  -655  -718  -897  -1129  -1319  -1335  -957  2  1552  3474  5273  6274  5923  4190  1668  -815  -2614  -3434  -3371  -2835  -2247  -1796  -1513  -1375  -1312  -1246  -1125  -919  -664  -456  -357  -340  -347  -352  -359  -354  -304  -191  -30  144  280  327  275  178  106  92  150  303  534  778  990  1160  1288  1372  1422  1473  1554  1652  1742  1835  1969  2128  2233  2242  2187  2120  2050  1944  1787  1601  1412  1244  1095  919  702  486  300  150  51  7  1  8  -6  -78  -193  -286  -337  -390  -481  -583  -649  -668  -653  -620  -581  -556  -548  -548  -535  -493  -432  -378  -351  -349  -359  -363  -351  -312  -249  -190  -151  -122  -99  -90  -107  -164  -243  -307  -330  -291  -177  -25  95  161  200  233  260  276  261  198  93  -19  -109  -147  -126  -83  -44  2  63  111  122  94  51  15  -13  -43  -71  -95  -112  -118  -88  4  156  299  357  304  177  54  -14  -32  -34  -48  -80  -120  -157  -177  -151  -56  83  200  248  210  77  -111  -267  -341  -349  -323  -281  -216  -120  -13  65  106  120  123  121  116  112  111  108  78  4  -84  -137  -145  -139  -143  -156  -163  -141  -84  -13  43  81  119  176  257  344  398  383  292  163  49  -32  -84  -96  -91  -122  -196  -267  -295  -296  -306  -338  -371  -361  -244  -24  128  35  -301  -700  -788  -185  1165  2981  4766  5860  5716  4308  2163  -24  -1722  -2637  -2812  -2562  -2171  -1799  -1530  -1323  -1096  -845  -630  -510  -484  -500  -509  -476  -383  -254  -143  -58  34  141  235  296  326  333  324  301  265  229  222  273  374  490  589  667  772  962  1233  1497  1677  1759  1773  1765  1760  1760  1763  1772  1792  1808  1786  1705  1586  1473  1399  1377  1375  1292  1007  532  50  -275  -440  -523  -573  -602  -618  -632  -648  -670  -699  -732  -769  -822  -887  -933  -914  -809  -654  -530  -479  -478  -490  -499  -500  -499  -505  -537  -604  -686  -727  -674  -527  -343  -199  -135  -127  -129  -106  -47  29  84  97  70  18  -35  -74  -92  -98  -96  -90  -83  -76  -70  -64  -65  -77  -90  -94  -90  -84  -79  -47  42  132  100  -60  -230  -323  -336  -297  -251  -230  -224  -208  -160  -77  19  91  112  83  24  -22  -30  -20  -28  -69  -124  -164  -178  -175  -163  -140  -102  -50  0  27  26  3  -26  -48  -57  -59  -52  -23  39  119  180  207  213  212  196  144  61  -26  -114  -234  -374  -477  -537  -607  -706  -789  -805  -722  -549  -382  -368  -557  -845  -1004  -725  231  1830  3680  5132  5535  4566  2502  113  -1846  -2960  -3178  -2832  -2448  -2264  -2093  -1774  -1385  -1056  -851  -769  -759  -760  -725  -625  -480  -342  -231  -130  -38  23  43  32  13  6  12  30  76  168  284  356  352  300  238  184  182  357  801  1369  1779  1941  1988  2045  2106  2102  2012  1868  1704  1555  1467  1432  1389  1279  1086  850  639  466  277  56  -157  -360  -550  -680  -726  -716  -686  -666  -710  -858  -1063  -1209  -1240  -1184  -1101  -1031  -986  -956  -930  -908  -912  -941  -937  -864  -767  -704  -690  -728  -798  -866  -926  -984  -1024  -1024  -978  -905  -818  -701  -553  -425  -346  -296  -260  -237  -218  -201  -182  -152  -124  -120  -153  -217  -297  -387  -478  -552  -612  -678  -737  -736  -660  -547  -435  -347  -294  -275  -272  -258  -232  -216  -229  -273  -323  -370  -426  -494  -556  -600  -615  -594  -555  -516  -492  -487  -493  -493  -492  -506  -526  -527  -489  -414  -319  -203  -79  4  18  -30  -109  -191  -270  -345  -406  -436  -433  -410  -384  -360  -327  -292  -278  -312  -408  -535  -638  -684  -654  -521  -325  -205  -285  -466  -368  430  2017  3977  5585  6158  5346  3307  672  -1767  -3413  -4044  -3788  -3002  -2136  -1457  -957  -613  -448  -429  -483  -531  -507  -379  -159  72  215  244  213  187  193  230  284  346  421  526  650  741  764  736  711  772  976  1269  1524  1664  1709  1711  1720  1759  1822  1906  2054  2302  2580  2780  2884  2935  2954  2940  2882  2750  2499  2126  1699  1331  1088  938  797  616  406  212  74  0  -31  -39  -31  -13  -9  -65  -221  -432  -592  -658  -667  -666  -677  -697  -705  -684  -629  -562  -515  -495  -481  -467  -461  -466  -453  -378  -230  -68  33  55  23  -34  -100  -161  -205  -239  -270  -296  -314  -331  -345  -342  -318  -282  -254  -240  -235  -231  -230  -235  -250  -268  -284  -296  -302  -296  -275  -239  -186  -124  -72  -43  -31  -35  -74  -162  -278  -374  -419  -430  -430  -418  -369  -268  -139  -40  6  46  112  178  215  221  209  196  194  204  229  264  299  317  285  159  -45  -236  -338  -367  -373  -370  -335  -267  -210  -218  -292  -394  -521  -665  -779  -817  -757  -605  -457  -466  -653  -806  -545  472  2225  4214  5720  6089  5028  2898  485  -1554  -2871  -3370  -3229  -2750  -2188  -1694  -1299  -1002  -802  -664  -567  -534  -552  -558  -525  -477  -447  -444  -440  -403  -342  -293  -255  -199  -120  -60  -66  -152  -283  -372  -302  -14  384  686  806  807  764  716  694  750  944  1283  1670  1971  2119  2153  2150  2161  2182  2155  1990  1666  1295  997  769  570  406  282  172  53  -90  -256  -429  -599  -763  -927  -1092  -1215  -1246  -1227  -1231  -1271  -1318  -1343  -1327  -1269  -1170  -1035  -894  -789  -764  -833  -956  -1058  -1099  -1090  -1047  -973  -888  -821  -773  -719  -652  -591  -557  -559  -602  -687  -802  -915  -990  -1013  -996  -958  -921  -900  -894  -897  -900  -894  -868  -822  -775  -746  -738  -751  -784  -825  -855  -867  -876  -896  -926  -946  -939  -893  -807  -702  -627  -600  -596  -588  -570  -546  -520  -492  -471  -466  -478  -514  -584  -681  -760  -762  -677  -553  -444  -365  -288  -171  -26  76  82  -5  -134  -230  -266  -270  -259  -220  -151  -79  -28  -1  6  -14  -69  -147  -222  -270  -287  -287  -285  -285  -276  -240  -181  -155  -201  -271  -277  -221  -252  -533  -963  -1063  -360  1154  3125  5064  6306  6262  4881  2621  110  -1987  -3141  -3260  -2692  -1899  -1211  -780  -605  -580  -587  -564  -505  -427  -319  -146  55  190  229  219  204  202  214  242  301  411  561  701  798  844  829  785  776  839  962  1112  1252  1363  1447  1535  1674  1875  2101  2307  2481  2635  2769  2851  2862  2812  2713  2559  2343  2101  1909  1796  1704  1554  1321  1071  890  774  652  474  254  56  -81  -170  -234  -300  -379  -455  -508  -524  -502  -457  -411  -371  -337  -302  -272  -254  -249  -254  -265  -265  -230  -149  -47  41  106  154  176  140  29  -133  -282  -361  -379  -373  -365  -357  -351  -358  -381  -391  -358  -305  -271  -275  -328  -426  -551  -671  -752  -783  -780  -769  -758  -750  -746  -746  -742  -714  -643  -550  -482  -458  -458  -466  -485  -520  -562  -591  -603  -604  -586  -540  -485  -476  -558  -706  -840  -906  -888  -772  -569  -341  -167  -83  -64  -58  -27  25  85  153  221  249  203  102  2  -55  -90  -141  -208  -259  -275  -267  -249  -228  -212  -205  -222  -274  -344  -410  -486  -604  -729  -751  -668  -642  -777  -996  -1075  -623  684  2692  4709  5907  5733  4189  1862  -446  -2167  -3089  -3345  -3173  -2629  -1823  -1156  -877  -860  -901  -912  -877  -798  -687  -581  -498  -434  -388  -348  -298  -227  -137  -69  -78  -137  -149  -70  64  222  384  521  608  648  658  662  700  809  985  1164  1291  1364  1417  1491  1617  1781  1936  2058  2154  2235  2293  2315  2277  2129  1840  1453  1071  784  604  497  435  358  173  -138  -464  -673  -740  -732  -710  -693  -685  -713  -807  -957  -1091  -1159  -1172  -1161  -1134  -1086  -1031  -986  -929  -820  -681  -579  -528  -486  -430  -384  -364  -360  -360  -362  -382  -425  -460  -441  -373  -317  -323  -395  -494  -565  -594  -600  -583  -519  -413  -324  -302  -330  -323  -211  -35  83  88  28  -22  -52  -102  -210  -351  -464  -516  -523  -500  -430  -283  -98  34  82  91  97  76  -25  -192  -323  -360  -338  -311  -303  -315  -333  -328  -271  -175  -76  -1  41  66  88  106  101  64  15  -10  -6  9  20  23  24  28  30  16  -30  -98  -146  -148  -119  -90  -74  -46  36  183  343  446  449  360  239  140  70  -11  -165  -393  -591  -647  -571  -456  -377  -339  -318  -308  -332  -416  -534  -622  -638  -605  -641  -789  -783  -232  1011  2794  4689  5987  6008  4562  2121  -443  -2368  -3293  -3287  -2759  -2184  -1760  -1431  -1111  -792  -539  -400  -340  -305  -270  -222  -143  -38  68  173  270  344  392  423  438  413  343  300  367  530  710  845  911  917  910  951  1075  1257  1441  1590  1714  1836  1953  2042  2085  2098  2122  2180  2259  2330  2381  2398  2339  2170  1938  1738  1610  1512  1375  1121  707  240  -78  -178  -152  -123  -163  -297  -478  -631  -734  -826  -913  -942  -894  -816  -763  -745  -747  -748  -742  -733  -724  -715  -696  -660  -612  -577  -565  -567  -571  -575  -569  -543  -493  -440  -409  -396  -375  -344  -344  -410  -509  -576  -596  -591  -582  -570  -556  -539  -513  -477  -432  -376  -320  -303  -365  -505  -671  -806  -877  -880  -835  -769  -692  -605  -518  -441  -385  -356  -364  -410  -466  -508  -545  -575  -584  -573  -555  -541  -536  -542  -558  -577  -587  -576  -548  -512  -472  -434  -407  -391  -389  -411  -464  -528  -560  -551  -529  -512  -501  -483  -441  -373  -319  -338  -435  -534  -551  -482  -379  -276  -183  -111  -53  -4  24  27  19  11  7  10  35  79  98  37  -125  -357  -581  -717  -757  -732  -663  -568  -483  -431  -408  -414  -427  -394  -341  -393  -514  -387  347  1758  3495  4955  5577  5083  3581  1499  -590  -2188  -3036  -3184  -2851  -2293  -1716  -1223  -891  -749  -726  -740  -751  -741  -695  -609  -479  -285  -44  173  303  347  354  364  382  392  387  378  381  422  518  648  769  893  1066  1279  1468  1610  1725  1827  1921  2017  2119  2209  2291  2383  2469  2519  2523  2493  2450  2409  2365  2297  2204  2103  1960  1681  1253  814  500  336  277  257  209  91  -97  -327  -548  -716  -817  -862  -869  -853  -821  -793  -818  -938  -1118  -1266  -1324  -1267  -1066  -765  -506  -392  -399  -451  -502  -554  -607  -633  -600  -512  -404  -315  -270  -261  -270  -288  -313  -343  -379  -415  -442  -462  -485  -511  -532  -549  -560  -562  -550  -528  -509  -502  -493  -474  -460  -459  -479  -518  -551  -569  -592  -621  -633  -622  -593  -555  -511  -471  -459  -508  -620  -748  -826  -820  -738  -623  -527  -467  -432  -414  -409  -423  -431  -404  -364  -354  -383  -429  -471  -499  -507  -453  -287  -44  152  233  227  192  160  130  86  23  -61  -180  -318  -412  -427  -384  -328  -287  -261  -241  -237  -269  -349  -443  -508  -565  -715  -996  -1248  -1190  -552  751  2477  4195  5412  5649  4721  2948  913  -876  -2089  -2627  -2686  -2514  -2213  -1833  -1434  -1065  -781  -590  -436  -285  -169  -119  -123  -172  -256  -330  -326  -223  -57  116  246  308  327  346  380  425  487  599  766  935  1046  1088  1089  1073  1052  1052  1130  1336  1634  1913  2099  2222  2333  2435  2509  2547  2552  2531  2474  2331  2062  1732  1476  1314  1141  901  632  382  143  -82  -253  -367  -462  -554  -620  -643  -644  -676  -787  -947  -1070  -1106  -1086  -1054  -1031  -1019  -1031  -1084  -1165  -1235  -1263  -1234  -1142  -1013  -899  -819  -743  -664  -611  -597  -620  -687  -815  -979  -1092  -1081  -936  -735  -590  -541  -549  -574  -605  -646  -687  -691  -646  -602  -599  -625  -646  -650  -645  -645  -649  -648  -648  -664  -691  -674  -550  -356  -221  -243  -417  -654  -840  -933  -964  -932  -785  -508  -209  -27  -2  -77  -178  -245  -266  -262  -252  -246  -250  -272  -316  -389  -495  -606  -671  -681  -666  -650  -645  -679  -780  -929  -1075  -1214  -1368  -1485  -1441  -1096  -363  720  2037  3434  4588  4990  4325  2772  775  -1201  -2657  -3267  -3163  -2732  -2276  -1910  -1620  -1368  -1130  -889  -666  -503  -414  -388  -402  -425  -431  -406  -331  -200  -63  12  15  -7  -12  19  98  217  347  473  618  803  995  1120  1161  1158  1156  1181  1252  1381  1563  1783  2027  2262  2436  2524  2544  2534  2528  2527  2507  2432  2278  2044  1745  1435  1187  1022  893  754  584  376  126  -149  -413  -626  -782  -885  -936  -949  -950  -941  -903  -836  -769  -698  -590  -482  -434  -433  -451  -481  -511  -521  -498  -441  -364  -303  -288  -312  -333  -327  -321  -334  -343  -326  -299  -304  -357  -435  -496  -519  -510  -467  -380  -273  -200  -176  -178  -188  -210  -251  -296  -323  -340  -355  -360  -351  -349  -377  -453  -550  -613  -614  -562  -490  -440  -421  -403  -349  -258  -158  -84  -48  -24  22  94  148  146  87  0  -60  -62  -22  42  124  201  261  308  344  346  271  124  -22  -111  -141  -135  -123  -142  -217  -333  -433  -479  -473  -433  -412  -502  -709  -821  -472  603  2330  4278  5788  6204  5253  3289  1037  -866  -2027  -2342  -2064  -1630  -1351  -1240  -1137  -951  -686  -372  -85  106  196  230  267  319  365  394  430  497  586  665  729  804  907  1024  1120  1179  1207  1209  1201  1229  1324  1480  1654  1795  1910  2058  2247  2415  2522  2591  2654  2724  2787  2832  2859  2866  2824  2710  2560  2441  2366  2299  2234  2172  2055  1803  1423  1022  718  560  497  406  204  -64  -291  -420  -469  -478  -478  -475  -463  -442  -429  -424  -399  -329  -237  -177  -160  -156  -135  -94  -30  45  88  17  -246  -665  -1053  -1206  -1046  -657  -256  -26  10  -59  -151  -215  -244  -257  -274  -300  -342  -393  -430  -442  -431  -398  -346  -291  -261  -268  -300  -346  -420  -535  -649  -684  -624  -522  -427  -360  -327  -320  -325  -335  -352  -383  -420  -446  -453  -450  -444  -440  -450  -481  -521  -531  -492  -427  -377  -349  -321  -285  -258  -251  -253  -247  -218  -180  -178  -259  -422  -607  -745  -808  -807  -782  -778  -808  -853  -894  -922  -930  -899  -848  -853  -964  -1176  -1447  -1590  -1247  -189  1415  3131  4468  4905  4105  2305  168  -1743  -3109  -3770  -3798  -3441  -2939  -2444  -2049  -1813  -1724  -1688  -1628  -1545  -1479  -1440  -1403  -1350  -1287  -1224  -1155  -1077  -998  -918  -839  -780  -745  -725  -719  -716  -691  -644  -605  -588  -561  -479  -303  -47  200  349  410  462  549  665  811  956  1025  1004  957  938  950  977  1011  1033  979  779  483  229  77  -51  -262  -540  -778  -955  -1154  -1395  -1611  -1767  -1864  -1913  -1943  -1980  -2012  -2024  -2024  -2024  -2027  -2031  -2021  -1984  -1925  -1859  -1784  -1691  -1605  -1556  -1530  -1482  -1387  -1258  -1120  -1007  -963  -1012  -1107  -1162  -1158  -1140  -1143  -1164  -1184  -1193  -1198  -1199  -1175  -1100  -989  -895  -847  -826  -798  -773  -800  -921  -1108  -1274  -1344  -1295  -1162  -1018  -904  -820  -758  -713  -676  -641  -627  -652  -701  -747  -772  -782  -788  -790  -770  -702  -596  -499  -434  -387  -349  -324  -313  -308  -306  -323  -374  -446  -504  -528  -527  -512  -473  -391  -268  -139  -46  3  31  51  61  69  108  213  356  461  496  493  486  486  480  442  361  260  185  156  178  267  417  568  649  636  539  412  317  264  214  154  98  55  24  31  115  272  421  440  298  111  -43  -72  377  1629  3529  5479  6708  6635  5230  3033  769  -1066  -2239  -2634  -2368  -1776  -1148  -599  -170  95  201  216  226  274  354  434  488  512  530  589  717  889  1048  1154  1199  1195  1166  1138  1121  1109  1108  1159  1310  1553  1807  1996  2103  2146  2157  2182  2266  2415  2585  2720  2806  2863  2908  2936  2940  2932  2933  2944  2950  2942  2907  2800  2562  2229  1936  1762  1651  1502  1293  1070  857  639  437  307  259  255  242  178  64  -49  -116  -136  -140  -148  -149  -132  -100  -52  19  104  164  182  175  163  153  148  143  123  78  31  8  -12  -52  -101  -146  -187  -213  -215  -190  -145  -87  -30  9  23  14  -10  -44  -78  -112  -155  -204  -229  -211  -184  -177  -189  -210  -236  -271  -315  -343  -333  -302  -261  -195  -113  -65  -79  -134  -191  -235  -261  -262  -244  -225  -212  -200  -192  -224  -330  -478  -588  -619  -593  -549  -508  -455  -366  -251  -156  -115  -143  -255  -427  -585  -665  -635  -486  -281  -133  -83  -84  -89  -95  -117  -152  -187  -231  -312  -414  -479  -472  -409  -326  -280  -312  -403  -524  -658  -767  -807  -780  -719  -665  -632  -618  -643  -732  -859  -1034  -1311  -1494  -1132  55  1921  3924  5318  5501  4364  2354  151  -1652  -2712  -3037  -2896  -2597  -2328  -2072  -1726  -1325  -977  -700  -464  -266  -128  -66  -63  -83  -92  -64  10  105  183  237  287  362  474  572  598  579  587  619  633  631  674  838  1115  1384  1535  1562  1529  1514  1586  1772  2020  2217  2306  2322  2325  2335  2336  2312  2282  2270  2262  2204  2025  1698  1300  956  711  508  313  169  105  79  13  -131  -323  -482  -556  -565  -564  -587  -634  -679  -700  -699  -691  -690  -695  -698  -700  -706  -716  -723  -708  -663  -589  -491  -384  -283  -202  -154  -141  -150  -160  -155  -126  -62  22  80  69  -22  -148  -242  -278  -285  -289  -299  -306  -306  -304  -291  -241  -160  -93  -67  -67  -79  -122  -223  -361  -460  -463  -371  -236  -130  -83  -78  -96  -122  -151  -185  -233  -292  -339  -351  -343  -349  -370  -390  -406  -420  -429  -434  -435  -427  -406  -381  -382  -437  -542  -646  -709  -730  -717  -678  -654  -649  -624  -580  -538  -510  -508  -505  -459  -377  -311  -306  -375  -474  -561  -640  -718  -792  -863  -926  -975  -996  -994  -997  -1005  -996  -976  -962  -957  -954  -944  -951  -1041  -1233  -1341  -1023  -64  1489  3346  4899  5386  4473  2526  219  -1790  -3011  -3347  -3075  -2530  -1960  -1539  -1335  -1275  -1221  -1099  -933  -791  -691  -588  -455  -344  -301  -291  -259  -207  -151  -80  13  105  161  174  168  177  226  318  420  502  571  660  771  875  967  1058  1152  1275  1466  1712  1943  2105  2189  2222  2230  2229  2229  2228  2219  2199  2175  2141  2034  1771  1345  877  483  173  -71  -226  -280  -270  -240  -225  -266  -392  -568  -710  -774  -774  -735  -683  -642  -629  -654  -724  -810  -847  -790  -671  -562  -505  -497  -521  -553  -562  -500  -343  -139  10  73  98  122  121  50  -68  -160  -190  -187  -194  -234  -299  -363  -393  -380  -349  -323  -294  -260  -233  -220  -217  -222  -243  -278  -303  -314  -347  -404  -434  -418  -382  -358  -374  -428  -481  -508  -518  -524  -532  -537  -528  -508  -490  -484  -488  -499  -520  -549  -570  -558  -493  -391  -303  -259  -246  -240  -233  -230  -232  -237  -243  -247  -245  -230  -211  -209  -230  -246  -224  -173  -114  -50  17  67  65  -10  -156  -341  -508  -592  -566  -442  -266  -101  1  31  11  -15  -7  49  126  178  199  211  224  232  226  197  149  103  81  81  79  46  -35  -163  -296  -381  -412  -431  -471  -520  -538  -502  -433  -354  -298  -358  -586  -871  -997  -706  262  1972  4071  5859  6578  5830  3853  1356  -929  -2507  -3153  -2986  -2383  -1692  -1152  -884  -829  -850  -867  -848  -755  -568  -356  -218  -187  -222  -275  -306  -269  -131  63  215  276  277  270  294  377  497  601  667  729  810  903  989  1064  1143  1244  1372  1513  1641  1751  1884  2076  2299  2478  2543  2481  2355  2246  2173  2115  2056  1981  1865  1698  1497  1273  1001  685  393  181  29  -99  -204  -282  -352  -438  -545  -660  -768  -855  -911  -928  -893  -803  -678  -567  -504  -486  -510  -583  -693  -800  -879  -925  -942  -951  -954  -927  -864  -783  -684  -572  -482  -435  -417  -402  -372  -335  -325  -369  -435  -486  -531  -573  -597  -603  -598  -595  -610  -651  -701  -719  -675  -578  -476  -415  -395  -396  -403  -411  -426  -458  -509  -565  -603  -613  -602  -591  -608  -670  -754  -812  -815  -761  -647  -506  -403  -357  -338  -326  -343  -428  -590  -768  -885  -924  -900  -818  -692  -555  -437  -354  -323  -345  -403  -476  -547  -600  -628  -628  -587  -492  -381  -328  -363  -442  -509  -553  -580  -578  -519  -392  -239  -125  -62  -20  34  132  282  442  510  381  53  -322  -566  -641  -622  -546  -408  -254  -190  -272  -442  -588  -658  -650  -566  -411  -211  -23  27  -142  -458  -734  -711  -88  1200  2913  4659  5869  5939  4707  2570  166  -1864  -3031  -3214  -2742  -2127  -1703  -1496  -1333  -1082  -800  -604  -480  -335  -167  -53  -20  -21  -1  57  147  237  298  321  324  321  312  296  292  320  389  474  530  559  631  817  1090  1337  1487  1561  1620  1697  1780  1835  1858  1881  1940  2055  2212  2370  2444  2354  2142  1950  1856  1810  1741  1645  1574  1517  1344  947  436  59  -80  -86  -90  -140  -223  -309  -376  -424  -469  -527  -597  -668  -732  -783  -808  -801  -765  -696  -575  -426  -314  -276  -304  -388  -497  -574  -582  -514  -397  -282  -222  -241  -320  -419  -503  -554  -567  -541  -473  -385  -320  -289  -273  -255  -237  -224  -213  -207  -226  -283  -363  -436  -491  -530  -553  -559  -557  -554  -546  -528  -498  -462  -433  -417  -415  -415  -404  -370  -314  -250  -191  -148  -118  -103  -129  -230  -389  -538  -629  -672  -676  -635  -550  -448  -370  -347  -326  -234  -95  18  78  92  73  48  35  22  -9  -55  -92  -116  -146  -205  -303  -418  -501  -516  -476  -420  -357  -284  -218  -191  -240  -371  -533  -641  -665  -635  -580  -508  -474  -575  -779  -830  -470  359  1573  2993  4307  5064  4839  3581  1663  -407  -2116  -3050  -3187  -2844  -2303  -1738  -1317  -1092  -951  -793  -611  -433  -297  -235  -236  -242  -235  -227  -189  -95  17  96  133  145  143  129  123  148  212  318  473  657  811  891  919  962  1074  1255  1459  1659  1853  2034  2174  2246  2263  2269  2308  2394  2491  2526  2458  2313  2153  2010  1879  1740  1568  1340  1059  765  511  297  81  -136  -319  -453  -562  -677  -792  -858  -848  -790  -738  -726  -746  -770  -786  -798  -802  -773  -691  -584  -514  -494  -490  -483  -474  -465  -453  -432  -410  -394  -388  -394  -404  -401  -386  -370  -363  -363  -354  -335  -339  -404  -518  -626  -688  -708  -701  -664  -575  -448  -329  -249  -219  -239  -300  -386  -469  -515  -498  -409  -285  -187  -162  -232  -405  -630  -809  -887  -866  -761  -605  -447  -319  -228  -180  -186  -238  -301  -342  -369  -399  -432  -442  -413  -360  -311  -288  -294  -307  -297  -249  -184  -140  -133  -147  -165  -182  -199  -233  -297  -371  -420  -437  -440  -444  -449  -446  -429  -403  -396  -460  -619  -802  -918  -971  -922  -533  418  1913  3658  5113  5672  4987  3188  853  -1302  -2756  -3301  -3061  -2428  -1833  -1472  -1285  -1161  -1031  -837  -547  -235  -29  42  51  63  102  167  230  269  286  294  312  359  429  496  544  580  629  711  830  966  1081  1152  1199  1249  1300  1355  1458  1659  1929  2163  2313  2433  2557  2648  2679  2670  2641  2577  2470  2344  2236  2147  2021  1805  1534  1285  1075  876  680  479  283  131  51  28  5  -91  -299  -564  -781  -899  -926  -881  -797  -717  -654  -605  -569  -555  -575  -622  -661  -669  -661  -651  -632  -599  -557  -520  -511  -535  -555  -552  -535  -511  -476  -421  -357  -317  -346  -467  -634  -759  -809  -813  -785  -709  -591  -470  -393  -403  -524  -717  -882  -961  -975  -961  -918  -822  -698  -637  -700  -821  -898  -903  -854  -773  -670  -565  -486  -448  -442  -472  -551  -659  -740  -759  -724  -655  -562  -452  -342  -245  -164  -95  -17  77  163  202  154  -27  -301  -536  -625  -564  -416  -268  -187  -203  -302  -434  -525  -550  -541  -544  -590  -671  -754  -797  -799  -804  -791  -547  219  1648  3521  5208  5948  5314  3484  1117  -1035  -2491  -3139  -3137  -2780  -2327  -1852  -1353  -928  -670  -542  -460  -391  -341  -317  -302  -257  -161  -48  30  62  63  48  33  29  38  62  108  185  288  401  532  682  817  901  950  1014  1129  1300  1516  1763  1989  2122  2143  2092  2021  1973  1974  2031  2130  2238  2322  2345  2282  2161  2027  1856  1560  1129  693  375  186  64  -29  -108  -182  -267  -365  -456  -544  -669  -820  -929  -967  -965  -957  -946  -919  -869  -811  -763  -725  -688  -666  -668  -672  -644  -579  -534  -543  -555  -542  -509  -452  -395  -374  -386  -405  -427  -457  -508  -572  -621  -645  -658  -666  -665  -656  -648  -628  -574  -513  -482  -475  -465  -446  -430  -430  -451  -483  -504  -494  -443  -370  -312  -283  -271  -270  -284  -317  -354  -375  -381  -396  -462  -600  -762  -836  -754  -564  -379  -272  -230  -202  -146  -51  62  142  153  112  40  -75  -224  -351  -403  -377  -316  -268  -249  -250  -286  -383  -513  -612  -657  -676  -696  -721  -743  -762  -799  -867  -938  -1018  -1095  -923  -150  1293  3127  4833  5749  5370  3716  1348  -975  -2663  -3425  -3325  -2747  -2115  -1617  -1244  -965  -779  -676  -625  -584  -514  -409  -308  -255  -253  -264  -224  -83  119  271  315  301  323  415  528  600  627  640  673  732  797  845  870  898  969  1107  1289  1455  1562  1626  1710  1861  2067  2275  2419  2460  2427  2389  2380  2388  2365  2213  1859  1389  1011  825  751  683  597  496  347  113  -171  -409  -528  -544  -515  -484  -465  -455  -454  -478  -548  -658  -772  -862  -922  -960  -965  -911  -803  -685  -592  -528  -489  -467  -442  -392  -309  -204  -88  17  83  77  -26  -212  -401  -521  -574  -594  -588  -541  -462  -382  -327  -305  -314  -337  -351  -346  -331  -319  -307  -294  -284  -285  -297  -315  -327  -331  -333  -350  -388  -425  -426  -387  -337  -299  -272  -255  -253  -279  -344  -433  -511  -557  -578  -592  -595  -572  -506  -422  -363  -346  -352  -355  -341  -310  -275  -250  -231  -220  -225  -248  -266  -254  -215  -173  -133  -71  17  109  188  259  323  348  294  164  20  -72  -104  -111  -122  -152  -211  -304  -407  -478  -505  -506  -482  -400  -284  -283  -512  -873  -1163  -1155  -576  688  2443  4291  5669  5946  4830  2675  240  -1773  -2926  -3117  -2666  -2054  -1548  -1191  -951  -778  -641  -534  -426  -292  -163  -88  -73  -85  -102  -119  -124  -80  57  266  460  571  598  583  569  569  569  568  580  614  667  725  790  889  1032  1189  1336  1490  1679  1882  2029  2089  2091  2066  2021  1971  1956  2003  2092  2172  2211  2199  2099  1845  1425  942  544  300  187  150  147  153  135  24  -238  -580  -837  -936  -947  -961  -1018  -1097  -1152  -1157  -1105  -993  -835  -677  -572  -522  -495  -491  -533  -608  -650  -609  -525  -490  -524  -588  -634  -610  -499  -352  -226  -154  -142  -197  -328  -498  -625  -671  -666  -652  -651  -666  -689  -717  -735  -703  -612  -517  -468  -459  -470  -502  -558  -624  -669  -678  -661  -633  -585  -476  -282  -59  85  99  9  -114  -202  -233  -227  -200  -152  -93  -52  -46  -82  -162  -301  -480  -626  -693  -698  -677  -663  -676  -719  -786  -855  -889  -869  -797  -683  -583  -561  -584  -550  -303  420  1742  3311  4540  4945  4244  2543  406  -1499  -2735  -3144  -2895  -2393  -1945  -1639  -1468  -1339  -1124  -820  -553  -393  -298  -220  -151  -101  -73  -61  -56  -51  -39  -12  23  57  81  90  92  112  175  305  518  785  1034  1217  1333  1396  1437  1490  1579  1724  1913  2088  2200  2246  2249  2235  2207  2163  2113  2075  2051  2029  2000  1952  1862  1703  1473  1192  889  607  393  235  63  -163  -402  -568  -629  -628  -615  -611  -614  -623  -657  -738  -845  -916  -923  -894  -870  -865  -869  -858  -814  -750  -701  -683  -668  -621  -529  -418  -325  -289  -319  -380  -420  -422  -410  -411  -431  -467  -511  -554  -599  -650  -692  -717  -729  -731  -729  -729  -733  -732  -708  -648  -571  -512  -492  -500  -519  -542  -575  -621  -667  -687  -677  -661  -661  -673  -685  -688  -680  -651  -589  -508  -445  -419  -414  -417  -428  -445  -451  -418  -348  -264  -166  -47  59  107  88  19  -86  -226  -364  -450  -473  -461  -431  -395  -366  -360  -388  -459  -577  -720  -835  -887  -884  -820  -704  -653  -750  -788  -352  783  2480  4287  5542  5650  4489  2508  386  -1348  -2436  -2868  -2837  -2565  -2152  -1657  -1214  -952  -853  -804  -733  -635  -505  -334  -153  -22  48  99  138  158  182  225  266  284  287  286  282  287  324  409  534  677  817  929  1012  1104  1227  1366  1500  1615  1701  1775  1866  1971  2079  2191  2293  2354  2373  2368  2344  2285  2180  2050  1924  1759  1453  1008  562  231  22  -101  -161  -177  -176  -188  -238  -341  -490  -644  -744  -769  -747  -717  -698  -698  -716  -740  -760  -770  -765  -732  -665  -584  -525  -508  -522  -545  -576  -626  -669  -634  -495  -336  -289  -410  -619  -781  -839  -813  -730  -609  -489  -408  -386  -426  -508  -598  -677  -736  -764  -748  -703  -659  -625  -591  -539  -471  -423  -444  -540  -647  -669  -584  -446  -300  -175  -100  -74  -79  -109  -169  -249  -315  -340  -315  -254  -186  -133  -78  -12  20  -28  -129  -211  -245  -249  -260  -315  -426  -560  -653  -684  -681  -675  -680  -701  -743  -782  -771  -666  -490  -361  -388  -546  -750  -856  -627  151  1540  3324  4957  5768  5327  3676  1320  -1001  -2658  -3383  -3285  -2681  -1920  -1311  -1014  -932  -837  -596  -272  -38  26  -27  -123  -207  -251  -246  -184  -66  78  220  339  417  452  459  454  448  441  434  433  469  596  827  1084  1278  1411  1543  1683  1798  1885  1960  2024  2068  2091  2092  2069  2032  2006  2002  1997  1983  1980  1992  1988  1909  1709  1402  1050  685  308  -24  -220  -271  -244  -196  -174  -263  -534  -908  -1180  -1228  -1080  -845  -650  -558  -544  -549  -551  -574  -638  -712  -749  -736  -696  -660  -641  -635  -635  -639  -648  -659  -664  -644  -593  -529  -479  -453  -447  -454  -464  -469  -478  -496  -513  -513  -495  -478  -466  -455  -444  -446  -462  -485  -506  -516  -510  -487  -448  -400  -363  -344  -352  -401  -479  -546  -578  -586  -589  -598  -625  -683  -769  -844  -856  -785  -674  -578  -499  -407  -313  -250  -228  -259  -325  -374  -382  -376  -390  -434  -496  -553  -564  -493  -358  -218  -125  -95  -111  -149  -203  -279  -365  -430  -457  -458  -453  -450  -451  -469  -518  -607  -711  -777  -778  -745  -707  -652  -585  -586  -717  -899  -930  -522  596  2382  4318  5676  5872  4731  2635  339  -1517  -2633  -3011  -2841  -2370  -1828  -1392  -1123  -964  -833  -695  -550  -398  -243  -116  -51  -42  -54  -59  -38  26  152  332  504  602  622  606  586  572  566  567  576  603  675  820  1025  1221  1354  1432  1489  1538  1587  1667  1812  2007  2176  2258  2256  2201  2132  2078  2043  2013  1978  1911  1768  1524  1214  920  717  595  503  431  394  369  286  80  -223  -514  -712  -802  -786  -703  -620  -565  -529  -506  -492  -478  -452  -402  -335  -283  -262  -261  -273  -312  -398  -520  -628  -678  -672  -643  -622  -610  -585  -511  -376  -230  -165  -221  -345  -450  -500  -512  -510  -509  -510  -517  -538  -584  -653  -740  -840  -927  -950  -894  -796  -704  -646  -614  -575  -496  -362  -215  -148  -217  -390  -574  -702  -765  -791  -792  -767  -718  -643  -549  -466  -422  -414  -424  -439  -446  -410  -302  -147  -21  43  63  52  -16  -159  -330  -446  -473  -441  -394  -355  -332  -326  -354  -429  -526  -592  -600  -564  -514  -487  -496  -516  -518  -515  -575  -752  -986  -1132  -1041  -544  482  1934  3411  4416  4567  3750  2224  460  -1153  -2295  -2775  -2738  -2464  -2093  -1681  -1275  -936  -718  -605  -542  -502  -474  -441  -393  -329  -248  -156  -63  40  160  273  347  373  364  344  332  336  359  397  443  510  613  747  884  1011  1159  1357  1567  1727  1848  1990  2154  2272  2305  2278  2231  2182  2132  2082  2041  1994  1909  1771  1595  1410  1231  1037  814  590  386  203  29  -142  -295  -412  -505  -590  -664  -733  -813  -896  -949  -965  -952  -920  -879  -851  -859  -909  -978  -1029  -1047  -1042  -1015  -948  -825  -662  -502  -403  -432  -605  -845  -1030  -1094  -1064  -997  -917  -804  -651  -519  -500  -620  -831  -1051  -1201  -1257  -1231  -1127  -958  -774  -641  -594  -625  -707  -813  -908  -960  -966  -950  -929  -919  -955  -1067  -1227  -1354  -1390  -1306  -1098  -842  -658  -589  -598  -669  -815  -999  -1118  -1123  -1078  -1067  -1107  -1149  -1151  -1128  -1120  -1117  -1045  -836  -546  -318  -238  -295  -440  -602  -708  -745  -744  -728  -721  -768  -908  -1100  -1242  -1293  -1291  -1271  -1230  -1160  -1084  -1033  -1013  -998  -994  -1058  -1168  -1131  -750  24  1172  2546  3779  4400  4066  2761  840  -1118  -2568  -3241  -3245  -2884  -2446  -2077  -1777  -1517  -1284  -1082  -923  -805  -729  -697  -669  -601  -493  -379  -293  -239  -190  -125  -47  22  73  123  179  224  251  289  384  558  784  999  1143  1191  1170  1142  1149  1203  1329  1557  1840  2071  2214  2309  2394  2489  2609  2726  2762  2643  2371  2017  1659  1370  1204  1141  1108  1066  1023  977  890  747  595  479  388  297  213  154  127  122  122  111  78  31  -14  -50  -64  -27  90  265  419  505  555  629  754  908  1041  1113  1130  1136  1162  1202  1241  1254  1203  1080  943  851  804]
