reading_id,reading_time,wire_id,result_classification,heart_rate,heart_rate_alert,firmware_version,device_app_version,hardware_version,waveform_samples
945d9ec0-6a1e-11ed-8080-808080808080,Tue Nov 22 04:31:48 UTC 2022,a101e3f91939,UNCLASSIFIABLE,102,NONE,20001.171.50,2.10.0,Charge 5,[-5279  -6197  -6584  -6318  -5705  -5144  -4791  -4587  -4437  -4237  -3891  -3426  -2987  -2712  -2595  -2499  -2297  -2022  -1810  -1711  -1658  -1591  -1490  -1320  -1024  -619  -236  5  84  7  -191  -344  -101  951  3012  5847  8827  11056  11682  10438  7750  4380  1256  -765  -1401  -912  223  1395  2114  2357  2453  2650  2950  3237  3452  3621  3767  3904  4055  4209  4349  4490  4622  4703  4727  4729  4739  4752  4749  4739  4777  4911  5145  5447  5793  6156  6464  6630  6626  6473  6232  6005  5900  5942  5996  5909  5709  5529  5437  5413  5406  5374  5272  5051  4740  4458  4307  4291  4339  4393  4447  4510  4515  4363  4089  3853  3763  3788  3840  3869  3878  3886  3882  3821  3669  3469  3324  3292  3336  3385  3401  3394  3379  3369  3367  3372  3379  3379  3348  3256  3096  2921  2819  2813  2844  2861  2884  2928  2966  2968  2923  2775  2454  2036  1729  1626  1640  1661  1649  1607  1540  1463  1402  1382  1408  1352  1001  464  215  744  2407  5213  8504  11115  11936  10553  7487  3781  519  -1489  -2111  -1901  -1407  -857  -438  -273  -254  -208  -81  74  188  247  286  347  442  544  613  635  617  566  497  440  418  423  438  461  506  563  600  603  596  629  738  890  1011  1082  1118  1095  985  848  766  755  767  745  633  419  175  -17  -196  -459  -775  -1022  -1161  -1235  -1292  -1382  -1538  -1737  -1925  -2085  -2240  -2398  -2485  -2443  -2337  -2262  -2233  -2242  -2306  -2442  -2613  -2744  -2809  -2850  -2890  -2898  -2826  -2649  -2433  -2287  -2242  -2244  -2243  -2250  -2319  -2454  -2493  -2296  -1986  -1798  -1870  -2214  -2673  -2988  -3067  -3010  -2936  -2900  -2884  -2834  -2730  -2660  -2731  -2923  -3081  -3062  -2912  -2853  -3063  -3413  -3536  -3393  -3386  -3634  -3642  -2700  -477  2562  5406  7100  7044  5163  2012  -1473  -4318  -5894  -6245  -5789  -5006  -4444  -4259  -4099  -3865  -3783  -3847  -3843  -3607  -3114  -2474  -1833  -1324  -1100  -1204  -1471  -1681  -1757  -1740  -1666  -1532  -1340  -1127  -963  -877  -815  -700  -494  -226  31  231  381  538  772  1035  1155  1065  923  897  963  1016  1027  1029  1058  1106  1106  998  788  531  305  178  151  162  155  116  68  30  0  -19  -25  -53  -145  -285  -409  -495  -569  -614  -550  -315  5  242  328  331  303  222  71  -77  -181  -282  -381  -437  -455  -447  -381  -223  -17  138  197  182  110  -16  -164  -273  -324  -345  -372  -428  -528  -670  -815  -910  -935  -899  -806  -667  -510  -410  -446  -594  -722  -644  -49  1462  3994  6977  9335  10010  8532  5351  1609  -1448  -3057  -3244  -2644  -1951  -1520  -1315  -1119  -844  -593  -455  -407  -393  -368  -285  -146  -46  -29  -12  121  383  622  721  773  876  1002  1132  1297  1481  1637  1752  1850  1969  2136  2312  2426  2456  2421  2356  2298  2263  2248  2231  2181  2086  1957  1810  1673  1578  1494  1344  1128  941  831  721  508  191  -127  -352  -454  -485  -564  -765  -1014  -1131  -1010  -730  -474  -356  -386  -532  -728  -889  -984  -1005  -936  -787  -621  -511  -482  -526  -620  -709  -733  -656  -496  -316  -177  -93  -52  -42  -68  -146  -268  -385  -458  -497  -530  -555  -552  -532  -532  -558  -589  -623  -670  -731  -811  -948  -1139  -1268  -1296  -1371  -1589  -1803  -1637  -604  1519  4427  7380  9255  8975  6520  2964  -500  -2935  -3915  -3892  -3485  -2799  -1928  -1273  -1024  -982  -936  -826  -655  -466  -327  -258  -226  -192  -134  -65  -2  56  113  170  248  365  499  601  639  651  703  796  892  981  1074  1187  1334  1518  1697  1789  1752  1635  1513  1422  1364  1322  1248  1101  920  773  674  607  557  497  395  231  19  -193  -357  -423  -385  -320  -354  -557  -866  -1125  -1236  -1211  -1129  -1068  -1030  -948  -777  -584  -499  -579  -743  -856  -861  -804  -746  -693  -616  -521  -441  -386  -344  -319  -316  -331  -359  -414  -517  -668  -813  -853  -733  -529  -395  -403  -505  -621  -707  -753  -775  -797  -826  -822  -758  -679  -645  -690  -857  -1117  -1346  -1548  -1750  -1620  -600  1566  4580  7625  9551  9425  7247  3933  579  -1999  -3365  -3648  -3350  -2812  -2161  -1571  -1193  -1021  -971  -971  -961  -898  -753  -520  -264  -85  1  80  215  388  529  584  554  486  446  471  552  686  863  1060  1275  1486  1626  1671  1674  1698  1768  1863  1945  1959  1873  1741  1645  1591  1535  1450  1356  1282  1162  886  481  104  -131  -226  -235  -218  -230  -309  -450  -600  -719  -815  -911  -986  -1012  -997  -958  -893  -812  -741  -695  -669  -660  -687  -744  -791  -809  -829  -886  -967  -1031  -1078  -1136  -1191  -1187  -1111  -1009  -928  -888  -893  -935  -993  -1036  -1046  -1031  -1015  -1050  -1196  -1443  -1683  -1820  -1855  -1847  -1835  -1826  -1821  -1827  -1869  -1951  -2017  -2035  -2094  -2230  -2280  -2225  -2256  -2154  -1213  917  3840  6773  8663  8392  5873  2292  -1092  -3502  -4575  -4592  -4212  -3797  -3340  -2824  -2372  -2111  -2015  -1974  -1906  -1758  -1499  -1164  -862  -690  -649  -679  -733  -766  -675  -355  123  528  719  747  716  681  652  633  648  744  919  1087  1180  1238  1353  1547  1744  1858  1870  1806  1702  1602  1526  1424  1230  976  764  572  278  -98  -402  -556  -613  -652  -705  -773  -866  -976  -1060  -1088  -1061  -995  -917  -853  -806  -791  -824  -882  -927  -956  -980  -987  -963  -930  -917  -930  -959  -988  -1008  -1026  -1041  -1051  -1061  -1066  -1030  -900  -696  -526  -461  -459  -454  -431  -419  -433  -462  -495  -513  -482  -380  -229  -83  7  40  43  44  50  58  68  77  83  87  87  80  70  74  115  138  2  -338  -791  -1242  -1307  -318  2050  5410  8769  10796  10436  7702  3800  257  -2010  -2869  -2739  -2338  -2154  -2073  -1757  -1217  -748  -506  -419  -380  -368  -385  -371  -284  -130  91  367  623  775  793  735  663  595  555  582  682  820  965  1142  1370  1591  1733  1784  1782  1769  1780  1825  1886  1929  1944  1929  1870  1743  1554  1345  1165  1049  986  928  867  826  783  652  386  80  -132  -232  -284  -322  -341  -343  -343  -362  -401  -438  -479  -543  -605  -635  -647  -667  -695  -716  -726  -734  -737  -713  -655  -609  -615  -650  -692  -751  -826  -894  -940  -963  -975  -978  -956  -905  -856  -835  -839  -856  -874  -882  -883  -893  -912  -923  -905  -843  -760  -719  -756  -830  -873  -855  -805  -756  -705  -622  -484  -316  -196  -182  -223  -235  -248  -330  -434  -475  -456  -464  -570  -710  -737  -638  -528  -486  -500  -534  -580  -656  -765  -860  -857  -694  -478  -414  -666  -1374  -2128  -1799  253  3587  7227  9900  10437  8589  5190  1482  -1505  -3199  -3629  -3258  -2568  -1889  -1429  -1272  -1323  -1392  -1340  -1120  -821  -612  -555  -578  -580  -514  -406  -311  -239  -164  -48  145  379  554  638  684  743  821  886  913  899  881  937  1144  1480  1829  2093  2228  2212  2036  1743  1460  1295  1250  1257  1243  1166  1044  931  859  816  755  596  269  -200  -674  -1017  -1181  -1211  -1179  -1133  -1088  -1059  -1056  -1066  -1071  -1071  -1104  -1203  -1335  -1434  -1496  -1577  -1680  -1709  -1560  -1244  -916  -730  -725  -846  -1003  -1104  -1127  -1121  -1135  -1139  -1080  -969  -841  -729  -678  -696  -733  -751  -750  -751  -772  -805  -809  -760  -688  -626  -586  -570  -566  -538  -460  -366  -313  -310  -318  -326  -371  -494  -680  -859  -985  -1056  -1085  -1075  -1028  -972  -925  -861  -759  -617  -420  -209  -173  -517  -1211  -1956  -2260  -1668  30  2820  6210  8991  9895  8486  5295  1476  -1682  -3448  -3947  -3686  -3064  -2384  -1890  -1621  -1421  -1174  -911  -698  -537  -405  -307  -252  -230  -219  -186  -114  -25  43  84  110  147  248  447  693  883  961  963  973  1063  1235  1409  1504  1509  1470  1445  1444  1431  1388  1339  1298  1253  1198  1144  1101  1063  1016  946  826  634  420  262  142  -23  -255  -495  -696  -841  -944  -1021  -1041  -978  -872  -782  -752  -807  -915  -1023  -1091  -1056  -881  -616  -352  -172  -107  -177  -407  -736  -1010  -1133  -1147  -1136  -1127  -1091  -989  -848  -736  -689  -690  -709  -719  -678  -550  -374  -239  -184  -175  -164  -124  -61  -9  4  -29  -105  -222  -375  -523  -612  -639  -641  -639  -636  -627  -612  -594  -572  -565  -632  -829  -1098  -1260  -1233  -1202  -1406  -1640  -1185  562  3560  7072  9818  10555  8923  5654  1996  -1049  -3023  -3828  -3680  -3065  -2384  -1807  -1375  -1055  -803  -617  -482  -355  -231  -137  -78  -36  -6  0  -16  -39  -34  11  82  162  253  370  528  728  959  1182  1343  1418  1453  1537  1711  1936  2146  2296  2363  2363  2340  2317  2278  2208  2123  2040  1893  1590  1191  883  752  717  677  570  363  102  -109  -233  -331  -463  -583  -598  -534  -525  -610  -706  -775  -853  -950  -1028  -1062  -1062  -1026  -936  -826  -774  -818  -909  -968  -981  -981  -996  -1001  -920  -689  -392  -233  -322  -565  -791  -916  -940  -880  -756  -613  -508  -461  -460  -494  -568  -674  -773  -844  -908  -978  -1039  -1076  -1096  -1104  -1105  -1112  -1138  -1179  -1224  -1272  -1314  -1349  -1437  -1704  -2230  -2765  -2632  -1238  1347  4586  7748  9758  9658  7487  4052  283  -2757  -4216  -4196  -3469  -2693  -2274  -2221  -2158  -1869  -1474  -1125  -871  -695  -573  -492  -432  -377  -330  -274  -166  -11  134  223  251  237  214  250  433  762  1096  1304  1395  1457  1539  1629  1688  1705  1696  1686  1698  1749  1831  1896  1862  1655  1304  969  796  780  824  815  655  334  -8  -222  -314  -400  -520  -621  -671  -689  -684  -651  -603  -560  -525  -490  -455  -425  -410  -432  -524  -674  -803  -848  -840  -830  -821  -819  -845  -883  -905  -906  -896  -880  -865  -865  -910  -1010  -1130  -1208  -1210  -1136  -1009  -854  -669  -457  -277  -197  -231  -338  -463  -567  -645  -714  -773  -828  -911  -1020  -1121  -1191  -1229  -1247  -1266  -1303  -1341  -1339  -1291  -1241  -1293  -1545  -1922  -2168  -1945  -775  1704  5139  8423  10210  9487  6317  2044  -1704  -4001  -4673  -4159  -3261  -2489  -1912  -1551  -1391  -1287  -1130  -931  -719  -488  -251  -48  91  168  187  160  120  100  121  194  302  429  587  760  876  899  867  831  811  816  868  986  1134  1265  1380  1482  1534  1506  1435  1379  1361  1364  1369  1357  1301  1175  994  806  638  493  381  324  307  272  165  -54  -396  -765  -1007  -1069  -977  -769  -527  -361  -309  -322  -348  -367  -352  -272  -144  -46  -42  -140  -290  -424  -508  -555  -577  -581  -576  -570  -572  -598  -661  -763  -875  -956  -984  -955  -862  -721  -578  -464  -388  -347  -319  -276  -228  -197  -181  -153  -98  -48  -55  -111  -152  -170  -252  -476  -756  -906  -877  -789  -740  -733  -747  -774  -806  -827  -788  -646  -551  -740  -1093  -1129  -344  1595  4574  7813  10109  10417  8470  4971  1141  -1897  -3521  -3783  -3259  -2594  -2127  -1867  -1681  -1462  -1187  -880  -592  -362  -178  -36  51  86  88  83  80  78  76  74  74  86  121  212  403  670  908  1034  1067  1071  1090  1156  1291  1458  1591  1695  1792  1805  1641  1349  1053  824  700  671  677  660  604  521  412  262  73  -108  -213  -229  -212  -247  -395  -623  -853  -1058  -1222  -1285  -1213  -1067  -939  -856  -780  -667  -521  -381  -292  -258  -260  -284  -344  -462  -628  -787  -907  -1003  -1077  -1104  -1069  -998  -931  -888  -865  -852  -828  -770  -690  -623  -587  -573  -563  -536  -486  -430  -395  -389  -392  -363  -270  -142  -61  -88  -198  -290  -318  -380  -549  -735  -818  -791  -739  -734  -754  -740  -668  -571  -514  -590  -893  -1352  -1684  -1550  -630  1278  3952  6738  8779  9239  7839  5053  1683  -1369  -3316  -3968  -3694  -2996  -2273  -1686  -1218  -856  -631  -542  -536  -554  -571  -588  -597  -576  -498  -369  -220  -65  89  241  379  470  492  477  477  541  707  947  1158  1276  1347  1438  1550  1636  1670  1675  1681  1696  1708  1696  1637  1537  1436  1367  1325  1251  1084  850  634  455  255  13  -219  -400  -546  -670  -742  -765  -777  -781  -760  -727  -708  -700  -684  -669  -697  -800  -924  -985  -991  -1000  -1007  -947  -801  -629  -503  -429  -375  -355  -401  -489  -568  -600  -599  -617  -671  -743  -835  -929  -959  -869  -683  -494  -387  -382  -440  -506  -574  -664  -759  -819  -834  -826  -821  -840  -886  -938  -957  -938  -920  -958  -1061  -1187  -1273  -1307  -1317  -1321  -1307  -1262  -1276  -1520  -1891  -2025  -1752  -899  892  3596  6527  8651  9023  7291  3976  267  -2608  -4064  -4282  -3804  -3154  -2633  -2289  -2043  -1803  -1560  -1395  -1353  -1371  -1350  -1247  -1084  -897  -694  -470  -263  -125  -70  -71  -85  -70  1  120  278  494  740  918  991  1027  1115  1296  1547  1788  1924  1945  1913  1883  1872  1881  1896  1877  1766  1537  1226  926  741  678  661  634  593  532  425  255  27  -241  -513  -730  -848  -884  -900  -925  -943  -928  -860  -755  -661  -594  -530  -457  -393  -334  -248  -128  -5  74  56  -101  -346  -552  -658  -717  -788  -872  -945  -995  -1038  -1080  -1086  -1021  -911  -807  -718  -619  -499  -379  -285  -235  -235  -276  -341  -422  -499  -550  -597  -690  -836  -973  -1037  -1031  -987  -915  -814  -714  -667  -702  -805  -924  -947  -835  -746  -836  -1137  -1558  -1661  -839  1174  4154  7311  9490  9811  8091  4912  1344  -1652  -3488  -3951  -3365  -2419  -1630  -1147  -936  -905  -958  -1027  -1026  -896  -693  -492  -289  -82  103  279  460  617  735  825  905  982  1027  1012  990  1026  1088  1120  1150  1247  1441  1704  1984  2191  2235  2142  2038  1994  1980  1953  1916  1909  1946  1949  1775  1396  970  644  439  345  352  394  376  230  -74  -493  -877  -1106  -1196  -1228  -1253  -1270  -1266  -1233  -1171  -1095  -1042  -1046  -1108  -1199  -1273  -1313  -1316  -1248  -1081  -868  -716  -667  -688  -742  -802  -845  -859  -846  -809  -750  -680  -641  -695  -895  -1229  -1487  -1366  -881  -355  8  216  316  347  330  252  91  -137  -352  -455  -435  -391  -404  -463  -534  -608  -674  -707  -701  -687  -713  -786  -873  -953  -1028  -1096  -1147  -1145  -1084  -1103  -1362  -1815  -2218  -2220  -1407  504  3374  6584  9184  10012  8428  5005  1016  -2273  -3914  -3781  -2699  -1669  -1122  -1019  -1172  -1311  -1265  -1073  -863  -715  -628  -554  -476  -412  -364  -310  -238  -147  -51  37  119  198  274  347  447  633  912  1198  1397  1485  1521  1576  1665  1759  1853  1954  2043  2089  2061  1944  1776  1645  1596  1582  1547  1494  1420  1274  1028  737  487  300  157  65  39  47  50  48  35  -47  -262  -580  -874  -1023  -999  -853  -671  -536  -472  -451  -423  -348  -240  -161  -156  -217  -293  -339  -357  -371  -377  -351  -276  -180  -121  -134  -213  -316  -429  -550  -638  -660  -641  -617  -607  -593  -510  -331  -176  -238  -503  -741  -760  -541  -214  50  192  237  177  2  -211  -383  -517  -641  -728  -718  -581  -353  -147  -53  -63  -117  -197  -354  -618  -929  -1202  -1405  -1555  -1667  -1665  -1514  -1453  -1620  -1511  -356  2122  5537  8887  10745  10099  7228  3431  -31  -2442  -3571  -3687  -3324  -2820  -2265  -1749  -1404  -1235  -1090  -829  -476  -196  -85  -77  -86  -105  -147  -212  -284  -321  -288  -158  107  463  751  861  835  783  768  799  911  1144  1431  1630  1697  1694  1679  1640  1551  1434  1354  1328  1297  1205  1077  977  895  769  610  513  505  513  485  442  341  38  -499  -1080  -1486  -1685  -1779  -1836  -1874  -1901  -1911  -1861  -1718  -1517  -1348  -1259  -1230  -1237  -1283  -1370  -1449  -1436  -1325  -1199  -1101  -991  -857  -749  -703  -702  -709  -709  -709  -726  -778  -849  -901  -920  -914  -893  -858  -815  -784  -806  -873  -924  -939  -942  -914  -845  -771  -716  -673  -635  -598  -553  -509  -482  -471  -449  -395  -335  -338  -400  -431  -402  -373  -419  -565  -741  -849  -877  -896  -967  -1071  -1153  -1223  -1374  -1623  -1858  -1959  -1815  -1153  452  3123  6310  9033  10231  9250  6430  2874  -340  -2552  -3601  -3767  -3382  -2639  -1769  -1081  -709  -559  -501  -478  -473  -459  -414  -354  -313  -284  -188  41  345  573  660  653  612  573  556  571  612  682  811  1021  1259  1426  1480  1460  1437  1490  1650  1859  2028  2116  2109  2004  1846  1715  1627  1521  1361  1155  912  649  432  324  308  312  301  291  289  290  271  168  -74  -405  -695  -877  -977  -1033  -1064  -1079  -1075  -1016  -858  -614  -367  -186  -95  -80  -128  -250  -432  -610  -722  -757  -742  -698  -610  -463  -308  -242  -294  -417  -544  -606  -575  -509  -466  -443  -415  -397  -457  -658  -950  -1189  -1275  -1185  -963  -738  -634  -644  -685  -710  -722  -734  -736  -674  -499  -254  -59  21  24  3  -13  -19  -21  -41  -108  -233  -388  -544  -686  -802  -879  -912  -905  -879  -861  -850  -818  -767  -738  -762  -889  -1138  -1404  -1605  -1696  -1443  -529  1266  4010  7209  9711  10330  8569  5005  964  -2238  -3868  -3979  -3252  -2471  -1987  -1680  -1409  -1224  -1165  -1179  -1178  -1077  -832  -485  -156  51  126  127  103  71  47  41  42  42  45  55  72  122  236  410  627  919  1276  1596  1846  2082  2305  2499  2668  2778  2802  2773  2740  2707  2610  2363  1958  1521  1204  1028  910  806  720  641  529  354  135  -63  -199  -275  -336  -424  -510  -548  -553  -569  -597  -617  -627  -649  -690  -722  -710  -663  -634  -650  -670  -646  -593  -537  -478  -427  -408  -419  -441  -458  -463  -464  -464  -462  -456  -456  -486  -556  -634  -692  -723  -710  -663  -631  -630  -641  -664  -713  -777  -824  -840  -839  -841  -855  -882  -918  -959  -983  -967  -902  -793  -680  -600  -524  -408  -281  -187  -111  -11  97  146  102  -17  -195  -459  -825  -1202  -1440  -1478  -1349  -1104  -798  -516  -349  -306  -315  -317  -311  -361  -541  -801  -956  -964  -1024  -1290  -1581  -1360  -109  2324  5574  8587  9982  9048  6203  2552  -701  -2681  -3216  -2871  -2313  -1834  -1499  -1289  -1110  -915  -751  -638  -533  -401  -250  -120  -42  -9  5  19  39  57  68  87  133  228  377  541  667  783  964  1200  1398  1503  1540  1597  1753  1974  2141  2184  2129  2028  1915  1805  1671  1471  1237  1077  1015  959  816  601  419  339  336  334  262  94  -133  -340  -470  -553  -668  -845  -1037  -1190  -1283  -1315  -1275  -1153  -959  -745  -589  -529  -532  -550  -575  -642  -767  -925  -1063  -1121  -1083  -1009  -966  -958  -961  -951  -941  -971  -1044  -1089  -1027  -852  -624  -418  -296  -306  -479  -783  -1088  -1265  -1289  -1200  -1028  -800  -576  -437  -400  -415  -435  -447  -453  -462  -475  -485  -453  -347  -203  -132  -227  -471  -746  -932  -998  -987  -951  -918  -882  -835  -842  -964  -1158  -1316  -1349  -1304  -1340  -1398  -1120  -165  1594  4007  6457  8020  7975  6159  3088  -194  -2692  -3968  -4167  -3688  -2895  -2079  -1467  -1140  -1012  -974  -980  -1023  -1084  -1118  -1102  -1050  -987  -921  -835  -711  -547  -363  -200  -92  -28  31  126  282  474  625  686  682  669  698  815  1039  1321  1565  1707  1737  1674  1575  1501  1465  1445  1431  1427  1421  1383  1312  1222  1105  964  807  604  342  76  -124  -243  -338  -500  -748  -994  -1149  -1213  -1223  -1184  -1085  -922  -743  -625  -591  -587  -549  -453  -360  -368  -487  -648  -785  -835  -764  -627  -503  -413  -341  -284  -250  -240  -238  -237  -246  -291  -399  -559  -713  -808  -804  -677  -470  -278  -151  -83  -58  -72  -123  -198  -272  -326  -360  -375  -354  -280  -188  -147  -194  -319  -457  -551  -607  -640  -660  -682  -725  -795  -891  -996  -1064  -1101  -1195  -1343  -1306  -692  806  3184  5950  8100  8595  7158  4385  1200  -1459  -2888  -3129  -2851  -2483  -2043  -1589  -1252  -1061  -959  -881  -799  -722  -645  -544  -418  -297  -221  -201  -199  -157  -26  175  363  475  535  581  594  542  476  502  704  1058  1450  1763  1927  1942  1856  1738  1647  1617  1681  1869  2124  2305  2302  2059  1558  934  458  259  235  246  229  158  14  -212  -495  -752  -901  -951  -970  -1015  -1091  -1150  -1162  -1159  -1169  -1176  -1172  -1172  -1210  -1299  -1369  -1297  -1056  -785  -647  -680  -808  -943  -1053  -1134  -1187  -1216  -1210  -1158  -1046  -842  -563  -329  -220  -191  -154  -80  -25  -59  -170  -277  -336  -351  -331  -267  -167  -55  51  153  249  327  359  335  284  234  164  35  -139  -290  -364  -364  -319  -260  -217  -203  -223  -279  -350  -369  -267  -57  142  175  -57  -466  -671  -173  1350  3770  6453  8568  9335  8296  5732  2520  -445  -2463  -3186  -2888  -2195  -1590  -1246  -1089  -985  -869  -718  -543  -386  -288  -244  -197  -83  76  195  234  221  197  186  209  287  411  549  684  824  980  1129  1235  1285  1314  1372  1498  1709  1966  2182  2300  2326  2266  2111  1924  1818  1824  1864  1859  1767  1521  1076  524  38  -271  -409  -445  -448  -476  -579  -754  -947  -1106  -1212  -1268  -1287  -1250  -1123  -942  -823  -828  -907  -975  -1001  -1007  -1012  -1020  -1029  -1034  -1013  -946  -845  -753  -696  -652  -597  -550  -558  -647  -782  -872  -872  -826  -791  -769  -747  -723  -696  -690  -744  -845  -921  -920  -859  -793  -752  -717  -670  -619  -573  -533  -505  -484  -431  -308  -163  -135  -315  -618  -860  -965  -998  -1044  -1116  -1173  -1190  -1184  -1180  -1180  -1165  -1120  -1062  -1046  -1115  -1228  -1253  -1172  -1171  -1383  -1571  -1217  128  2572  5691  8498  9782  8864  6098  2529  -794  -3137  -4215  -4285  -3779  -2920  -1972  -1334  -1123  -1127  -1168  -1227  -1334  -1437  -1387  -1082  -602  -162  80  147  142  134  140  161  193  224  248  265  271  271  293  367  504  698  938  1199  1450  1685  1885  2002  2031  2022  2018  2024  2013  1932  1752  1534  1374  1256  1065  766  447  199  7  -192  -427  -666  -864  -1013  -1131  -1217  -1240  -1127  -817  -405  -105  -40  -173  -409  -662  -863  -972  -990  -948  -876  -809  -750  -656  -509  -357  -264  -239  -246  -248  -214  -131  -33  15  -8  -85  -156  -158  -89  -7  42  61  67  78  80  23  -134  -344  -489  -523  -501  -483  -472  -435  -361  -300  -289  -296  -276  -215  -129  -82  -125  -213  -291  -354  -398  -423  -450  -476  -474  -425  -322  -168  16  187  287  292  226  144  91  57  -31  -229  -491  -703  -805  -829  -830  -829  -800  -696  -536  -437  -481  -710  -1166  -1606  -1445  -181  2317  5655  8806  10519  9999  7370  3645  155  -2116  -2910  -2713  -2288  -2081  -2022  -1834  -1432  -950  -564  -353  -273  -242  -217  -187  -150  -125  -141  -189  -224  -220  -188  -146  -90  1  105  167  176  189  281  489  792  1099  1313  1432  1544  1704  1889  2042  2137  2190  2211  2159  1983  1725  1496  1349  1251  1174  1118  1073  989  816  564  320  173  108  -12  -338  -848  -1326  -1578  -1600  -1498  -1372  -1294  -1284  -1324  -1380  -1424  -1449  -1456  -1407  -1245  -977  -697  -482  -336  -250  -239  -356  -631  -971  -1208  -1291  -1283  -1219  -1088  -922  -801  -763  -773  -795  -812  -809  -763  -659  -522  -421  -434  -603  -914  -1264  -1490  -1479  -1240  -910  -673  -600  -633  -705  -772  -799  -756  -653  -540  -471  -455  -464  -472  -463  -428  -356  -250  -150  -143  -296  -549  -763  -859  -855  -805  -765  -779  -838  -893  -916  -917  -907  -883  -841  -788  -747  -760  -873  -1061  -1240  -1355  -1436  -1549  -1697  -1670  -1034  543  3018  5978  8600  9734  8709  5959  2474  -741  -2827  -3548  -3370  -2839  -2326  -2013  -1829  -1626  -1364  -1077  -806  -587  -456  -417  -404  -319  -123  107  251  285  282  302  344  385  411  434  510  674  875  1011  1048  1042  1090  1257  1510  1736  1871  1941  2016  2142  2292  2398  2429  2385  2261  2077  1847  1541  1198  942  825  787  746  644  466  247  39  -128  -257  -364  -472  -590  -712  -818  -892  -936  -970  -1005  -1028  -1016  -959  -879  -808  -738  -657  -613  -659  -774  -909  -1033  -1106  -1070  -874  -562  -281  -142  -131  -180  -239  -286  -316  -324  -314  -313  -347  -430  -577  -758  -901  -954  -913  -800  -653  -522  -439  -388  -334  -282  -258  -258  -261  -251  -227  -211  -228  -279  -350  -417  -443  -412  -363  -357  -427  -555  -680  -756  -785  -782  -758  -733  -747  -827  -958  -1109  -1276  -1488  -1787  -2059  -1948  -1114  624  3242  6227  8611  9448  8254  5309  1641  -1478  -3174  -3419  -2921  -2404  -2131  -2032  -1965  -1843  -1590  -1134  -599  -268  -242  -373  -502  -574  -593  -565  -456  -242  22  251  420  547  602  562  505  519  578  616  634  698  846  1036  1275  1624  2011  2274  2349  2293  2211  2170  2151  2118  2072  2045  2038  1985  1782  1392  928  559  345  230  135  0  -171  -326  -467  -632  -799  -904  -934  -929  -920  -914  -912  -927  -979  -1055  -1112  -1117  -1067  -970  -837  -686  -541  -430  -364  -327  -300  -291  -362  -567  -824  -961  -922  -804  -707  -654  -623  -594  -566  -540  -515  -496  -493  -524  -584  -638  -666  -666  -643  -615  -606  -616  -639  -665  -687  -671  -556  -327  -93  -5  -92  -291  -554  -827  -1020  -1095  -1086  -1043  -990  -938  -879  -815  -808  -914  -1091  -1234  -1266  -1264  -1436  -1785  -1871  -1147  601  3223  6244  8777  9790  8742  5892  2157  -1244  -3330  -3817  -3154  -2110  -1294  -938  -918  -995  -1024  -971  -854  -683  -444  -161  86  260  386  478  513  486  421  344  253  158  99  112  189  300  435  646  986  1379  1657  1758  1775  1821  1920  2027  2095  2114  2109  2100  2080  2027  1941  1859  1821  1822  1771  1529  1074  570  206  23  -69  -195  -402  -627  -785  -879  -958  -1036  -1108  -1164  -1161  -1081  -984  -937  -956  -1015  -1041  -982  -888  -819  -763  -706  -680  -721  -813  -911  -989  -1047  -1088  -1108  -1097  -1037  -946  -876  -853  -860  -872  -881  -887  -884  -868  -843  -823  -814  -818  -836  -869  -902  -896  -819  -675  -495  -319  -201  -170  -224  -347  -496  -621  -706  -763  -788  -780  -753  -719  -678  -646  -643  -690  -789  -906  -993  -1024  -1007  -955  -876  -787  -769  -971  -1459  -2012  -2186  -1504  321  3114  6233  8738  9664  8548  5712  2065  -1235  -3219  -3609  -3032  -2364  -1967  -1760  -1586  -1339  -1058  -865  -799  -805  -832  -866  -889  -836  -637  -320  -21  144  185  176  156  107  1  -124  -161  4  380  804  1082  1185  1226  1290  1369  1446  1563  1781  2071  2306  2407  2410  2351  2174  1796  1295  892  694  634  622  613  575  482  323  131  -40  -209  -452  -754  -990  -1106  -1152  -1172  -1183  -1204  -1238  -1251  -1182  -989  -720  -492  -386  -380  -404  -416  -418  -451  -550  -672  -698  -555  -330  -201  -248  -381  -459  -429  -352  -305  -315  -368  -430  -482  -524  -554  -558  -515  -414  -287  -187  -135  -126  -147  -174  -186  -178  -153  -121  -95  -93  -133  -202  -275  -315  -257  -71  167  333  340  219  66  -93  -293  -505  -647  -696  -696  -692  -694  -695  -699  -720  -762  -808  -840  -857  -852  -785  -658  -612  -785  -1081  -1093  -263  1793  4858  7951  9807  9619  7443  4102  694  -1946  -3488  -3989  -3672  -2828  -1865  -1185  -888  -806  -779  -780  -824  -866  -827  -669  -406  -122  71  141  141  124  113  116  140  177  213  265  369  508  626  711  802  924  1075  1246  1425  1582  1689  1745  1766  1785  1847  1957  2034  1977  1807  1660  1611  1611  1548  1342  1008  632  284  -12  -235  -360  -416  -464  -523  -588  -666  -744  -802  -838  -863  -885  -891  -874  -861  -856  -834  -803  -792  -809  -832  -818  -759  -693  -647  -623  -614  -615  -619  -621  -620  -616  -614  -613  -603  -568  -506  -450  -460  -558  -683  -753  -743  -683  -634  -643  -714  -823  -937  -1017  -1024  -935  -763  -564  -399  -304  -300  -376  -486  -593  -681  -741  -759  -702  -543  -334  -182  -131  -141  -172  -218  -280  -331  -341  -328  -380  -564  -822  -1023  -1104  -1091  -1035  -972  -929  -914  -912  -901  -875  -852  -827  -768  -726  -863  -1277  -1803  -1992  -1325  476  3219  6317  8924  10073  9161  6408  2718  -807  -3247  -4197  -3954  -3124  -2187  -1475  -1122  -1032  -1032  -1010  -948  -864  -755  -622  -498  -400  -321  -262  -225  -197  -146  -39  118  282  414  495  536  574  637  729  842  960  1069  1169  1288  1440  1589  1721  1860  1979  2026  2002  1945  1894  1863  1832  1782  1690  1549  1380  1203  989  729  490  337  258  193  104  -25  -210  -428  -614  -728  -789  -868  -1030  -1250  -1412  -1414  -1229  -924  -637  -472  -440  -487  -555  -614  -654  -674  -677  -659  -609  -539  -480  -449  -442  -452  -473  -496  -510  -514  -520  -540  -573  -600  -609  -608  -619  -654  -707  -773  -851  -931  -1000  -1055  -1086  -1084  -1037  -930  -765  -581  -441  -386  -402  -474  -596  -699  -699  -608  -500  -433  -414  -409  -390  -342  -276  -224  -204  -206  -221  -258  -360  -574  -844  -1043  -1116  -1096  -998  -827  -643  -530  -521  -582  -685  -860  -1118  -1338  -1393  -1342  -1329  -1325  -1048  -55  1989  4881  7710  9320  8990  6792  3538  369  -1837  -2830  -2895  -2589  -2367  -2243  -1989  -1613  -1302  -1119  -999  -899  -826  -758  -633  -420  -166  34  120  100  36  0  26  102  208  340  493  655  813  945  1041  1133  1249  1374  1504  1664  1834  1951  1994  1997  1988  1977  1963  1947  1932  1924  1915  1874  1761  1558  1302  1073  920  837  770  637  372  24  -280  -473  -590  -697  -809  -891  -921  -910  -870  -805  -729  -667  -642  -637  -629  -628  -645  -675  -717  -761  -797  -825  -845  -843  -798  -699  -570  -453  -387  -405  -523  -705  -884  -1005  -1056  -1063  -1052  -1032  -996  -945  -893  -859  -848  -846  -849  -867  -901  -907  -833  -700  -585  -520  -473  -403  -301  -190  -114  -107  -198  -399  -653  -842  -912  -895  -829  -739  -661  -621  -615  -629  -656  -688  -708  -707  -688  -664  -646  -633  -613  -596  -649  -866  -1252  -1653  -1752  -1135  544  3257  6325  8579  9036  7508  4628  1376  -1270  -2682  -2967  -2713  -2403  -2229  -2119  -1903  -1568  -1243  -1004  -859  -786  -736  -655  -551  -481  -466  -479  -487  -463  -379  -208  42  290  400  335  228  260  502  867  1185  1369  1451  1491  1524  1560  1589  1599  1596  1612  1705  1912  2174  2362  2391  2261  2020  1734  1444  1158  887  673  515  357  195  53  -103  -306  -500  -614  -649  -650  -657  -713  -861  -1069  -1243  -1325  -1311  -1208  -1025  -810  -669  -654  -701  -731  -735  -736  -745  -756  -751  -692  -546  -354  -217  -210  -335  -525  -685  -770  -802  -809  -792  -743  -658  -561  -490  -457  -446  -439  -436  -447  -470  -483  -462  -391  -289  -209  -178  -177  -182  -199  -242  -301  -346  -356  -340  -330  -392  -577  -835  -1020  -1022  -843  -592  -412  -365  -413  -499  -595  -685  -754  -806  -878  -951  -975  -1042  -1288  -1646  -1827  -1326  369  3253  6578  9175  9928  8381  5116  1365  -1672  -3279  -3487  -2917  -2229  -1791  -1588  -1422  -1233  -1077  -930  -742  -537  -393  -347  -355  -352  -289  -166  -40  26  32  35  100  247  413  525  594  708  922  1191  1417  1547  1628  1736  1879  2006  2098  2176  2233  2249  2243  2231  2176  2026  1811  1623  1521  1500  1522  1521  1393  1059  594  192  -55  -212  -352  -478  -559  -590  -614  -670  -772  -900  -1008  -1059  -1054  -1013  -962  -925  -913  -921  -945  -977  -1000  -990  -929  -828  -725  -663  -665  -708  -747  -761  -763  -762  -753  -717  -671  -678  -765  -851  -866  -852  -892  -1006  -1133  -1212  -1242  -1260  -1272  -1230  -1066  -787  -502  -320  -270  -312  -379  -426  -432  -385  -307  -243  -214  -213  -242  -311  -397  -461  -513  -598  -711  -799  -846  -877  -908  -937  -970  -1002  -1041  -1109  -1194  -1243  -1229  -1173  -1102  -1059  -1134  -1380  -1667  -1572  -554  1568  4398  7127  8827  8858  7219  4514  1512  -1119  -2933  -3816  -3840  -3204  -2363  -1734  -1340  -1051  -848  -737  -669  -603  -532  -465  -396  -307  -187  -44  96  208  292  360  411  444  464  475  489  513  543  585  702  954  1294  1596  1789  1902  1984  2054  2116  2163  2179  2178  2176  2155  2102  2032  1929  1738  1468  1215  1048  935  837  747  609  338  -36  -364  -529  -560  -575  -657  -791  -906  -966  -979  -964  -946  -927  -886  -806  -697  -589  -517  -492  -508  -560  -647  -737  -782  -775  -767  -767  -738  -688  -661  -668  -684  -673  -630  -590  -588  -623  -661  -673  -656  -627  -598  -557  -489  -434  -478  -656  -876  -993  -975  -890  -787  -690  -627  -605  -595  -567  -523  -468  -387  -270  -141  -20  93  166  133  -7  -181  -313  -377  -396  -416  -458  -513  -556  -585  -610  -633  -645  -639  -614  -575  -539  -535  -604  -750  -906  -1081  -1382  -1651  -1383  -118  2258  5344  8167  9601  9045  6701  3370  70  -2363  -3584  -3725  -3165  -2354  -1686  -1332  -1218  -1181  -1119  -1031  -935  -796  -585  -330  -89  79  150  141  93  44  13  20  116  322  555  712  779  811  858  941  1047  1149  1265  1451  1697  1916  2040  2076  2065  2041  2021  1990  1921  1826  1745  1695  1654  1596  1513  1399  1195  833  359  -51  -265  -315  -315  -334  -387  -488  -624  -734  -781  -781  -783  -823  -905  -1007  -1098  -1153  -1171  -1156  -1108  -1030  -955  -910  -895  -896  -903  -909  -899  -863  -811  -747  -666  -586  -528  -485  -453  -431  -420  -422  -444  -494  -587  -715  -833  -925  -1014  -1089  -1108  -1052  -915  -739  -604  -558  -609  -754  -942  -1076  -1120  -1111  -1093  -1078  -1058  -1031  -1006  -1001  -1021  -1044  -1033  -965  -853  -714  -581  -507  -512  -555  -581  -532  -382  -185  -58  -88  -289  -584  -845  -1002  -1069  -1079  -1062  -1044  -1045  -1067  -1079  -995  -742  -392  -116  30  124  146  -99  -709  -1461  -1987  -1935  -959  1044  3745  6590  8848  9608  8333  5425  1953  -1090  -3066  -3756  -3527  -2977  -2429  -2006  -1724  -1458  -1119  -778  -552  -466  -433  -361  -230  -82  30  86  102  117  151  183  198  207  235  282  338  407  521  716  974  1214  1394  1531  1646  1749  1847  1935  1997  2023  2023  2026  2059  2114  2120  2013  1809  1578  1368  1198  1062  931  773  587  386  183  3  -114  -170  -223  -353  -572  -799  -949  -1007  -993  -927  -851  -803  -808  -884  -1011  -1124  -1184  -1182  -1105  -942  -738  -578  -505  -499  -538  -613  -692  -726  -706  -680  -672  -646  -597  -581  -617  -661  -678  -672  -659  -652  -666  -716  -795  -874  -925  -939  -915  -873  -840  -824  -820  -824  -834  -834  -800  -719  -604  -497  -437  -431  -444  -451  -446  -435  -409  -352  -271  -209  -202  -249  -298  -303  -280  -257  -247  -258  -288  -347  -439  -542  -621  -663  -661  -621  -574  -549  -543  -544  -560  -606  -659  -675  -769  -1133  -1641  -1761  -902  1161  4090  7116  9262  9648  8010  4918  1354  -1659  -3302  -3487  -2889  -2199  -1710  -1419  -1202  -1004  -851  -740  -619  -473  -338  -257  -212  -137  -3  159  301  386  432  489  567  628  654  664  678  704  743  802  909  1089  1326  1546  1701  1817  1947  2119  2310  2460  2541  2556  2504  2380  2196  1995  1817  1648  1452  1227  1016  834  633  353  32  -203  -313  -370  -435  -512  -586  -649  -712  -797  -888  -949  -1000  -1093  -1221  -1312  -1293  -1156  -975  -837  -763  -734  -733  -731  -689  -584  -449  -341  -284  -266  -277  -315  -370  -422  -461  -493  -531  -599  -698  -809  -931  -1055  -1110  -1035  -870  -705  -573  -454  -352  -316  -378  -499  -603  -656  -679  -696  -689  -611  -437  -211  -32  20  -75  -259  -420  -512  -572  -616  -636  -641  -653  -692  -779  -906  -1036  -1108  -1100  -1053  -1018  -1008  -1025  -1093  -1241  -1455  -1592  -1433  -809  507  2665  5305  7617  8639  7706  5041  1623  -1433  -3289  -3787  -3491  -3005  -2515  -2040  -1652  -1387  -1192  -992  -774  -582  -448  -361  -312  -300  -333  -422  -530  -561  -446  -233  -34  124  317  546  718  799  873  1022  1221  1373  1438  1456  1483  1548  1663  1844  2091  2339  2487  2464  2268  1988  1753  1625  1577  1565  1543  1426  1142  763  466  306  184  18  -176  -349  -481  -581  -656  -700  -712  -717  -767  -892  -1042  -1112  -1046  -910  -802  -747  -707  -661  -617  -587  -589  -642  -728  -781  -757  -671  -579  -522  -488  -458  -442  -468  -558  -696  -814  -860  -852  -834  -825  -825  -828  -833  -836  -823  -780  -712  -643  -585  -538  -498  -475  -484  -536  -621  -706  -756  -735  -636  -523  -479  -516  -605  -730  -868  -970  -1013  -1018  -1018  -1014  -972  -884  -839  -908  -998  -1053  -1211  -1460  -1421  -596  1282  3984  6741  8530  8592  6835  3858  651  -1864  -3229  -3555  -3276  -2756  -2221  -1844  -1661  -1528  -1288  -967  -729  -643  -635  -617  -550  -415  -192  90  323  425  432  424  437  475  529  609  739  895  1004  1037  1030  1029  1066  1173  1385  1719  2138  2510  2678  2611  2427  2270  2188  2133  2039  1863  1631  1414  1262  1176  1122  1039  872  645  438  257  17  -313  -667  -948  -1099  -1133  -1114  -1100  -1112  -1153  -1204  -1231  -1213  -1149  -1047  -900  -713  -538  -436  -423  -488  -614  -763  -886  -959  -989  -978  -918  -809  -675  -562  -499  -484  -495  -522  -580  -678  -786  -855  -862  -812  -725  -627  -545  -498  -487  -494  -508  -535  -580  -633  -672  -686  -686  -684  -683  -677  -661  -652  -684  -762  -839  -872  -876  -904  -977  -1062  -1110  -1102  -1060  -1061  -1133  -1256  -1496  -1770  -1519  -152  2335  5364  7971  9135  8364  5983  2828  -242  -2560  -3734  -3809  -3224  -2477  -1834  -1349  -1024  -857  -795  -750  -678  -598  -542  -512  -466  -354  -191  -61  -22  -54  -92  -101  -78  15  249  579  851  978  1016  1038  1059  1108  1248  1514  1869  2207  2412  2454  2398  2316  2250  2195  2118  2019  1929  1854  1750  1560  1276  929  560  248  64  -4  -28  -63  -146  -293  -463  -584  -654  -721  -804  -884  -941  -982  -1036  -1107  -1154  -1132  -1043  -929  -842  -798  -771  -733  -684  -643  -624  -627  -632  -617  -563  -495  -484  -587  -770  -935  -1009  -991  -899  -742  -555  -416  -356  -345  -362  -425  -559  -730  -856  -877  -760  -491  -167  31  41  -42  -128  -206  -276  -312  -293  -232  -190  -226  -352  -520  -636  -660  -637  -627  -640  -656  -673  -705  -747  -754  -667  -508  -474  -768  -1310  -1712  -1478  -240  2033  4984  7835  9503  9208  7001  3616  129  -2432  -3619  -3650  -3035  -2315  -1809  -1485  -1257  -1104  -961  -757  -534  -390  -351  -358  -359  -338  -304  -265  -207  -100  52  193  262  276  311  401  513  608  697  831  1038  1313  1616  1882  2069  2189  2264  2309  2335  2355  2377  2392  2386  2347  2281  2178  2011  1791  1575  1366  1084  698  291  -29  -238  -352  -397  -423  -470  -547  -640  -737  -817  -861  -872  -867  -860  -855  -859  -885  -941  -1024  -1110  -1158  -1134  -1043  -965  -999  -1124  -1204  -1149  -1007  -865  -740  -615  -501  -420  -382  -405  -508  -663  -794  -868  -917  -972  -1027  -1070  -1089  -1083  -1044  -955  -824  -706  -660  -711  -841  -986  -1077  -1102  -1100  -1096  -1072  -1004  -907  -817  -741  -680  -662  -711  -809  -907  -969  -967  -888  -764  -659  -601  -573  -565  -578  -599  -606  -586  -541  -492  -473  -544  -760  -1065  -1287  -1302  -1120  -861  -666  -576  -541  -517  -504  -546  -672  -873  -1174  -1525  -1524  -524  1766  4904  7891  9582  9183  6822  3516  383  -1893  -3037  -3179  -2768  -2216  -1716  -1353  -1137  -999  -879  -780  -700  -603  -457  -292  -182  -149  -152  -128  -35  125  297  415  463  484  521  597  725  907  1118  1291  1381  1436  1578  1860  2178  2389  2458  2457  2468  2536  2639  2715  2724  2671  2596  2534  2489  2434  2313  2051  1639  1201  882  697  590  529  460  317  105  -119  -348  -573  -730  -788  -792  -793  -804  -817  -820  -802  -750  -667  -577  -512  -496  -516  -544  -562  -569  -569  -580  -614  -664  -708  -737  -758  -768  -735  -633  -491  -378  -324  -318  -382  -552  -779  -943  -997  -990  -976  -974  -975  -950  -871  -758  -662  -608  -576  -535  -492  -476  -505  -577  -672  -744  -769  -766  -763  -776  -802  -825  -831  -822  -808  -794  -778  -760  -743  -737  -769  -860  -980  -1065  -1091  -1086  -1081  -1090  -1110  -1138  -1173  -1216  -1259  -1277  -1206  -987  -680  -440  -345  -370  -488  -678  -869  -988  -1022  -1020  -1033  -1062  -1080  -1087  -1097  -1109  -1112  -1096  -1048  -960  -852  -796  -839  -925  -1001  -1089  -1204  -1300  -1315  -1249  -1185  -1186  -1096  -471  1141  3718  6582  8772  9449  8180  5357  2045  -815  -2673  -3359  -3192  -2676  -2150  -1723  -1339  -960  -651  -454  -344  -287  -268  -264  -232  -136  -1  131  274  445  606  722  805  870  910  917  902  890  931  1071  1277  1455  1564  1641  1716  1804  1972  2305  2745  3082  3170  3082  2971  2875  2743  2571  2408  2264  2106  1901  1649  1391  1190  1073  1011  944  826  668  529  441  375  280  142  -8  -136  -233  -316  -393  -443  -459  -456  -450  -444  -441  -451  -480  -513  -518  -492  -447  -374  -259  -134  -83  -140  -235  -266  -223  -193  -213  -200  -107  -2  43  36  8  -45  -149  -272  -336  -320  -295  -324  -379  -391  -362  -364  -431  -487  -469  -417  -392  -393  -399  -405  -412  -411  -398  -398  -449  -533  -603  -643  -669  -699  -730  -752  -772  -797  -825  -841  -834  -818  -805  -787  -784  -819  -868  -898  -905  -897  -890  -892  -894  -887  -876  -868  -845  -776  -660  -549  -504  -538  -608  -650  -638  -592  -549  -532  -531  -527  -515  -507  -513  -534  -570  -617  -674  -727  -764  -791  -813  -843  -906  -995  -1071  -1104  -1101  -1079  -1028  -933  -843  -913  -1274  -1717  -1627  -435  1965  5108  8001  9534  9119  6984  3952  956  -1369  -2776  -3320  -3236  -2812  -2317  -1876  -1453  -1055  -804  -741  -769  -797  -796  -753  -636  -428  -187  -5  79  98  87  68  60  105  239  433  600  692  739  798  918  1104  1306  1472  1602  1741  1910  2100  2289  2437  2489  2432  2315  2203  2115  2052  2010  1963  1927  1953  1976  1796  1290  613  115  5  163  325  301  42  -331  -632  -806  -927  -1028  -1101  -1137  -1098  -989  -887  -842  -837  -837  -817  -770  -704  -644  -615  -610  -606  -600  -596  -588  -560  -512  -466  -444  -441  -442  -444  -475  -562  -683  -773  -802  -795  -780  -758  -726  -703  -719  -753  -759  -743  -744  -765  -758  -674  -560  -525  -586  -673  -744  -789  -810  -824  -838  -854  -880  -912  -930  -892  -760  -553  -351  -212  -142  -98  -48  -35  -133  -316  -461  -498  -463  -432  -458  -550  -668  -753  -784  -791  -789  -757  -667  -524  -376  -292  -315  -450  -637  -780  -839  -818  -707  -560  -590  -949  -1498  -1878  -1622  -373  1857  4698  7410  8961  8661  6619  3499  237  -2201  -3375  -3556  -3243  -2730  -2183  -1751  -1470  -1271  -1110  -974  -851  -712  -536  -352  -217  -152  -133  -132  -122  -72  24  149  294  476  668  802  857  869  863  845  841  919  1143  1481  1801  2005  2113  2193  2282  2369  2425  2446  2446  2427  2376  2286  2142  1905  1588  1296  1118  986  772  473  200  5  -139  -269  -406  -549  -662  -724  -749  -769  -813  -895  -1007  -1109  -1161  -1168  -1169  -1189  -1224  -1241  -1219  -1187  -1171  -1155  -1109  -1030  -940  -848  -759  -713  -719  -712  -646  -533  -427  -410  -491  -587  -651  -724  -855  -1020  -1150  -1206  -1203  -1178  -1159  -1136  -1072  -955  -828  -721  -619  -527  -475  -473  -532  -636  -723  -756  -752  -741  -733  -712  -652  -546  -412  -270  -149  -68  -39  -108  -331  -636  -853  -881  -746  -554  -415  -362  -367  -416  -494  -557  -573  -551  -533  -577  -702  -862  -993  -1074  -1156  -1317  -1541  -1676  -1440  -506  1317  3921  6808  9095  9843  8624  5829  2397  -724  -2828  -3597  -3333  -2644  -1961  -1504  -1315  -1230  -1036  -688  -308  -25  120  166  167  163  172  206  269  354  435  495  545  600  667  752  843  925  1013  1134  1298  1500  1709  1884  2031  2178  2327  2478  2666  2904  3148  3340  3446  3435  3269  2948  2569  2260  2072  1960  1863  1728  1494  1149  797  553  394  211  -22  -237  -377  -461  -525  -577  -601  -588  -531  -432  -322  -251  -245  -298  -385  -461  -501  -513  -514  -501  -449  -351  -244  -174  -147  -136  -127  -123  -137  -182  -253  -289  -242  -145  -68  -70  -194  -410  -621  -759  -799  -742  -634  -529  -454  -424  -440  -471  -490  -497  -504  -514  -519  -513  -498  -481  -466  -458  -454  -433  -366  -265  -197  -208  -258  -284  -291  -323  -400  -478  -506  -499  -497  -507  -509  -486  -423  -318  -198  -119  -128  -249  -446  -622  -694  -671  -622  -585  -580  -692  -995  -1382  -1616  -1402  -308  1943  5052  8240  10485  10811  8926  5530  1799  -1254  -3068  -3587  -3196  -2440  -1707  -1169  -846  -660  -511  -370  -265  -194  -122  -44  23  83  129  154  176  211  261  325  397  458  497  568  763  1076  1366  1523  1592  1666  1770  1909  2098  2282  2396  2476  2593  2750  2892  3001  3102  3180  3180  3061  2841  2600  2402  2243  2069  1833  1554  1254  863  345  -205  -649  -899  -973  -966  -948  -944  -949  -948  -919  -857  -799  -771  -754  -740  -741  -747  -741  -725  -709  -698  -692  -684  -656  -603  -543  -504  -495  -512  -540  -571  -599  -625  -645  -651  -641  -624  -614  -624  -659  -712  -734  -687  -620  -627  -746  -921  -1033  -1004  -838  -625  -473  -414  -415  -455  -523  -595  -640  -653  -649  -637  -624  -634  -703  -833  -971  -1054  -1051  -987  -936  -948  -990  -1016  -1023  -1026  -1038  -1070  -1140  -1236  -1308  -1336  -1362  -1435  -1548  -1654  -1761  -1910  -2073  -2174  -2202  -2171  -1887  -865  1221  3939  6272  7488  7394  5892  3112  -114  -2617  -3804  -3987  -3810  -3618  -3427  -3198  -2952  -2687  -2352  -2001  -1789  -1759  -1785  -1736  -1611  -1506  -1467  -1465  -1463  -1453  -1437  -1409  -1367]
