reading_id,reading_time,wire_id,result_classification,heart_rate,heart_rate_alert,firmware_version,device_app_version,hardware_version,waveform_samples
b42bc530-5a59-11ed-8080-808080808080,Wed Nov 02 02:54:43 UTC 2022,a101e3f91939,NSR,76,NONE,20001.171.50,2.10.0,Charge 5,[0  -168  -268  -301  -306  -303  -260  -110  186  542  783  830  754  657  582  524  462  409  401  450  554  702  836  893  879  797  595  281  -12  -168  -193  -145  -65  10  56  59  10  -59  -90  -82  -69  -57  -42  -27  -16  -11  -11  -12  -3  22  52  69  86  160  333  553  709  744  686  584  458  240  -156  -620  -855  -709  -355  -74  31  41  30  4  -54  -151  -274  -476  -881  -1427  -1745  -1609  -1210  -801  -403  181  1320  3141  5142  6451  6410  5014  2924  983  -292  -913  -1304  -1759  -2049  -1887  -1417  -941  -564  -232  106  423  664  807  870  882  869  854  847  844  842  840  846  859  876  886  890  890  895  911  976  1145  1408  1673  1854  1939  1962  1965  1972  1976  1973  1989  2051  2138  2203  2226  2229  2238  2253  2242  2145  1921  1624  1360  1158  963  749  567  446  320  102  -185  -439  -603  -681  -691  -648  -593  -606  -788  -1143  -1521  -1759  -1845  -1836  -1696  -1353  -925  -721  -919  -1361  -1749  -1945  -1972  -1822  -1472  -1037  -740  -683  -805  -977  -1093  -1116  -1072  -1006  -957  -948  -1004  -1134  -1296  -1418  -1467  -1447  -1364  -1237  -1106  -991  -897  -860  -887  -898  -845  -775  -733  -715  -727  -813  -1002  -1238  -1415  -1483  -1461  -1357  -1166  -931  -744  -651  -622  -598  -533  -434  -369  -415  -576  -768  -894  -939  -937  -882  -750  -581  -458  -418  -425  -432  -424  -408  -386  -358  -320  -259  -181  -102  -36  23  107  239  405  555  631  584  395  71  -310  -605  -725  -676  -496  -268  -106  -61  -105  -180  -211  -176  -186  -351  -654  -977  -1059  -539  852  3108  5794  8066  8909  7641  4573  989  -1817  -3247  -3356  -2658  -1837  -1268  -939  -743  -589  -375  -76  228  435  517  533  550  583  592  544  451  339  209  81  30  107  311  580  789  890  963  1054  1135  1195  1241  1292  1361  1442  1539  1640  1695  1666  1581  1527  1557  1613  1642  1715  1875  2025  2087  2083  2049  1986  1893  1797  1706  1555  1269  908  627  472  356  218  42  -213  -530  -785  -895  -902  -886  -883  -878  -832  -708  -504  -288  -183  -249  -418  -578  -667  -685  -658  -624  -609  -600  -581  -575  -595  -601  -547  -452  -388  -406  -514  -693  -891  -1037  -1096  -1076  -994  -879  -761  -662  -601  -583  -619  -723  -866  -990  -1065  -1089  -1058  -973  -844  -705  -621  -619  -654  -680  -700  -752  -866  -1027  -1180  -1269  -1267  -1182  -1061  -955  -898  -885  -878  -846  -794  -750  -726  -722  -762  -871  -1020  -1127  -1153  -1119  -1065  -999  -881  -667  -400  -181  -70  -57  -112  -187  -223  -205  -163  -121  -76  -37  -33  -85  -193  -356  -561  -740  -804  -741  -614  -489  -397  -347  -380  -583  -908  -1067  -906  -534  49  955  2257  4002  5875  7129  7038  5408  2775  0  -2196  -3371  -3534  -3042  -2262  -1460  -848  -507  -336  -213  -111  -44  -5  20  40  64  107  201  374  577  714  748  719  676  646  631  629  661  746  859  936  963  994  1095  1289  1553  1828  2035  2124  2123  2093  2074  2071  2077  2085  2080  2050  2000  1952  1918  1888  1847  1788  1699  1583  1457  1310  1101  828  567  392  284  141  -118  -440  -673  -777  -845  -928  -994  -1018  -1019  -1019  -1028  -1045  -1057  -1014  -872  -666  -515  -496  -568  -645  -688  -702  -705  -692  -648  -567  -466  -389  -388  -481  -641  -809  -927  -975  -971  -911  -772  -577  -411  -329  -330  -399  -544  -777  -1039  -1218  -1269  -1246  -1211  -1192  -1190  -1194  -1186  -1138  -1027  -856  -668  -533  -475  -464  -479  -507  -535  -582  -684  -835  -978  -1064  -1080  -1045  -978  -894  -835  -831  -859  -865  -802  -660  -492  -390  -422  -604  -857  -1042  -1082  -991  -811  -590  -390  -274  -250  -276  -319  -354  -367  -356  -326  -279  -212  -159  -198  -328  -473  -628  -850  -1100  -1257  -1247  -1098  -906  -765  -663  -524  -377  -343  -434  -522  -509  -466  -524  -511  -53  974  2541  4503  6329  7299  6931  5106  2164  -954  -3147  -3905  -3397  -2172  -992  -353  -141  -61  6  78  139  175  191  199  210  231  248  252  269  344  502  695  833  879  870  851  838  826  805  783  803  902  1044  1163  1249  1338  1445  1566  1703  1854  1990  2062  2069  2051  2042  2043  2035  1995  1932  1899  1910  1900  1826  1732  1661  1600  1512  1357  1107  807  547  353  199  81  -5  -103  -229  -364  -510  -691  -882  -1009  -1028  -956  -844  -740  -659  -600  -578  -591  -603  -597  -602  -644  -705  -744  -748  -745  -763  -804  -852  -881  -889  -882  -851  -774  -668  -585  -548  -556  -625  -767  -923  -1005  -1003  -959  -903  -862  -868  -939  -1044  -1133  -1169  -1126  -975  -748  -553  -473  -507  -611  -745  -878  -975  -1016  -1010  -976  -892  -715  -476  -278  -193  -227  -358  -529  -651  -683  -637  -536  -392  -241  -141  -131  -210  -349  -473  -532  -567  -623  -724  -895  -1096  -1238  -1291  -1276  -1180  -961  -667  -425  -287  -195  -118  -162  -552  -1270  -1758  -1402  -19  2238  4814  6670  6953  5639  3311  661  -1604  -2932  -3296  -3072  -2602  -2098  -1679  -1318  -932  -562  -335  -286  -340  -412  -461  -479  -473  -427  -329  -201  -82  21  129  253  375  453  472  460  449  453  477  536  634  746  846  970  1182  1451  1657  1739  1753  1778  1837  1905  1946  1957  1954  1949  1938  1892  1779  1626  1506  1439  1366  1236  1047  816  566  336  169  72  -7  -155  -397  -661  -854  -971  -1055  -1109  -1107  -1034  -908  -795  -747  -774  -873  -1016  -1138  -1160  -1039  -828  -621  -460  -342  -269  -240  -243  -262  -283  -309  -341  -370  -386  -375  -357  -351  -337  -330  -378  -462  -525  -551  -558  -565  -574  -578  -583  -599  -612  -579  -464  -307  -206  -224  -314  -349  -260  -125  -43  -21  -17  -19  -80  -259  -501  -638  -571  -377  -201  -116  -104  -120  -112  -47  55  147  206  243  246  189  77  -78  -282  -504  -670  -763  -817  -856  -883  -899  -900  -864  -764  -620  -482  -414  -575  -963  -1209  -911  87  1638  3307  4655  5352  5159  4110  2513  688  -1054  -2352  -2970  -2890  -2290  -1542  -993  -703  -542  -416  -310  -206  -75  71  174  212  213  203  188  167  155  180  261  377  475  527  560  619  697  758  807  888  1015  1152  1260  1320  1327  1295  1266  1320  1524  1827  2057  2109  2057  2044  2106  2157  2125  2031  1943  1892  1852  1801  1725  1588  1370  1091  794  536  375  308  289  278  208  19  -257  -520  -699  -787  -792  -740  -708  -741  -772  -709  -560  -403  -266  -129  -5  59  42  -50  -209  -393  -532  -585  -571  -533  -483  -423  -391  -424  -494  -559  -601  -615  -604  -588  -588  -619  -670  -716  -745  -753  -736  -708  -688  -677  -671  -657  -651  -688  -719  -682  -630  -603  -552  -465  -372  -290  -230  -191  -172  -217  -408  -753  -1121  -1368  -1446  -1380  -1233  -1066  -877  -643  -395  -194  -78  -39  -36  -36  -25  -12  -3  8  35  58  38  -52  -186  -305  -383  -432  -464  -480  -484  -463  -402  -314  -234  -186  -198  -354  -671  -965  -1071  -1105  -1172  -1063  -415  1008  3098  5333  6951  7275  6037  3623  982  -1060  -2243  -2621  -2445  -2125  -1917  -1765  -1505  -1139  -801  -560  -362  -141  71  200  238  226  191  150  136  187  293  383  416  426  449  507  626  777  881  915  913  905  895  885  884  918  1043  1301  1639  1924  2070  2102  2096  2098  2117  2129  2104  2044  1983  1953  1935  1848  1638  1374  1202  1176  1217  1177  907  408  -95  -384  -452  -430  -406  -393  -390  -421  -555  -850  -1239  -1549  -1675  -1636  -1481  -1287  -1147  -1097  -1097  -1079  -1004  -896  -814  -785  -791  -808  -830  -860  -899  -938  -956  -945  -923  -920  -946  -985  -1020  -1038  -1030  -1003  -949  -841  -698  -596  -602  -733  -936  -1116  -1213  -1232  -1205  -1180  -1176  -1152  -1034  -809  -572  -436  -440  -545  -674  -775  -882  -1030  -1159  -1207  -1164  -1055  -934  -857  -911  -1125  -1295  -1216  -995  -841  -785  -739  -621  -436  -253  -124  -54  -33  -68  -167  -296  -388  -417  -409  -398  -405  -439  -489  -533  -554  -531  -433  -262  -79  46  94  82  44  17  22  41  47  40  31  25  17  17  52  137  217  204  100  0  -34  -14  35  110  222  396  636  881  1035  1056  976  847  712  572  424  301  235  199  151  104  109  165  208  198  159  136  136  172  311  523  505  15  -710  -1163  -924  235  2183  4399  6269  7256  6995  5528  3330  1002  -923  -2034  -2239  -1894  -1500  -1223  -993  -829  -722  -588  -431  -316  -253  -186  -40  184  418  569  569  427  221  32  -75  -73  24  195  383  514  551  507  400  280  201  168  174  244  409  687  1040  1354  1542  1610  1616  1603  1586  1562  1524  1472  1424  1407  1422  1422  1357  1226  1071  919  706  350  -72  -378  -501  -518  -507  -486  -457  -458  -554  -777  -1065  -1302  -1428  -1469  -1485  -1527  -1594  -1650  -1678  -1683  -1663  -1595  -1475  -1321  -1143  -962  -832  -777  -764  -761  -757  -752  -743  -732  -729  -755  -823  -907  -943  -891  -758  -590  -438  -339  -277  -226  -216  -284  -390  -470  -500  -495  -484  -483  -495  -521  -546  -524  -391  -151  92  213  163  -38  -348  -657  -811  -735  -513  -285  -136  -91  -129  -195  -239  -261  -280  -297  -306  -315  -345  -400  -450  -460  -433  -388  -326  -241  -173  -197  -331  -489  -540  -388  -50  318  538  538  349  75  -142  -235  -238  -217  -203  -193  -178  -160  -161  -196  -255  -302  -318  -312  -301  -297  -305  -325  -355  -385  -405  -411  -409  -407  -409  -414  -416  -397  -338  -257  -198  -181  -185  -179  -147  -105  -79  -82  -126  -229  -379  -525  -627  -642  -512  -237  14  28  -180  -391  -455  -392  -288  -216  -195  -200  -207  -208  -202  -191  -179  -164  -154  -164  -203  -255  -289  -276  -191  -27  169  313  349  263  65  -170  -335  -387  -334  -183  16  153  134  -59  -332  -536  -594  -524  -341  -71  122  -17  -452  -780  -580  507  2559  5096  7256  8165  7323  4918  1764  -1038  -2644  -2959  -2534  -1933  -1439  -1177  -1093  -990  -782  -506  -207  3  -2  -241  -578  -822  -906  -884  -809  -687  -520  -337  -185  -96  -76  -114  -175  -215  -225  -230  -250  -261  -177  77  431  699  796  800  853  1045  1325  1540  1619  1613  1597  1601  1618  1620  1611  1636  1699  1727  1654  1511  1381  1272  1114  904  707  528  338  178  93  52  -45  -289  -633  -911  -1025  -1018  -967  -914  -865  -829  -842  -919  -1029  -1115  -1123  -1014  -787  -521  -344  -324  -436  -595  -712  -755  -727  -632  -502  -406  -380  -388  -360  -247  -81  58  132  144  108  53  17  24  64  83  48  -1  -7  36  66  28  -41  -83  -90  -91  -97  -87  -19  123  295  424  475  431  286  90  -63  -118  -91  -31  25  77  129  173  188  169  147  160  214  269  284  275  276  280  268  247  239  265  320  351  313  227  146  99  81  76  78  91  117  158  208  261  307  334  338  334  339  372  421  434  381  290  194  90  -21  -139  -248  -304  -279  -188  -66  27  25  -79  -235  -395  -523  -574  -516  -360  -162  -4  60  35  -42  -126  -179  -184  -133  -36  66  133  139  71  -65  -209  -275  -247  -197  -179  -175  -168  -182  -243  -330  -394  -417  -422  -429  -432  -405  -320  -192  -140  -266  -473  -605  -625  -333  667  2387  4377  6108  6885  6091  3980  1526  -468  -1592  -1831  -1697  -1750  -2000  -2109  -1900  -1440  -887  -392  -11  252  381  356  182  -78  -327  -498  -580  -599  -600  -601  -585  -530  -440  -330  -209  -52  177  443  629  663  576  445  358  374  510  706  866  937  952  997  1148  1378  1569  1660  1719  1831  1967  1990  1833  1602  1436  1301  1053  672  295  35  -97  -147  -176  -264  -489  -828  -1125  -1240  -1169  -1004  -850  -763  -745  -826  -1045  -1336  -1546  -1612  -1597  -1571  -1561  -1568  -1591  -1607  -1551  -1349  -1037  -766  -638  -626  -653  -676  -687  -685  -660  -609  -545  -482  -463  -537  -703  -882  -965  -911  -786  -689  -653  -646  -641  -635  -627  -613  -587  -538  -446  -322  -245  -262  -330  -417  -551  -713  -803  -760  -632  -516  -471  -473  -464  -424  -361  -257  -113  2  23  -59  -213  -379  -518  -617  -654  -623  -572  -547  -503  -394  -281  -254  -332  -462  -571  -623  -630  -596  -510  -395  -314  -318  -419  -569  -689  -741  -746  -736  -726  -707  -661  -563  -394  -197  -63  -26  -36  -28  30  119  192  229  236  184  32  -195  -409  -555  -637  -659  -629  -582  -537  -482  -436  -471  -592  -708  -763  -758  -695  -579  -468  -496  -676  -640  155  1923  4288  6407  7337  6570  4427  1818  -425  -1823  -2321  -2317  -2183  -1983  -1775  -1623  -1412  -1018  -536  -186  -63  -91  -164  -248  -329  -345  -220  24  276  445  521  519  435  261  34  -107  -41  226  601  948  1154  1211  1196  1170  1148  1112  1049  980  968  1077  1329  1658  1943  2132  2241  2256  2155  1998  1887  1866  1899  1918  1844  1617  1291  1008  836  746  703  661  542  289  -69  -417  -636  -719  -755  -810  -881  -953  -1039  -1134  -1200  -1209  -1170  -1113  -1064  -1026  -980  -888  -710  -477  -290  -192  -153  -141  -160  -206  -215  -188  -285  -542  -761  -824  -811  -812  -835  -823  -739  -600  -455  -359  -334  -361  -399  -395  -317  -220  -237  -445  -753  -988  -1089  -1122  -1117  -977  -588  -59  321  377  155  -161  -388  -466  -459  -434  -428  -465  -546  -629  -667  -657  -605  -499  -360  -256  -212  -210  -238  -310  -386  -350  -173  13  99  108  93  56  -41  -216  -373  -378  -246  -79  79  199  234  188  102  31  9  33  79  95  35  -90  -215  -267  -234  -174  -127  -71  22  130  192  192  160  129  136  212  359  525  638  666  615  507  385  305  287  306  321  275  125  -84  -247  -314  -287  -155  42  133  39  -140  -344  -385  150  1486  3480  5705  7410  7833  6756  4588  2034  -176  -1539  -2053  -2113  -1999  -1732  -1339  -865  -342  117  418  553  536  418  275  137  19  -19  60  208  320  349  358  428  556  699  861  1080  1334  1531  1601  1545  1410  1264  1168  1136  1166  1281  1489  1741  1980  2161  2219  2140  2066  2136  2315  2469  2540  2560  2574  2597  2616  2589  2446  2172  1867  1667  1596  1553  1405  1098  685  250  -143  -451  -657  -769  -798  -763  -699  -647  -621  -612  -610  -616  -629  -641  -664  -707  -731  -709  -669  -665  -732  -871  -1037  -1165  -1217  -1180  -1054  -856  -640  -479  -407  -402  -412  -397  -343  -276  -230  -213  -209  -204  -203  -239  -361  -592  -868  -1058  -1075  -925  -695  -516  -456  -489  -553  -594  -587  -550  -506  -470  -438  -397  -355  -349  -419  -581  -796  -993  -1125  -1195  -1197  -1136  -1060  -987  -879  -745  -642  -589  -577  -613  -710  -851  -985  -1064  -1090  -1100  -1112  -1115  -1076  -971  -822  -681  -576  -512  -481  -462  -433  -409  -434  -538  -683  -791  -826  -804  -742  -663  -604  -608  -712  -927  -1232  -1552  -1785  -1880  -1858  -1743  -1558  -1346  -1134  -948  -891  -1016  -1215  -1450  -1732  -1734  -936  825  3231  5645  7173  6969  4956  1997  -886  -3024  -4039  -4067  -3668  -3150  -2519  -1887  -1426  -1127  -857  -594  -479  -617  -919  -1188  -1300  -1214  -927  -552  -281  -180  -175  -199  -234  -253  -226  -155  -57  58  174  258  297  314  334  360  383  398  398  388  438  672  1148  1716  2128  2286  2279  2228  2174  2080  1893  1650  1456  1358  1321  1313  1316  1295  1198  997  715  375  -25  -483  -929  -1258  -1416  -1442  -1401  -1318  -1211  -1119  -1061  -1019  -981  -962  -975  -1001  -1006  -973  -931  -918  -928  -936  -961  -1043  -1160  -1223  -1165  -1000  -796  -624  -525  -500  -517  -533  -529  -516  -507  -504  -507  -522  -550  -564  -547  -526  -532  -565  -593  -587  -567  -579  -612  -620  -585  -529  -488  -472  -471  -476  -492  -520  -541  -524  -458  -348  -221  -111  -42  -28  -89  -243  -450  -611  -668  -623  -496  -340  -230  -171  -105  -10  67  64  -60  -276  -477  -572  -564  -520  -483  -430  -312  -151  -28  24  37  41  47  55  75  138  264  394  425  316  104  -135  -301  -351  -335  -328  -373  -460  -549  -622  -705  -837  -989  -1013  -826  -459  208  1375  3004  4828  6436  7317  7034  5536  3262  819  -1207  -2370  -2678  -2429  -1834  -1136  -655  -497  -520  -570  -576  -510  -350  -79  271  582  745  756  683  593  533  514  518  537  572  614  647  667  686  728  822  965  1118  1237  1298  1307  1307  1363  1521  1750  1954  2085  2175  2259  2363  2520  2714  2854  2860  2705  2437  2154  1921  1756  1673  1651  1610  1449  1139  785  538  427  373  298  161  -79  -441  -874  -1269  -1532  -1659  -1702  -1683  -1600  -1466  -1306  -1125  -945  -822  -780  -784  -795  -787  -747  -689  -635  -586  -536  -501  -511  -595  -754  -952  -1139  -1256  -1249  -1086  -796  -495  -296  -217  -222  -275  -348  -415  -455  -470  -479  -512  -592  -718  -845  -901  -855  -739  -611  -513  -461  -447  -452  -468  -499  -539  -568  -576  -569  -557  -557  -606  -714  -800  -756  -596  -440  -364  -388  -497  -640  -762  -829  -837  -805  -756  -693  -597  -471  -389  -411  -497  -573  -607  -604  -591  -588  -592  -589  -559  -489  -402  -361  -403  -481  -515  -470  -380  -293  -233  -207  -212  -243  -288  -333  -369  -384  -382  -387  -406  -428  -445  -441  -418  -391  -371  -356  -316  -234  -154  -130  -165  -219  -250  -258  -266  -294  -350  -464  -656  -768  -452  567  2304  4398  6171  6883  6114  4108  1596  -720  -2282  -2788  -2451  -1758  -1135  -806  -682  -570  -425  -287  -181  -118  -77  -40  -23  -58  -130  -143  -21  202  449  664  803  849  810  695  546  438  411  457  563  717  885  1016  1091  1141  1194  1243  1275  1290  1318  1425  1631  1839  1930  1869  1711  1575  1541  1573  1600  1598  1576  1527  1393  1137  844  653  596  611  644  681  686  557  198  -323  -778  -1003  -1033  -986  -953  -985  -1095  -1213  -1223  -1068  -789  -499  -318  -293  -381  -502  -584  -607  -592  -558  -499  -396  -268  -193  -216  -284  -336  -361  -373  -381  -382  -347  -250  -109  12  78  100  110  136  177  206  187  106  -26  -159  -237  -264  -271  -264  -249  -238  -231  -228  -235  -262  -316  -382  -419  -362  -162  117  323  356  218  -23  -270  -440  -510  -497  -437  -366  -312  -283  -270  -252  -209  -156  -122  -114  -160  -320  -562  -748  -795  -728  -615  -514  -453  -420  -363  -231  -69  28  53  77  131  191  233  251  242  193  93  -40  -162  -228  -243  -237  -229  -221  -210  -208  -231  -275  -305  -301  -290  -300  -318  -320  -304  -286  -248  -164  -128  -361  -951  -1539  -1413  -98  2243  4933  7050  7798  6882  4737  2190  -165  -1967  -2944  -3138  -2813  -2238  -1715  -1406  -1204  -989  -792  -672  -627  -615  -603  -593  -599  -595  -493  -219  142  373  351  166  -23  -134  -169  -165  -134  -63  58  227  439  640  749  745  685  646  684  803  973  1157  1322  1496  1750  2075  2343  2451  2382  2139  1776  1433  1220  1117  988  720  368  111  17  5  -1  5  53  116  105  -54  -363  -733  -1045  -1236  -1324  -1357  -1366  -1363  -1349  -1317  -1269  -1220  -1191  -1211  -1317  -1482  -1608  -1607  -1458  -1217  -981  -810  -713  -673  -653  -624  -590  -569  -555  -543  -538  -556  -605  -663  -682  -652  -626  -652  -704  -724  -683  -601  -532  -499  -478  -435  -374  -357  -433  -552  -630  -642  -615  -577  -552  -556  -598  -670  -752  -817  -839  -793  -678  -538  -435  -393  -400  -441  -500  -540  -519  -437  -335  -239  -137  14  207  347  344  187  -33  -196  -251  -244  -233  -270  -387  -573  -762  -878  -891  -813  -662  -467  -292  -191  -160  -167  -206  -294  -399  -419  -284  -63  101  156  144  114  85  74  82  79  45  8  33  127  189  133  -14  -242  -559  -833  -900  -803  -699  -666  -694  -789  -989  -1206  -1229  -1027  -730  -250  639  2090  4162  6465  8044  8077  6422  3590  535  -1800  -3015  -3266  -2930  -2334  -1693  -1163  -828  -629  -453  -289  -188  -154  -155  -175  -222  -283  -289  -172  58  303  459  510  523  566  643  708  724  702  677  672  698  780  945  1156  1313  1371  1367  1353  1351  1364  1398  1498  1725  2059  2370  2549  2596  2578  2548  2506  2403  2187  1865  1518  1239  1065  977  945  941  938  875  652  249  -176  -432  -489  -447  -406  -446  -634  -939  -1224  -1383  -1429  -1426  -1398  -1313  -1123  -849  -578  -379  -267  -263  -412  -726  -1123  -1464  -1645  -1622  -1375  -948  -471  -96  96  137  110  78  44  -44  -247  -542  -819  -985  -1034  -998  -888  -697  -458  -251  -140  -126  -181  -290  -438  -567  -606  -552  -472  -423  -417  -435  -465  -526  -637  -735  -696  -492  -258  -152  -208  -330  -413  -441  -450  -437  -368  -243  -122  -112  -295  -601  -847  -951  -972  -962  -875  -648  -337  -100  -8  -12  -46  -63  -36  21  77  97  41  -123  -343  -503  -569  -601  -648  -708  -765  -814  -830  -739  -470  -119  74  -27  -321  -593  -703  -654  -527  -378  -216  -65  14  -3  -72  -125  -139  -132  -122  -109  -89  -70  -83  -174  -351  -563  -742  -837  -852  -846  -864  -904  -933  -923  -868  -731  -452  -109  49  -156  -653  -958  -331  1511  4133  6713  8277  8133  6328  3563  741  -1432  -2576  -2771  -2539  -2300  -2049  -1644  -1129  -689  -425  -280  -157  -30  82  161  195  186  159  152  173  187  178  178  188  163  77  -9  27  243  543  775  869  873  865  893  953  1031  1149  1348  1598  1803  1910  1938  1932  1922  1922  1944  2023  2192  2414  2595  2688  2711  2658  2465  2105  1666  1292  1037  848  666  469  255  36  -149  -258  -286  -255  -183  -104  -75  -127  -218  -296  -378  -495  -630  -742  -836  -949  -1084  -1191  -1232  -1194  -1061  -856  -660  -538  -489  -479  -477  -469  -436  -356  -247  -168  -171  -270  -430  -589  -716  -814  -873  -876  -812  -679  -497  -317  -205  -194  -269  -389  -499  -576  -624  -641  -618  -562  -473  -361  -290  -325  -449  -595  -703  -750  -745  -710  -667  -636  -618  -592  -546  -495  -461  -449  -446  -445  -453  -479  -514  -530  -520  -503  -507  -541  -607  -689  -747  -741  -657  -518  -371  -249  -159  -118  -190  -387  -544  -529  -450  -442  -501  -581  -645  -688  -742  -814  -873  -877  -809  -711  -659  -680  -732  -775  -834  -1031  -1420  -1724  -1630  -1198  -565  337  1622  3195  4684  5631  5576  4302  2258  133  -1588  -2525  -2651  -2414  -2162  -1891  -1531  -1159  -892  -742  -658  -617  -602  -561  -444  -276  -136  -57  -20  -12  -34  -63  -64  8  195  445  637  706  699  709  816  1018  1229  1367  1420  1425  1393  1322  1284  1352  1504  1661  1762  1838  1978  2222  2516  2769  2932  2993  2928  2716  2428  2200  2073  1981  1861  1702  1487  1171  786  446  181  -54  -261  -419  -541  -633  -689  -719  -740  -769  -817  -871  -871  -764  -558  -322  -136  -71  -159  -355  -539  -603  -566  -495  -340  -84  137  200  110  -54  -211  -316  -360  -348  -287  -202  -135  -119  -151  -201  -238  -252  -256  -256  -237  -161  10  230  300  28  -473  -876  -1023  -1023  -1020  -1045  -1024  -883  -680  -553  -544  -599  -676  -752  -808  -842  -859  -836  -724  -497  -198  67  166  -10  -445  -934  -1240  -1315  -1269  -1202  -1138  -1029  -815  -544  -347  -280  -287  -309  -342  -408  -507  -596  -640  -632  -593  -558  -544  -541  -532  -522  -528  -545  -545  -537  -544  -549  -521  -470  -437  -427  -411  -367  -328  -347  -463  -662  -849  -958  -992  -931  -796  -707  -794  -1071  -1274  -947  264  2362  4726  6383  6747  5804  3904  1647  -393  -1884  -2693  -2876  -2634  -2191  -1728  -1364  -1134  -1007  -941  -900  -849  -764  -630  -459  -309  -238  -241  -275  -311  -341  -357  -310  -138  137  396  554  646  744  877  1024  1144  1211  1229  1226  1219  1200  1153  1083  1018  987  1040  1222  1479  1691  1804  1847  1865  1888  1921  1956  1992  2031  2057  2026  1895  1664  1391  1145  925  683  440  265  135  -89  -514  -1034  -1397  -1449  -1225  -877  -594  -470  -463  -505  -579  -680  -795  -901  -953  -896  -759  -640  -592  -603  -641  -675  -695  -704  -688  -619  -490  -341  -233  -200  -238  -299  -298  -217  -130  -94  -86  -68  -31  12  41  17  -109  -327  -537  -655  -680  -643  -560  -456  -372  -295  -157  59  278  372  263  24  -168  -237  -238  -244  -266  -262  -193  -87  -12  2  -9  -11  -4  -20  -93  -213  -322  -351  -293  -191  -92  -53  -116  -233  -317  -324  -283  -236  -157  15  261  476  598  630  572  402  121  -180  -377  -441  -433  -415  -398  -370  -322  -264  -222  -222  -273  -351  -409  -456  -564  -783  -1057  -1117  -555  898  3151  5600  7339  7687  6487  4160  1523  -740  -2411  -3458  -3729  -3212  -2280  -1443  -977  -822  -770  -717  -663  -573  -381  -120  70  102  1  -142  -244  -279  -272  -242  -184  -89  37  162  240  260  253  243  233  224  241  350  600  928  1199  1351  1440  1561  1741  1916  2020  2052  2050  2054  2070  2071  2024  1943  1844  1677  1391  1058  798  630  513  429  339  201  32  -101  -171  -211  -323  -593  -957  -1244  -1386  -1447  -1528  -1692  -1907  -2069  -2131  -2137  -2112  -1959  -1561  -1016  -612  -525  -729  -1092  -1426  -1589  -1584  -1509  -1452  -1434  -1441  -1453  -1456  -1430  -1356  -1244  -1138  -1098  -1159  -1257  -1275  -1196  -1103  -1043  -990  -941  -925  -954  -1009  -1073  -1118  -1127  -1096  -1031  -956  -889  -857  -922  -1097  -1284  -1380  -1353  -1204  -944  -653  -447  -364  -362  -449  -669  -964  -1192  -1281  -1249  -1121  -938  -782  -697  -660  -643  -667  -760  -903  -1041  -1120  -1119  -1061  -986  -915  -830  -718  -593  -484  -425  -451  -535  -618  -668  -686  -690  -693  -689  -658  -593  -511  -465  -473  -482  -454  -415  -398  -400  -409  -414  -413  -408  -408  -413  -416  -395  -333  -242  -163  -124  -112  -109  -118  -174  -301  -456  -521  -520  -657  -894  -857  -242  1086  3099  5407  7276  7964  7131  4993  2177  -469  -2229  -2881  -2607  -1739  -751  -136  -13  -105  -182  -209  -185  -119  -16  131  316  502  634  666  599  493  398  324  287  329  484  757  1085  1364  1523  1571  1565  1579  1655  1770  1860  1893  1868  1791  1682  1586  1543  1618  1888  2315  2731  2992  3065  2993  2865  2764  2715  2698  2690  2643  2450  2027  1458  981  755  734  796  850  802  536  56  -431  -710  -757  -682  -589  -531  -517  -537  -592  -684  -787  -858  -881  -876  -863  -840  -800  -760  -728  -700  -680  -672  -674  -666  -629  -567  -513  -487  -488  -498  -487  -432  -335  -225  -145  -113  -96  -73  -57  -64  -99  -173  -293  -473  -684  -805  -759  -625  -504  -422  -381  -395  -468  -573  -654  -670  -597  -438  -254  -128  -89  -111  -151  -161  -144  -187  -354  -609  -887  -1133  -1291  -1338  -1270  -1086  -848  -678  -624  -645  -685  -707  -659  -497  -265  -101  -137  -406  -785  -1060  -1124  -1011  -799  -562  -385  -336  -396  -470  -502  -500  -493  -502  -536  -581  -624  -692  -807  -914  -927  -831  -711  -642  -526  -304  -167  -162  46  815  2257  4160  5919  6741  6172  4405  2025  -303  -1918  -2414  -1952  -1072  -326  -19  -72  -218  -313  -316  -197  19  239  395  505  615  727  829  939  1070  1191  1272  1317  1335  1313  1212  1026  852  815  911  1045  1188  1372  1579  1739  1839  1928  2046  2194  2337  2443  2527  2617  2703  2767  2811  2831  2787  2648  2456  2314  2280  2338  2444  2526  2453  2075  1425  796  451  377  412  426  333  80  -277  -585  -755  -830  -883  -940  -993  -1035  -1088  -1156  -1187  -1170  -1205  -1362  -1593  -1803  -1918  -1899  -1754  -1557  -1412  -1365  -1396  -1488  -1643  -1851  -2058  -2194  -2241  -2254  -2289  -2354  -2424  -2483  -2514  -2482  -2372  -2244  -2201  -2289  -2448  -2575  -2633  -2637  -2564  -2369  -2098  -1875  -1768  -1783  -1889  -1955  -1877  -1732  -1640  -1618  -1622  -1613  -1580  -1560  -1570  -1560  -1469  -1287  -1070  -908  -847  -856  -886  -907  -915  -924  -939  -951  -958  -953  -907  -791  -639  -527  -485  -480  -484  -484  -455  -373  -243  -110  -22  10  8  -3  -14  -18  -17  -12  -11  -21  -54  -109  -156  -171  -201  -280  -346  -351  -314  -264  -219  -172  -89  56  232  376  442  373  79  -404  -838  -1051  -1016  -613  230  1410  2821  4391  5867  6694  6289  4629  2261  -222  -2191  -3044  -2867  -2333  -1924  -1716  -1575  -1370  -1113  -867  -634  -416  -276  -239  -244  -234  -206  -184  -177  -180  -181  -175  -159  -145  -159  -224  -342  -451  -435  -253  12  264  434  521  576  623  659  718  835  983  1101  1177  1245  1325  1416  1538  1750  2068  2388  2584  2639  2568  2352  2006  1632  1346  1206  1182  1195  1173  1056  814  506  248  95  -1  -105  -250  -459  -683  -833  -898  -916  -891  -800  -629  -428  -287  -241  -250  -268  -267  -234  -168  -96  -49  -33  -39  -75  -147  -239  -318  -370  -401  -418  -394  -273  -46  196  349  406  417  404  337  217  140  161  200  208  194  113  -38  -172  -234  -237  -208  -166  -110  -44  -3  -55  -246  -509  -708  -779  -761  -686  -565  -428  -314  -236  -170  -76  42  123  126  86  49  23  -2  -42  -81  -93  -65  -12  28  -5  -145  -333  -480  -535  -511  -471  -452  -419  -307  -106  137  358  497  537  511  462  425  411  393  337  249  173  131  104  76  48  25  28  69  126  117  -55  -354  -591  -649  -564  -433  -330  -263  -209  -191  -280  -496  -706  -735  -526  8  1089  2772  4749  6492  7433  7121  5545  3256  926  -996  -2205  -2665  -2676  -2458  -2021  -1424  -807  -291  47  243  412  580  619  379  -82  -489  -622  -470  -156  182  449  606  664  647  552  407  290  247  255  267  259  232  201  215  350  640  1011  1308  1448  1513  1630  1830  2022  2103  2053  1937  1825  1722  1604  1510  1531  1668  1800  1799  1620  1339  1095  960  886  769  558  319  130  -43  -279  -566  -838  -1044  -1138  -1108  -992  -818  -591  -359  -221  -272  -537  -899  -1165  -1257  -1242  -1198  -1155  -1120  -1082  -1045  -1026  -1030  -1040  -1044  -1043  -1047  -1065  -1094  -1098  -988  -682  -262  59  165  57  -234  -595  -849  -932  -919  -893  -882  -888  -898  -901  -891  -873  -856  -836  -809  -794  -810  -851  -901  -949  -982  -978  -905  -757  -598  -525  -576  -703  -837  -952  -1041  -1074  -1023  -891  -727  -571  -444  -387  -433  -534  -626  -691  -753  -831  -890  -869  -752  -567  -372  -256  -255  -319  -400  -494  -601  -679  -664  -531  -326  -127  3  56  59  49  43  40  38  40  51  65  67  21  -97  -261  -395  -463  -483  -477  -455  -451  -516  -689  -924  -1132  -1244  -1169  -878  -543  -300  -55  445  1530  3329  5546  7541  8439  7591  5206  2167  -631  -2525  -3203  -2956  -2444  -2113  -2004  -1932  -1720  -1347  -944  -650  -489  -385  -264  -127  -33  11  65  147  213  224  194  163  136  82  -29  -208  -400  -488  -388  -94  316  688  905  978  976  965  1012  1122  1238  1352  1513  1708  1864  1961  2047  2136  2182  2165  2121  2081  2034  1958  1845  1704  1557  1397  1200  977  759  575  456  412  398  312  77  -235  -475  -590  -622  -615  -614  -665  -789  -940  -1029  -1025  -976  -940  -928  -913  -871  -807  -724  -591  -396  -200  -86  -71  -109  -148  -173  -202  -254  -322  -381  -419  -436  -439  -437  -429  -410  -389  -370  -324  -214  -63  46  69  21  -54  -131  -218  -322  -403  -409  -353  -297  -278  -291  -314  -333  -344  -347  -330  -274  -197  -160  -236  -443  -697  -878  -936  -864  -658  -385  -174  -80  -62  -79  -132  -218  -274  -243  -153  -55  27  79  99  109  127  139  101  -31  -225  -382  -452  -466  -461  -447  -429  -409  -393  -391  -395  -381  -327  -237  -145  -93  -160  -436  -892  -1341  -1607  -1698  -1756  -1838  -1750  -1149  195  2189  4380  6117  6798  6085  4090  1471  -875  -2353  -2877  -2851  -2832  -2944  -2944  -2778  -2498  -1969  -1152  -342  129  236  159  29  -94  -176  -201  -176  -100  9  109  156  160  169  233  376  566  731  836  925  1060  1224  1341  1382  1377  1364  1357  1346  1319  1278  1274  1402  1730  2160  2516  2727  2785  2697  2523  2329  2171  2100  2101  2099  1981  1655  1192  748  364  38  -162  -212  -171  -106  -72  -150  -398  -732  -987  -1133  -1279  -1475  -1635  -1659  -1569  -1470  -1411  -1369  -1319  -1270  -1251  -1273  -1308  -1313  -1263  -1168  -1069  -1016  -1044  -1170  -1356  -1516  -1587  -1541  -1360  -1085  -823  -678  -681  -763  -825  -864  -925  -993  -1034  -1068  -1141  -1252  -1347  -1391  -1392  -1350  -1234  -1026  -781  -593  -485  -408  -348  -372  -548  -824  -1054  -1148  -1129  -1045  -916  -770  -674  -694  -845  -1057  -1208  -1221  -1110  -950  -821  -745  -708  -711  -755  -811  -817  -698  -448  -171  4  57  51  43  25  -33  -127  -204  -232  -225  -202  -177  -162  -157  -156  -155  -149  -137  -122  -125  -194  -362  -568  -713  -764  -736  -645  -540  -462  -275  303  1445  3116  5102  6806  7413  6529  4335  1452  -1036  -2275  -2364  -1890  -1350  -1022  -881  -766  -639  -511  -340  -109  117  268  328  332  317  293  281  332  485  733  1015  1250  1388  1440  1444  1440  1439  1431  1409  1372  1327  1294  1294  1340  1435  1567  1718  1899  2148  2430  2641  2743  2792  2852  2933  2973  2919  2818  2736  2675  2602  2497  2369  2223  2035  1807  1604  1475  1399  1317  1213  1100  974  814  595  306  3  -208  -297  -315  -321  -328  -331  -326  -314  -291  -255  -214  -178  -126  -71  -79  -160  -241  -260  -218  -152  -105  -96  -121  -156  -161  -140  -168  -272  -378  -433  -451  -463  -473  -459  -403  -322  -259  -249  -311  -435  -577  -668  -656  -535  -366  -246  -227  -293  -391  -457  -441  -329  -171  -51  -15  -72  -209  -377  -501  -554  -562  -556  -556  -561  -560  -525  -439  -330  -259  -284  -427  -630  -774  -761  -581  -324  -131  -69  -136  -312  -528  -660  -635  -485  -292  -115  43  222  450  637  610  367  95  -74  -151  -177  -167  -129  -69  0  63  108  124  91  -3  -127  -224  -271  -268  -225  -148  -60  -56  -246  -635  -1108  -1366  -896  638  3018  5671  7840  8536  7173  4280  1019  -1630  -3031  -3065  -2369  -1712  -1251  -888  -710  -719  -741  -679  -574  -503  -481  -471  -468  -492  -539  -586  -612  -617  -603  -591  -626  -756  -961  -1148  -1249  -1267  -1199  -1024  -795  -629  -577  -595  -630  -633  -539  -311  -27  168  223  216  280  486  805  1121  1312  1367  1370  1351  1227  902  456  116  -8  -5  -2  -74  -233  -463  -750  -1065  -1350  -1560  -1715  -1840  -1923  -1949  -1934  -1895  -1848  -1815  -1801  -1800  -1808  -1818  -1803  -1726  -1592  -1478  -1464  -1536  -1617  -1664  -1688  -1697  -1668  -1575  -1450  -1359  -1339  -1358  -1344  -1217  -966  -699  -547  -545  -634  -733  -823  -946  -1095  -1162  -1047  -795  -551  -404  -342  -325  -333  -362  -391  -412  -458  -543  -646  -744  -825  -894  -961  -1007  -1000  -945  -882  -827  -766  -688  -585  -463  -344  -256  -228  -265  -347  -430  -488  -528  -560  -566  -527  -465  -413  -375  -331  -283  -250  -240  -242  -244  -248  -262  -288  -304  -259  -117  28  7  -186  -380  -469  -491  -484  -389  -128  237  520  623  586  469  314  165  53  -20  -65  -99  -145  -207  -272  -328  -375  -410  -424  -402  -350  -338  -422  -545  -627  -652  -634  -574  -435  -175  70  90  -14  172  893  2201  4070  5974  6997  6623  4951  2439  -206  -2174  -2965  -2745  -2085  -1438  -1044  -980  -1099  -1201  -1211  -1138  -1003  -820  -601  -383  -196  -41  84  171  211  220  220  225  233  220  164  91  51  65  110  142  171  304  637  1107  1529  1781  1868  1866  1845  1844  1871  1915  1963  2026  2131  2268  2373  2378  2288  2171  2092  2062  2054  2041  1999  1937  1857  1696  1398  1023  678  370  55  -246  -469  -576  -583  -533  -467  -419  -415  -478  -611  -761  -829  -741  -511  -247  -70  -17  -43  -94  -153  -222  -276  -250  -106  106  280  363  385  357  261  148  91  113  185  223  153  -3  -179  -337  -462  -534  -558  -560  -540  -475  -359  -223  -108  -36  -17  -45  -101  -154  -187  -204  -226  -257  -297  -360  -456  -576  -696  -791  -842  -841  -777  -641  -448  -261  -147  -117  -127  -143  -148  -134  -95  -50  -33  -38  -8  66  108  41  -107  -250  -332  -364  -377  -371  -303  -132  95  273  345  335  288  234  177  114  46  -20  -95  -180  -240  -240  -179  -63  104  278  386  379  235  -17  -303  -533  -653  -660  -577  -447  -363  -377  -449  -620  -855  -793  -70  1426  3589  5868  7322  7230  5525  2771  -90  -2103  -2823  -2617  -2171  -1840  -1656  -1509  -1219  -668  10  497  639  529  295  28  -196  -338  -376  -269  11  369  627  716  700  672  698  809  956  1059  1093  1098  1113  1137  1163  1192  1214  1219  1215  1225  1261  1309  1368  1487  1714  1990  2218  2395  2552  2654  2648  2543  2408  2317  2231  2016  1628  1188  845  643  550  501  408  217  -36  -261  -398  -474  -548  -637  -703  -729  -754  -823  -920  -989  -1010  -1016  -1048  -1122  -1230  -1352  -1444  -1444  -1299  -1046  -835  -778  -822  -866  -885  -897  -903  -861  -719  -504  -321  -234  -221  -233  -262  -322  -395  -441  -454  -490  -604  -765  -885  -914  -874  -806  -726  -616  -489  -398  -365  -362  -368  -401  -487  -608  -707  -750  -731  -635  -480  -336  -264  -258  -278  -316  -402  -553  -724  -815  -771  -633  -479  -365  -309  -309  -349  -408  -484  -593  -714  -771  -719  -611  -546  -570  -645  -705  -726  -723  -716  -716  -723  -734  -748  -761  -757  -703  -570  -376  -184  -56  -18  -66  -185  -331  -450  -510  -492  -373  -175  13  122  159  163  155  116  10  -171  -409  -648  -809  -838  -698  -365  62  370  444  336  142  -68  -260  -402  -468  -468  -432  -360  -247  -164  -259  -640  -1146  -1297  -619  1094  3585  6080  7655  7678  6054  3347  473  -1840  -3162  -3336  -2685  -1821  -1171  -855  -789  -782  -694  -517  -338  -228  -164  -87  0  83  179  265  316  350  385  389  321  183  29  -94  -182  -245  -279  -240  -71  187  409  524  556  570  617  693  780  908  1117  1364  1552  1646  1682  1717  1796  1946  2154  2353  2469  2500  2479  2385  2178  1915  1732  1646  1505  1144  581  31  -337  -545  -681  -789  -838  -772  -621  -499  -472  -518  -585  -635  -663  -682  -691  -669  -586  -436  -286  -238  -337  -514  -653  -708  -715  -708  -668  -552  -360  -167  -59  -38  -52  -63  -66  -66  -73  -89  -106  -113  -105  -93  -93  -111  -139  -150  -118  -33  75  158  196  210  218  220  199  105  -106  -393  -634  -755  -779  -730  -607  -429  -258  -157  -133  -149  -169  -175  -170  -166  -176  -209  -266  -342  -419  -474  -511  -530  -502  -401  -256  -134  -73  -47  0  98  199  217  145  40  -85  -260  -462  -624  -708  -729  -712  -655  -545  -397  -253  -148  -78  -26  -7  -49  -148  -257  -330  -361  -379  -430  -544  -680  -757  -741  -641  -464  -228  12  189  285  334  362  339  199  -73  -373  -558  -575  -464  -312  -207  -196  -270  -387  -487  -532  -509  -420  -300  -208  -188  -258  -416  -627  -824  -919  -851  -673  -444  -38  811  2235  4022  5751  6893  6878  5552  3327  794  -1399  -2715  -3099  -2881  -2485  -2252  -2194  -2110  -1973  -1853  -1729  -1570  -1411  -1300  -1253  -1250  -1245  -1169  -967  -695  -486  -392  -351  -309  -266  -234  -214  -218  -249  -302  -364  -394  -316  -94  202  449  634  861  1150  1392  1512  1536  1519  1499  1479  1452  1439  1524  1794  2184  2490  2582  2499  2356  2200  1925  1424  825  402  253  242  212  120  18  -74  -214  -438  -681  -855  -928  -916  -853  -785  -737  -710  -695  -696  -734  -806  -870  -900  -910  -923  -944  -975  -1027  -1112  -1206  -1253  -1191  -997  -725  -495  -381  -361  -384  -435  -511  -585  -622  -623  -632  -684  -771  -848  -884  -892  -901  -907  -873  -765  -587  -407  -309  -299  -326  -360  -407  -481  -576  -655  -695  -703  -696  -684  -683  -720  -815  -931  -984  -924  -783  -608  -406  -240  -230  -383  -587  -754  -841  -828  -735  -594  -429  -254  -102  -15  -10  -93  -256  -437  -542  -477  -201  178  462  545  450  231  -25  -211  -269  -228  -170  -170  -254  -382  -471  -485  -457  -428  -398  -341  -256  -176  -125  -97  -76  -69  -129  -346  -714  -1072  -1201  -790  455  2464  4760  6658  7399  6541  4414  1905  -224  -1603  -2157  -2175  -2110  -2059  -1828  -1369  -784  -215  168  317  317  237  104  -15  -51  -20  9  26  71  160  247  285  295  327  406  515  633  758  889  1047  1240  1394  1431  1352  1251  1290  1526  1828  2080  2258  2331  2283  2166  2069  2061  2146  2275  2409  2535  2619  2591  2389  2049  1711  1509  1440  1384  1247  1047  840  641  463  337  246  105  -110  -335  -494  -556  -534  -484  -457  -455  -452  -427  -385  -347  -346  -406  -510  -614  -716  -838  -958  -1009  -912  -640  -296  -59  -31  -196  -481  -791  -1045  -1183  -1176  -1038  -839  -683  -628  -644  -655  -597  -498  -451  -480  -521  -527  -506  -496  -531  -616  -728  -836  -893  -878  -833  -811  -807  -771  -660  -498  -386  -385  -463  -568  -671  -736  -742  -699  -635  -584  -563  -571  -598  -632  -665  -700  -731  -719  -630  -498  -401  -373  -379  -385  -386  -387  -379  -328  -198  1  209  377  476  491  421  258  -48  -492  -903  -1071  -941  -652  -393  -244  -182  -173  -213  -300  -411  -504  -565  -605  -630  -620  -541  -426  -389  -507  -620  -298  782  2525  4486  5972  6327  5353  3353  954  -1146  -2437  -2729  -2235  -1422  -736  -471  -616  -877  -1008  -941  -686  -337  -43  122  193  246  329  429  511  565  594  593  537  415  273  177  142  132  132  192  363  597  768  821  803  779  812  990  1354  1775  2054  2162  2219  2300  2397  2498  2572  2567  2484  2395  2356  2368  2393  2369  2228  1954  1600  1240  927  696  535  402  250  41  -219  -466  -632  -721  -799  -915  -1043  -1164  -1308  -1453  -1530  -1482  -1271  -958  -699  -570  -528  -519  -550  -666  -870  -1089  -1232  -1246  -1117  -899  -704  -616  -630  -684  -721  -742  -788  -864  -892  -809  -677  -592  -572  -575  -578  -602  -687  -838  -998  -1113  -1176  -1205  -1203  -1162  -1056  -883  -701  -567  -501  -507  -583  -709  -847  -950  -1016  -1070  -1112  -1125  -1089  -992  -865  -747  -638  -534  -465  -443  -437  -418  -393  -394  -443  -533  -630  -702  -740  -736  -648  -460  -249  -113  -71  -90  -162  -306  -511  -687  -746  -706  -631  -538  -434  -318  -177  -48  -31  -187  -452  -679  -796  -853  -930  -1013  -980  -815  -733  -835  -841  -374  832  2866  5230  6823  6767  5089  2565  134  -1586  -2468  -2723  -2646  -2396  -1968  -1425  -976  -735  -642  -616  -618  -621  -614  -585  -511  -344  -58  264  464  479  394  318  289  286  291  316  378  461  531  582  631  684  734  773  783  727  569  350  202  305  770  1449  1994  2221  2229  2158  2054  1931  1818  1747  1739  1813  1983  2208  2350  2192  1598  774  161  -48  -16  59  100  70  -83  -372  -706  -957  -1080  -1116  -1118  -1091  -1010  -869  -703  -552  -443  -388  -384  -439  -559  -709  -823  -867  -854  -789  -628  -341  -17  188  210  90  -74  -199  -264  -298  -329  -369  -415  -447  -448  -414  -354  -278  -181  -53  80  166  181  147  90  31  -13  -50  -84  -99  -66  25  154  286  387  429  409  365  332  295  206  52  -125  -272  -345  -333  -265  -167  -21  161  292  300  238  185  164  162  169  184  203  197  130  15  -93  -162  -194  -207  -209  -200  -171  -106  12  190  372  481  508  533  623  768  902  995  1024  912  591  135  -274  -517  -568  -459  -279  -139  -76  -52  -26  1  15  14  -2  -41  -118  -274  -542  -847  -948  -512  702  2621  4833  6727  7564  6836  4769  2129  -344  -2096  -2817  -2637  -2061  -1548  -1230  -1052  -923  -746  -497  -261  -131  -106  -122  -136  -136  -120  -91  -29  94  265  415  511  574  623  666  687  666  601  505  417  401  490  689  967  1230  1382  1437  1485  1579  1711  1874  2073  2285  2452  2532  2525  2469  2421  2404  2402  2395  2371  2321  2213  2021  1792  1618  1513  1403  1256  1111  990  837  600  314  59  -114  -194  -205  -201  -168  -83  11  110  228  315  316  237  126  18  -101  -249  -393  -484  -509  -486  -445  -406  -360  -286  -202  -170  -229  -340  -432  -470  -457  -379  -229  -62  35  32  -36  -128  -215  -286  -332  -350  -345  -331  -331  -345  -351  -342  -339  -379  -497  -660  -774  -793  -730  -606  -464  -363  -353  -478  -750  -1084  -1344  -1451  -1370  -1081  -669  -332  -188  -229  -419  -692  -929  -1050  -1068  -1046  -1022  -995  -962  -935  -941  -1019  -1177  -1359  -1488  -1543  -1546  -1508  -1431  -1371  -1443  -1697  -2024  -2258  -2358  -2400  -2409  -2233  -1604  -453  887  1951  2549  2751  2516  1586  0]
