reading_id,reading_time,wire_id,result_classification,heart_rate,heart_rate_alert,firmware_version,device_app_version,hardware_version,waveform_samples
c060f760-648d-11ed-8080-808080808080,Tue Nov 15 02:32:29 UTC 2022,a101e3f91939,UNCLASSIFIABLE,106,NONE,20001.171.50,2.10.0,Charge 5,[-22346  -22411  -22392  -22152  -21619  -20926  -20284  -19764  -19386  -19240  -19312  -19452  -19564  -19643  -19701  -19732  -19701  -19538  -19181  -18586  -17719  -16621  -15474  -14517  -13796  -13123  -12334  -11480  -10711  -10048  -9333  -8377  -7180  -5981  -5070  -4514  -4031  -3276  -2273  -1328  -621  -167  90  307  626  1019  1365  1638  1939  2361  2894  3421  3828  4140  4471  4883  5357  5864  6451  7185  8001  8684  9064  9201  9284  9450  9752  10171  10623  11012  11312  11613  12021  12487  12813  12954  13058  13159  13325  13997  15518  17669  20142  22614  24234  24140  22379  19674  16864  14777  13966  14314  15210  16122  16820  17253  17456  17523  17539  17531  17472  17332  17150  17003  16904  16807  16686  16564  16470  16376  16209  15952  15659  15393  15183  15027  14930  14892  14886  14877  14853  14806  14716  14549  14276  13931  13619  13393  13208  13040  12932  12905  12922  12917  12789  12396  11690  10875  10262  9948  9780  9580  9309  9022  8763  8534  8281  7911  7390  6796  6283  5974  5840  5739  5567  5344  5151  4973  4716  4401  4175  4135  4258  4449  4581  4507  4134  3574  3106  2893  2861  2883  2904  2916  2913  2887  2843  2820  2862  2965  3075  3123  3082  2977  2849  2709  2545  2344  2109  1862  1637  1468  1335  1180  1004  875  819  803  782  721  599  418  201  -17  -194  -289  -291  -237  -177  -125  -41  79  132  13  -226  -339  26  1094  2816  4885  6700  7485  6783  4764  2000  -707  -2557  -3243  -3024  -2444  -2044  -1922  -1798  -1546  -1281  -1113  -1052  -1059  -1101  -1157  -1202  -1221  -1222  -1223  -1237  -1254  -1244  -1197  -1152  -1139  -1130  -1069  -915  -671  -413  -249  -211  -230  -203  -64  148  325  403  413  409  415  429  428  390  306  174  -29  -334  -704  -1018  -1189  -1234  -1216  -1195  -1215  -1285  -1389  -1545  -1823  -2228  -2613  -2811  -2814  -2735  -2671  -2662  -2710  -2790  -2871  -2935  -2980  -3008  -3016  -2963  -2807  -2588  -2426  -2407  -2544  -2778  -2993  -3085  -3028  -2862  -2648  -2450  -2316  -2274  -2345  -2530  -2764  -2938  -2997  -2976  -2935  -2909  -2897  -2887  -2864  -2800  -2678  -2542  -2480  -2577  -2834  -3138  -3326  -3298  -3049  -2701  -2455  -2442  -2663  -3007  -3316  -3504  -3576  -3551  -3465  -3386  -3336  -3298  -3281  -3170  -2729  -1774  -212  1751  3446  4066  3161  916  -1865  -4178  -5379  -5469  -4922  -4289  -3871  -3638  -3439  -3197  -2906  -2594  -2289  -2044  -1919  -1918  -1997  -2100  -2173  -2195  -2169  -2083  -1901  -1606  -1262  -984  -835  -786  -770  -725  -615  -464  -346  -290  -221  -36  246  501  646  695  688  670  687  749  843  938  992  956  798  568  375  279  248  222  136  -54  -317  -565  -753  -890  -980  -1036  -1136  -1373  -1687  -1873  -1827  -1654  -1510  -1420  -1303  -1138  -993  -910  -872  -850  -828  -802  -771  -746  -745  -789  -872  -956  -1004  -1026  -1047  -1073  -1087  -1070  -1010  -925  -845  -777  -690  -559  -408  -309  -287  -295  -301  -337  -455  -653  -873  -1037  -1113  -1124  -1123  -1146  -1170  -1129  -1011  -893  -839  -836  -859  -917  -1045  -1255  -1489  -1614  -1523  -1263  -917  -352  692  2307  4290  6022  6661  5775  3601  853  -1586  -3097  -3536  -3168  -2420  -1633  -1050  -799  -798  -873  -934  -952  -875  -651  -353  -133  -41  11  103  209  258  241  220  244  342  505  660  745  790  835  867  859  831  864  1040  1360  1732  2045  2218  2263  2268  2293  2309  2253  2108  1918  1744  1636  1587  1528  1396  1188  950  742  594  451  210  -114  -379  -493  -515  -539  -592  -645  -676  -685  -670  -622  -548  -478  -436  -427  -446  -483  -518  -536  -531  -503  -464  -440  -450  -517  -642  -782  -874  -878  -787  -620  -411  -213  -79  -16  44  170  334  452  494  489  466  425  369  288  148  -48  -230  -334  -365  -361  -351  -345  -340  -336  -330  -320  -308  -326  -433  -649  -891  -1018  -952  -773  -641  -531  -215  591  2186  4501  6693  7662  6891  4623  1730  -657  -1944  -2284  -2089  -1770  -1602  -1529  -1373  -1123  -869  -661  -525  -445  -390  -354  -341  -343  -350  -365  -388  -412  -411  -331  -130  142  372  498  542  545  540  595  786  1088  1358  1495  1524  1517  1511  1520  1546  1595  1660  1723  1778  1818  1809  1725  1566  1368  1188  1072  995  897  775  679  613  508  253  -189  -712  -1129  -1316  -1305  -1222  -1164  -1136  -1125  -1138  -1175  -1199  -1153  -1000  -749  -480  -287  -196  -178  -201  -248  -296  -328  -346  -383  -447  -491  -472  -407  -318  -240  -248  -348  -451  -494  -498  -508  -547  -589  -579  -492  -368  -265  -209  -198  -246  -389  -625  -844  -912  -835  -736  -691  -686  -693  -700  -708  -723  -749  -786  -824  -861  -912  -981  -1058  -1185  -1477  -1929  -2192  -1838  -695  1173  3453  5525  6677  6495  5057  2778  241  -1907  -3203  -3563  -3242  -2626  -2031  -1626  -1458  -1446  -1457  -1425  -1350  -1247  -1127  -996  -849  -681  -522  -409  -360  -375  -437  -503  -540  -537  -485  -370  -207  -47  78  189  351  607  894  1086  1148  1153  1176  1251  1379  1528  1647  1705  1691  1600  1444  1277  1146  1032  886  714  555  413  259  60  -213  -509  -713  -785  -780  -768  -791  -861  -968  -1101  -1257  -1414  -1518  -1520  -1388  -1131  -838  -621  -519  -486  -475  -484  -528  -588  -630  -642  -640  -634  -625  -615  -610  -619  -646  -685  -738  -807  -865  -870  -799  -665  -531  -450  -413  -379  -338  -303  -279  -273  -296  -351  -417  -461  -474  -473  -475  -489  -510  -533  -550  -558  -563  -567  -574  -591  -620  -653  -675  -673  -634  -572  -565  -702  -913  -896  -281  1145  3322  5739  7488  7847  6647  4228  1414  -890  -2264  -2751  -2608  -2151  -1600  -1067  -634  -339  -146  -12  57  51  -3  -46  -36  14  101  242  402  511  543  530  500  474  480  541  647  757  853  953  1075  1197  1286  1359  1459  1584  1696  1790  1875  1932  1954  1960  1961  1936  1862  1749  1636  1533  1434  1342  1239  1058  742  349  10  -216  -382  -523  -615  -641  -629  -636  -704  -818  -919  -973  -998  -1018  -1006  -929  -806  -692  -611  -568  -599  -727  -894  -965  -883  -756  -714  -761  -820  -839  -829  -790  -673  -498  -408  -509  -748  -975  -1099  -1133  -1120  -1063  -954  -811  -683  -591  -521  -459  -415  -401  -427  -500  -610  -730  -858  -1008  -1173  -1314  -1407  -1439  -1399  -1285  -1118  -936  -782  -685  -674  -734  -752  -674  -607  -625  -694  -838  -977  -751  205  2040  4491  6704  7666  6914  4705  1791  -823  -2391  -2878  -2661  -2119  -1598  -1256  -1006  -773  -589  -488  -455  -427  -330  -165  -2  93  133  159  200  250  289  323  403  557  735  860  917  922  882  817  798  904  1142  1415  1624  1763  1878  1983  2066  2108  2094  2034  1960  1877  1788  1708  1645  1605  1596  1598  1520  1237  727  169  -204  -331  -315  -261  -208  -164  -150  -227  -467  -852  -1231  -1440  -1399  -1109  -694  -363  -230  -236  -277  -298  -296  -290  -293  -304  -316  -322  -323  -323  -324  -322  -316  -314  -349  -448  -578  -645  -590  -456  -334  -276  -265  -275  -308  -369  -418  -383  -253  -96  7  26  -9  -58  -125  -232  -366  -507  -660  -823  -961  -1035  -1048  -1035  -1019  -1011  -1011  -1020  -1029  -1017  -977  -978  -1082  -1248  -1403  -1379  -826  488  2437  4569  6188  6594  5514  3287  597  -1827  -3371  -3848  -3575  -2971  -2350  -1952  -1794  -1702  -1575  -1441  -1332  -1230  -1109  -980  -887  -848  -842  -854  -877  -885  -801  -573  -267  -19  111  165  194  221  254  310  419  595  787  914  967  1004  1068  1158  1253  1330  1378  1403  1423  1433  1396  1277  1089  884  697  542  425  354  319  303  306  317  239  -80  -654  -1244  -1590  -1648  -1516  -1289  -1062  -897  -791  -719  -686  -672  -638  -576  -491  -384  -263  -146  -55  -12  -37  -143  -304  -440  -504  -511  -504  -501  -496  -463  -394  -327  -297  -289  -277  -255  -220  -167  -94  -10  55  93  109  115  110  93  65  29  -17  -100  -232  -378  -472  -515  -576  -677  -766  -814  -840  -856  -844  -766  -609  -404  -254  -300  -591  -910  -795  150  1938  4226  6400  7643  7408  5793  3294  570  -1613  -2742  -2900  -2508  -1939  -1456  -1186  -1102  -1099  -1079  -990  -824  -612  -410  -268  -195  -159  -112  -23  92  207  316  427  530  606  653  689  724  756  788  818  845  883  972  1152  1400  1633  1786  1859  1884  1889  1888  1881  1858  1811  1749  1680  1585  1444  1291  1166  1039  831  525  212  0  -88  -118  -151  -212  -291  -364  -413  -436  -441  -438  -436  -445  -464  -481  -487  -493  -498  -493  -476  -459  -451  -449  -457  -491  -547  -592  -598  -562  -505  -448  -406  -387  -391  -404  -417  -439  -482  -524  -516  -449  -363  -305  -281  -263  -222  -160  -106  -70  -39  -18  -31  -100  -212  -320  -388  -433  -499  -604  -717  -797  -831  -838  -852  -881  -888  -845  -775  -708  -631  -535  -501  -666  -1026  -1271  -922  344  2511  5082  7154  7837  6721  4144  1066  -1462  -2795  -2928  -2427  -1958  -1796  -1792  -1709  -1487  -1187  -894  -705  -649  -667  -693  -683  -606  -460  -293  -144  6  177  330  418  435  408  360  307  276  307  446  685  926  1073  1164  1319  1576  1860  2086  2220  2284  2311  2309  2249  2102  1893  1682  1490  1292  1078  888  759  653  482  201  -136  -428  -606  -674  -702  -763  -857  -935  -983  -1036  -1131  -1264  -1399  -1485  -1507  -1478  -1423  -1375  -1345  -1322  -1308  -1299  -1280  -1257  -1248  -1242  -1209  -1136  -1047  -981  -947  -924  -891  -847  -804  -760  -694  -615  -540  -466  -387  -338  -373  -497  -654  -785  -863  -899  -917  -919  -874  -764  -650  -636  -723  -820  -878  -931  -995  -1045  -1066  -1070  -1074  -1092  -1122  -1119  -1058  -1062  -1274  -1553  -1499  -682  1092  3432  5528  6662  6399  4696  2021  -786  -2867  -3782  -3677  -3049  -2436  -2098  -1917  -1714  -1465  -1226  -1059  -973  -929  -905  -895  -887  -865  -801  -675  -508  -334  -143  86  319  483  548  549  531  517  525  573  665  780  928  1164  1481  1777  1969  2045  2018  1935  1886  1934  2063  2205  2309  2359  2302  2033  1530  957  507  216  40  -44  -63  -71  -110  -202  -342  -496  -623  -720  -800  -860  -881  -842  -741  -620  -541  -548  -637  -762  -855  -887  -861  -785  -686  -608  -566  -542  -535  -538  -522  -479  -449  -467  -511  -511  -447  -422  -544  -758  -933  -1024  -1066  -1077  -1027  -883  -673  -474  -335  -259  -230  -227  -227  -225  -233  -280  -377  -482  -532  -525  -518  -553  -623  -699  -754  -783  -802  -825  -839  -820  -771  -722  -690  -677  -722  -884  -1154  -1415  -1563  -1609  -1572  -1281  -406  1257  3574  6065  7972  8528  7420  4915  1740  -1079  -2773  -3274  -3000  -2456  -2010  -1743  -1499  -1169  -834  -617  -529  -510  -542  -633  -726  -737  -666  -567  -449  -280  -89  46  91  79  47  32  108  337  651  880  953  933  900  911  1004  1183  1399  1589  1715  1796  1856  1896  1918  1933  1930  1847  1617  1271  949  762  699  688  655  530  308  52  -230  -579  -959  -1265  -1429  -1464  -1398  -1244  -1050  -912  -858  -839  -806  -757  -718  -702  -696  -680  -641  -586  -546  -552  -611  -705  -798  -852  -846  -794  -738  -696  -652  -599  -550  -522  -515  -517  -523  -525  -504  -448  -372  -309  -271  -242  -214  -189  -182  -196  -203  -173  -124  -95  -97  -125  -179  -258  -349  -429  -473  -465  -403  -317  -254  -233  -249  -298  -388  -516  -668  -827  -946  -891  -436  643  2388  4578  6755  8309  8681  7620  5381  2628  38  -1840  -2620  -2400  -1686  -897  -268  46  90  34  -2  16  98  221  348  454  543  647  780  921  1041  1124  1191  1295  1435  1556  1624  1647  1663  1702  1789  1925  2083  2240  2393  2547  2699  2846  2992  3125  3210  3243  3254  3257  3236  3171  3070  2942  2757  2481  2160  1891  1704  1551  1371  1139  886  694  624  654  707  710  606  361  47  -182  -253  -206  -92  43  157  219  231  199  127  47  -2  -18  -18  -11  17  93  224  369  469  506  494  429  293  109  -55  -146  -168  -167  -187  -254  -349  -422  -446  -429  -375  -274  -130  9  100  137  150  153  116  -11  -217  -409  -513  -541  -548  -584  -665  -766  -848  -886  -865  -773  -637  -520  -456  -436  -443  -476  -573  -775  -1028  -1204  -1256  -1319  -1591  -2047  -2391  -2279  -1407  342  2691  5054  6704  6954  5571  3026  121  -2447  -4126  -4626  -4193  -3415  -2770  -2394  -2166  -1974  -1846  -1831  -1903  -2018  -2131  -2175  -2073  -1808  -1490  -1276  -1205  -1212  -1233  -1263  -1309  -1355  -1347  -1256  -1093  -895  -713  -582  -497  -436  -382  -315  -216  -88  37  150  256  348  405  420  408  379  333  271  211  150  55  -85  -228  -331  -407  -537  -818  -1252  -1702  -2032  -2220  -2322  -2408  -2548  -2787  -3070  -3269  -3315  -3237  -3113  -3003  -2897  -2754  -2590  -2476  -2446  -2475  -2530  -2583  -2617  -2619  -2564  -2435  -2282  -2191  -2198  -2263  -2329  -2365  -2361  -2299  -2151  -1946  -1764  -1653  -1599  -1577  -1570  -1569  -1588  -1652  -1754  -1853  -1910  -1924  -1899  -1809  -1630  -1403  -1193  -994  -787  -616  -504  -433  -441  -542  -665  -774  -903  -1071  -1240  -1348  -1379  -1370  -1356  -1351  -1365  -1406  -1464  -1506  -1488  -1376  -1190  -1020  -1008  -1246  -1557  -1467  -505  1450  4055  6593  8192  8148  6386  3575  646  -1624  -2755  -2753  -2148  -1528  -1124  -920  -832  -742  -576  -351  -117  68  183  237  237  196  163  199  317  497  703  892  1020  1086  1128  1182  1253  1345  1496  1721  1959  2122  2187  2199  2230  2336  2533  2747  2861  2859  2812  2769  2741  2728  2715  2662  2507  2270  2064  1966  1933  1883  1729  1407  957  508  158  -78  -226  -310  -355  -397  -471  -563  -625  -643  -639  -633  -617  -575  -493  -372  -229  -102  -47  -84  -166  -234  -269  -282  -281  -271  -263  -270  -283  -271  -220  -130  21  200  290  222  19  -230  -417  -495  -493  -433  -313  -150  -9  42  16  19  117  252  346  402  447  479  478  439  375  305  236  163  44  -172  -447  -642  -663  -523  -315  -145  -62  -48  -66  -87  -96  -97  -99  -100  -75  15  177  333  346  116  -339  -752  -577  672  2956  5589  7619  8229  7078  4645  1916  -338  -1744  -2238  -2113  -1769  -1372  -941  -557  -324  -244  -240  -250  -254  -251  -234  -199  -144  -84  -23  58  169  267  314  330  377  509  755  1090  1403  1577  1607  1574  1536  1501  1487  1558  1770  2070  2324  2454  2472  2428  2346  2219  2073  1987  1995  2053  2107  2150  2161  2025  1624  1071  641  442  362  276  120  -141  -479  -805  -1037  -1141  -1104  -903  -583  -283  -117  -73  -88  -166  -360  -647  -894  -989  -935  -820  -731  -698  -697  -699  -690  -669  -637  -586  -517  -454  -421  -430  -468  -496  -490  -484  -529  -610  -676  -703  -703  -684  -639  -576  -522  -484  -438  -370  -291  -220  -182  -209  -327  -499  -645  -727  -777  -842  -928  -1005  -1047  -1064  -1070  -1048  -962  -811  -647  -549  -581  -777  -1095  -1411  -1600  -1596  -1390  -909  -21  1330  3063  4906  6343  6760  5857  3840  1256  -1159  -2740  -3313  -3154  -2592  -1974  -1604  -1473  -1358  -1145  -893  -715  -643  -636  -671  -721  -738  -717  -677  -607  -498  -359  -200  -40  82  158  227  338  491  639  750  825  892  992  1142  1321  1477  1585  1667  1746  1804  1826  1821  1798  1758  1705  1644  1580  1497  1350  1126  887  720  642  580  440  209  -35  -242  -404  -508  -556  -597  -676  -780  -863  -905  -919  -918  -915  -911  -904  -894  -885  -873  -852  -821  -792  -782  -789  -804  -833  -879  -934  -983  -1017  -1036  -1042  -1037  -1007  -949  -881  -832  -812  -810  -814  -811  -789  -732  -640  -540  -463  -420  -404  -407  -424  -453  -484  -505  -518  -530  -548  -589  -677  -796  -891  -933  -936  -914  -866  -803  -751  -731  -748  -804  -881  -952  -1009  -1029  -947  -727  -397  83  872  2118  3804  5569  6737  6673  5194  2739  109  -1924  -2911  -2959  -2577  -2133  -1704  -1351  -1145  -1039  -942  -810  -658  -514  -408  -354  -336  -312  -260  -196  -113  23  192  327  400  411  374  337  360  481  708  997  1248  1390  1453  1507  1585  1686  1790  1877  1949  2012  2058  2049  1957  1807  1656  1522  1399  1289  1172  1005  775  518  297  146  41  -52  -139  -215  -293  -397  -548  -783  -1085  -1355  -1516  -1577  -1557  -1453  -1290  -1129  -1002  -909  -852  -823  -797  -766  -736  -713  -704  -709  -721  -727  -727  -724  -720  -722  -732  -747  -759  -768  -773  -761  -709  -618  -525  -469  -450  -445  -444  -444  -450  -450  -424  -369  -323  -335  -397  -452  -476  -485  -502  -535  -583  -645  -721  -813  -902  -956  -970  -968  -964  -959  -948  -936  -926  -893  -797  -668  -635  -772  -904  -643  404  2357  4804  6909  7824  7090  4914  2034  -662  -2425  -2998  -2746  -2172  -1635  -1376  -1382  -1438  -1382  -1156  -793  -429  -190  -84  -46  -25  -3  38  112  195  248  264  258  243  234  274  398  573  722  811  861  905  999  1196  1474  1738  1914  1986  1994  2000  2055  2148  2219  2228  2184  2098  1964  1801  1640  1496  1353  1152  806  316  -172  -500  -671  -797  -913  -956  -913  -863  -878  -950  -995  -963  -908  -892  -905  -916  -916  -913  -925  -963  -1017  -1054  -1054  -1024  -992  -953  -851  -690  -606  -705  -920  -1097  -1164  -1146  -1069  -951  -838  -768  -731  -708  -707  -713  -694  -650  -600  -556  -534  -537  -569  -626  -688  -736  -763  -748  -692  -632  -588  -542  -492  -467  -488  -540  -601  -667  -730  -760  -746  -708  -658  -599  -553  -548  -589  -648  -687  -679  -633  -594  -637  -847  -1135  -1116  -362  1266  3583  5988  7530  7462  5712  2885  -49  -2167  -3010  -2793  -2126  -1534  -1222  -1126  -1070  -932  -688  -412  -227  -182  -233  -322  -406  -450  -404  -236  0  200  313  352  352  338  334  376  502  707  926  1083  1151  1168  1194  1291  1508  1786  1991  2081  2122  2182  2285  2408  2486  2443  2243  1962  1727  1576  1474  1411  1369  1294  1127  835  449  39  -335  -627  -799  -862  -864  -839  -797  -754  -731  -737  -756  -772  -796  -847  -915  -955  -933  -854  -751  -651  -576  -547  -569  -625  -702  -807  -931  -1028  -1053  -953  -702  -398  -233  -296  -485  -644  -710  -715  -697  -668  -634  -610  -608  -630  -673  -719  -744  -725  -642  -495  -333  -221  -182  -195  -228  -269  -324  -384  -421  -424  -433  -487  -600  -775  -965  -1088  -1115  -1080  -1026  -987  -982  -1029  -1139  -1291  -1411  -1330  -740  636  2758  5200  7244  8030  7050  4592  1508  -1284  -3056  -3509  -2969  -2102  -1387  -980  -844  -843  -854  -824  -744  -628  -505  -398  -313  -248  -198  -185  -219  -249  -211  -107  20  141  244  330  402  473  552  648  774  960  1205  1461  1671  1825  1952  2054  2110  2123  2119  2118  2124  2130  2125  2101  2023  1837  1543  1228  978  779  583  388  217  83  -16  -117  -246  -387  -513  -620  -707  -755  -750  -710  -687  -730  -828  -920  -971  -994  -1002  -973  -870  -707  -557  -475  -453  -468  -516  -586  -646  -678  -688  -688  -687  -685  -676  -652  -616  -597  -614  -646  -668  -692  -737  -793  -836  -859  -867  -853  -791  -671  -533  -435  -392  -384  -393  -404  -406  -393  -356  -304  -268  -301  -441  -652  -842  -954  -1004  -1045  -1111  -1174  -1175  -1114  -1048  -1014  -1003  -998  -994  -1024  -1177  -1421  -1502  -1206  -390  1153  3391  5779  7480  7709  6165  3329  194  -2258  -3426  -3317  -2505  -1685  -1226  -1096  -1098  -1087  -1007  -852  -656  -469  -318  -196  -81  35  121  144  135  142  173  221  289  373  460  536  602  662  726  815  946  1117  1293  1418  1485  1526  1573  1651  1769  1904  2023  2102  2133  2132  2112  2066  1978  1819  1559  1256  1033  947  942  912  718  290  -227  -600  -774  -863  -949  -1012  -1021  -1000  -1005  -1042  -1048  -963  -804  -655  -576  -551  -539  -529  -544  -614  -736  -855  -908  -871  -759  -610  -475  -392  -385  -471  -642  -836  -975  -1019  -962  -811  -619  -472  -407  -410  -466  -572  -699  -799  -840  -799  -652  -422  -203  -83  -63  -104  -193  -323  -464  -574  -639  -673  -689  -698  -712  -735  -761  -772  -756  -725  -697  -682  -681  -692  -707  -706  -688  -723  -887  -1077  -996  -306  1224  3504  5920  7528  7598  6041  3342  331  -2057  -3250  -3353  -2835  -2126  -1525  -1126  -832  -598  -458  -392  -345  -293  -226  -138  -55  -14  -16  -23  -10  15  64  173  347  525  636  676  697  739  797  852  940  1105  1316  1506  1677  1869  2050  2157  2192  2205  2223  2243  2266  2288  2276  2167  1938  1634  1316  1029  808  662  552  410  197  -47  -257  -419  -537  -598  -606  -600  -638  -784  -1047  -1332  -1510  -1511  -1345  -1090  -876  -779  -788  -860  -953  -1029  -1062  -1042  -975  -896  -846  -838  -848  -860  -875  -894  -909  -909  -895  -882  -885  -909  -941  -964  -979  -1003  -1041  -1067  -1033  -905  -725  -585  -525  -517  -525  -537  -567  -632  -721  -798  -840  -851  -845  -832  -825  -853  -952  -1118  -1286  -1388  -1403  -1339  -1195  -978  -764  -743  -1058  -1554  -1839  -1528  -419  1396  3545  5499  6683  6660  5371  3153  588  -1659  -3104  -3620  -3387  -2711  -1912  -1270  -936  -853  -856  -826  -735  -605  -462  -308  -156  -37  35  82  117  141  164  190  206  206  233  343  520  678  765  814  899  1075  1343  1631  1854  1975  2022  2051  2107  2198  2312  2425  2499  2500  2423  2307  2187  2015  1703  1284  921  716  625  549  439  322  228  127  -17  -185  -312  -365  -356  -322  -297  -304  -349  -430  -528  -600  -630  -647  -685  -742  -787  -802  -799  -797  -800  -798  -782  -766  -764  -768  -724  -558  -266  15  112  -27  -297  -534  -665  -716  -725  -703  -649  -578  -515  -469  -434  -406  -383  -369  -370  -388  -418  -448  -464  -463  -447  -423  -407  -426  -498  -614  -735  -828  -882  -905  -906  -897  -882  -868  -881  -967  -1135  -1314  -1361  -1037  -82  1572  3745  5983  7550  7735  6335  3787  895  -1511  -2880  -3183  -2824  -2289  -1865  -1595  -1369  -1102  -818  -590  -451  -391  -372  -349  -292  -202  -105  -14  69  134  172  198  223  246  270  307  369  467  602  759  905  1018  1115  1214  1306  1397  1528  1711  1898  2032  2077  2026  1917  1800  1703  1618  1517  1376  1207  1059  965  890  762  545  245  -111  -456  -697  -819  -873  -897  -902  -899  -909  -955  -1027  -1099  -1151  -1175  -1143  -1028  -861  -725  -667  -667  -685  -703  -718  -738  -760  -776  -785  -795  -804  -780  -673  -487  -321  -296  -420  -611  -780  -886  -936  -958  -938  -832  -634  -413  -253  -167  -121  -105  -134  -220  -347  -471  -538  -539  -508  -478  -457  -451  -485  -576  -692  -774  -802  -799  -791  -782  -770  -768  -794  -852  -916  -961  -1017  -1135  -1265  -1242  -841  222  2082  4420  6510  7506  6841  4650  1749  -890  -2600  -3195  -2953  -2362  -1814  -1463  -1254  -1070  -884  -750  -679  -625  -565  -519  -491  -437  -316  -157  -35  20  45  85  184  376  607  769  822  827  858  943  1038  1090  1113  1199  1411  1691  1908  2017  2065  2099  2127  2130  2106  2070  2028  1979  1914  1807  1637  1423  1225  1089  983  817  555  257  4  -210  -455  -748  -1016  -1168  -1174  -1066  -913  -790  -728  -707  -697  -685  -679  -719  -836  -995  -1111  -1153  -1156  -1158  -1163  -1161  -1139  -1075  -957  -816  -706  -637  -593  -577  -600  -645  -678  -685  -675  -665  -678  -736  -847  -989  -1113  -1159  -1078  -874  -638  -474  -402  -373  -353  -338  -334  -349  -395  -469  -558  -637  -681  -688  -689  -720  -797  -907  -1007  -1069  -1091  -1088  -1070  -1041  -989  -899  -810  -853  -1061  -1133  -578  905  3211  5743  7581  7912  6530  3961  1070  -1379  -2916  -3449  -3230  -2646  -2023  -1486  -1021  -663  -466  -393  -376  -373  -357  -311  -240  -163  -90  -15  67  146  198  213  201  167  131  134  218  375  571  795  1040  1257  1421  1562  1687  1761  1772  1774  1853  2062  2333  2519  2518  2329  2047  1796  1607  1433  1278  1178  1132  1109  1087  1018  824  470  46  -298  -527  -701  -857  -969  -1024  -1046  -1061  -1080  -1095  -1092  -1074  -1062  -1061  -1052  -1005  -910  -794  -700  -662  -674  -708  -737  -752  -756  -769  -796  -818  -814  -793  -773  -739  -674  -599  -547  -527  -524  -530  -543  -562  -586  -610  -630  -640  -634  -617  -583  -508  -393  -273  -197  -185  -224  -291  -377  -492  -642  -788  -877  -896  -865  -806  -733  -674  -670  -752  -919  -1111  -1235  -1234  -1124  -979  -882  -889  -966  -825  -46  1537  3723  5979  7483  7513  5946  3317  472  -1795  -3007  -3161  -2650  -1964  -1417  -1073  -862  -719  -613  -529  -466  -425  -395  -347  -250  -108  39  157  233  271  281  280  279  285  298  337  452  668  931  1141  1249  1281  1281  1284  1325  1427  1580  1750  1918  2056  2134  2155  2150  2137  2111  2066  2001  1905  1734  1424  984  548  246  92  36  19  -52  -259  -552  -790  -917  -1003  -1097  -1159  -1133  -1022  -885  -787  -746  -739  -759  -818  -909  -997  -1052  -1071  -1071  -1073  -1089  -1117  -1147  -1182  -1225  -1250  -1185  -964  -631  -340  -208  -226  -327  -443  -534  -610  -712  -851  -989  -1070  -1066  -988  -874  -769  -691  -631  -576  -518  -456  -399  -363  -353  -357  -374  -426  -512  -599  -652  -693  -764  -868  -976  -1065  -1101  -1073  -1031  -1021  -1008  -915  -745  -654  -783  -1065  -1305  -1248  -541  1094  3533  6157  8047  8375  6896  4164  1166  -1206  -2480  -2699  -2315  -1860  -1601  -1478  -1346  -1138  -874  -633  -475  -395  -364  -359  -364  -372  -366  -290  -95  174  392  509  574  630  674  701  719  740  782  857  961  1069  1164  1278  1444  1629  1759  1805  1792  1759  1749  1797  1917  2074  2199  2256  2220  2032  1669  1229  873  681  575  423  177  -113  -366  -516  -566  -593  -664  -772  -871  -942  -994  -1024  -1034  -1040  -1055  -1072  -1069  -1044  -1004  -955  -903  -866  -854  -865  -897  -939  -972  -985  -984  -977  -970  -962  -956  -950  -944  -942  -962  -1019  -1081  -1084  -998  -853  -707  -606  -550  -515  -494  -488  -484  -471  -449  -433  -438  -473  -534  -615  -725  -848  -935  -965  -956  -925  -877  -835  -836  -877  -923  -951  -974  -1004  -1014  -953  -860  -822  -715  -203  951  2731  4798  6428  6872  5910  3888  1413  -819  -2257  -2781  -2636  -2140  -1582  -1178  -945  -774  -620  -502  -424  -364  -304  -248  -215  -212  -229  -239  -207  -132  -47  38  155  317  489  621  714  798  891  1004  1155  1342  1523  1655  1734  1780  1813  1853  1902  1943  1972  1997  2003  1948  1802  1602  1430  1323  1263  1224  1204  1203  1198  1111  856  463  85  -207  -467  -703  -851  -902  -908  -908  -908  -905  -902  -903  -909  -917  -916  -895  -844  -768  -694  -649  -636  -648  -684  -746  -829  -922  -1021  -1109  -1153  -1125  -1030  -908  -805  -745  -715  -696  -680  -667  -658  -653  -655  -664  -673  -653  -578  -460  -348  -280  -258  -287  -418  -692  -1019  -1217  -1200  -1052  -900  -806  -784  -838  -957  -1093  -1183  -1188  -1084  -886  -702  -674  -837  -1041  -1005  -497  554  2112  3979  5684  6612  6286  4645  2147  -421  -2283  -3054  -2929  -2412  -1899  -1525  -1264  -1061  -884  -733  -640  -605  -599  -595  -557  -450  -292  -156  -80  -38  -3  23  50  118  261  444  585  665  736  849  1023  1240  1446  1577  1625  1641  1671  1703  1694  1648  1634  1704  1831  1952  2042  2100  2100  2008  1840  1636  1395  1090  767  517  341  156  -67  -281  -451  -579  -662  -709  -748  -795  -821  -799  -739  -677  -638  -631  -660  -733  -832  -915  -959  -946  -851  -687  -521  -416  -387  -423  -510  -619  -715  -767  -735  -584  -360  -174  -90  -87  -139  -265  -484  -755  -991  -1105  -1029  -759  -424  -199  -129  -153  -221  -327  -478  -678  -879  -991  -969  -862  -744  -644  -559  -514  -576  -799  -1112  -1338  -1354  -1161  -872  -658  -651  -830  -946  -602  517  2426  4705  6597  7311  6431  4194  1367  -1109  -2510  -2742  -2328  -1883  -1694  -1670  -1570  -1291  -925  -636  -504  -466  -424  -357  -310  -318  -347  -326  -214  -26  192  389  520  581  602  611  612  599  584  627  801  1087  1359  1520  1597  1680  1802  1924  2006  2052  2062  2026  1962  1902  1846  1769  1665  1554  1456  1363  1244  1088  906  701  462  192  -58  -226  -310  -362  -415  -458  -488  -526  -598  -708  -820  -889  -908  -905  -903  -904  -875  -766  -547  -288  -142  -205  -431  -680  -845  -906  -896  -859  -832  -821  -803  -756  -697  -645  -601  -570  -570  -623  -739  -896  -1046  -1131  -1114  -980  -769  -568  -438  -376  -373  -438  -545  -651  -746  -835  -901  -933  -948  -967  -999  -1046  -1096  -1139  -1165  -1156  -1093  -993  -931  -952  -1050  -1201  -1237  -793  439  2469  4888  6923  7683  6705  4386  1640  -723  -2212  -2762  -2738  -2497  -2141  -1712  -1322  -1054  -905  -814  -730  -644  -571  -519  -479  -432  -370  -301  -237  -179  -121  -54  33  148  275  380  458  538  623  699  780  905  1091  1309  1504  1631  1693  1729  1754  1758  1753  1771  1819  1881  1938  1962  1905  1745  1531  1344  1194  1000  697  344  75  -68  -177  -327  -501  -633  -693  -701  -699  -716  -744  -768  -810  -900  -1015  -1088  -1101  -1082  -1052  -1022  -991  -954  -909  -859  -807  -760  -738  -750  -773  -781  -770  -747  -727  -717  -704  -685  -681  -712  -791  -913  -1038  -1092  -1017  -808  -545  -341  -245  -226  -235  -249  -268  -298  -343  -406  -474  -528  -564  -604  -668  -743  -802  -844  -900  -982  -1072  -1156  -1242  -1324  -1377  -1370  -1274  -1105  -944  -863  -904  -1114  -1370  -1232  -230  1701  4154  6384  7544  7103  5187  2462  -240  -2229  -3168  -3158  -2582  -1883  -1368  -1082  -930  -839  -782  -746  -724  -680  -559  -358  -145  8  89  118  121  118  114  110  106  112  156  275  474  691  856  982  1130  1314  1502  1686  1865  2002  2070  2081  2056  2003  1943  1919  1958  2030  2066  2003  1839  1644  1501  1406  1285  1114  935  766  574  293  -104  -516  -774  -845  -824  -795  -786  -797  -830  -882  -940  -973  -957  -890  -778  -647  -553  -533  -581  -674  -768  -823  -842  -853  -865  -864  -837  -801  -786  -807  -837  -842  -818  -788  -765  -734  -660  -552  -461  -423  -425  -433  -437  -464  -559  -734  -937  -1081  -1128  -1059  -854  -571  -345  -244  -235  -264  -291  -303  -306  -316  -345  -393  -449  -492  -519  -541  -545  -522  -492  -484  -501  -540  -606  -685  -743  -772  -798  -867  -995  -1172  -1389  -1579  -1566  -1153  -150  1572  3883  6248  7808  7790  6080  3287  336  -1893  -2951  -3020  -2549  -1884  -1267  -855  -683  -667  -684  -667  -622  -586  -557  -482  -321  -111  52  123  125  101  80  97  198  397  633  815  903  922  920  933  980  1051  1114  1157  1223  1385  1650  1932  2141  2247  2268  2213  2078  1903  1771  1718  1707  1670  1556  1363  1134  901  672  463  276  70  -173  -410  -570  -653  -724  -820  -921  -999  -1043  -1063  -1072  -1076  -1070  -1027  -925  -791  -705  -747  -924  -1118  -1159  -1037  -898  -839  -845  -874  -911  -953  -997  -1031  -1031  -976  -882  -796  -753  -755  -793  -858  -920  -945  -923  -882  -860  -867  -881  -882  -878  -875  -851  -781  -673  -549  -415  -278  -177  -157  -243  -389  -508  -564  -586  -605  -639  -697  -770  -833  -901  -1015  -1160  -1261  -1283  -1257  -1207  -1119  -1023  -1043  -1228  -1409  -1278  -511  1084  3383  5816  7505  7719  6302  3726  865  -1407  -2655  -2945  -2620  -2095  -1651  -1325  -1047  -808  -651  -601  -633  -686  -692  -615  -473  -325  -211  -115  -1  119  198  226  253  323  420  499  550  614  737  920  1132  1327  1465  1544  1605  1700  1857  2045  2197  2281  2300  2270  2227  2196  2165  2096  1952  1741  1528  1368  1274  1221  1135  926  596  263  17  -165  -343  -518  -655  -725  -707  -607  -503  -498  -611  -777  -937  -1061  -1125  -1116  -1031  -893  -767  -717  -751  -824  -882  -902  -894  -870  -841  -822  -814  -810  -795  -757  -705  -664  -649  -667  -718  -786  -837  -859  -863  -860  -836  -776  -696  -623  -560  -494  -432  -386  -365  -377  -425  -490  -546  -605  -692  -793  -865  -894  -909  -932  -961  -973  -959  -931  -898  -862  -827  -793  -759  -761  -891  -1196  -1516  -1517  -891  444  2309  4321  5987  6790  6370  4740  2297  -292  -2263  -3121  -2963  -2335  -1765  -1468  -1372  -1283  -1043  -660  -299  -105  -67  -92  -125  -152  -175  -190  -197  -186  -131  -9  142  250  280  282  350  538  795  1016  1162  1261  1331  1369  1386  1426  1536  1700  1848  1954  2042  2108  2133  2122  2089  2049  2011  1956  1841  1635  1348  1034  760  567  425  262  42  -192  -382  -513  -614  -700  -762  -799  -824  -846  -862  -868  -858  -825  -779  -744  -742  -784  -850  -861  -767  -630  -552  -568  -648  -738  -797  -816  -795  -736  -656  -590  -562  -578  -641  -730  -805  -850  -874  -878  -857  -824  -792  -756  -709  -650  -588  -534  -479  -402  -313  -251  -229  -229  -232  -240  -264  -312  -387  -496  -628  -750  -829  -852  -822  -753  -677  -631  -650  -753  -909  -1050  -1116  -1094  -1015  -944  -956  -972  -699  166  1795  4059  6339  7704  7473  5652  2829  -137  -2330  -3255  -3159  -2622  -2019  -1437  -914  -548  -350  -240  -178  -158  -163  -175  -183  -162  -78  64  186  200  120  40  38  131  272  388  449  485  552  692  912  1181  1426  1590  1691  1792  1919  2050  2155  2218  2232  2195  2126  2051  1983  1915  1819  1668  1478  1308  1202  1147  1081  950  765  574  374  139  -120  -372  -581  -711  -766  -794  -824  -854  -895  -964  -1046  -1088  -1063  -994  -921  -872  -848  -826  -781  -732  -735  -814  -895  -896  -862  -889  -961  -1008  -1009  -976  -927  -885  -865  -865  -869  -862  -847  -833  -833  -846  -861  -870  -874  -876  -882  -895  -907  -887  -795  -626  -449  -348  -344  -379  -403  -421  -481  -603  -750  -868  -938  -980  -1018  -1062  -1095  -1106  -1095  -1066  -1024  -996  -1028  -1122  -1202  -1246  -1289  -1274  -1059  -456  741  2600  4860  6848  7673  6800  4473  1530  -1067  -2608  -2962  -2574  -1972  -1456  -1157  -1045  -985  -900  -816  -751  -683  -601  -522  -468  -463  -507  -551  -525  -368  -68  292  570  706  772  860  979  1075  1111  1098  1072  1064  1078  1129  1265  1509  1785  1985  2081  2113  2119  2108  2077  2041  2015  1988  1930  1839  1724  1558  1331  1118  1003  938  770  426  4  -337  -546  -668  -756  -824  -847  -786  -647  -510  -476  -573  -711  -798  -844  -877  -894  -896  -893  -888  -878  -862  -837  -786  -690  -573  -490  -464  -474  -501  -552  -635  -706  -723  -700  -669  -644  -628  -630  -647  -668  -682  -688  -694  -696  -669  -590  -487  -432  -463  -534  -562  -505  -386  -271  -206  -190  -194  -197  -206  -241  -313  -403  -473  -510  -529  -540  -547  -552  -563  -591  -634  -673  -694  -700  -714  -764  -854  -957  -1020  -1018  -989  -862  -279  1098  3156  5382  7064  7433  6173  3758  1042  -1223  -2520  -2765  -2353  -1741  -1193  -865  -769  -761  -726  -644  -502  -315  -146  -46  -11  -17  -65  -162  -277  -337  -284  -117  122  375  578  689  726  736  758  812  934  1177  1521  1825  1977  1997  1962  1918  1883  1866  1873  1907  1957  2004  2033  2038  2015  1945  1805  1603  1385  1172  958  755  564  322  -1  -330  -558  -665  -711  -747  -776  -789  -794  -806  -831  -857  -869  -867  -860  -857  -876  -925  -988  -1033  -1050  -1048  -1022  -960  -866  -781  -742  -745  -758  -764  -770  -783  -801  -812  -792  -717  -609  -528  -509  -538  -587  -637  -692  -762  -842  -900  -900  -837  -742  -653  -584  -525  -467  -407  -355  -323  -309  -303  -290  -275  -322  -504  -792  -1041  -1131  -1075  -966  -873  -811  -761  -698  -631  -597  -610  -646  -679  -718  -809  -974  -1175  -1364  -1409  -934  407  2525  4959  7014  7847  6976  4726  1938  -585  -2284  -2948  -2828  -2393  -1928  -1493  -1130  -897  -768  -667  -572  -507  -483  -473  -439  -363  -266  -168  -63  53  176  304  426  518  580  636  691  735  772  822  881  929  996  1159  1421  1681  1853  1955  2045  2135  2208  2246  2260  2263  2242  2169  2042  1873  1656  1388  1124  919  767  631  477  278  44  -170  -321  -421  -494  -544  -572  -588  -611  -676  -825  -1041  -1240  -1330  -1295  -1183  -1054  -944  -875  -849  -842  -823  -794  -798  -859  -926  -945  -917  -874  -845  -837  -838  -846  -869  -901  -923  -926  -911  -881  -829  -752  -674  -623  -608  -625  -670  -732  -783  -804  -775  -681  -549  -444  -396  -378  -365  -376  -459  -632  -838  -974  -995  -923  -815  -722  -667  -646  -664  -739  -883  -1051  -1155  -1144  -1060  -1013  -1076  -1209  -1299  -1134  -403  1082  3200  5462  7088  7331  5952  3429  649  -1550  -2662  -2748  -2340  -1937  -1716  -1597  -1425  -1162  -916  -776  -720  -692  -672  -663  -654  -621  -527  -360  -165  14  179  332  460  558  639  726  801  840  882  969  1083  1198  1304  1394  1480  1573  1662  1743  1840  1967  2085  2151  2152  2087  1966  1828  1722  1658  1620  1590  1522  1348  1062  744  453  189  -36  -201  -325  -430  -508  -567  -638  -725  -806  -877  -933  -955  -939  -900  -840  -755  -657  -573  -524  -504  -486  -462  -447  -457  -488  -530  -583  -652  -722  -754  -714  -618  -510  -422  -362  -331  -324  -328  -333  -349  -401  -476  -518  -493  -430  -383  -368  -369  -369  -366  -374  -416  -512  -650  -779  -833  -796  -713  -648  -625  -641  -689  -749  -794  -816  -833  -847  -797  -587  -258  -97  -321  -697  -693  87  1722  3928  5959  6857  6143  4085  1391  -1109  -2713  -3173  -2826  -2229  -1733  -1392  -1136  -938  -809  -717  -610  -493  -417  -396  -384  -341  -270  -197  -136  -92  -66  -34  52  215  404  558  680  785  848  857  875  988  1218  1493  1702  1792  1801  1836  1974  2177  2333  2391  2381  2322  2200  2002  1746  1491  1314  1231  1190  1121  972  751  507  265  33  -170  -338  -469  -565  -630  -671  -684  -688  -721  -786  -843  -864  -862  -856  -853  -859  -872  -885  -890  -888  -884  -881  -880  -879  -878  -877  -874  -863  -828  -760  -679  -622  -602  -614  -655  -718  -780  -817  -822  -807  -783  -751  -704  -649  -604  -578  -565  -557  -546  -525  -501  -491  -519  -600  -705  -779  -800  -795  -796  -833  -929  -1081  -1233  -1314  -1300  -1207  -1030  -783  -596  -643  -944  -1341  -1563  -1242  -97  1853  4245  6380  7384  6750  4711  1976  -670  -2523  -3249  -3100  -2552  -1884  -1272  -898  -786  -786  -770  -712  -641  -578  -506  -430  -379  -357  -342  -315  -273  -218  -135  -14  148  351  562  730  831  880  893  896  948  1121  1394  1640  1761  1779  1772  1794  1854  1922  1965  1976  1978  1983  1984  1951  1853  1691  1514  1372  1264  1154  1034  895  721  515  271  -70  -500  -862  -1007  -939  -786  -671  -633  -646  -684  -737  -794  -835  -836  -785  -692  -593  -535  -542  -600  -674  -724  -737  -728  -721  -737  -793  -870  -926  -944  -942  -938  -939  -937  -926  -912  -896  -843  -708  -522  -371  -282  -224  -182  -175  -225  -341  -483  -592  -647  -678  -708  -735  -760  -803  -884  -981  -1031  -1002  -927  -866  -841  -844  -873  -930  -991  -1041  -1126  -1281  -1428  -1350  -724  683  2772  5082  6901  7467  6442  4184  1458  -933  -2375  -2741  -2429  -1936  -1517  -1224  -1047  -957  -927  -917  -859  -703  -490  -318  -227  -186  -165  -153  -140  -119  -64  80  324  575  738  802  811  802  790  778  768  781  855  1030  1313  1658  1961  2139  2197  2200  2196  2199  2198  2173  2121  2063  2013  1961  1881  1738  1498  1153  736  318  -8  -189  -253  -269  -290  -338  -424  -546  -677  -785  -861  -920  -967  -995  -1003  -1001  -998  -998  -1004  -1014  -1023  -1030  -1036  -1042  -1049  -1056  -1062  -1055  -1024  -974  -926  -890  -871  -877  -927  -1009  -1040  -939  -731  -518  -384  -346  -363  -413  -513  -658  -785  -835  -805  -743  -697  -678  -659  -619  -565  -524  -506  -504  -520  -561  -616  -659  -686  -712  -747  -782  -806  -820  -831  -856  -914  -994  -1068  -1111  -1124  -1158  -1270  -1395  -1362  -960  83  1935  4344  6602  7813  7335  5251  2366  -336  -2138  -2800  -2630  -2122  -1598  -1241  -1101  -1063  -991  -860  -727  -638  -585  -530  -445  -343  -232  -103  40  160  223  243  249  270  336  466  631  762  854  947  1039  1117  1206  1301  1374  1436  1549  1763  2036  2272  2416  2463  2431  2352  2239  2072  1867  1690  1588  1541  1500  1415  1280  1130  944  627  178  -226  -438  -486  -488  -527  -622  -741  -844  -921  -982  -1029  -1059  -1060  -1002  -867  -704  -602  -588  -615  -639  -665  -720  -831  -993  -1146  -1209  -1153  -1021  -889  -806  -775  -775  -786  -801  -823  -847  -867  -876  -869  -836  -768  -675  -587  -549  -585  -673  -763  -801  -750  -608  -433  -311  -275  -294  -326  -365  -414  -459  -490  -516  -552  -589  -606  -592  -567  -557  -573  -623  -726  -898  -1092  -1224  -1245  -1154  -963  -721  -564  -651  -1016  -1499  -1737  -1232  287  2588  5096  7039  7608  6496  4192  1546  -690  -2043  -2503  -2445  -2221  -1959  -1699  -1477  -1278  -1058  -814  -579  -405  -317  -292  -297  -316  -338  -339  -287  -171  -34  66  127  176  231  295  363  447  596  832  1091  1284  1380  1423  1470  1552  1649  1729  1779  1808  1822  1826  1843  1891  1960  2000  1977  1890  1746  1553  1342  1152  968  737  447  170  -19  -123  -181  -226  -296  -428  -596  -732  -830  -948  -1093  -1199  -1207  -1116  -972  -841  -768  -760  -791  -821  -828  -816  -805  -801  -803  -818  -857  -919  -987  -1041  -1062  -1050  -1025  -1005  -982  -956  -936  -930  -931  -934  -940  -956  -979  -1000  -1016  -1029  -1041  -1042  -1005  -907  -767  -625  -503  -408  -347  -318  -312  -320  -341  -375  -412  -448  -500  -576  -655  -716  -754  -774  -785  -806  -848  -900  -928  -910  -868  -822  -766  -720  -780  -1012  -1267  -1261  -782  299  2018  4136  6117  7334  7289  5849  3388  622  -1647  -2894  -3152  -2776  -2130  -1501  -1013  -640  -386  -271  -257  -275  -283  -275  -262  -250  -233  -211  -191  -185  -182  -137  -3  200  399  551  670  772  860  940  1023  1122  1256  1433  1608  1710  1738  1779  1927  2166  2374  2458  2412  2274  2100  1955  1866  1806  1733  1631  1498  1340  1156  947  740  547  329  95  -82  -182  -255  -337  -446  -602  -781  -923  -997  -1017  -1013  -997  -970  -938  -904  -864  -819  -787  -777  -775  -767  -756  -747  -740  -740  -770  -852  -956  -1004  -960  -859  -735  -610  -555  -632  -781  -869  -837  -741  -656  -592  -533  -486  -458  -429  -376  -326  -316  -335  -351  -368  -419  -528  -676  -809  -888  -917  -927  -928  -896  -807  -686  -595  -563  -572  -601  -635  -639  -546  -347  -192  -289  -670  -1076  -1040  -175  1510  3607  5503  6544  6283  4784  2566  317  -1350  -2160  -2281  -2096  -1885  -1692  -1477  -1256  -1037  -794  -556  -384  -283  -205  -128  -72  -54  -68  -88  -83  -15  139  334  478  542  579  644  748  866  973  1061  1148  1267  1415  1542  1625  1688  1765  1876  2018  2167  2282  2331  2324  2298  2269  2229  2144  1966  1683  1360  1085  861  630  375  114  -143  -378  -537  -588  -556  -503  -478  -493  -541  -611  -695  -790  -880  -943  -969  -973  -969  -963  -948  -924  -900  -896  -918  -955  -984  -997  -998  -983  -944  -890  -853  -860  -911  -969  -994  -986  -958  -897  -815  -756  -741  -756  -780  -796  -802  -795  -772  -734  -697  -671  -661  -662  -668  -680  -698  -717  -722  -708  -687  -675  -693  -766  -910  -1104  -1289  -1411  -1464  -1475  -1466  -1448  -1413  -1345  -1265  -1180  -936  -260  1032  2925  5043  6659  7107  6151  4082  1562  -701  -2237  -2931  -2954  -2596  -2173  -1891  -1713  -1496  -1210  -940  -750  -638  -571  -514  -433  -324  -205  -86  37  149  218  237  229  208  176  139  119  163  314  544  753  875  934  977  1044  1224  1594  2067  2427  2575  2600  2622  2666  2654  2499  2198  1837  1520  1300  1139  973  799  649  511  347  148  -40  -183  -284  -352  -395  -423  -432  -428  -442  -485  -523  -531  -525  -545  -626  -758  -883  -960  -987  -981  -954  -914  -860  -758  -572  -349  -194  -147  -175  -236  -298  -348  -406  -503  -632  -746  -814  -837  -831  -809  -776  -717  -618  -488  -363  -279  -251  -258  -260  -250  -235  -194  -156  -196  -319  -477  -634  -748  -793  -766  -670  -544  -452  -421  -427  -444  -460  -457  -425  -408  -486  -704  -1003  -1120  -714  385  2175  4435  6563  7752  7454  5703  3090  440  -1543  -2518  -2580  -2107  -1458  -880  -540  -448  -475  -508  -508  -461  -360  -210  -9  227  437  553  573  543  502  472  473  530  664  851  1030  1158  1241  1307  1363  1409  1468  1577  1744  1920  2038  2086  2122  2190  2284  2385  2497  2610  2685  2705  2682  2626  2507  2246  1799  1266  849  644  567  487  360  211  77  -25  -108  -179  -230  -264  -316  -423  -567  -677  -705  -643  -505  -345  -240  -234  -336  -519  -699  -801  -813  -774  -720  -669  -618  -568  -530  -506  -492  -484  -477  -464  -447  -428  -418  -431  -457  -486  -519  -546  -559  -563  -566  -567  -557  -537  -514  -485  -435  -367  -309  -270  -227  -172  -134  -161  -275  -433  -557  -632  -709  -819  -934  -1015  -1042  -1034  -1038  -1085  -1164  -1250  -1318  -1352  -1327  -1248  -1185  -1191  -1099  -514  827  2647  4250  5140  5274  4655  3172  1020  -1127  -2599  -3201  -3191  -2908  -2577  -2303  -2061  -1783  -1510  -1342  -1289  -1278  -1254  -1213  -1180  -1182  -1227  -1302  -1379  -1440  -1472  -1461  -1381  -1229  -1051  -899  -778  -674  -602  -578  -590  -603  -573  -465  -306  -164  -59  34  134  221  272  272  215  107  -10  -88  -107  -95]
