reading_id,reading_time,wire_id,result_classification,heart_rate,heart_rate_alert,firmware_version,device_app_version,hardware_version,waveform_samples
8ad3ab00-5719-11ed-8080-808080808080,Fri Oct 28 23:37:53 UTC 2022,a101e3f91939,NSR,80,NONE,20001.171.50,2.10.0,Charge 5,[-5471  -6305  -6658  -6184  -4855  -3167  -1796  -945  -435  -162  -76  -71  -88  -181  -412  -696  -877  -958  -1022  -975  -561  346  1510  2564  3495  4547  5742  6787  7441  7817  8254  9065  10402  12029  13386  14140  14413  14445  14417  14563  15123  16044  16935  17465  17597  17482  17307  17157  17002  16813  16602  16429  16371  16446  16645  17005  17467  17843  18037  18099  18085  18020  17939  17875  17840  17814  17781  17787  17963  18364  18704  18518  17731  16692  15744  15036  14556  14206  13925  13682  13441  13165  12822  12442  12097  11720  11111  10429  10364  11372  13190  15218  16993  18333  19023  18641  16950  14209  11112  8409  6542  5508  5015  4844  4844  4909  5127  5503  5802  5880  5785  5605  5362  5030  4655  4357  4204  4170  4176  4148  4068  3957  3851  3785  3774  3807  3845  3795  3528  3034  2520  2209  2141  2243  2493  2894  3340  3650  3785  3847  3874  3823  3661  3402  3124  2919  2811  2775  2759  2620  2194  1509  864  522  398  144  -519  -1497  -2380  -2886  -3066  -3097  -3070  -2985  -2836  -2669  -2532  -2436  -2384  -2379  -2390  -2369  -2308  -2242  -2250  -2457  -2917  -3471  -3854  -3988  -4000  -3982  -3870  -3547  -3061  -2645  -2450  -2416  -2437  -2519  -2735  -3073  -3383  -3510  -3438  -3296  -3208  -3230  -3364  -3545  -3743  -3987  -4207  -4307  -4306  -4279  -4276  -4332  -4458  -4656  -4945  -5314  -5658  -5856  -5873  -5711  -5399  -5061  -4851  -4795  -4814  -4836  -4819  -4741  -4617  -4494  -4430  -4449  -4555  -4747  -4975  -5142  -5197  -5149  -5015  -4851  -4754  -4779  -4886  -4997  -5053  -5033  -4939  -4784  -4637  -4604  -4691  -4807  -4901  -4976  -4974  -4709  -4063  -3390  -3339  -4014  -4765  -4927  -4178  -2337  411  3222  5019  5055  3249  269  -2820  -5014  -5823  -5592  -5004  -4379  -3877  -3693  -3757  -3809  -3721  -3534  -3362  -3264  -3212  -3176  -3075  -2804  -2418  -2118  -2017  -2043  -2053  -1966  -1798  -1609  -1446  -1307  -1161  -998  -882  -905  -1035  -1100  -974  -721  -510  -410  -366  -330  -296  -272  -262  -240  -135  129  541  980  1315  1499  1570  1576  1501  1298  991  677  430  253  84  -148  -447  -749  -995  -1176  -1332  -1493  -1606  -1642  -1677  -1766  -1850  -1844  -1741  -1611  -1514  -1453  -1413  -1386  -1361  -1329  -1298  -1287  -1293  -1283  -1246  -1205  -1177  -1154  -1107  -1041  -1007  -1006  -986  -923  -820  -699  -616  -637  -794  -1045  -1295  -1466  -1502  -1359  -1065  -760  -582  -550  -605  -692  -767  -834  -946  -1118  -1284  -1353  -1281  -1100  -864  -609  -390  -266  -236  -269  -368  -546  -759  -921  -995  -1005  -982  -959  -920  -809  -625  -400  -177  -28  21  17  13  22  10  -86  -303  -588  -837  -985  -1090  -1257  -1484  -1652  -1670  -1553  -1380  -1177  -844  -351  70  156  -170  -737  -1025  -487  1056  3404  5943  7848  8459  7463  5187  2511  178  -1468  -2407  -2892  -3051  -2724  -2014  -1395  -1076  -873  -626  -348  -105  70  197  311  418  479  411  151  -220  -526  -714  -878  -1061  -1204  -1249  -1164  -935  -623  -350  -162  -2  160  282  298  195  50  -43  -59  20  249  610  979  1253  1429  1540  1592  1599  1632  1725  1810  1820  1764  1688  1599  1464  1242  930  563  215  -14  -90  -89  -131  -292  -553  -822  -1022  -1124  -1152  -1152  -1138  -1094  -1055  -1064  -1034  -849  -575  -378  -305  -309  -391  -592  -873  -1103  -1194  -1117  -853  -465  -126  31  8  -114  -238  -283  -252  -208  -178  -128  -30  84  166  207  236  277  320  345  345  300  171  -24  -204  -310  -351  -358  -352  -343  -304  -191  12  263  477  570  515  369  182  -7  -138  -167  -92  83  357  676  938  1078  1114  1082  987  817  613  476  509  750  1105  1400  1545  1577  1568  1554  1535  1495  1447  1408  1352  1228  1058  915  831  770  689  590  555  651  821  935  937  886  846  837  833  788  700  553  293  85  354  1470  3534  6267  8894  10348  9925  7813  4846  1949  -167  -1250  -1574  -1539  -1358  -1119  -847  -560  -294  -21  340  783  1171  1385  1444  1397  1204  812  342  24  -41  68  235  369  439  451  423  396  480  783  1252  1649  1796  1714  1556  1476  1533  1664  1773  1827  1858  1879  1861  1775  1647  1550  1528  1565  1623  1671  1708  1752  1796  1804  1738  1572  1285  878  424  34  -237  -460  -751  -1088  -1317  -1390  -1439  -1608  -1874  -2101  -2210  -2227  -2165  -2013  -1817  -1674  -1625  -1633  -1659  -1702  -1783  -1910  -2044  -2125  -2149  -2155  -2177  -2211  -2213  -2131  -1939  -1691  -1492  -1397  -1366  -1347  -1333  -1318  -1289  -1251  -1276  -1442  -1695  -1881  -1938  -1958  -2066  -2301  -2517  -2507  -2280  -2054  -1966  -1975  -2000  -1985  -1910  -1804  -1729  -1718  -1746  -1773  -1785  -1817  -1933  -2167  -2456  -2654  -2645  -2397  -1980  -1550  -1275  -1244  -1400  -1610  -1749  -1720  -1551  -1380  -1279  -1220  -1177  -1150  -1139  -1137  -1142  -1162  -1190  -1191  -1137  -1043  -952  -935  -1031  -1174  -1294  -1405  -1521  -1624  -1696  -1730  -1693  -1537  -1257  -987  -967  -1317  -1783  -1732  -604  1552  4104  6371  7898  8183  6872  4288  1165  -1732  -3658  -4211  -3611  -2527  -1602  -1075  -820  -597  -298  -10  154  188  157  119  97  87  78  75  121  248  418  542  585  581  567  546  500  409  286  237  359  601  830  965  1010  1043  1165  1396  1649  1824  1902  1931  1950  1969  1978  1958  1895  1804  1731  1702  1707  1728  1742  1702  1570  1389  1239  1112  936  724  561  434  212  -188  -680  -1070  -1254  -1293  -1294  -1306  -1305  -1228  -1036  -745  -406  -99  94  150  103  3  -116  -254  -429  -620  -751  -759  -641  -467  -331  -272  -278  -311  -296  -171  20  168  221  227  247  307  368  352  221  32  -120  -189  -196  -199  -245  -335  -424  -459  -441  -411  -397  -396  -398  -400  -401  -411  -443  -496  -517  -421  -180  90  189  44  -185  -342  -439  -514  -547  -517  -429  -299  -94  213  548  802  863  598  107  -296  -461  -491  -564  -768  -1040  -1279  -1435  -1509  -1523  -1507  -1468  -1403  -1319  -1259  -1273  -1309  -1208  -920  -553  -189  280  1171  2736  4889  7092  8331  7753  5442  2241  -838  -2910  -3523  -2978  -2098  -1461  -1095  -881  -785  -753  -683  -503  -272  -141  -160  -209  -150  28  229  355  390  388  397  419  431  423  429  515  718  984  1199  1273  1220  1154  1181  1311  1469  1560  1569  1577  1661  1828  2043  2280  2494  2635  2725  2802  2800  2658  2457  2316  2237  2164  2087  2031  1991  1912  1738  1483  1223  1011  836  634  389  192  105  65  13  -57  -160  -291  -425  -525  -564  -579  -605  -600  -562  -564  -613  -654  -630  -508  -307  -99  52  111  71  -11  -69  -83  -70  -43  12  123  250  292  232  115  -26  -143  -192  -192  -179  -169  -164  -174  -212  -256  -219  -38  215  341  197  -56  -103  101  324  415  416  397  376  337  274  185  51  -106  -175  -88  42  50  -87  -221  -166  62  273  342  295  201  108  42  8  -11  -47  -106  -140  -129  -186  -442  -824  -1129  -1272  -1306  -1296  -1257  -1163  -998  -803  -668  -640  -702  -821  -995  -1259  -1588  -1830  -1829  -1599  -1323  -1092  -669  356  2200  4607  6803  7785  6904  4315  896  -2157  -3973  -4410  -3879  -3013  -2355  -2075  -1996  -1898  -1725  -1560  -1496  -1537  -1551  -1412  -1170  -979  -900  -868  -800  -680  -534  -404  -346  -385  -470  -513  -424  -146  233  538  717  849  982  1094  1151  1153  1142  1157  1225  1360  1561  1815  2072  2256  2334  2354  2390  2477  2604  2734  2816  2800  2644  2352  1976  1546  1094  705  450  335  316  327  330  327  327  301  198  9  -182  -272  -234  -130  -38  12  30  23  8  36  127  224  241  118  -124  -373  -515  -501  -342  -101  107  220  248  214  109  -67  -265  -409  -476  -499  -517  -523  -517  -536  -597  -667  -647  -444  -192  -195  -485  -787  -924  -944  -940  -944  -956  -961  -933  -848  -737  -663  -653  -673  -665  -579  -410  -237  -174  -273  -475  -674  -806  -868  -882  -872  -849  -838  -888  -1020  -1157  -1172  -1054  -920  -847  -829  -833  -842  -853  -858  -831  -744  -613  -494  -424  -399  -403  -422  -441  -456  -493  -584  -728  -890  -1024  -1099  -1133  -1191  -1317  -1485  -1584  -1498  -1268  -1054  -933  -887  -981  -1370  -2002  -2442  -2342  -1908  -1516  -1114  -329  1038  2982  5345  7506  8480  7718  5497  2506  -498  -2753  -3884  -4076  -3618  -2822  -2080  -1548  -1155  -875  -698  -603  -596  -671  -773  -845  -875  -881  -883  -885  -872  -820  -724  -601  -485  -403  -347  -301  -259  -215  -160  -92  15  201  446  675  839  954  1053  1144  1230  1331  1444  1524  1535  1485  1413  1359  1336  1342  1389  1482  1569  1578  1504  1402  1296  1178  1041  870  624  305  -32  -364  -687  -939  -1060  -1075  -1052  -1035  -1048  -1103  -1188  -1261  -1293  -1290  -1281  -1254  -1161  -1005  -863  -788  -780  -826  -886  -949  -1054  -1221  -1412  -1563  -1618  -1526  -1278  -969  -750  -678  -692  -709  -686  -627  -570  -530  -493  -480  -529  -645  -790  -894  -935  -943  -939  -903  -819  -717  -648  -632  -649  -672  -688  -694  -695  -701  -712  -714  -690  -639  -581  -538  -521  -524  -518  -452  -308  -172  -190  -378  -589  -685  -651  -571  -513  -486  -481  -491  -495  -448  -322  -185  -130  -130  -97  -34  18  68  125  177  219  263  309  338  338  323  311  308  321  341  343  278  105  -121  -284  -336  -318  -276  -231  -198  -200  -262  -388  -536  -637  -630  -456  -147  23  -270  -950  -1505  -1343  -39  2420  5462  8081  9354  8941  7057  4290  1413  -988  -2565  -3142  -2855  -2094  -1297  -803  -666  -695  -688  -561  -367  -219  -163  -154  -141  -107  -74  -72  -88  -75  -10  109  248  349  425  542  700  812  841  840  873  955  1057  1133  1169  1180  1192  1225  1293  1425  1647  1908  2104  2201  2234  2254  2318  2465  2693  2944  3108  3059  2712  2139  1592  1267  1126  1021  884  743  614  453  214  -75  -334  -507  -596  -633  -638  -578  -406  -169  -9  -43  -269  -542  -713  -799  -861  -848  -743  -625  -558  -566  -588  -543  -435  -310  -179  -66  10  71  124  133  28  -224  -551  -801  -907  -919  -872  -763  -624  -546  -591  -721  -784  -678  -486  -346  -296  -310  -345  -361  -352  -361  -410  -442  -392  -287  -204  -180  -209  -303  -496  -752  -959  -1039  -972  -761  -491  -296  -229  -242  -283  -316  -319  -303  -315  -375  -436  -459  -463  -481  -508  -525  -522  -485  -406  -288  -168  -91  -56  -4  100  219  271  231  165  137  134  93  -21  -162  -247  -248  -184  -97  -40  -47  -116  -216  -366  -683  -1117  -1260  -986  -763  -769  -598  104  1536  3698  6072  7862  8504  7669  5364  2250  -661  -2638  -3388  -3118  -2470  -1931  -1530  -1159  -750  -319  3  144  170  160  127  60  -39  -141  -212  -245  -252  -243  -222  -176  -63  145  402  612  733  782  790  784  774  757  751  810  985  1224  1411  1508  1562  1620  1725  1929  2188  2394  2531  2643  2678  2556  2328  2115  1952  1801  1641  1499  1379  1253  1125  1007  837  536  120  -283  -557  -682  -725  -746  -762  -769  -754  -708  -644  -594  -571  -571  -610  -738  -983  -1196  -1150  -880  -640  -551  -558  -586  -604  -611  -617  -629  -646  -659  -644  -563  -399  -207  -70  -13  -3  -31  -141  -373  -667  -880  -922  -840  -737  -670  -645  -652  -680  -717  -753  -778  -783  -759  -720  -689  -678  -687  -702  -707  -698  -675  -632  -575  -541  -560  -628  -755  -973  -1232  -1418  -1480  -1448  -1327  -1054  -617  -163  115  188  148  68  -17  -79  -99  -81  -41  -35  -186  -579  -1087  -1437  -1492  -1310  -1055  -879  -835  -874  -933  -972  -973  -928  -855  -816  -882  -1002  -909  -352  680  2176  4140  6133  7322  7137  5512  2800  -133  -2261  -3134  -3078  -2701  -2393  -2202  -2025  -1857  -1744  -1661  -1562  -1435  -1285  -1120  -938  -746  -577  -464  -377  -280  -228  -238  -207  -101  -18  -7  -26  -42  -59  -72  -40  88  303  553  854  1236  1645  1980  2174  2236  2237  2238  2257  2301  2403  2581  2781  2925  2979  2904  2636  2208  1801  1545  1403  1286  1170  1051  879  547  -6  -640  -1057  -1060  -671  -119  269  302  -5  -479  -887  -1117  -1202  -1198  -1154  -1118  -1109  -1120  -1128  -1100  -1009  -883  -789  -761  -767  -753  -690  -604  -544  -527  -530  -529  -522  -537  -632  -832  -1029  -1061  -932  -786  -675  -531  -342  -200  -190  -325  -550  -776  -937  -976  -855  -634  -455  -452  -665  -960  -1148  -1184  -1149  -1105  -1067  -1035  -1008  -989  -990  -1025  -1075  -1066  -913  -626  -303  -57  59  62  -25  -208  -438  -618  -715  -765  -798  -844  -934  -1052  -1153  -1204  -1185  -1108  -1027  -973  -912  -819  -727  -684  -683  -669  -685  -919  -1420  -1946  -2222  -2057  -1219  483  2951  5721  8024  8940  7929  5355  2228  -465  -2113  -2700  -2715  -2572  -2367  -2100  -1744  -1238  -675  -288  -155  -133  -68  41  117  129  118  113  102  69  55  190  573  1072  1401  1439  1316  1203  1162  1165  1183  1210  1238  1260  1281  1319  1375  1444  1549  1723  1982  2322  2677  2937  3043  3015  2886  2685  2482  2350  2287  2249  2214  2178  2097  1902  1605  1339  1228  1280  1405  1443  1188  558  -205  -725  -884  -837  -730  -624  -544  -494  -468  -479  -551  -670  -737  -674  -575  -548  -537  -452  -327  -270  -338  -455  -488  -373  -167  -7  14  -88  -236  -343  -397  -442  -477  -427  -236  30  237  316  285  132  -190  -587  -809  -734  -505  -333  -289  -344  -477  -648  -787  -866  -905  -924  -928  -926  -923  -921  -915  -891  -835  -753  -674  -627  -600  -554  -441  -264  -113  -74  -134  -222  -297  -371  -449  -503  -513  -488  -460  -484  -614  -851  -1100  -1252  -1281  -1214  -1080  -910  -742  -604  -544  -629  -861  -1073  -1089  -1018  -1122  -1415  -1597  -1241  -68  1929  4541  7176  8813  8773  7161  4404  1152  -1591  -3011  -3078  -2401  -1635  -1186  -1184  -1439  -1622  -1580  -1349  -1060  -860  -801  -820  -846  -833  -759  -640  -535  -484  -483  -515  -563  -608  -612  -508  -257  56  293  407  438  450  520  638  723  771  819  891  1034  1245  1462  1648  1828  2039  2244  2330  2237  2052  1908  1838  1772  1662  1496  1252  942  640  415  269  146  -24  -251  -458  -578  -625  -663  -744  -881  -1044  -1166  -1208  -1192  -1163  -1148  -1152  -1194  -1301  -1444  -1553  -1592  -1571  -1491  -1339  -1140  -944  -757  -576  -457  -445  -515  -628  -748  -842  -905  -954  -987  -997  -985  -963  -951  -963  -982  -987  -981  -971  -933  -836  -704  -605  -566  -568  -602  -672  -752  -792  -781  -745  -707  -680  -676  -694  -732  -792  -862  -928  -986  -1029  -1042  -1009  -942  -866  -806  -787  -790  -715  -486  -173  76  198  234  234  157  -84  -460  -802  -976  -973  -810  -518  -225  -120  -284  -596  -823  -856  -764  -644  -537  -465  -440  -475  -581  -730  -845  -879  -847  -855  -1045  -1387  -1610  -1326  -115  2192  5129  7752  9153  8868  7093  4420  1521  -903  -2442  -3078  -2868  -2101  -1531  -1582  -1846  -1877  -1684  -1390  -1021  -618  -293  -123  -107  -235  -475  -722  -872  -909  -857  -726  -544  -369  -231  -110  22  175  324  434  523  644  777  858  875  868  885  951  1049  1147  1277  1518  1835  2085  2193  2206  2195  2195  2204  2182  2080  1897  1710  1595  1563  1588  1642  1673  1570  1238  737  257  -51  -169  -174  -156  -156  -158  -154  -195  -317  -471  -574  -594  -574  -599  -726  -901  -1017  -1046  -1039  -1031  -1004  -915  -716  -406  -71  176  354  587  894  1131  1171  997  696  378  82  -174  -319  -320  -246  -186  -168  -167  -152  -105  -19  89  165  154  33  -205  -496  -703  -749  -657  -497  -350  -271  -254  -259  -266  -276  -297  -327  -347  -347  -330  -323  -371  -494  -624  -634  -485  -265  -80  28  90  148  166  74  -111  -327  -547  -749  -883  -942  -972  -998  -1017  -1026  -1031  -1027  -991  -906  -815  -832  -1038  -1349  -1564  -1574  -1410  -1143  -854  -629  -408  10  753  1899  3553  5525  7181  7756  6780  4268  664  -2993  -5319  -5709  -4682  -3129  -1825  -1181  -1088  -1154  -1095  -863  -572  -378  -340  -397  -453  -446  -365  -253  -177  -155  -140  -85  17  183  454  781  1014  1078  1027  951  902  889  896  907  912  905  900  960  1165  1494  1799  1959  1981  1934  1895  1967  2226  2592  2873  2960  2830  2470  1988  1628  1514  1551  1528  1242  645  -65  -606  -832  -837  -821  -884  -980  -994  -838  -588  -408  -347  -385  -507  -638  -691  -638  -486  -293  -153  -100  -94  -108  -141  -178  -186  -149  -96  -86  -168  -351  -575  -761  -876  -908  -797  -510  -129  177  289  191  -51  -322  -509  -607  -685  -778  -837  -764  -488  -94  184  158  -202  -712  -1072  -1117  -893  -577  -358  -299  -342  -407  -453  -468  -451  -401  -338  -303  -324  -400  -514  -636  -737  -794  -779  -668  -510  -396  -360  -371  -397  -420  -427  -402  -361  -388  -538  -729  -824  -783  -666  -531  -367  -181  -52  -75  -281  -591  -842  -939  -901  -781  -622  -471  -370  -315  -288  -324  -475  -710  -900  -958  -911  -816  -665  -445  -185  -16  -243  -1093  -2189  -2681  -2005  -194  2353  5055  7309  8604  8553  7114  4695  1897  -701  -2509  -3173  -2978  -2514  -2107  -1829  -1632  -1379  -1002  -568  -201  -4  -4  -152  -352  -486  -470  -297  -57  115  173  163  130  89  71  125  265  441  591  678  707  705  697  692  688  695  746  878  1074  1292  1527  1785  2016  2153  2197  2200  2207  2222  2223  2187  2100  1979  1863  1751  1584  1314  970  627  355  200  144  132  126  124  124  84  -57  -300  -581  -825  -953  -942  -908  -960  -1026  -989  -864  -754  -710  -711  -727  -743  -745  -707  -611  -491  -417  -418  -467  -524  -562  -578  -579  -553  -480  -375  -288  -240  -206  -166  -119  -77  -68  -130  -244  -339  -377  -380  -409  -509  -656  -777  -834  -833  -787  -708  -610  -522  -489  -568  -767  -1003  -1166  -1234  -1258  -1267  -1241  -1160  -1048  -955  -879  -764  -617  -517  -509  -548  -577  -588  -588  -571  -531  -501  -533  -617  -668  -628  -526  -425  -357  -333  -396  -591  -863  -1065  -1082  -894  -577  -282  -131  -163  -372  -682  -939  -1034  -985  -887  -822  -788  -725  -624  -537  -486  -431  -331  -206  -114  -83  -87  -89  -74  -44  -9  26  40  -34  -256  -563  -809  -941  -1001  -1021  -1016  -1001  -999  -1037  -1126  -1234  -1284  -1160  -707  140  1346  3024  5317  7874  9788  10052  8210  4737  760  -2481  -4160  -4286  -3489  -2440  -1576  -1058  -775  -565  -410  -343  -338  -348  -346  -330  -320  -333  -347  -284  -68  257  525  619  565  480  465  534  626  694  729  737  719  662  575  517  599  899  1329  1685  1869  1936  1971  2025  2099  2155  2172  2168  2168  2189  2229  2270  2289  2240  2085  1861  1659  1518  1398  1240  1023  782  570  418  306  178  10  -151  -241  -253  -241  -275  -387  -528  -622  -653  -643  -607  -568  -547  -551  -585  -659  -766  -876  -950  -976  -968  -914  -778  -558  -331  -189  -152  -167  -193  -232  -296  -376  -434  -454  -474  -541  -647  -732  -760  -752  -739  -732  -735  -744  -742  -693  -579  -454  -383  -345  -281  -205  -207  -313  -446  -551  -648  -785  -972  -1129  -1175  -1101  -933  -734  -576  -486  -436  -380  -287  -162  -40  35  34  -59  -244  -487  -729  -920  -1039  -1089  -1096  -1085  -1076  -1077  -1090  -1089  -1004  -757  -368  22  283  395  416  364  161  -254  -758  -1108  -1218  -1181  -1086  -965  -837  -724  -650  -623  -631  -648  -633  -530  -305  -14  181  161  -3  -149  -204  -234  -357  -611  -900  -1090  -1151  -1138  -1092  -1006  -886  -763  -666  -604  -558  -504  -475  -616  -1111  -1842  -2222  -1670  -119  2086  4490  6580  7843  7964  6852  4623  1763  -905  -2596  -2985  -2468  -1814  -1491  -1483  -1571  -1577  -1429  -1172  -916  -756  -691  -631  -493  -282  -82  29  51  48  98  211  319  368  373  366  364  363  352  321  291  313  428  592  716  783  870  1072  1417  1811  2107  2257  2332  2394  2430  2422  2409  2437  2483  2475  2381  2238  2108  2022  1961  1873  1727  1549  1377  1208  1033  873  671  328  -82  -368  -465  -458  -430  -415  -451  -603  -890  -1223  -1460  -1536  -1491  -1385  -1253  -1068  -789  -478  -267  -196  -198  -208  -201  -187  -191  -228  -284  -321  -321  -302  -283  -262  -238  -221  -220  -233  -250  -259  -257  -238  -200  -157  -122  -117  -177  -239  -200  -148  -236  -427  -615  -769  -875  -910  -857  -699  -470  -235  -25  125  179  163  133  112  91  59  11  -41  -75  -84  -77  -67  -64  -83  -137  -213  -272  -294  -283  -253  -221  -191  -153  -116  -111  -171  -284  -345  -243  4  267  430  478  468  438  385  316  256  223  212  206  186  150  107  38  -86  -241  -352  -391  -385  -363  -335  -316  -330  -374  -413  -420  -402  -389  -398  -418  -447  -506  -600  -705  -827  -1033  -1368  -1649  -1419  -248  1988  4948  7800  9546  9514  7722  4781  1517  -1204  -2782  -3207  -2877  -2296  -1876  -1727  -1720  -1686  -1502  -1147  -703  -313  -91  -31  -49  -100  -190  -297  -346  -277  -107  97  284  424  497  501  449  350  222  91  -24  -65  57  351  687  903  959  949  961  1004  1072  1250  1633  2114  2456  2572  2540  2426  2249  2048  1874  1753  1663  1534  1306  1010  725  499  326  147  -100  -387  -612  -755  -883  -1040  -1215  -1390  -1547  -1666  -1735  -1765  -1781  -1794  -1809  -1824  -1833  -1812  -1736  -1616  -1495  -1399  -1330  -1289  -1276  -1286  -1324  -1390  -1461  -1492  -1421  -1208  -922  -725  -750  -1020  -1406  -1678  -1665  -1356  -917  -608  -589  -838  -1189  -1434  -1477  -1362  -1195  -1083  -1079  -1174  -1306  -1403  -1437  -1420  -1359  -1258  -1140  -1044  -1013  -1045  -1074  -1053  -1010  -998  -1035  -1094  -1140  -1156  -1144  -1106  -1046  -960  -824  -652  -509  -456  -541  -784  -1100  -1319  -1337  -1174  -941  -761  -661  -595  -570  -627  -758  -881  -864  -633  -277  34  194  206  130  15  -100  -177  -208  -215  -209  -184  -153  -176  -300  -477  -609  -661  -668  -643  -552  -376  -177  -41  10  -4  -101  -296  -554  -798  -965  -1015  -954  -868  -856  -969  -1161  -1343  -1560  -1861  -1941  -1298  313  2746  5546  8042  9485  9295  7430  4504  1380  -1161  -2582  -2865  -2523  -2171  -2052  -1955  -1621  -1085  -567  -240  -114  -89  -69  -12  84  226  436  668  812  822  748  637  474  277  132  113  231  431  619  743  839  986  1252  1606  1909  2078  2173  2275  2387  2469  2523  2576  2623  2646  2667  2713  2774  2819  2859  2921  2949  2833  2538  2188  1945  1844  1814  1775  1668  1473  1181  790  369  48  -124  -245  -433  -682  -889  -1039  -1218  -1433  -1531  -1364  -963  -541  -287  -191  -130  -53  -3  -35  -167  -381  -615  -809  -966  -1088  -1090  -894  -575  -286  -89  19  25  -33  -79  -152  -353  -641  -863  -946  -928  -847  -710  -552  -442  -407  -412  -420  -417  -411  -418  -432  -415  -356  -304  -345  -513  -722  -852  -862  -801  -751  -750  -781  -813  -834  -824  -763  -633  -470  -352  -322  -360  -435  -515  -569  -576  -552  -532  -530  -525  -498  -476  -505  -593  -698  -722  -595  -376  -172  -26  46  28  -82  -241  -366  -413  -404  -381  -392  -479  -620  -735  -765  -723  -673  -677  -744  -829  -885  -901  -866  -762  -617  -519  -564  -771  -1068  -1385  -1631  -1619  -1243  -572  415  1966  4220  6751  8534  8554  6600  3464  355  -1766  -2534  -2383  -2112  -2045  -2002  -1814  -1467  -1068  -764  -609  -559  -558  -572  -573  -559  -546  -541  -525  -475  -400  -331  -288  -248  -167  -1  303  782  1327  1703  1762  1483  955  395  26  -81  27  284  595  870  1107  1382  1703  1979  2136  2179  2156  2118  2095  2106  2167  2282  2411  2491  2436  2160  1688  1175  724  319  -28  -236  -286  -251  -221  -276  -467  -731  -930  -1008  -1005  -969  -924  -901  -936  -1041  -1176  -1281  -1330  -1340  -1324  -1272  -1153  -957  -740  -625  -673  -790  -861  -874  -862  -841  -815  -797  -791  -777  -765  -784  -826  -865  -887  -904  -924  -891  -717  -437  -197  -71  -48  -162  -472  -883  -1182  -1283  -1275  -1258  -1259  -1253  -1201  -1090  -924  -733  -573  -485  -489  -587  -725  -795  -730  -561  -373  -235  -168  -187  -316  -543  -783  -950  -1004  -899  -588  -168  150  257  173  -75  -419  -715  -865  -891  -867  -844  -856  -928  -1044  -1132  -1126  -1055  -1000  -999  -1045  -1136  -1297  -1503  -1668  -1709  -1650  -1660  -1783  -1691  -1060  63  1564  3453  5470  6909  7167  6036  3627  601  -1942  -3290  -3475  -2964  -2354  -2020  -1865  -1645  -1325  -1016  -828  -801  -907  -1089  -1268  -1380  -1380  -1200  -802  -290  167  516  787  990  1111  1159  1157  1106  987  788  536  344  353  535  708  760  728  729  910  1382  2095  2806  3275  3482  3539  3524  3466  3381  3261  3077  2809  2527  2326  2220  2156  2075  1963  1872  1794  1645  1440  1234  1018  769  521  326  158  -54  -276  -397  -409  -395  -382  -350  -293  -230  -190  -180  -168  -115  -23  61  88  51  -15  -65  -93  -125  -171  -194  -154  -55  71  202  307  356  365  368  374  367  339  283  179  26  -92  -38  221  530  701  694  610  550  522  445  276  115  116  246  316  247  138  84  100  171  278  370  374  270  102  -65  -157  -70  259  713  1060  1200  1214  1178  1082  915  757  710  752  799  798  739  631  505  394  327  310  335  398  467  472  365  198  70  13  -3  14  71  104  -19  -335  -619  -637  -484  -314  97  1235  3426  6402  9161  10415  9393  6420  2739  -343  -2111  -2641  -2598  -2482  -2304  -1950  -1399  -801  -398  -264  -295  -374  -428  -433  -391  -331  -273  -237  -268  -367  -453  -440  -315  -147  -33  -3  -2  55  202  370  464  480  486  530  615  734  889  1064  1224  1355  1460  1528  1555  1557  1550  1556  1609  1741  1950  2191  2398  2472  2268  1727  1053  553  315  228  200  176  75  -194  -651  -1193  -1668  -1959  -2058  -2036  -1937  -1789  -1705  -1806  -2018  -2206  -2362  -2447  -2376  -2205  -2034  -1893  -1795  -1763  -1813  -1947  -2110  -2217  -2220  -2116  -1916  -1653  -1405  -1268  -1266  -1329  -1376  -1383  -1392  -1463  -1591  -1655  -1568  -1426  -1351  -1350  -1365  -1364  -1343  -1324  -1322  -1332  -1345  -1350  -1347  -1397  -1563  -1775  -1906  -1927  -1871  -1758  -1596  -1411  -1251  -1161  -1159  -1242  -1409  -1655  -1917  -2089  -2105  -1941  -1626  -1293  -1087  -1023  -1028  -1051  -1091  -1126  -1094  -974  -836  -758  -738  -735  -731  -766  -896  -1111  -1314  -1423  -1435  -1380  -1281  -1160  -1040  -946  -928  -1034  -1248  -1483  -1677  -1843  -1994  -2093  -2093  -1981  -1793  -1611  -1541  -1709  -2083  -2265  -1722  -200  2164  4895  7267  8482  7956  5712  2536  -476  -2483  -3188  -2857  -2140  -1663  -1590  -1717  -1845  -1899  -1877  -1779  -1617  -1432  -1283  -1193  -1127  -1037  -920  -796  -659  -482  -276  -92  28  83  89  75  66  86  151  238  294  295  278  324  512  809  1066  1170  1144  1081  1029  992  1014  1189  1520  1862  2075  2149  2140  2085  2013  1954  1910  1855  1755  1568  1238  793  396  180  105  44  -67  -191  -281  -400  -662  -1019  -1283  -1373  -1364  -1333  -1287  -1209  -1138  -1134  -1152  -1062  -796  -425  -90  114  167  94  -32  -149  -274  -454  -644  -718  -633  -500  -418  -377  -366  -405  -466  -494  -425  -158  339  903  1300  1440  1381  1176  843  474  227  144  139  151  205  339  527  698  804  836  781  607  333  47  -165  -273  -303  -315  -335  -360  -388  -424  -449  -459  -506  -631  -786  -892  -929  -918  -856  -728  -564  -449  -446  -532  -632  -709  -767  -751  -571  -255  31  176  245  319  354  298  175  30  -122  -282  -430  -532  -571  -570  -576  -639  -761  -870  -889  -828  -757  -687  -573  -409  -241  -125  -118  -208  -347  -547  -694  -488  367  2060  4443  6974  8917  9486  8242  5546  2357  -390  -2057  -2457  -2031  -1475  -1050  -600  -130  165  244  194  85  -26  -97  -121  -121  -103  -53  15  70  128  244  438  677  918  1104  1178  1094  879  662  559  613  829  1116  1367  1575  1733  1827  1900  1984  2057  2103  2150  2245  2395  2551  2638  2627  2592  2605  2631  2619  2598  2605  2613  2528  2265  1873  1490  1175  921  736  619  520  386  218  32  -208  -536  -874  -1098  -1168  -1150  -1123  -1119  -1132  -1147  -1161  -1155  -1097  -995  -909  -870  -873  -895  -920  -938  -934  -896  -826  -715  -549  -347  -157  -18  51  42  -49  -202  -358  -469  -541  -617  -713  -815  -928  -1051  -1134  -1116  -976  -767  -586  -479  -425  -391  -361  -347  -395  -558  -807  -1023  -1104  -1057  -979  -963  -1031  -1139  -1229  -1281  -1291  -1195  -920  -544  -272  -224  -357  -551  -693  -755  -768  -760  -737  -704  -678  -673  -683  -694  -697  -682  -646  -605  -573  -545  -513  -453  -333  -178  -66  -29  -36  -37  -4  51  81  65  7  -83  -185  -312  -518  -760  -874  -763  -535  -414  -535  -838  -1133  -1286  -1281  -1155  -956  -737  -533  -367  -280  -399  -820  -1358  -1606  -1197  43  1980  4183  6095  7254  7387  6382  4350  1730  -810  -2597  -3286  -3085  -2416  -1603  -925  -557  -433  -380  -319  -278  -281  -296  -294  -264  -213  -179  -170  -136  -42  104  256  372  464  587  783  1027  1237  1334  1264  1013  680  440  360  368  396  444  581  884  1327  1766  2075  2238  2326  2417  2511  2571  2608  2646  2665  2659  2623  2519  2296  1915  1425  1003  798  767  759  670  502  267  -99  -594  -1068  -1421  -1649  -1700  -1486  -1062  -678  -562  -683  -845  -932  -950  -939  -920  -881  -814  -748  -722  -767  -890  -1041  -1138  -1148  -1090  -998  -887  -749  -575  -383  -217  -120  -96  -116  -159  -223  -339  -548  -793  -938  -932  -852  -793  -794  -829  -834  -765  -616  -437  -350  -422  -556  -652  -727  -819  -922  -1028  -1146  -1264  -1332  -1326  -1293  -1270  -1221  -1098  -927  -772  -636  -494  -358  -259  -214  -211  -243  -341  -562  -867  -1089  -1053  -719  -251  85  164  57  -107  -237  -306  -345  -394  -462  -517  -538  -541  -568  -673  -869  -1091  -1255  -1326  -1269  -1046  -732  -476  -347  -314  -365  -588  -1098  -1752  -2165  -2165  -1780  -903  498  2273  4336  6475  7976  7975  6266  3426  334  -2128  -3357  -3408  -2861  -2218  -1697  -1404  -1308  -1289  -1268  -1195  -1052  -887  -774  -728  -715  -714  -721  -728  -711  -644  -495  -251  22  197  222  178  158  187  268  396  530  614  661  735  861  1003  1122  1208  1255  1269  1271  1290  1392  1654  2033  2350  2495  2514  2489  2461  2437  2415  2389  2334  2206  1925  1448  892  474  273  176  -17  -451  -1023  -1435  -1507  -1288  -948  -676  -559  -552  -591  -649  -709  -751  -800  -908  -1066  -1208  -1293  -1321  -1294  -1224  -1134  -1042  -933  -792  -645  -499  -358  -306  -424  -634  -760  -712  -558  -402  -268  -151  -82  -101  -198  -323  -424  -485  -529  -574  -619  -656  -676  -677  -659  -627  -579  -507  -421  -351  -332  -380  -473  -563  -621  -641  -605  -494  -346  -239  -206  -212  -217  -202  -174  -143  -111  -98  -180  -425  -750  -919  -796  -489  -201  0  157  280  380  492  586  581  446  227  12  -137  -220  -243  -216  -199  -270  -420  -533  -492  -322  -165  -97  -95  -136  -235  -365  -427  -298  4  162  -179  -916  -1548  -1481  -204  2153  4765  7029  8625  8985  7787  5435  2572  -173  -2027  -2595  -2309  -1777  -1316  -1023  -835  -695  -615  -567  -499  -398  -284  -169  -55  58  172  273  344  393  427  452  475  504  543  596  639  659  674  720  822  983  1180  1369  1506  1572  1578  1549  1543  1671  2018  2516  2969  3250  3375  3400  3307  3074  2773  2509  2327  2219  2160  2122  2094  2079  2060  1938  1603  1139  769  581  501  455  403  290  67  -240  -554  -805  -968  -1070  -1149  -1207  -1236  -1244  -1212  -1093  -882  -647  -461  -340  -289  -309  -382  -467  -509  -483  -433  -410  -420  -439  -455  -499  -599  -699  -703  -608  -511  -468  -460  -465  -497  -583  -702  -796  -837  -842  -839  -841  -846  -850  -866  -911  -980  -1046  -1084  -1082  -1015  -854  -637  -469  -402  -397  -408  -434  -495  -586  -683  -785  -885  -952  -973  -967  -958  -958  -974  -1008  -1052  -1080  -1039  -878  -624  -396  -282  -289  -397  -577  -770  -908  -980  -1019  -1052  -1088  -1148  -1252  -1352  -1381  -1350  -1300  -1215  -1062  -869  -716  -654  -668  -739  -871  -1041  -1183  -1237  -1188  -1070  -949  -878  -861  -861  -836  -757  -627  -473  -319  -205  -197  -312  -520  -798  -1107  -1360  -1487  -1504  -1484  -1475  -1477  -1450  -1346  -1169  -995  -886  -830  -784  -784  -992  -1511  -2122  -2386  -2086  -1251  253  2612  5493  7985  9099  8261  5636  2217  -723  -2479  -3130  -3138  -2862  -2464  -2064  -1765  -1566  -1373  -1134  -901  -764  -748  -791  -833  -845  -787  -607  -310  -4  190  262  261  218  157  126  163  260  378  486  567  609  612  601  623  711  854  1004  1137  1271  1411  1522  1593  1674  1794  1922  2032  2126  2230  2367  2517  2595  2545  2416  2258  2070  1839  1545  1196  871  674  626  639  570  314  -73  -421  -653  -828  -982  -1073  -1055  -915  -709  -535  -447  -425  -430  -449  -487  -534  -568  -582  -586  -585  -566  -510  -421  -316  -216  -166  -180  -197  -152  -24  141  237  224  181  158  100  -60  -293  -490  -592  -618  -613  -613  -629  -631  -545  -314  -10  218  309  300  193  -39  -341  -580  -694  -725  -749  -802  -838  -796  -700  -589  -457  -313  -217  -225  -341  -504  -626  -666  -633  -540  -424  -343  -315  -317  -323  -335  -365  -408  -438  -426  -364  -280  -211  -153  -74  20  80  66  -23  -146  -248  -302  -322  -323  -293  -212  -104  -25  -2  -14  -26  -6  70  189  294  329  245  31  -269  -554  -710  -715  -638  -535  -430  -363  -365  -433  -532  -616  -668  -670  -548  -291  -121  -271  -685  -1110  -1142  -311  1489  3957  6592  8601  9156  7971  5346  2004  -1005  -2796  -3167  -2570  -1728  -1221  -1139  -1179  -1128  -1029  -951  -867  -736  -575  -446  -383  -365  -346  -287  -200  -131  -98  -76  -46  -3  48  90  94  78  98  197  378  574  689  700  684  773  1050  1429  1717  1818  1787  1714  1655  1658  1798  2080  2416  2688  2716  2413  1991  1701  1556  1489  1477  1493  1487  1397  1156  737  228  -178  -369  -408  -432  -513  -644  -786  -908  -1016  -1145  -1300  -1420  -1450  -1427  -1404  -1358  -1229  -1020  -790  -584  -421  -331  -329  -364  -376  -361  -381  -528  -829  -1163  -1336  -1249  -973  -647  -365  -176  -94  -106  -208  -407  -645  -794  -791  -701  -656  -685  -713  -779  -997  -1310  -1553  -1613  -1475  -1251  -1091  -1042  -1028  -951  -776  -572  -451  -465  -589  -748  -876  -977  -1097  -1242  -1361  -1411  -1365  -1214  -1011  -840  -724  -631  -561  -534  -550  -576  -578  -548  -515  -501  -494  -471  -442  -432  -443  -449  -406  -275  -91  49  64  -79  -354  -660  -889  -1000  -1012  -946  -806  -636  -510  -462  -500  -646  -889  -1136  -1271  -1308  -1352  -1225  -431  1271  3657  6221  8155  8649  7465  4980  1896  -958  -2830  -3436  -3167  -2647  -2198  -1862  -1595  -1303  -960  -677  -534  -500  -505  -511  -500  -470  -427  -377  -327  -291  -271  -218  -53  280  685  943  973  888  804  760  747  758  882  1257  1835  2309  2427  2225  1889  1549  1292  1189  1256  1464  1765  2080  2303  2389  2402  2441  2545  2667  2667  2393  1850  1264  887  772  816  897  917  803  535  144  -281  -620  -809  -874  -870  -841  -807  -770  -749  -784  -904  -1069  -1193  -1237  -1238  -1233  -1201  -1044  -694  -263  26  88  4  -103  -167  -189  -205  -223  -242  -278  -338  -399  -442  -472  -493  -500  -483  -433  -369  -324  -309  -303  -282  -263  -299  -403  -524  -622  -699  -747  -758  -738  -697  -633  -534  -416  -347  -343  -329  -256  -181  -163  -207  -281  -347  -389  -411  -421  -425  -420  -396  -358  -356  -449  -609  -735  -778  -767  -730  -651  -490  -245  10  189  273  299  293  262  216  155  25  -237  -579  -838  -932  -882  -729  -539  -408  -387  -452  -545  -616  -649  -657  -651  -641  -635  -615  -488  -145  210  -65  -1248  -2495  -2672  -1527  550  3169  5911  8195  9333  8804  6621  3363  34  -2284  -3148  -2953  -2372  -1898  -1632  -1410  -1196  -1076  -1043  -1034  -968  -745  -378  -53  65  2  -91  -78  41  187  322  452  554  592  515  278  -48  -284  -302  -92  247  604  933  1216  1407  1511  1600  1724  1866  1965  2001  2012  2050  2145  2291  2447  2591  2716  2801  2776  2586  2304  2041  1805  1580  1381  1201  1006  792  590  417  249  76  -56  -126  -164  -197  -237  -325  -515  -777  -1011  -1161  -1254  -1337  -1436  -1528  -1550  -1481  -1377  -1258  -1069  -781  -486  -311  -272  -296  -326  -345  -370  -436  -566  -754  -957  -1093  -1135  -1119  -1049  -888  -659  -448  -313  -258  -271  -344  -446  -512  -504  -443  -384  -393  -478  -566  -596  -566  -491  -391  -304  -266  -343  -606  -1000  -1331  -1467  -1436  -1326  -1151  -872  -570  -444  -567  -825  -1069  -1211  -1249  -1211  -1088  -855  -576  -382  -326  -356  -403  -437  -456  -453  -395  -255  -98  -52  -159  -336  -493  -592  -605  -524  -399  -288  -199  -120  -55  -3  32  -2  -173  -448  -686  -794  -806  -786  -764  -742  -733  -764  -831  -914  -1012  -1124  -1226  -1288  -1285  -1258  -1305  -1310  -803  618  2907  5723  8439  10044  9718  7456  3821  -284  -3466  -4691  -4284  -3254  -2353  -1930  -1839  -1692  -1406  -1144  -968  -830  -692  -539  -362  -179  -53  -12  -44  -131  -233  -286  -258  -185  -118  -58  44  211  383  482  499  483  499  594  771  981  1168  1297  1361  1381  1409  1530  1781  2068  2258  2322  2318  2293  2245  2161  2047  1910  1719  1481  1278  1169  1133  1116  1084  1050  1018  904  587  118  -305  -588  -795  -982  -1143  -1286  -1421  -1519  -1560  -1567  -1565  -1544  -1462  -1291  -1077  -891  -764  -721  -771  -850  -904  -946  -999  -1077  -1194  -1315  -1365  -1323  -1222  -1078  -870  -609  -365  -208  -154  -178  -250  -359  -493  -610  -656  -616  -525  -435  -366  -312  -292  -363  -556  -812  -1014  -1095  -1075  -993  -855  -670  -478  -324  -272  -351  -479  -578  -665  -774  -865  -874  -808  -732  -686  -661  -641  -608  -541  -443  -363  -364  -469  -630  -760  -806  -745  -561  -312  -132  -116  -269  -515  -725  -827  -854  -871  -898  -933  -980  -1020  -1015  -938  -814  -706  -654  -648  -659  -671  -677  -659  -597  -510  -441  -413  -405  -392  -377  -367  -335  -231  -68  69  119  104  92  97  23  -202  -495  -713  -817  -857  -872  -875  -880  -893  -904  -902  -911  -1001  -1201  -1392  -1390  -1095  -582  -46  516  1437  2994  5074  7141  8341  8001  6212  3622  951  -1122  -2221  -2480  -2263  -1923  -1665  -1445  -1184  -922  -709  -570  -503  -462  -384  -234  -38  135  232  257  262  287  326  330  289  281  351  448  512  543  569  630  800  1115  1481  1735  1822  1816  1818  1892  2037  2197  2338  2495  2678  2853  3042  3309  3592  3735  3702  3589  3436  3201  2859  2486  2222  2107  2045  1950  1791  1542  1202  797  360  -13  -216  -247  -196  -154  -196  -370  -639  -881  -1004  -1022  -996  -963  -939  -924  -916  -924  -951  -976  -958  -867  -745  -675  -670  -687  -702  -706  -680  -607  -508  -434  -404  -398  -400  -407  -408  -371  -292  -264  -407  -735  -1136  -1463  -1618  -1590  -1428  -1205  -997  -858  -786  -767  -791  -845  -927  -1023  -1098  -1133  -1144  -1151  -1156  -1146  -1097  -990  -829  -654  -526  -470  -470  -535  -683  -872  -1014  -1063  -1050  -1019  -989  -961  -944  -941  -941  -950  -981  -1021  -1020  -900  -620  -246  71  228  212  50  -197  -440  -593  -637  -639  -653  -649  -646  -709  -822  -932  -1019  -1074  -1064  -956  -756  -551  -429  -401  -417  -439  -463  -525  -718  -1102  -1553  -1815  -1677  -966  408  2317  4520  6647  8034  8060  6515  3675  443  -2015  -3108  -3029  -2392  -1850  -1656  -1536  -1209  -760  -414  -255  -224  -236  -249  -256  -258  -244  -206  -147  -91  -52  -48  -107  -243  -383  -393  -234  58  472  928  1238  1291  1139  915  746  685  724  859  1062  1252  1351  1352  1333  1428  1753  2263  2740  2992  2977  2735  2360  1999  1739  1583  1514  1513  1546  1550  1438  1128  613  51  -319  -445  -472  -499  -474  -353  -214  -133  -92  -98  -291  -822  -1551  -2088  -2206  -1963  -1534  -1106  -783  -569  -450  -422  -443  -467  -477  -479  -478  -478  -478  -477  -470  -460  -470  -552  -729  -906  -954  -853  -657  -438  -277  -205  -190  -209  -256  -314  -348  -345  -331  -362  -488  -683  -864  -979  -1034  -1059  -1064  -1029  -921  -760  -616  -539  -519  -527  -542  -553  -550  -539  -529  -539  -569  -589  -599  -617  -617  -584  -540  -515  -547  -652  -781  -868  -878  -826  -754  -677  -600  -548  -528  -527  -530  -532  -529  -522  -510  -501  -501  -517  -550  -583  -564  -415  -119  204  402  428  341  225  149  139  175  192  70  -287  -775  -1133  -1217  -1054  -746  -439  -251  -190  -195  -225  -262  -248  -115  7  -170  -691  -1156  -945  448  3043  6173  8748  9737  8649  5941  2744  9  -1798  -2512  -2378  -2000  -1810  -1795  -1756  -1601  -1353  -1067  -794  -568  -412  -331  -278  -178  -19  125  182  147  76  38  62  133  219  318  426  526  593  618  610  605  659  810  1006  1144  1188  1182  1173  1175  1193  1267  1464  1777  2108  2357  2478  2496  2482  2503  2575  2657  2681  2578  2322  2019  1820  1726  1606  1338  919  495  223  82  -80  -351  -644  -825  -877  -875  -885  -930  -1012  -1103  -1144  -1089  -953  -802  -678  -589  -566  -640  -769  -885  -962  -1004  -1025  -1036  -1036  -1028  -1021  -1003  -938  -817  -688  -610  -592  -600  -608  -624  -677  -766  -854  -925  -987  -1010  -948  -826  -725  -688  -692  -697  -688  -685  -727  -841  -972  -1029  -1048  -1130  -1259  -1360  -1415  -1426  -1344  -1115  -808  -583  -500  -493  -498  -504  -514  -523  -508  -457  -355  -182  23  169  225  196  34  -293  -677  -922  -909  -653  -298  -41  25  -67  -258  -462  -594  -629  -604  -556  -487  -404  -352  -413  -642  -962  -1206  -1293  -1245  -1089  -869  -673  -600  -734  -1027  -1121  -497  1073  3401  6110  8515  9612  8809  6387  3114  -85  -2286  -3107  -2954  -2429  -1933  -1706  -1708  -1690  -1494  -1128  -730  -432  -235  -106  -75  -121  -166  -160  -72  78  215  306  387  465  495  450  342  202  50  -92  -188  -164  78  548  1050  1356  1432  1400  1357  1333  1349  1445  1631  1866  2096  2280  2388  2429  2448  2474  2487  2416  2193  1884  1645  1531  1457  1347  1201  1036  840  577  229  -154  -477  -674  -758  -791  -834  -900  -966  -1013  -1041  -1048  -1037  -1015  -992  -949  -857  -729  -643  -671  -815  -951  -900  -636  -346  -240  -388  -696  -1016  -1244  -1338  -1313  -1233  -1143  -1040  -929  -849  -827  -858  -915  -946  -914  -844  -785  -759  -758  -755  -727  -686  -695  -805  -982  -1116  -1116  -1012  -922  -909  -918  -867  -797  -817  -879  -849  -716  -538  -362  -231  -177  -248  -518  -956  -1373  -1605  -1641  -1515  -1226  -824  -442  -182  -55  -16  -20  -27  -15  19  49  52  42  20  -52  -213  -431  -632  -766  -834  -856  -855  -849  -851  -870  -916  -976  -990  -907  -793  -767  -847  -1004  -1211  -1372  -1405  -1420  -1607  -1876  -1716  -507  2002  5361  8450  9991  9252  6480  2835  -367  -2352  -2977  -2715  -2229  -1744  -1306  -1067  -1006  -964  -884  -776  -656  -552  -477  -416  -366  -342  -344  -335  -262  -103  91  243  315  332  333  341  341  308  245  183  147  146  218  412  733  1111  1445  1701  1931  2154  2323  2410  2430  2404  2348  2287  2245  2229  2228  2235  2259  2302  2336  2286  2091  1796  1521  1313  1135  980  881  838  808  718  441  -118  -797  -1236  -1282  -1110  -951  -893  -920  -1008  -1126  -1224  -1244  -1112  -794  -396  -100  28  27  -73  -246  -445  -593  -627  -594  -589  -623  -646  -622  -535  -412  -316  -274  -263  -255  -242  -250  -308  -402  -492  -561  -625  -708  -803  -870  -894  -898  -904  -898  -835  -684  -497  -362  -306  -282  -221  -85  63  126  70  -76  -253  -382  -436  -442  -399  -288  -134  -9  38  -3  -143  -341  -506  -567  -546  -507  -491  -513  -581  -688  -796  -843  -780  -617  -430  -332  -444  -809  -1271  -1612  -1754  -1524  -537  1378  4043  7004  9307  9835  8272  5278  1875  -940  -2491  -2758  -2277  -1642  -1215  -1111  -1195  -1190  -963  -616  -329  -205  -147  -13  153  249  276  291  333  394  431  427  423  443  488  560  651  765  926  1112  1273  1402  1496  1547  1583  1647  1743  1887  2122  2427  2679  2801  2835  2863  2910  2968  3049  3159  3223  3170  3033  2905  2831  2779  2684  2501  2267  2078  1974  1898  1723  1320  751  274  52  13  30  49  61  58  26  -50  -152  -229  -257  -256  -246  -236  -225  -205  -170  -131  -95  -65  -59  -94  -157  -201  -163  2  239  427  513  545  561  528  401  214  50  -68  -156  -214  -234  -211  -139  -31  70  127  140  156  248  414  538  492  240  -77  -266  -301  -293  -307  -331  -330  -280  -199  -128  -75  -23  22  48  83  152  223  266  306  359  400  385  280  127  13  -21  -24  -61  -149  -249  -312  -329  -319  -299  -297  -360  -532  -788  -1028  -1159  -1187  -1173  -1171  -1203  -1264  -1357  -1506  -1687  -1833  -1919  -1939  -1732  -923  791  3199  5500  6910  7156  6155  3916  1150  -1025  -2212  -2807  -3256  -3670  -3922  -3953  -3896  -3849  -3702  -3309  -2761  -2326  -2099  -1979  -1884  -1797  -1721  -1686  -1797  -2175  -2745  -3238  -3467  -3442  -3222  -2879  -2548  -2347  -2268  -2218  -2123  -1977]
