reading_id,reading_time,wire_id,result_classification,heart_rate,heart_rate_alert,firmware_version,device_app_version,hardware_version,waveform_samples
b17b0b00-6e0b-11ed-8080-808080808080,Sun Nov 27 04:26:41 UTC 2022,a101e3f91939,UNCLASSIFIABLE,103,NONE,20001.171.50,2.10.0,Charge 5,[-886  -982  -887  -408  483  1642  2941  4316  5643  6770  7718  8637  9561  10387  11053  11577  12020  12439  12829  13146  13407  13686  14014  14339  14612  14824  14992  15148  15310  15470  15637  15823  16026  16269  16523  16692  16744  16741  16757  16806  16861  16927  17044  17191  17318  17417  17494  17546  17562  17526  17434  17309  17164  16995  16801  16605  16427  16275  16131  15986  15836  15656  15408  15109  14809  14478  14053  13601  13301  13212  13232  13239  13176  13051  12916  12799  12650  12375  11960  11502  11101  10793  10586  10455  10306  10025  9619  9207  8867  8608  8438  8332  8197  7923  7445  6778  6155  6044  6818  8541  10961  13420  14985  14847  12773  9384  5726  2674  810  201  289  467  582  761  1038  1261  1268  1091  900  776  671  558  456  368  282  149  -62  -309  -544  -730  -800  -745  -652  -603  -606  -625  -656  -742  -906  -1087  -1200  -1226  -1206  -1172  -1141  -1121  -1118  -1126  -1143  -1211  -1382  -1641  -1940  -2287  -2665  -2969  -3151  -3301  -3516  -3803  -4121  -4403  -4577  -4631  -4618  -4594  -4587  -4644  -4811  -5055  -5259  -5330  -5277  -5185  -5140  -5202  -5408  -5695  -5913  -5991  -5977  -5937  -5900  -5878  -5878  -5900  -5927  -5917  -5834  -5708  -5590  -5495  -5415  -5353  -5341  -5442  -5637  -5802  -5861  -5839  -5772  -5649  -5458  -5239  -5070  -5001  -5046  -5207  -5426  -5603  -5701  -5790  -5957  -6186  -6371  -6449  -6447  -6415  -6376  -6319  -6211  -6048  -5879  -5756  -5662  -5610  -5692  -5919  -6244  -6600  -6637  -5762  -3678  -690  2422  4618  4873  2852  -664  -4427  -7443  -9051  -9183  -8496  -7696  -7003  -6382  -5861  -5480  -5221  -5070  -4994  -4926  -4811  -4644  -4486  -4396  -4366  -4350  -4319  -4256  -4139  -3971  -3762  -3483  -3128  -2805  -2621  -2535  -2426  -2236  -2019  -1847  -1735  -1622  -1439  -1197  -982  -861  -840  -893  -976  -1041  -1075  -1098  -1117  -1112  -1053  -985  -1020  -1201  -1433  -1597  -1663  -1670  -1663  -1655  -1650  -1670  -1742  -1862  -1996  -2103  -2160  -2159  -2108  -2033  -1977  -1955  -1950  -1925  -1834  -1678  -1562  -1555  -1584  -1579  -1540  -1486  -1446  -1446  -1485  -1537  -1575  -1597  -1616  -1630  -1603  -1489  -1292  -1096  -985  -957  -957  -950  -953  -981  -993  -936  -842  -776  -758  -762  -766  -769  -777  -798  -821  -840  -852  -857  -862  -872  -876  -867  -848  -810  -743  -651  -524  -364  -268  -422  -903  -1423  -1377  -275  2032  5242  8382  10210  9946  7564  3853  138  -2534  -3827  -3943  -3397  -2739  -2220  -1793  -1393  -1066  -873  -780  -698  -612  -578  -578  -526  -415  -330  -302  -238  -26  318  654  871  959  967  948  935  951  1013  1114  1214  1278  1319  1372  1438  1487  1506  1503  1501  1541  1659  1815  1908  1886  1802  1729  1678  1603  1461  1264  1057  874  705  526  352  234  208  284  408  489  495  450  361  250  151  69  -15  -94  -126  -58  132  365  500  487  369  221  98  -8  -118  -210  -258  -265  -259  -259  -262  -269  -284  -300  -292  -251  -196  -157  -124  -57  46  145  190  156  32  -132  -255  -300  -299  -291  -292  -305  -321  -337  -353  -360  -344  -316  -297  -305  -339  -394  -449  -486  -539  -711  -1065  -1519  -1826  -1587  -422  1765  4743  7893  10156  10489  8545  4907  782  -2549  -4270  -4409  -3686  -2851  -2270  -1931  -1654  -1372  -1158  -1039  -955  -837  -656  -430  -228  -111  -81  -94  -111  -114  -101  -63  4  93  190  285  379  481  612  789  993  1180  1341  1482  1577  1601  1584  1599  1705  1910  2143  2289  2277  2111  1869  1649  1477  1341  1258  1239  1251  1243  1169  1009  784  553  385  296  250  214  204  253  344  394  349  233  100  -1  -56  -89  -117  -141  -167  -208  -258  -289  -289  -261  -218  -174  -139  -114  -106  -125  -174  -241  -314  -386  -425  -384  -248  -35  185  327  373  360  299  176  -4  -208  -409  -580  -686  -721  -719  -713  -714  -716  -700  -650  -580  -528  -520  -560  -625  -681  -728  -825  -1025  -1304  -1500  -1196  52  2323  5252  7940  9088  8110  5517  2076  -1338  -3777  -4924  -5079  -4541  -3608  -2728  -2170  -1847  -1587  -1313  -1017  -768  -636  -610  -627  -641  -644  -631  -590  -506  -388  -261  -134  -1  150  310  436  528  631  749  862  992  1172  1388  1593  1753  1859  1913  1925  1916  1891  1850  1784  1682  1543  1398  1300  1271  1291  1308  1261  1117  898  685  547  471  406  338  289  267  242  185  101  10  -59  -82  -85  -106  -123  -108  -72  -36  -12  -3  -10  -30  -56  -87  -139  -215  -271  -265  -221  -177  -150  -141  -148  -172  -212  -273  -342  -382  -367  -285  -155  -75  -122  -246  -349  -410  -458  -510  -555  -592  -647  -727  -787  -801  -801  -812  -824  -837  -873  -958  -1081  -1196  -1263  -1279  -1263  -1098  -490  836  2944  5454  7537  8299  7300  4814  1567  -1584  -3775  -4612  -4470  -3879  -3109  -2413  -1985  -1761  -1582  -1412  -1270  -1153  -1050  -956  -827  -607  -339  -138  -62  -77  -121  -138  -97  -7  112  250  371  427  422  406  405  441  573  880  1349  1816  2074  2069  1924  1779  1682  1598  1473  1311  1171  1097  1067  1041  975  826  584  307  89  -23  -63  -94  -154  -232  -297  -346  -407  -494  -584  -645  -667  -661  -653  -650  -629  -552  -422  -293  -221  -212  -243  -297  -369  -445  -509  -554  -591  -634  -684  -713  -686  -598  -462  -318  -223  -193  -193  -190  -183  -196  -266  -407  -567  -673  -704  -693  -676  -669  -678  -706  -758  -849  -975  -1081  -1126  -1128  -1126  -1146  -1173  -1127  -963  -847  -974  -1282  -1524  -1289  -123  2047  4864  7632  9318  9048  6800  3421  28  -2508  -3770  -3971  -3742  -3480  -3171  -2737  -2275  -1928  -1691  -1474  -1243  -1033  -876  -765  -684  -616  -568  -554  -535  -449  -309  -192  -143  -128  -65  99  324  528  699  866  1020  1145  1248  1339  1422  1497  1575  1656  1719  1756  1765  1713  1558  1330  1125  992  909  839  751  642  530  430  358  327  337  359  336  187  -107  -438  -656  -731  -735  -716  -655  -530  -380  -276  -236  -224  -219  -236  -290  -367  -428  -453  -454  -456  -476  -516  -558  -574  -551  -493  -422  -369  -347  -346  -373  -445  -543  -615  -624  -577  -501  -435  -397  -380  -370  -368  -403  -498  -629  -746  -850  -958  -1046  -1083  -1087  -1083  -1048  -932  -747  -566  -442  -363  -319  -322  -406  -650  -1030  -1359  -1418  -894  587  3043  5996  8617  9870  9056  6375  2740  -780  -3308  -4387  -4181  -3265  -2233  -1534  -1286  -1272  -1261  -1169  -985  -728  -475  -323  -288  -308  -322  -290  -197  -80  3  33  32  18  -6  -29  20  244  639  1053  1334  1461  1493  1478  1455  1479  1600  1800  1974  2023  1959  1866  1794  1736  1665  1557  1400  1212  1036  878  730  612  535  484  445  417  388  326  211  67  -43  -95  -111  -123  -144  -168  -186  -192  -185  -164  -119  -57  -11  3  3  1  0  -21  -63  -93  -112  -154  -186  -147  -77  -44  -45  -50  -46  -41  -50  -96  -190  -309  -414  -490  -530  -512  -446  -384  -354  -344  -342  -344  -346  -338  -313  -272  -225  -198  -228  -362  -584  -772  -791  -665  -540  -509  -545  -572  -560  -541  -540  -534  -503  -459  -417  -378  -332  -277  -250  -300  -409  -526  -629  -704  -749  -787  -840  -902  -943  -923  -851  -788  -784  -849  -954  -1063  -1169  -1233  -1136  -883  -780  -1119  -1699  -1844  -905  1365  4590  7677  9351  8917  6569  3204  -181  -2857  -4371  -4741  -4369  -3644  -2857  -2243  -1884  -1704  -1587  -1467  -1341  -1243  -1189  -1161  -1129  -1069  -960  -825  -714  -639  -577  -531  -521  -541  -556  -546  -519  -495  -469  -404  -263  -6  395  847  1163  1279  1300  1329  1381  1424  1442  1442  1424  1370  1264  1115  940  753  592  496  466  462  442  363  223  77  -29  -110  -178  -217  -224  -212  -197  -197  -242  -334  -413  -433  -415  -382  -341  -300  -251  -171  -77  -43  -119  -247  -340  -387  -413  -423  -412  -381  -330  -256  -185  -163  -199  -252  -284  -291  -293  -309  -338  -374  -407  -421  -402  -339  -249  -176  -149  -167  -204  -240  -282  -341  -409  -466  -497  -505  -500  -489  -463  -394  -281  -174  -130  -170  -275  -384  -438  -430  -380  -315  -259  -214  -174  -143  -134  -155  -205  -256  -271  -244  -208  -219  -286  -352  -376  -370  -357  -340  -304  -244  -157  -38  89  178  211  212  209  210  193  112  -51  -247  -383  -415  -381  -371  -479  -683  -847  -909  -912  -884  -820  -730  -647  -683  -1009  -1628  -2199  -2222  -1417  254  2757  5771  8517  10048  9662  7311  3766  181  -2483  -3787  -3961  -3611  -3112  -2520  -1913  -1448  -1221  -1175  -1137  -980  -741  -557  -486  -473  -467  -460  -461  -461  -436  -367  -264  -160  -76  -3  94  230  359  438  494  580  729  913  1073  1192  1313  1482  1671  1783  1768  1692  1615  1530  1450  1418  1423  1421  1368  1249  1084  905  734  600  533  525  541  530  441  268  58  -157  -352  -473  -501  -471  -412  -315  -187  -71  9  65  106  131  137  123  91  51  19  -14  -70  -142  -199  -229  -240  -240  -231  -225  -234  -254  -269  -281  -310  -372  -436  -411  -257  -69  33  1  -162  -378  -529  -575  -566  -564  -587  -616  -627  -622  -617  -615  -613  -610  -606  -595  -571  -548  -564  -644  -746  -806  -811  -782  -730  -664  -618  -626  -705  -837  -982  -1113  -1217  -1265  -1186  -930  -581  -310  -192  -185  -229  -285  -330  -354  -346  -291  -182  -37  101  180  162  63  -48  -102  -116  -160  -245  -344  -435  -493  -508  -501  -491  -485  -482  -480  -486  -504  -523  -558  -660  -743  -415  838  3187  6148  8731  9876  8980  6267  2624  -845  -3265  -4390  -4495  -3963  -3181  -2426  -1742  -1130  -695  -506  -486  -500  -463  -371  -273  -216  -203  -216  -245  -281  -311  -319  -284  -187  -38  96  150  138  131  200  409  766  1182  1541  1758  1820  1775  1674  1558  1463  1422  1445  1502  1556  1588  1570  1448  1201  921  741  701  749  803  814  784  682  472  208  -8  -135  -191  -200  -181  -163  -164  -189  -247  -330  -389  -394  -363  -276  -101  96  223  255  217  134  32  -59  -112  -125  -124  -133  -153  -162  -150  -121  -88  -66  -63  -72  -99  -168  -287  -424  -515  -522  -455  -359  -288  -274  -319  -413  -524  -614  -666  -692  -715  -753  -804  -840  -819  -732  -627  -563  -543  -517  -430  -284  -170  -199  -355  -475  -442  -314  -213  -179  -179  -179  -176  -185  -220  -286  -379  -480  -560  -598  -584  -514  -429  -376  -366  -376  -384  -399  -470  -624  -769  -806  -827  -974  -1199  -1247  -656  1034  3796  6939  9361  9931  8122  4487  335  -2970  -4592  -4618  -3886  -3226  -2864  -2586  -2278  -2018  -1840  -1659  -1368  -986  -666  -518  -505  -536  -555  -536  -469  -380  -317  -299  -295  -266  -177  -26  145  281  383  491  610  715  807  944  1175  1454  1682  1809  1855  1854  1808  1714  1605  1536  1521  1530  1510  1394  1128  758  432  234  97  -78  -296  -465  -507  -449  -373  -328  -316  -327  -357  -409  -485  -561  -600  -588  -543  -482  -409  -327  -261  -242  -265  -282  -264  -244  -268  -344  -422  -421  -311  -179  -116  -146  -260  -408  -520  -577  -620  -675  -720  -728  -707  -687  -684  -679  -654  -617  -567  -499  -431  -377  -324  -273  -235  -208  -186  -167  -148  -136  -144  -201  -306  -395  -415  -415  -472  -573  -661  -732  -819  -923  -1012  -1066  -1091  -1090  -1059  -993  -942  -1046  -1376  -1703  -1566  -588  1308  3841  6470  8486  9097  7840  4981  1347  -2027  -4205  -4856  -4448  -3636  -2801  -2168  -1852  -1766  -1728  -1635  -1480  -1268  -1013  -774  -622  -576  -586  -570  -453  -241  -28  105  155  165  173  210  289  394  494  580  670  799  987  1246  1558  1835  1994  2047  2052  2037  2005  1967  1935  1911  1869  1770  1625  1487  1370  1233  1042  836  697  651  642  586  437  214  -19  -195  -276  -290  -305  -376  -482  -563  -592  -591  -582  -564  -527  -468  -395  -334  -314  -330  -358  -390  -416  -427  -424  -416  -404  -387  -365  -348  -337  -328  -333  -388  -514  -672  -799  -858  -839  -731  -567  -425  -369  -395  -440  -457  -434  -371  -278  -187  -121  -94  -139  -301  -556  -801  -962  -1052  -1093  -1064  -960  -830  -743  -723  -749  -797  -861  -937  -1022  -1129  -1203  -1029  -274  1357  3839  6618  8717  9140  7534  4448  863  -2226  -4069  -4547  -4148  -3427  -2730  -2274  -2099  -2050  -1945  -1704  -1374  -1074  -881  -794  -773  -772  -755  -709  -646  -592  -556  -514  -440  -317  -157  2  160  340  539  728  891  1022  1121  1195  1250  1285  1313  1382  1538  1743  1893  1943  1930  1890  1819  1681  1457  1202  1013  917  840  676  392  87  -114  -212  -283  -371  -471  -571  -670  -749  -773  -742  -696  -665  -649  -631  -596  -554  -526  -523  -540  -563  -584  -602  -616  -616  -582  -492  -365  -267  -251  -321  -440  -558  -644  -683  -656  -553  -407  -269  -143  -13  109  214  302  363  350  173  -214  -701  -1071  -1200  -1122  -953  -782  -624  -489  -430  -475  -592  -722  -827  -916  -994  -1023  -998  -944  -887  -875  -941  -1102  -1350  -1559  -1469  -671  1200  4023  7076  9318  9786  8142  4981  1373  -1789  -3940  -4855  -4725  -3921  -2805  -1801  -1242  -1110  -1140  -1138  -1054  -909  -748  -627  -570  -557  -557  -558  -543  -487  -377  -226  -76  26  74  91  101  125  176  269  422  640  904  1166  1382  1547  1674  1779  1870  1942  1985  1992  1959  1885  1780  1662  1546  1438  1330  1199  1018  772  495  275  164  128  83  -44  -239  -416  -523  -561  -547  -500  -438  -393  -395  -448  -542  -651  -734  -769  -750  -658  -496  -322  -203  -165  -201  -297  -426  -547  -628  -657  -632  -564  -461  -328  -198  -140  -193  -326  -473  -587  -655  -689  -685  -620  -493  -358  -275  -260  -286  -331  -379  -418  -446  -466  -473  -472  -496  -579  -707  -827  -919  -1006  -1072  -1060  -979  -903  -873  -880  -904  -928  -961  -1055  -1220  -1366  -1352  -1013  -76  1704  4185  6744  8591  8950  7338  4129  460  -2593  -4417  -4828  -4195  -3268  -2559  -2078  -1693  -1414  -1282  -1236  -1188  -1101  -983  -862  -763  -694  -626  -514  -373  -267  -219  -192  -163  -140  -133  -124  -52  160  497  811  973  1001  988  994  1029  1090  1196  1350  1516  1650  1738  1789  1804  1777  1720  1652  1560  1409  1224  1084  991  876  690  445  206  42  -42  -94  -133  -160  -206  -312  -459  -569  -591  -526  -410  -292  -211  -172  -150  -120  -92  -82  -87  -120  -199  -284  -329  -342  -346  -340  -311  -267  -229  -213  -211  -210  -205  -207  -239  -311  -375  -378  -350  -357  -416  -493  -538  -533  -516  -522  -539  -549  -550  -550  -552  -553  -542  -498  -402  -259  -117  -45  -60  -117  -182  -240  -292  -355  -448  -557  -654  -713  -709  -622  -464  -326  -315  -418  -516  -538  -496  -416  -324  -309  -518  -994  -1573  -1917  -1546  13  2822  6248  9169  10415  9316  6151  2023  -1742  -4204  -5072  -4612  -3497  -2475  -1864  -1554  -1370  -1218  -1060  -888  -727  -618  -567  -545  -521  -474  -412  -357  -295  -226  -174  -144  -103  -19  93  186  249  319  431  591  781  971  1134  1254  1329  1373  1423  1522  1670  1817  1913  1910  1785  1588  1425  1349  1334  1338  1327  1279  1193  1074  911  691  443  229  85  -6  -92  -205  -328  -402  -387  -297  -188  -101  -57  -103  -221  -315  -341  -331  -316  -296  -267  -229  -188  -140  -93  -74  -90  -102  -107  -139  -184  -199  -184  -168  -180  -240  -338  -446  -544  -606  -598  -529  -462  -449  -494  -553  -596  -636  -678  -709  -729  -746  -765  -786  -799  -787  -754  -722  -710  -724  -745  -739  -674  -546  -406  -307  -259  -237  -221  -207  -228  -314  -440  -544  -596  -609  -601  -582  -572  -622  -775  -988  -1146  -1189  -1136  -1046  -1016  -1102  -1232  -1309  -1344  -1437  -1661  -1920  -1889  -1162  498  3048  6052  8601  9631  8527  5540  1687  -1849  -4252  -5243  -5094  -4369  -3521  -2784  -2196  -1619  -1016  -569  -384  -369  -407  -433  -410  -347  -313  -358  -428  -452  -427  -403  -408  -408  -338  -151  135  425  638  784  919  1064  1190  1274  1336  1414  1520  1635  1734  1797  1820  1823  1823  1817  1772  1653  1491  1367  1311  1275  1203  1083  934  772  603  446  322  217  102  -22  -129  -210  -283  -338  -363  -364  -343  -305  -257  -198  -141  -108  -95  -92  -94  -104  -111  -111  -113  -124  -136  -145  -154  -184  -247  -345  -488  -655  -769  -765  -641  -470  -348  -308  -310  -313  -321  -366  -473  -621  -763  -881  -973  -1031  -1052  -1033  -966  -867  -771  -685  -584  -475  -399  -373  -383  -411  -450  -488  -511  -511  -497  -484  -471  -444  -393  -323  -246  -169  -95  -56  -108  -269  -491  -690  -789  -788  -753  -729  -715  -703  -691  -680  -675  -680  -699  -741  -823  -959  -1158  -1322  -1134  -196  1713  4447  7366  9476  9788  7872  4288  263  -3001  -4726  -4858  -4088  -3161  -2337  -1663  -1221  -995  -900  -888  -896  -887  -864  -833  -771  -621  -348  -39  163  224  210  182  155  133  135  185  306  485  653  756  810  862  955  1103  1284  1462  1607  1714  1822  1978  2169  2324  2405  2408  2297  2027  1678  1414  1301  1270  1223  1082  824  541  360  311  322  326  294  210  64  -104  -224  -265  -257  -242  -238  -250  -259  -242  -183  -89  12  93  122  85  13  -47  -83  -109  -128  -128  -120  -123  -144  -175  -207  -237  -263  -274  -261  -240  -223  -207  -186  -183  -212  -249  -272  -285  -298  -307  -308  -304  -310  -331  -355  -367  -368  -363  -365  -372  -377  -387  -434  -543  -682  -779  -803  -777  -739  -714  -706  -703  -698  -704  -755  -865  -956  -935  -857  -900  -1143  -1333  -948  356  2537  5267  7825  9197  8685  6357  2914  -649  -3341  -4649  -4809  -4343  -3641  -2988  -2497  -2085  -1678  -1322  -1079  -926  -817  -741  -692  -650  -612  -590  -580  -548  -454  -309  -166  -41  94  258  425  565  663  723  752  768  830  1007  1271  1503  1628  1679  1731  1816  1911  1996  2062  2052  1883  1590  1310  1114  987  907  857  805  746  677  559  349  62  -230  -445  -540  -547  -523  -499  -482  -475  -493  -548  -636  -737  -838  -904  -881  -765  -624  -520  -471  -459  -464  -472  -477  -472  -444  -375  -284  -229  -264  -387  -525  -598  -597  -563  -525  -501  -501  -517  -540  -554  -545  -503  -429  -343  -278  -240  -234  -301  -493  -764  -990  -1106  -1137  -1119  -1067  -995  -935  -911  -921  -944  -971  -1022  -1125  -1257  -1331  -1246  -1002  -820  -999  -1488  -1838  -1560  -343  1824  4520  7029  8534  8397  6524  3389  -116  -2940  -4419  -4645  -4170  -3565  -3144  -2874  -2620  -2362  -2124  -1868  -1500  -1017  -582  -346  -294  -312  -301  -227  -146  -148  -234  -324  -373  -393  -384  -299  -67  316  747  1075  1228  1243  1236  1317  1498  1699  1850  1933  1983  2035  2093  2127  2102  2003  1875  1768  1645  1423  1124  854  665  537  450  394  326  192  10  -148  -260  -354  -430  -458  -434  -386  -350  -340  -343  -345  -335  -295  -202  -90  -64  -155  -276  -345  -356  -349  -357  -368  -352  -310  -289  -323  -386  -428  -422  -376  -336  -333  -342  -317  -262  -210  -183  -174  -174  -187  -226  -303  -394  -460  -484  -492  -529  -624  -750  -850  -890  -883  -854  -829  -830  -845  -818  -710  -563  -455  -405  -415  -575  -958  -1400  -1602  -1355  -537  912  2986  5501  7822  8973  8257  5710  2074  -1510  -3968  -4842  -4487  -3560  -2556  -1822  -1485  -1374  -1272  -1144  -1041  -963  -865  -752  -691  -725  -814  -893  -922  -881  -751  -556  -360  -196  -57  79  219  352  483  650  855  1044  1189  1308  1428  1544  1622  1652  1653  1660  1707  1818  1966  2075  2072  1911  1605  1225  884  688  645  667  656  546  326  53  -193  -359  -446  -484  -500  -511  -526  -541  -544  -542  -558  -610  -680  -719  -697  -632  -568  -517  -456  -371  -265  -171  -142  -176  -242  -329  -403  -441  -463  -494  -530  -558  -564  -526  -421  -280  -179  -170  -250  -369  -471  -528  -526  -459  -363  -296  -283  -319  -378  -435  -468  -446  -409  -460  -604  -729  -769  -760  -761  -792  -832  -858  -879  -931  -1027  -1151  -1252  -1288  -1294  -1251  -832  418  2599  5261  7627  8900  8543  6579  3637  544  -1992  -3491  -3899  -3608  -3054  -2467  -1964  -1601  -1362  -1207  -1098  -999  -894  -788  -703  -644  -573  -450  -298  -179  -109  -59  -17  7  19  31  58  139  309  534  720  822  882  966  1128  1360  1578  1709  1779  1848  1924  1976  1991  1969  1904  1793  1652  1499  1339  1152  933  723  566  455  342  190  14  -140  -261  -366  -456  -512  -539  -559  -578  -606  -661  -726  -767  -782  -780  -771  -754  -720  -651  -544  -426  -347  -319  -313  -313  -331  -381  -447  -494  -511  -513  -511  -491  -436  -361  -306  -283  -278  -283  -318  -402  -505  -590  -651  -691  -713  -694  -595  -439  -303  -235  -221  -229  -255  -313  -388  -440  -451  -442  -455  -512  -597  -667  -703  -715  -721  -733  -746  -750  -747  -740  -729  -709  -696  -758  -970  -1296  -1551  -1376  -325  1787  4641  7473  9277  9220  7146  3761  175  -2666  -4172  -4303  -3607  -2748  -2130  -1834  -1716  -1614  -1465  -1282  -1099  -909  -691  -501  -422  -471  -581  -671  -702  -668  -565  -428  -324  -289  -301  -306  -228  -20  272  545  752  919  1066  1209  1387  1591  1747  1826  1868  1916  1959  1952  1876  1760  1629  1501  1408  1374  1358  1249  974  611  338  235  241  264  256  211  132  13  -138  -285  -401  -491  -554  -575  -522  -376  -191  -61  -13  -11  -18  -26  -21  18  110  227  313  346  343  306  219  96  -18  -96  -151  -214  -293  -358  -392  -396  -368  -292  -182  -81  -14  -3  -63  -172  -280  -347  -364  -356  -347  -334  -303  -259  -234  -249  -288  -314  -318  -317  -330  -353  -367  -364  -353  -360  -425  -540  -613  -586  -511  -432  -355  -310  -321  -354  -367  -356  -341  -331  -312  -267  -219  -201  -211  -227  -251  -295  -355  -407  -423  -418  -422  -420  -397  -349  -267  -172  -110  -111  -190  -310  -396  -411  -382  -343  -318  -315  -321  -329  -334  -308  -233  -141  -81  -68  -82  -106  -151  -233  -335  -400  -401  -373  -356  -353  -339  -296  -226  -156  -113  -101  -121  -178  -257  -321  -348  -346  -329  -305  -283  -270  -270  -286  -316  -362  -414  -438  -407  -348  -304  -287  -275  -244  -189  -123  -56  22  122  221  317  433  535  534  386  152  -47  -147  -173  -170  -177  -224  -330  -467  -582  -649  -677  -682  -665  -600  -443  -244  -231  -574  -1087  -1341  -844  767  3381  6367  8866  9990  9155  6561  3121  -165  -2580  -3730  -3724  -3122  -2458  -1941  -1562  -1284  -1114  -1045  -1012  -926  -762  -583  -457  -394  -370  -365  -367  -383  -428  -486  -508  -443  -292  -119  6  88  196  354  499  568  566  551  610  825  1187  1557  1781  1849  1849  1824  1749  1627  1522  1479  1477  1489  1501  1499  1444  1281  1002  691  465  368  350  343  322  293  250  175  71  -46  -180  -305  -379  -402  -407  -412  -409  -367  -268  -144  -56  -24  -20  -17  -17  -42  -116  -220  -301  -334  -336  -325  -289  -203  -81  28  96  128  141  134  82  -5  -78  -105  -102  -102  -120  -150  -173  -181  -179  -171  -159  -156  -179  -227  -278  -315  -342  -374  -413  -443  -452  -451  -465  -526  -627  -726  -785  -805  -788  -709  -549  -356  -229  -254  -446  -716  -908  -926  -779  -560  -387  -317  -326  -372  -428  -470  -489  -493  -494  -493  -491  -490  -489  -489  -488  -475  -442  -391  -330  -263  -192  -110  -12  80  132  133  92  34  -11  -32  -34  -44  -94  -190  -296  -373  -416  -429  -426  -438  -468  -509  -557  -600  -634  -679  -747  -833  -883  -890  -964  -1152  -1321  -1162  -204  1894  4953  8159  10320  10326  7878  3913  -86  -3030  -4439  -4480  -3860  -3236  -2764  -2308  -1828  -1422  -1161  -1034  -967  -897  -811  -715  -626  -570  -556  -562  -561  -537  -484  -395  -251  -59  125  243  292  337  456  650  855  1016  1106  1129  1126  1160  1294  1540  1809  2000  2090  2117  2117  2117  2123  2112  2043  1878  1599  1241  918  725  645  599  539  452  336  196  53  -68  -165  -253  -339  -411  -467  -518  -564  -618  -698  -778  -812  -772  -663  -536  -430  -340  -279  -266  -278  -288  -289  -291  -305  -336  -376  -420  -465  -486  -462  -407  -351  -327  -354  -411  -467  -513  -532  -525  -520  -528  -536  -538  -538  -538  -536  -526  -512  -513  -537  -564  -576  -571  -559  -549  -546  -554  -578  -609  -631  -637  -635  -633  -631  -631  -636  -645  -663  -693  -729  -749  -744  -730  -723  -719  -682  -563  -349  -115  -8  -99  -289  -403  -357  -213  -63  63  154  176  133  60  -17  -65  -61  -31  -22  -68  -185  -347  -486  -555  -554  -514  -461  -400  -332  -284  -279  -300  -378  -630  -1082  -1548  -1760  -1334  176  2781  5885  8591  9884  9051  6265  2487  -1114  -3648  -4768  -4719  -4085  -3323  -2583  -1973  -1592  -1374  -1184  -991  -842  -767  -734  -689  -615  -538  -512  -518  -430  -197  73  270  363  380  363  341  326  317  318  345  421  579  840  1190  1551  1811  1929  1957  1957  1966  1999  2058  2139  2201  2181  2073  1943  1832  1718  1559  1326  1022  710  486  374  321  272  206  120  12  -106  -204  -255  -275  -291  -312  -349  -402  -453  -489  -513  -526  -529  -532  -541  -545  -503  -379  -209  -77  -15  0  -16  -66  -142  -213  -250  -261  -291  -376  -502  -616  -684  -709  -711  -706  -703  -705  -714  -723  -705  -622  -478  -330  -242  -229  -298  -456  -664  -839  -927  -941  -903  -817  -701  -600  -541  -520  -515  -499  -443  -349  -249  -182  -163  -166  -156  -136  -122  -118  -120  -142  -211  -339  -501  -652  -754  -815  -859  -887  -892  -878  -860  -854  -854  -885  -994  -1130  -1218  -1288  -1297  -956  163  2279  5093  7799  9367  9027  6709  3087  -779  -3815  -5319  -5306  -4360  -3159  -2181  -1620  -1430  -1441  -1481  -1458  -1340  -1156  -978  -864  -814  -768  -662  -503  -347  -224  -135  -79  -43  -4  41  90  154  266  424  565  643  709  858  1108  1361  1506  1557  1646  1881  2204  2448  2538  2534  2508  2471  2384  2191  1892  1581  1361  1251  1186  1104  951  674  329  64  -70  -156  -250  -334  -380  -407  -448  -506  -548  -551  -521  -489  -468  -450  -434  -426  -424  -427  -433  -438  -442  -444  -442  -429  -394  -346  -311  -316  -375  -472  -572  -645  -668  -629  -537  -449  -449  -533  -601  -598  -565  -549  -557  -569  -560  -522  -478  -448  -433  -425  -411  -385  -342  -292  -247  -207  -162  -115  -85  -103  -207  -370  -489  -513  -497  -553  -764  -1063  -1256  -1235  -1085  -963  -930  -940  -921  -907  -1066  -1314  -1177  -252  1589  4199  6978  8946  9179  7384  4090  338  -2746  -4431  -4764  -4356  -3728  -3105  -2605  -2241  -1918  -1562  -1210  -957  -838  -789  -725  -624  -530  -478  -468  -477  -463  -369  -175  59  241  340  412  519  654  769  843  891  965  1109  1314  1526  1716  1881  2005  2074  2134  2242  2383  2515  2634  2721  2710  2522  2122  1619  1232  1067  1041  997  818  507  191  -17  -109  -135  -154  -213  -325  -460  -572  -635  -652  -645  -625  -601  -572  -529  -484  -438  -383  -334  -334  -407  -534  -659  -710  -648  -513  -404  -364  -364  -374  -390  -425  -474  -518  -552  -580  -594  -587  -557  -501  -433  -382  -364  -366  -370  -366  -350  -321  -295  -308  -390  -528  -683  -812  -890  -922  -940  -959  -979  -999  -1018  -1033  -1019  -934  -794  -730  -853  -1121  -1350  -1221  -378  1388  3951  6671  8535  8668  6893  3785  298  -2561  -4118  -4390  -3915  -3245  -2706  -2378  -2128  -1816  -1494  -1285  -1211  -1199  -1191  -1162  -1079  -902  -671  -494  -410  -379  -361  -312  -198  -49  75  157  203  230  259  315  451  725  1082  1385  1578  1712  1840  1969  2089  2196  2283  2344  2382  2392  2328  2123  1781  1418  1171  1069  1041  990  844  592  314  123  30  -76  -296  -588  -828  -951  -986  -982  -974  -963  -921  -837  -744  -664  -570  -461  -351  -258  -220  -264  -370  -467  -499  -484  -469  -466  -462  -453  -440  -430  -420  -409  -409  -428  -451  -470  -498  -552  -649  -797  -954  -1061  -1104  -1118  -1135  -1148  -1141  -1111  -1048  -948  -841  -779  -783  -840  -907  -937  -928  -927  -991  -1159  -1378  -1520  -1487  -1187  -466  797  2640  4914  7077  8299  7930  5870  2655  -693  -3173  -4353  -4451  -3968  -3360  -2852  -2395  -1907  -1444  -1078  -824  -683  -636  -634  -621  -567  -482  -405  -355  -314  -255  -180  -126  -116  -128  -110  -1  210  445  603  662  672  684  730  852  1106  1482  1825  1970  1930  1846  1803  1797  1797  1790  1774  1747  1701  1618  1475  1270  1041  810  560  285  30  -161  -284  -355  -402  -462  -562  -680  -761  -789  -790  -780  -748  -680  -597  -536  -504  -478  -449  -435  -458  -523  -612  -696  -750  -750  -683  -563  -435  -352  -327  -328  -326  -314  -303  -308  -330  -349  -357  -356  -356  -363  -375  -390  -417  -477  -578  -713  -845  -917  -880  -743  -618  -648  -827  -1009  -1101  -1129  -1153  -1183  -1165  -1080  -1003  -989  -936  -506  706  2774  5290  7510  8552  7851  5596  2514  -570  -2908  -4094  -4265  -3822  -3123  -2439  -1946  -1667  -1507  -1347  -1133  -915  -782  -751  -767  -758  -678  -536  -399  -328  -324  -349  -356  -319  -243  -147  -40  95  274  457  571  624  705  886  1163  1455  1659  1745  1763  1778  1811  1834  1811  1750  1673  1570  1423  1237  1061  914  770  619  499  437  425  413  304  31  -314  -553  -618  -592  -583  -647  -783  -930  -1021  -1038  -1004  -936  -832  -690  -544  -443  -401  -395  -397  -394  -379  -360  -354  -376  -425  -500  -585  -636  -621  -560  -483  -411  -378  -396  -430  -436  -412  -394  -402  -391  -324  -251  -224  -224  -225  -239  -265  -291  -315  -349  -397  -430  -439  -468  -538  -607  -639  -643  -637  -631  -615  -582  -579  -713  -1011  -1331  -1475  -1224  -285  1489  3913  6501  8481  9014  7746  5063  1777  -1220  -3169  -3792  -3463  -2785  -2183  -1844  -1710  -1593  -1400  -1177  -1002  -908  -877  -879  -885  -855  -752  -602  -483  -442  -448  -437  -337  -96  246  545  697  724  708  691  681  688  750  903  1135  1384  1593  1766  1937  2100  2199  2209  2145  2024  1861  1686  1517  1359  1236  1169  1142  1102  995  830  649  462  274  132  52  -16  -121  -246  -356  -458  -559  -627  -627  -564  -481  -430  -417  -413  -402  -376  -330  -287  -274  -293  -321  -319  -281  -237  -204  -187  -188  -187  -176  -166  -166  -174  -184  -191  -196  -201  -200  -204  -251  -368  -500  -562  -549  -523  -522  -551  -592  -617  -571  -423  -245  -170  -229  -361  -493  -600  -686  -718  -644  -500  -385  -348  -368  -405  -442  -473  -491  -481  -436  -370  -310  -276  -263  -257  -244  -223  -207  -203  -205  -208  -208  -208  -214  -237  -277  -316  -330  -313  -281  -257  -244  -234  -228  -232  -253  -264  -206  -90  -26  -101  -276  -432  -477  -429  -359  -299  -255  -232  -229  -249  -275  -291  -295  -296  -295  -287  -274  -261  -249  -245  -278  -374  -498  -560  -509  -389  -268  -163  -72  -32  -76  -189  -322  -431  -480  -455  -373  -260  -145  -57  -10  0  -36  -135  -265  -361  -391  -370  -317  -254  -210  -196  -207  -234  -267  -292  -308  -316  -297  -215  -58  139  317  423  455  449  437  414  343  197  9  -159  -277  -340  -357  -351  -355  -383  -427  -474  -522  -567  -574  -479  -307  -259  -457  -783  -1111  -1216  -617  1032  3591  6484  8862  9811  8808  6208  2993  35  -2115  -3144  -3189  -2754  -2222  -1765  -1489  -1392  -1369  -1309  -1144  -907  -696  -555  -453  -376  -343  -359  -393  -411  -410  -410  -417  -409  -348  -216  -45  117  244  327  381  436  509  598  702  837  1002  1171  1331  1485  1609  1657  1638  1621  1628  1594  1497  1414  1421  1502  1552  1457  1193  872  648  563  540  516  470  395  296  195  109  10  -136  -301  -421  -482  -496  -452  -341  -221  -175  -206  -257  -299  -318  -315  -304  -296  -288  -281  -284  -309  -355  -382  -361  -308  -250  -193  -145  -106  -71  -68  -149  -310  -460  -508  -464  -405  -378  -377  -383  -387  -388  -380  -366  -374  -423  -486  -516  -510  -495  -485  -477  -467  -457  -464  -502  -577  -674  -767  -828  -855  -873  -894  -908  -880  -797  -712  -661  -618  -569  -539  -532  -544  -587  -680  -797  -872  -858  -767  -655  -571  -517  -488  -493  -536  -599  -645  -658  -635  -575  -474  -351  -247  -186  -163  -158  -158  -148  -119  -72  -22  20  49  64  56  5  -82  -166  -213  -225  -221  -215  -218  -237  -274  -323  -375  -417  -443  -470  -522  -597  -665  -713  -742  -741  -725  -781  -1009  -1350  -1429  -622  1517  4776  8185  10429  10465  8137  4429  729  -2113  -3793  -4355  -4183  -3621  -2768  -1833  -1198  -981  -958  -904  -772  -634  -550  -498  -426  -333  -271  -257  -254  -232  -205  -210  -248  -251  -144  53  250  396  508  608  685  736  797  918  1123  1377  1615  1797  1940  2105  2327  2552  2681  2644  2428  2119  1851  1659  1476  1255  1028  858  746  638  517  401  297  212  167  141  47  -183  -487  -713  -808  -836  -853  -850  -800  -732  -714  -714  -653  -545  -437  -323  -199  -96  -38  -3  23  7  -92  -247  -408  -553  -648  -660  -595  -474  -332  -209  -130  -110  -163  -289  -447  -590  -698  -735  -695  -663  -696  -748  -744  -659  -534  -441  -408  -407  -421  -457  -524  -606  -671  -701  -696  -676  -673  -696  -731  -761  -779  -791  -808  -842  -886  -902  -835  -679  -508  -397  -347  -341  -366  -391  -387  -353  -319  -329  -358  -326  -238  -175  -164  -165  -121  -12  132  261  346  385  368  271  89  -125  -312  -449  -529  -546  -526  -504  -477  -450  -450  -472  -487  -483  -475  -491  -528  -566  -592  -615  -696  -892  -1193  -1526  -1592  -837  1116  4033  7129  9379  9832  8146  4913  1237  -1880  -3786  -4329  -3933  -3254  -2686  -2306  -2066  -1824  -1439  -978  -652  -544  -565  -611  -641  -650  -627  -551  -432  -317  -226  -132  -18  96  193  269  341  422  501  550  548  510  502  648  1034  1540  1915  2061  2069  2044  2026  2022  2044  2107  2191  2233  2184  2048  1883  1733  1572  1335  1049  831  729  689  638  541  372  104  -197  -370  -355  -242  -138  -91  -83  -85  -98  -139  -210  -303  -405  -478  -477  -413  -345  -305  -283  -272  -277  -314  -383  -466  -541  -589  -611  -603  -543  -429  -325  -279  -280  -297  -309  -309  -301  -302  -341  -440  -583  -715  -790  -807  -799  -791  -791  -799  -807  -807  -790  -765  -748  -746  -747  -735  -698  -652  -627  -630  -647  -659  -654  -626  -572  -509  -467  -458  -462  -447  -395  -326  -278  -244  -175  -47  94  185  210  199  168  83  -94  -334  -542  -645  -652  -631  -653  -769  -953  -1112  -1173  -1120  -981  -823  -719  -695  -733  -794  -857  -1004  -1295  -1443  -880  810  3588  6799  9274  9879  8199  4828  965  -2250  -4139  -4713  -4479  -3897  -3185  -2464  -1872  -1505  -1334  -1238  -1109  -940  -796  -718  -683  -656  -615  -558  -506  -478  -467  -438  -362  -238  -84  73  214  333  420  472  512  568  656  789  970  1184  1434  1753  2116  2411  2570  2628  2644  2629  2550  2379  2139  1888  1666  1489  1363  1288  1258  1240  1178  1023  772  458  143  -94  -226  -300  -389  -514  -628  -688  -701  -697  -693  -687  -673  -642  -574  -442  -264  -111  -44  -75  -193  -349  -497  -622  -676  -622  -527  -473  -464  -468  -458  -433  -399  -356  -323  -343  -436  -566  -667  -718  -747  -789  -849  -901  -924  -933  -940  -931  -869  -747  -617  -506  -390  -288  -240  -232  -230  -210  -171  -146  -185  -305  -453  -556  -590  -588  -576  -552  -523  -551  -698  -921  -1112  -1216  -1240  -1207  -1129  -1017  -918  -859  -818  -840  -993  -1191  -1222  -800  357  2354  4997  7610  9158  8889  6744  3344  -287  -3161  -4691  -4963  -4548  -3905  -3215  -2610  -2124  -1662  -1205  -862  -695  -650  -654  -669  -679  -666  -625  -572  -536  -502  -424  -290  -155  -71  -35  7  109  262  409  531  669  861  1107  1383  1662  1926  2162  2341  2436  2463  2457  2440  2421  2414  2427  2434  2356  2119  1780  1494  1312  1171  1030  912  832  764  664  503  269  -7  -249  -394  -458  -492  -527  -559  -571  -562  -547  -548  -570  -594  -613  -631  -653  -675  -684  -655  -583  -496  -403  -297  -195  -137  -155  -246  -353  -422  -443  -439  -429  -422  -422  -434  -460  -498  -534  -536  -482  -388  -314  -298  -314  -322  -311  -299  -314  -376  -488  -632  -779  -886  -934  -941  -932  -909  -863  -807  -776  -793  -841  -895  -960  -1038  -1092  -1140  -1282  -1443  -1273  -396  1331  3692  6133  7913  8368  7228  4729  1450  -1783  -4069  -4950  -4673  -3831  -2971  -2387  -2081  -1926  -1798  -1609  -1361  -1112  -892  -717  -624  -612  -616  -573  -496  -447  -437  -420  -364  -261  -131  -14  59  109  185  312  485  695  948  1244  1541  1760  1877  1940  1993  2037  2054  2041  2019  2013  2036  2083  2111  2022  1737  1343  1028  859  764  670  535  363  215  120  14  -192  -499  -798  -990  -1061  -1065  -1055  -1049  -1041  -1015  -964  -904  -864  -855  -859  -848  -801  -727  -633  -507  -367  -269  -242  -271  -333  -418  -504  -555  -539  -458  -369  -348  -404  -473  -504  -506  -517  -552  -594  -629  -655  -670  -680  -701  -737  -783  -846  -929  -1013  -1076  -1117  -1149  -1177  -1207  -1247  -1312  -1377  -1388  -1390  -1485  -1600  -1392  -479  1246  3583  6030  7784  8067  6603  3854  713  -1998  -3672  -4194  -4050  -3617  -2909  -2138  -1650  -1473  -1415  -1348  -1265  -1194  -1136  -1050  -901  -720  -578  -493  -427  -360  -296  -235  -171  -100  8  180  368  508  600  678  755  830  917  1044  1238  1498  1772  1981  2094  2137  2145  2140  2128  2104  2059  1985  1906  1862  1850  1803  1625  1293  910  622  485  454  464  479  468  397  250  45  -185  -411  -593  -702  -747  -754  -754  -762  -777  -757  -653  -481  -312  -176  -73  -21  -20  -37  -66  -140  -262  -373  -416  -389  -314  -230  -168  -154  -205  -293  -357  -368  -350  -333  -325  -316  -318  -363  -437  -496  -553  -680  -905  -1148  -1300  -1330  -1261  -1121  -951  -812  -769  -853  -1040  -1314  -1591  -1570  -913  541  2748  5271  7248  7887  6945  4689  1727  -1070  -2989  -3884  -3960  -3525  -3005  -2653  -2372  -2041  -1739  -1562  -1463  -1349  -1182  -977  -763  -580  -460  -392  -345  -305  -264  -219  -173  -123  -68  -9  56  120  174  244  359  498  625  758  950  1210  1479  1715  1932  2129  2271  2344  2363  2325  2213  2057  1925  1844  1778  1664  1404  941  400  -1  -188  -237  -238  -237  -250  -270  -287  -306  -340  -391  -453  -524  -593  -637  -649  -643  -634  -632  -635  -631  -594  -506  -385  -283  -230  -216  -224  -237  -241  -236  -233  -234  -233  -233  -241  -268  -304  -332  -339  -328  -306  -284  -271  -269  -286  -347  -468  -616  -730  -785  -793  -783  -798  -846  -890  -906  -905  -913  -940  -980  -1037  -1136  -1257  -1356  -1322  -840  412  2448  4943  7228  8375  7769  5583  2520  -579  -2917  -4059  -4181  -3737  -3047  -2366  -1929  -1718  -1541  -1322  -1140  -1058  -1058  -1090  -1108  -1051  -873  -624  -429  -341  -333  -374  -436  -494  -542  -592  -636  -602  -381  39  493  782  882  910  962  1065  1231  1431  1601  1705  1768  1810  1825  1804  1753  1690  1615  1510  1374  1213  1007  746  461  182  -64  -239  -324  -349  -364  -412  -513  -647  -749  -786  -775  -740  -702  -671  -643  -600  -523  -428  -378  -412  -494  -579  -657  -714  -735  -716  -663  -589  -494  -384  -311  -317  -375  -432  -458  -463  -465  -471  -482  -492  -499  -502  -504  -501  -484  -448  -404  -371  -358  -367  -390  -407  -400  -368  -335  -325  -344  -394  -479  -588  -696  -780  -818  -814  -812  -841  -887  -907  -876  -849  -882  -945  -1023  -1085  -909  -131  1478  3797  6357  8413  9083  7846  5061  1711  -1271  -3226  -3886  -3605  -3069  -2652  -2293  -1869  -1418  -1078  -918  -863  -803  -717  -654  -637  -649  -667  -664  -577  -356  -62  155  237  237  212  173  131  122  194  361  582  780  911  1008  1149  1377  1667  1936  2098  2145  2141  2134  2121  2071  1970  1848  1723  1562  1352  1140  982  879  791  680  560  480  462  490  526  509  350  30  -322  -552  -633  -612  -527  -433  -379  -357  -340  -319  -305  -304  -311  -308  -266  -172  -42  77  141  138  88  0  -122  -260  -373  -413  -357  -239  -121  -40  -13  -50  -149  -284  -406  -486  -519  -502  -440  -360  -291  -255  -270  -346  -451  -530  -536  -456  -313  -167  -74  -45  -74  -160  -310  -516  -714  -826  -844  -795  -672  -487  -306  -192  -145  -131  -130  -154  -241  -399  -566  -644  -610  -529  -469  -445  -438  -434  -441  -475  -529  -568  -547  -457  -398  -458  -571  -638  -655  -652  -618  -517  -365  -242  -198  -205  -214  -220  -222  -206  -167  -116  -87  -118  -198  -272  -309  -319  -321  -333  -361  -408  -475  -542  -575  -564  -533  -488  -403  -275  -147  -68  -49  -75  -127  -192  -267  -369  -486  -569  -581  -521  -407  -272  -169  -137  -156  -174  -182  -205  -260  -319  -323  -269  -207  -178  -179  -204  -260  -348  -428  -440  -366  -225  -22  216  417  520  538  522  500  465  396  294  186  102  44  -13  -101  -213  -304  -344  -344  -326  -316  -346  -436  -552  -629  -640  -615  -617  -707  -856  -824  -201  1369  3883  6737  8945  9610  8362  5663  2472  -437  -2549  -3545  -3548  -2995  -2294  -1689  -1259  -990  -849  -792  -760  -724  -696  -685  -681  -669  -639  -568  -424  -241  -107  -60  -65  -86  -120  -155  -133  25  324  640  845  925  939  938  953  1016  1136  1272  1379  1449  1506  1572  1652  1728  1775  1793  1795  1768  1675  1491  1274  1130  1078  1023  880  668  486  401  395  410  397  338  257  202  188  189  167  105  29  -16  -27  -49  -124  -238  -317  -302  -197  -69  5  15  1  -11  -24  -42  -67  -78  -54  -8  22  6  -45  -93  -128  -182  -284  -415  -520  -568  -575  -577  -582  -572  -529  -473  -452  -488  -551  -612  -682  -728  -655  -473  -327  -305  -383  -488  -556  -578  -595  -642  -709  -761  -784  -786  -755  -673  -560  -476  -462  -515  -615  -733  -841  -914  -939  -920  -874  -831  -802  -777  -752  -735  -725  -714  -687  -627  -519  -375  -243  -167  -146  -151  -168  -211  -300  -413  -491  -509  -488  -470  -483  -512  -518  -478  -399  -303  -226  -189  -189  -199  -179  -94  60  246  408  488  448  293  72  -142  -299  -394  -446  -481  -516  -551  -592  -657  -740  -811  -862  -894  -886  -800  -677  -698  -969  -1363  -1684  -1738  -1230  178  2618  5716  8551  10059  9544  7036  3400  -142  -2701  -3886  -3841  -3197  -2558  -2128  -1862  -1677  -1498  -1311  -1160  -1052  -938  -794  -650  -557  -529  -521  -478  -374  -240  -138  -85  -35  39  116  178  233  295  376  475  574  658  743  883  1113  1379  1577  1693  1803  1941  2059  2114  2124  2122  2115  2088  2024  1939  1855  1752  1605  1429  1217  932  616  393  312  310  314  296  243  150  36  -88  -252  -451  -610  -670  -642  -560  -466  -394  -364  -396  -481  -548  -520  -379  -206  -100  -74  -75  -75  -83  -118  -185  -258  -302  -303  -281  -268  -282  -323  -372  -406  -416  -399  -350  -284  -232  -207  -203  -231  -312  -429  -533  -612  -676  -700  -657  -592  -554  -550  -562  -572  -576  -576  -579  -588  -590  -575  -553  -544  -555  -565  -553  -539  -563  -618  -664  -682  -672  -629  -557  -485  -452  -467  -503  -541  -588  -638  -676  -696  -697  -671  -610  -522  -418  -303  -194  -128  -110  -111  -106  -91  -74  -56  -38  -28  -39  -75  -134  -220  -343  -492  -621  -688  -679  -622  -572  -567  -605  -675  -765  -862  -944  -970  -924  -906  -1057  -1333  -1386  -661  1194  3987  7055  9403  9992  8431  5259  1470  -1935  -4159  -4936  -4632  -3808  -2944  -2340  -1993  -1717  -1419  -1144  -958  -873  -858  -862  -816  -672  -468  -310  -248  -248  -266  -288  -289  -233  -122  21  203  399  530  562  538  530  613  821  1073  1254  1367  1518  1733  1931  2050  2108  2147  2154  2107  2042  1987  1909  1780  1611  1422  1222  1031  880  766  654  525  382  218  44  -109  -237  -349  -454  -574  -725  -879  -976  -991  -941  -866  -800  -748  -687  -612  -551  -518  -506  -508  -522  -556  -610  -670  -713  -737  -766  -809  -851  -874  -877  -867  -856  -847  -842  -836  -830  -824  -820  -822  -832  -852  -876  -912  -982  -1103  -1251  -1362  -1384  -1326  -1250  -1215  -1222  -1215  -1164  -1113  -1115  -1166  -1199  -1161  -1073  -998  -979  -1014  -1062  -1086  -1078  -1041  -978  -876  -717  -538  -420  -391  -415  -461  -530  -614  -676  -695  -686  -680  -701  -752  -816  -878  -944  -1039  -1165  -1300  -1425  -1505  -1505  -1448  -1389  -1376  -1414  -1464  -1410  -1057  -143  1628  4289  7236  9365  9605  7560  3823  -384  -3796  -5585  -5748  -4938  -3873  -2959  -2285  -1839  -1599  -1490  -1423  -1364  -1308  -1253  -1200  -1130  -1021  -874  -728  -624  -553  -461  -326  -189  -91  -18  72  210  382  541  650  706  744  812  952  1168  1410  1626  1823  2018  2185  2326  2491  2684  2845  2922  2895  2753  2537  2340  2215  2123  1996  1799  1540  1259  1007  794  619  509  476  483  482  439  352  263  222  233  263  290  318  342  347  338  347  421  575  758  889  920  880  833  813  814  824  837  836  794  702  592  512  472]
