reading_id,reading_time,wire_id,result_classification,heart_rate,heart_rate_alert,firmware_version,device_app_version,hardware_version,waveform_samples
6087be50-6edd-11ed-8080-808080808080,Mon Nov 28 05:27:40 UTC 2022,a101e3f91939,NSR,88,NONE,20001.171.50,2.10.0,Charge 5,[0  -8  -28  -60  -141  -362  -752  -1176  -1468  -1602  -1627  -1554  -1379  -1161  -999  -903  -797  -663  -557  -513  -513  -525  -529  -529  -544  -575  -567  -480  -381  -350  -368  -384  -381  -365  -309  -171  24  201  327  416  462  446  359  230  86  -87  -285  -444  -527  -535  -485  -420  -383  -375  -377  -377  -382  -407  -459  -516  -549  -588  -664  -687  -542  -268  -48  5  182  1065  2888  5298  7492  8476  7685  5432  2571  -87  -1889  -2427  -1985  -1370  -993  -735  -519  -388  -302  -209  -116  -27  59  134  189  227  257  286  309  330  402  584  889  1226  1439  1460  1359  1206  1013  805  671  712  968  1348  1682  1877  1919  1829  1692  1624  1752  2148  2663  3015  3120  3098  3034  2923  2756  2560  2392  2311  2327  2387  2429  2389  2211  1907  1575  1272  972  637  306  70  -22  -34  -66  -157  -264  -324  -316  -266  -220  -202  -185  -130  -41  21  20  -24  -81  -142  -204  -256  -285  -298  -322  -376  -454  -537  -607  -633  -580  -448  -284  -144  -62  -66  -196  -446  -689  -744  -603  -417  -297  -260  -275  -293  -312  -351  -381  -381  -363  -324  -252  -156  -54  23  57  11  -162  -449  -729  -895  -948  -949  -933  -884  -786  -702  -725  -833  -905  -899  -856  -810  -762  -669  -470  -211  -41  -53  -228  -503  -829  -1157  -1345  -1306  -1238  -1228  -923  66  1849  4208  6402  7363  6471  4070  1194  -1156  -2476  -2733  -2274  -1696  -1453  -1497  -1485  -1306  -1094  -939  -837  -771  -734  -721  -723  -729  -734  -740  -754  -774  -773  -676  -407  -32  255  356  325  235  136  73  71  117  173  196  185  217  404  766  1160  1418  1511  1513  1513  1575  1728  1959  2207  2363  2361  2220  1985  1688  1371  1078  854  735  711  727  722  655  510  325  142  -50  -247  -379  -406  -374  -380  -535  -876  -1270  -1535  -1631  -1643  -1630  -1563  -1395  -1175  -1007  -910  -844  -788  -720  -609  -467  -344  -291  -316  -381  -467  -576  -646  -626  -580  -591  -646  -710  -784  -857  -907  -932  -939  -917  -844  -715  -577  -499  -537  -715  -964  -1141  -1129  -909  -581  -306  -181  -194  -279  -358  -381  -351  -314  -302  -306  -316  -358  -457  -593  -699  -737  -732  -713  -694  -686  -711  -789  -886  -929  -902  -879  -914  -948  -886  -728  -590  -632  -869  -1042  -996  -922  -861  -453  689  2721  5208  7109  7554  6360  3953  1129  -1301  -2764  -3159  -2905  -2451  -2031  -1780  -1692  -1643  -1538  -1363  -1183  -1060  -946  -716  -355  11  262  375  390  325  166  -57  -253  -362  -390  -363  -290  -163  1  146  233  326  524  802  1025  1152  1262  1398  1523  1636  1788  1973  2121  2193  2212  2231  2286  2356  2419  2481  2504  2347  1902  1327  990  1074  1407  1704  1821  1697  1281  673  155  -94  -136  -118  -164  -368  -720  -1048  -1141  -936  -576  -275  -111  -26  20  12  -70  -206  -343  -427  -442  -415  -397  -446  -564  -648  -584  -384  -172  -37  28  63  100  144  162  129  79  49  15  -122  -442  -831  -1046  -1017  -885  -775  -700  -626  -541  -462  -408  -393  -440  -554  -690  -786  -820  -801  -727  -601  -470  -411  -454  -543  -607  -626  -627  -670  -748  -778  -731  -639  -519  -406  -344  -327  -328  -333  -351  -394  -443  -470  -504  -609  -782  -981  -1163  -1242  -1193  -1050  -748  -206  546  1488  2637  3832  4652  4644  3569  1595  -732  -2622  -3361  -2996  -2230  -1604  -1379  -1529  -1634  -1437  -1096  -806  -640  -589  -594  -611  -602  -500  -268  27  251  315  245  142  55  -32  -114  -142  -112  -52  23  134  318  549  765  990  1294  1672  2029  2264  2359  2357  2297  2221  2175  2170  2189  2209  2216  2200  2148  2061  1963  1889  1853  1842  1804  1643  1307  873  453  132  -34  -94  -211  -483  -782  -892  -807  -696  -641  -604  -593  -663  -823  -996  -1104  -1120  -1047  -896  -703  -512  -348  -214  -126  -144  -300  -498  -655  -787  -895  -938  -889  -757  -601  -509  -572  -818  -1108  -1262  -1245  -1132  -1010  -939  -916  -871  -723  -476  -237  -117  -170  -403  -726  -979  -1090  -1110  -1088  -1011  -867  -703  -585  -514  -444  -336  -187  -66  -67  -192  -357  -497  -587  -625  -629  -623  -618  -614  -618  -640  -678  -686  -600  -433  -276  -214  -255  -338  -413  -490  -638  -953  -1301  -1365  -1157  -942  -708  -93  1205  2992  4636  5501  5103  3332  800  -1555  -3144  -3774  -3553  -2824  -2028  -1528  -1341  -1197  -891  -468  -109  100  192  188  77  -110  -293  -421  -511  -589  -675  -770  -784  -604  -267  73  295  356  302  249  274  340  383  408  458  556  708  928  1209  1477  1662  1775  1858  1921  1971  2019  2062  2088  2104  2129  2162  2167  2073  1843  1552  1323  1170  1032  885  740  601  480  380  278  148  -21  -231  -428  -536  -549  -511  -457  -416  -428  -529  -687  -776  -711  -582  -502  -480  -476  -474  -471  -469  -472  -485  -511  -534  -530  -481  -385  -249  -95  47  159  239  265  192  0  -269  -544  -796  -987  -1056  -1007  -897  -754  -573  -361  -159  -28  -15  -134  -364  -623  -817  -907  -910  -840  -684  -449  -183  47  184  201  95  -110  -293  -333  -273  -208  -164  -123  -73  -18  15  -19  -165  -391  -602  -731  -773  -750  -676  -552  -390  -240  -141  -111  -165  -296  -458  -588  -678  -803  -992  -1117  -1095  -1056  -1129  -1140  -634  681  2648  4722  6113  6156  4743  2410  16  -1751  -2608  -2643  -2280  -1971  -1828  -1709  -1525  -1311  -1133  -1049  -1018  -905  -689  -482  -341  -239  -162  -116  -101  -101  -110  -115  -102  -84  -75  -54  8  98  167  195  221  289  407  540  665  813  1010  1205  1329  1391  1459  1582  1746  1897  2027  2148  2207  2156  2037  1904  1763  1642  1561  1511  1487  1496  1520  1521  1458  1289  963  463  -65  -403  -502  -492  -488  -544  -687  -881  -1035  -1100  -1107  -1087  -1028  -899  -726  -610  -588  -588  -580  -573  -541  -525  -595  -708  -787  -841  -885  -876  -758  -559  -379  -305  -346  -450  -570  -684  -780  -846  -838  -677  -386  -118  17  35  2  -33  -62  -78  -87  -125  -229  -370  -470  -481  -419  -326  -205  -52  84  159  183  189  218  293  380  434  419  273  -51  -551  -1158  -1638  -1681  -1288  -777  -389  -162  -63  -51  -102  -201  -310  -369  -354  -307  -366  -688  -1267  -1856  -1945  -1043  880  3410  5911  7662  8099  7008  4646  1734  -892  -2626  -3226  -2863  -2021  -1241  -794  -621  -587  -648  -783  -941  -1107  -1261  -1311  -1172  -889  -589  -319  -17  302  525  585  514  357  165  0  -95  -103  -29  92  233  397  586  766  898  971  1021  1107  1252  1411  1545  1688  1917  2243  2555  2733  2760  2694  2577  2393  2123  1831  1643  1593  1616  1651  1666  1622  1454  1122  667  220  -76  -198  -244  -319  -449  -605  -747  -853  -916  -946  -961  -972  -982  -989  -994  -987  -946  -871  -805  -783  -802  -821  -790  -696  -582  -514  -524  -548  -513  -444  -402  -393  -389  -370  -336  -306  -295  -306  -338  -382  -427  -472  -519  -566  -598  -602  -584  -563  -564  -617  -740  -883  -924  -780  -518  -295  -186  -151  -148  -176  -253  -383  -553  -741  -917  -1053  -1137  -1134  -985  -732  -518  -434  -448  -494  -555  -651  -794  -986  -1207  -1355  -1289  -998  -736  -823  -1250  -1640  -1567  -732  1007  3436  5837  7281  7150  5519  3057  556  -1384  -2454  -2833  -2933  -2842  -2482  -1981  -1521  -1185  -982  -873  -794  -703  -591  -460  -300  -141  -27  30  19  -61  -156  -216  -248  -262  -244  -168  -46  61  116  151  242  408  579  676  714  789  977  1234  1448  1580  1672  1765  1886  2036  2167  2240  2285  2359  2491  2654  2776  2780  2599  2229  1785  1408  1092  718  270  -103  -290  -327  -313  -303  -304  -312  -352  -476  -707  -965  -1131  -1174  -1150  -1119  -1103  -1106  -1126  -1134  -1066  -868  -608  -433  -394  -429  -475  -508  -520  -520  -518  -520  -525  -528  -512  -480  -468  -499  -538  -536  -493  -465  -511  -627  -757  -845  -874  -848  -777  -686  -599  -483  -315  -182  -182  -309  -503  -690  -798  -827  -819  -790  -732  -651  -567  -466  -310  -104  85  172  124  -2  -168  -369  -578  -730  -766  -705  -630  -616  -693  -850  -1019  -1129  -1170  -1183  -1202  -1219  -1177  -1021  -783  -576  -467  -469  -631  -979  -1476  -1930  -1801  -485  1958  4774  7104  8180  7529  5483  2975  694  -1096  -2172  -2444  -2172  -1771  -1589  -1638  -1602  -1355  -1075  -895  -791  -690  -560  -440  -373  -348  -294  -157  0  67  48  18  10  -1  -47  -136  -236  -287  -217  -8  281  578  836  1014  1108  1150  1176  1247  1426  1680  1889  1990  2016  2020  2051  2137  2255  2348  2386  2370  2316  2228  2087  1900  1715  1538  1314  1047  825  700  641  559  366  44  -318  -594  -724  -750  -749  -757  -767  -767  -757  -755  -772  -795  -785  -709  -591  -513  -518  -565  -600  -619  -637  -648  -624  -545  -435  -349  -303  -283  -287  -340  -463  -620  -733  -749  -669  -528  -399  -347  -403  -539  -686  -774  -796  -787  -772  -764  -782  -848  -962  -1096  -1183  -1132  -901  -582  -333  -221  -200  -216  -280  -409  -529  -519  -388  -262  -198  -142  -87  -104  -216  -354  -465  -544  -586  -595  -587  -581  -597  -648  -715  -765  -795  -839  -915  -965  -920  -846  -863  -915  -871  -768  -733  -829  -1026  -1191  -1218  -1193  -1261  -1307  -892  395  2580  5218  7469  8442  7695  5503  2670  -45  -2189  -3447  -3741  -3339  -2643  -1981  -1504  -1197  -981  -819  -741  -761  -827  -864  -818  -660  -447  -290  -233  -233  -245  -258  -266  -245  -161  -14  161  313  403  427  411  391  395  450  600  863  1159  1371  1461  1482  1504  1570  1718  1956  2211  2381  2437  2427  2405  2381  2323  2210  2075  1968  1886  1786  1651  1506  1355  1174  921  553  107  -285  -519  -590  -570  -540  -538  -543  -538  -528  -524  -519  -497  -452  -396  -351  -334  -366  -448  -549  -621  -647  -628  -558  -447  -342  -293  -317  -390  -490  -593  -673  -719  -730  -681  -538  -328  -144  -53  -53  -107  -178  -236  -271  -295  -324  -403  -573  -795  -950  -947  -782  -549  -384  -360  -452  -584  -676  -696  -660  -594  -534  -503  -498  -500  -489  -464  -442  -411  -323  -153  45  189  240  217  158  97  37  -41  -123  -169  -182  -203  -267  -377  -501  -580  -573  -519  -512  -579  -664  -726  -769  -812  -848  -858  -849  -832  -769  -641  -603  -851  -1228  -1249  -464  1350  3965  6589  8228  8163  6383  3654  924  -1188  -2409  -2802  -2712  -2482  -2264  -2058  -1826  -1559  -1261  -948  -683  -522  -452  -411  -380  -393  -472  -575  -615  -515  -282  -4  223  358  411  414  381  313  233  198  265  438  634  754  778  778  837  1006  1280  1575  1787  1897  1955  1984  1987  1977  1979  2006  2051  2095  2120  2100  1982  1752  1478  1258  1109  958  745  490  264  119  51  30  27  18  -25  -137  -321  -543  -763  -924  -967  -922  -859  -815  -822  -863  -886  -883  -869  -858  -851  -801  -685  -543  -429  -359  -319  -309  -342  -417  -509  -598  -668  -692  -664  -621  -614  -654  -716  -763  -779  -773  -752  -724  -694  -671  -657  -647  -636  -625  -620  -628  -650  -682  -711  -728  -732  -711  -655  -565  -450  -325  -219  -155  -131  -127  -128  -129  -140  -163  -193  -226  -286  -398  -532  -621  -645  -637  -647  -707  -816  -935  -1019  -1046  -1016  -942  -847  -765  -736  -806  -985  -1166  -1237  -1259  -1273  -1094  -491  692  2555  4902  7011  7949  7194  4970  2073  -609  -2414  -3106  -2991  -2561  -2154  -1926  -1820  -1684  -1453  -1172  -932  -751  -571  -391  -274  -250  -288  -341  -380  -396  -388  -338  -232  -75  86  197  243  246  225  196  180  215  340  536  726  851  900  908  960  1124  1383  1647  1843  1969  2079  2210  2340  2431  2466  2437  2325  2126  1891  1678  1487  1283  1060  855  708  621  550  413  159  -142  -368  -497  -566  -606  -637  -673  -728  -818  -921  -998  -1032  -1039  -1037  -1046  -1059  -1018  -839  -523  -201  1  56  -46  -327  -686  -927  -957  -839  -661  -477  -332  -233  -135  -15  90  167  249  340  359  161  -353  -1038  -1549  -1676  -1497  -1177  -826  -522  -313  -180  -78  6  72  102  25  -225  -572  -836  -930  -893  -762  -561  -337  -123  60  180  178  -29  -464  -968  -1316  -1442  -1426  -1324  -1137  -905  -706  -549  -360  -122  62  75  -168  -659  -1203  -1547  -1676  -1735  -1711  -1430  -651  821  2953  5384  7468  8458  7835  5691  2748  -93  -2137  -3117  -3242  -2927  -2516  -2132  -1726  -1325  -1047  -893  -768  -631  -521  -452  -383  -278  -148  -42  8  27  52  86  99  72  15  -40  -61  -21  91  294  560  794  922  957  971  1020  1107  1213  1351  1520  1657  1718  1729  1752  1850  2060  2347  2601  2735  2758  2725  2649  2514  2338  2163  1966  1658  1224  798  487  221  -82  -356  -494  -455  -258  6  198  241  147  -44  -283  -521  -726  -883  -992  -1066  -1121  -1159  -1159  -1094  -961  -806  -701  -667  -673  -691  -715  -736  -741  -725  -679  -600  -525  -498  -526  -575  -599  -610  -658  -739  -822  -894  -941  -963  -964  -931  -840  -710  -583  -459  -333  -234  -178  -140  -104  -97  -147  -226  -290  -334  -365  -384  -394  -407  -468  -625  -846  -1024  -1099  -1065  -933  -756  -618  -545  -524  -573  -730  -981  -1233  -1387  -1434  -1406  -1293  -1100  -930  -870  -741  -107  1276  3198  5160  6398  6202  4640  2418  155  -1652  -2585  -2713  -2496  -2251  -2063  -1952  -1845  -1626  -1303  -973  -699  -504  -408  -416  -509  -636  -731  -762  -729  -656  -592  -552  -487  -379  -257  -154  -78  16  195  431  615  691  709  746  844  990  1130  1218  1249  1272  1350  1516  1767  2087  2420  2673  2784  2725  2509  2233  2015  1889  1814  1760  1691  1552  1340  1086  800  508  235  -54  -375  -643  -796  -861  -887  -891  -880  -865  -854  -834  -788  -720  -642  -549  -444  -371  -374  -457  -586  -705  -785  -836  -872  -887  -866  -820  -770  -737  -732  -729  -661  -492  -309  -247  -314  -435  -573  -680  -710  -685  -655  -647  -656  -671  -698  -738  -770  -779  -774  -769  -756  -683  -499  -263  -117  -126  -221  -301  -328  -323  -312  -312  -333  -376  -426  -459  -468  -450  -407  -349  -297  -255  -216  -183  -153  -123  -118  -225  -522  -929  -1240  -1338  -1257  -1054  -763  -449  -228  -176  -257  -386  -506  -573  -602  -541  -94  1040  2888  5159  7155  7930  7003  4762  2051  -369  -1996  -2733  -2998  -3212  -3270  -2933  -2288  -1590  -1043  -708  -519  -370  -208  -51  60  112  113  88  43  -21  -78  -70  7  101  162  185  165  99  23  30  187  438  659  820  976  1135  1233  1240  1221  1312  1609  2033  2381  2553  2554  2388  2123  1922  1863  1920  2054  2214  2331  2394  2431  2411  2184  1625  870  245  -79  -193  -236  -284  -334  -345  -330  -339  -379  -429  -473  -498  -504  -503  -506  -521  -562  -646  -791  -986  -1163  -1235  -1180  -1067  -953  -796  -569  -349  -224  -238  -371  -530  -643  -708  -746  -739  -644  -483  -342  -259  -218  -222  -305  -482  -703  -872  -955  -990  -1015  -1018  -962  -827  -653  -521  -463  -440  -389  -294  -181  -80  -13  7  -8  -34  -50  -64  -111  -239  -455  -683  -839  -917  -970  -1022  -1048  -992  -848  -733  -770  -894  -981  -1036  -1065  -1009  -898  -793  -704  -721  -993  -1421  -1645  -1391  -472  1236  3528  5844  7499  7834  6581  4185  1464  -916  -2521  -3168  -3039  -2487  -1822  -1309  -1073  -1002  -915  -778  -681  -688  -760  -813  -808  -784  -787  -809  -787  -683  -540  -422  -331  -230  -116  -19  49  97  129  156  205  296  428  571  693  792  905  1070  1286  1519  1743  1948  2112  2222  2287  2331  2367  2381  2349  2272  2165  2046  1940  1841  1715  1542  1268  845  381  63  -49  -44  -14  7  21  4  -107  -347  -636  -836  -895  -843  -710  -536  -381  -288  -283  -403  -647  -928  -1119  -1172  -1110  -940  -674  -406  -240  -182  -174  -191  -266  -439  -653  -772  -728  -571  -404  -293  -239  -208  -185  -171  -160  -141  -118  -104  -121  -203  -401  -736  -1136  -1462  -1623  -1600  -1383  -998  -546  -135  170  330  352  293  206  114  29  -11  33  161  326  397  209  -226  -682  -983  -1122  -1122  -993  -800  -648  -584  -577  -581  -579  -569  -557  -569  -654  -836  -1057  -1244  -1406  -1520  -1440  -1178  -966  -792  -346  646  2225  4118  5906  7208  7567  6583  4341  1468  -1195  -2921  -3373  -2830  -1998  -1475  -1335  -1314  -1274  -1226  -1137  -958  -726  -541  -451  -427  -414  -376  -320  -274  -241  -202  -162  -124  -81  -43  -29  -30  -14  37  107  173  266  436  644  795  855  868  894  980  1169  1488  1892  2252  2465  2537  2536  2520  2508  2506  2526  2572  2609  2537  2247  1748  1223  880  754  708  600  415  225  73  -46  -140  -215  -298  -420  -597  -791  -920  -934  -845  -706  -582  -520  -549  -672  -837  -967  -1022  -1017  -979  -917  -835  -747  -657  -538  -375  -232  -180  -197  -246  -312  -385  -471  -573  -658  -686  -648  -588  -548  -533  -530  -536  -553  -584  -624  -652  -653  -621  -570  -538  -559  -630  -717  -781  -810  -814  -792  -741  -669  -588  -494  -403  -354  -365  -407  -441  -452  -448  -445  -449  -466  -487  -500  -507  -540  -651  -856  -1081  -1225  -1265  -1242  -1165  -1022  -853  -750  -746  -795  -865  -963  -1060  -1086  -1021  -990  -1182  -1441  -1162  130  2369  5035  7324  8431  7930  5988  3244  385  -2003  -3412  -3709  -3262  -2569  -1972  -1583  -1314  -1088  -929  -852  -830  -821  -798  -738  -619  -459  -324  -245  -190  -154  -146  -147  -114  -11  155  321  426  465  464  452  455  496  589  725  865  968  1026  1084  1213  1449  1720  1924  2049  2133  2188  2228  2290  2370  2416  2395  2325  2240  2132  1941  1629  1274  1017  908  885  839  698  505  362  286  207  56  -226  -674  -1178  -1530  -1638  -1549  -1313  -1006  -751  -620  -586  -602  -649  -722  -805  -869  -896  -867  -752  -559  -365  -229  -150  -98  -47  -7  -68  -320  -687  -966  -1061  -1005  -827  -558  -292  -126  -67  -52  -57  -141  -384  -743  -1063  -1245  -1283  -1182  -963  -713  -538  -467  -442  -395  -309  -212  -126  -29  87  177  203  177  109  -43  -360  -830  -1286  -1553  -1580  -1364  -937  -464  -171  -153  -339  -571  -702  -730  -775  -919  -1125  -1290  -1365  -1384  -1400  -1403  -1288  -922  -160  1230  3299  5616  7491  8185  7178  4645  1461  -1336  -3012  -3413  -2996  -2374  -1858  -1527  -1362  -1248  -1102  -935  -785  -677  -598  -518  -433  -378  -372  -400  -433  -443  -410  -338  -261  -181  -71  36  84  72  56  87  181  330  519  737  945  1089  1171  1255  1374  1531  1725  1930  2094  2187  2220  2225  2227  2242  2267  2263  2185  2045  1886  1720  1546  1370  1178  951  676  349  25  -186  -255  -244  -240  -310  -478  -687  -835  -885  -878  -861  -852  -860  -891  -942  -993  -1021  -1016  -975  -908  -819  -704  -586  -506  -480  -496  -533  -544  -498  -437  -413  -420  -420  -395  -361  -344  -348  -377  -454  -562  -650  -693  -692  -673  -661  -646  -635  -647  -672  -690  -701  -706  -684  -612  -510  -428  -370  -305  -222  -141  -72  -28  -28  -65  -104  -149  -223  -319  -395  -455  -527  -604  -680  -772  -856  -878  -823  -731  -669  -658  -676  -697  -704  -669  -548  -406  -477  -897  -1480  -1887  -1804  -957  768  3191  5784  7722  8228  7079  4693  1829  -688  -2328  -3057  -3063  -2560  -1858  -1291  -1029  -1033  -1178  -1328  -1324  -1078  -699  -398  -233  -121  -7  106  202  260  233  73  -202  -490  -684  -728  -566  -203  231  581  790  897  960  1011  1053  1091  1134  1188  1258  1338  1430  1553  1691  1820  1981  2228  2507  2704  2781  2771  2681  2481  2155  1736  1296  932  707  584  494  431  410  419  438  447  427  359  214  -20  -289  -510  -675  -815  -914  -928  -861  -761  -655  -562  -509  -530  -673  -962  -1315  -1549  -1503  -1153  -669  -318  -194  -191  -204  -201  -183  -150  -111  -92  -143  -311  -582  -866  -1073  -1184  -1216  -1176  -1053  -886  -760  -715  -713  -684  -573  -399  -247  -183  -217  -309  -397  -467  -568  -691  -756  -718  -601  -453  -307  -185  -111  -86  -79  -78  -95  -144  -215  -297  -386  -487  -622  -787  -919  -962  -914  -793  -659  -598  -645  -749  -829  -868  -904  -936  -877  -713  -663  -874  -1165  -1294  -1023  -29  1803  4229  6718  8443  8601  6993  4139  1003  -1416  -2625  -2817  -2513  -2149  -1946  -1883  -1799  -1589  -1280  -951  -677  -512  -446  -425  -396  -328  -246  -201  -210  -242  -240  -188  -125  -75  -8  88  186  259  307  352  435  577  741  863  925  962  1037  1216  1484  1735  1893  1974  2012  2027  2049  2113  2215  2301  2339  2344  2350  2365  2350  2226  1943  1542  1163  919  739  448  27  -333  -500  -524  -530  -583  -660  -691  -648  -592  -640  -869  -1203  -1459  -1547  -1507  -1397  -1261  -1139  -1036  -948  -882  -861  -900  -958  -971  -922  -832  -739  -679  -658  -653  -645  -638  -645  -664  -691  -731  -801  -878  -926  -941  -941  -930  -892  -818  -729  -669  -663  -697  -728  -734  -724  -718  -718  -709  -691  -682  -694  -708  -688  -606  -484  -385  -340  -320  -285  -231  -175  -134  -113  -106  -107  -110  -124  -161  -216  -259  -271  -268  -279  -318  -390  -486  -569  -623  -685  -791  -913  -982  -966  -892  -800  -713  -673  -762  -1011  -1339  -1698  -1984  -1846  -947  752  3014  5369  7233  8023  7399  5521  2939  306  -1806  -2987  -3134  -2563  -1824  -1353  -1247  -1305  -1323  -1257  -1146  -1031  -927  -836  -772  -745  -729  -662  -482  -184  110  238  180  71  2  -28  -38  -16  56  170  296  402  426  318  159  164  516  1117  1637  1875  1905  1893  1932  2012  2075  2091  2086  2104  2174  2268  2308  2247  2125  2026  1976  1890  1664  1295  875  507  251  104  5  -125  -306  -480  -611  -716  -808  -883  -955  -1032  -1096  -1139  -1178  -1210  -1190  -1078  -896  -730  -640  -613  -606  -604  -622  -677  -752  -810  -834  -839  -821  -754  -632  -510  -450  -467  -547  -644  -691  -647  -497  -297  -148  -86  -78  -123  -272  -524  -776  -924  -965  -958  -928  -872  -802  -754  -750  -779  -817  -852  -880  -880  -813  -638  -352  -44  154  210  163  44  -102  -199  -182  -56  89  129  21  -194  -466  -718  -867  -904  -886  -860  -840  -826  -813  -798  -777  -751  -728  -732  -791  -913  -1053  -1135  -1108  -946  -743  -694  -728  -415  658  2645  5203  7427  8353  7528  5229  2284  -406  -2200  -2909  -2836  -2413  -1929  -1581  -1431  -1362  -1234  -1037  -824  -594  -342  -131  -24  -15  -62  -130  -199  -259  -307  -324  -232  34  396  668  769  766  726  656  560  471  434  504  713  995  1206  1285  1290  1312  1401  1566  1773  1947  2037  2061  2050  1991  1855  1680  1550  1500  1493  1493  1477  1433  1363  1263  1118  933  749  579  383  111  -216  -493  -642  -683  -687  -715  -793  -891  -987  -1071  -1078  -937  -672  -418  -325  -402  -528  -611  -653  -692  -740  -782  -807  -819  -819  -807  -778  -708  -587  -452  -351  -292  -256  -232  -213  -200  -227  -355  -588  -828  -970  -1005  -980  -924  -849  -765  -685  -615  -554  -512  -528  -610  -717  -813  -883  -926  -955  -986  -1005  -955  -789  -568  -388  -269  -186  -124  -59  8  36  -20  -148  -271  -331  -344  -391  -542  -775  -995  -1115  -1096  -950  -752  -585  -500  -513  -633  -833  -1027  -1133  -1128  -1029  -895  -870  -1087  -1460  -1634  -1178  67  1883  3863  5628  6806  6990  5983  3945  1300  -1242  -2985  -3651  -3382  -2654  -2031  -1693  -1463  -1255  -1129  -1064  -993  -875  -710  -558  -478  -466  -482  -500  -495  -436  -301  -135  -52  -102  -151  -46  179  384  515  624  753  881  974  1032  1070  1099  1117  1163  1349  1750  2240  2577  2649  2494  2208  1923  1759  1760  1910  2150  2374  2510  2566  2581  2572  2473  2137  1479  666  31  -255  -287  -234  -186  -172  -227  -388  -610  -783  -856  -865  -861  -864  -864  -840  -775  -682  -608  -573  -548  -541  -580  -635  -659  -649  -628  -617  -622  -626  -611  -561  -484  -439  -448  -445  -398  -352  -347  -390  -447  -480  -485  -472  -438  -368  -265  -165  -104  -88  -103  -137  -179  -231  -325  -487  -635  -609  -387  -126  35  89  66  -20  -149  -279  -413  -599  -808  -872  -683  -378  -174  -143  -223  -313  -371  -465  -663  -911  -1082  -1121  -1070  -996  -948  -947  -983  -1006  -944  -867  -994  -1310  -1420  -817  794  3202  5781  7715  8190  6947  4465  1501  -1183  -2950  -3573  -3340  -2709  -1992  -1460  -1275  -1242  -1138  -1005  -915  -841  -730  -557  -355  -202  -134  -119  -104  -65  3  91  146  75  -169  -466  -596  -488  -264  -57  103  282  550  863  1110  1245  1301  1331  1391  1525  1697  1812  1826  1785  1755  1768  1809  1853  1898  1959  2010  1985  1863  1711  1613  1565  1462  1212  832  401  -42  -444  -695  -769  -755  -739  -747  -767  -777  -776  -793  -859  -961  -1027  -1012  -955  -920  -936  -987  -1011  -971  -903  -857  -835  -815  -780  -731  -678  -627  -592  -597  -640  -685  -715  -732  -731  -687  -576  -426  -304  -263  -353  -609  -934  -1121  -1068  -880  -729  -679  -685  -685  -658  -628  -644  -713  -761  -730  -658  -580  -457  -242  19  229  336  324  150  -147  -412  -554  -621  -671  -705  -703  -657  -585  -531  -540  -623  -728  -776  -753  -711  -685  -676  -681  -724  -823  -929  -931  -804  -758  -1032  -1398  -1131  328  2857  5728  7981  8750  7592  4897  1736  -900  -2538  -3122  -2886  -2316  -1879  -1676  -1534  -1336  -1118  -966  -893  -853  -790  -650  -418  -179  -38  -1  8  53  131  208  273  331  356  315  200  49  -80  -162  -191  -112  156  584  992  1236  1323  1332  1322  1357  1498  1715  1908  2059  2213  2366  2488  2573  2641  2719  2810  2893  2935  2837  2471  1839  1119  516  137  -36  -90  -103  -120  -134  -102  0  114  135  15  -230  -572  -949  -1255  -1419  -1457  -1412  -1297  -1117  -898  -690  -560  -522  -536  -565  -596  -613  -591  -507  -384  -303  -309  -372  -461  -588  -735  -846  -905  -934  -909  -793  -601  -397  -241  -161  -140  -158  -225  -352  -515  -695  -897  -1092  -1210  -1207  -1098  -944  -807  -683  -551  -435  -372  -357  -366  -392  -438  -494  -539  -563  -566  -522  -402  -249  -164  -189  -266  -343  -419  -469  -463  -420  -389  -389  -397  -395  -392  -407  -467  -617  -864  -1122  -1273  -1286  -1220  -1135  -1059  -1022  -1061  -1126  -1086  -968  -918  -843  -416  590  2197  4301  6493  7910  7785  6072  3401  633  -1525  -2706  -3024  -2939  -2704  -2308  -1860  -1530  -1310  -1105  -850  -581  -385  -295  -310  -438  -623  -729  -686  -554  -426  -313  -174  0  188  350  446  445  318  68  -198  -317  -181  182  610  940  1147  1307  1487  1704  1931  2131  2280  2362  2371  2317  2219  2102  1968  1811  1685  1631  1621  1619  1620  1624  1629  1627  1618  1596  1517  1301  919  459  62  -195  -324  -389  -458  -529  -564  -570  -573  -581  -589  -592  -591  -590  -592  -604  -621  -627  -590  -485  -333  -203  -151  -197  -327  -467  -532  -522  -494  -475  -463  -457  -469  -506  -555  -586  -589  -580  -572  -569  -578  -602  -638  -668  -681  -663  -603  -506  -405  -331  -293  -281  -273  -267  -302  -425  -623  -811  -925  -960  -921  -797  -583  -314  -70  73  118  122  110  39  -125  -315  -413  -400  -338  -286  -270  -284  -315  -343  -374  -421  -469  -492  -500  -518  -556  -583  -552  -468  -391  -371  -438  -607  -859  -1100  -1199  -1101  -900  -737  -657  -641  -696  -827  -962  -921  -448  613  2261  4375  6483  7729  7457  5678  2979  221  -1853  -2916  -3062  -2650  -2055  -1524  -1197  -1057  -965  -839  -685  -526  -390  -326  -361  -473  -633  -821  -993  -1095  -1080  -908  -600  -284  -93  -38  -30  23  152  304  409  469  536  644  783  935  1094  1241  1331  1356  1368  1432  1581  1793  1996  2129  2191  2223  2248  2244  2162  1974  1726  1527  1427  1355  1203  938  633  404  294  237  143  -20  -223  -427  -616  -779  -882  -912  -879  -793  -689  -640  -689  -808  -926  -1000  -1041  -1071  -1079  -1045  -979  -905  -843  -793  -723  -606  -461  -326  -224  -168  -161  -208  -296  -377  -426  -470  -507  -501  -463  -428  -401  -385  -400  -476  -609  -741  -820  -852  -868  -881  -882  -854  -795  -733  -674  -578  -434  -299  -258  -352  -540  -716  -791  -758  -677  -596  -517  -439  -369  -314  -284  -277  -268  -227  -151  -73  -20  -4  -46  -176  -369  -546  -670  -760  -862  -1016  -1205  -1340  -1364  -1289  -1161  -1015  -886  -798  -753  -728  -704  -704  -808  -933  -772  -74  1298  3356  5687  7442  7839  6615  4134  1225  -1247  -2765  -3230  -2938  -2388  -1983  -1808  -1671  -1439  -1141  -839  -615  -511  -491  -503  -514  -511  -491  -454  -388  -296  -197  -108  -31  31  70  97  177  374  627  794  834  817  801  791  780  781  839  994  1229  1474  1685  1865  2032  2183  2306  2389  2438  2471  2502  2525  2496  2356  2099  1812  1595  1473  1377  1213  941  615  334  118  -85  -278  -413  -492  -552  -598  -619  -615  -599  -592  -638  -776  -963  -1096  -1128  -1092  -1024  -941  -862  -809  -783  -763  -704  -567  -386  -239  -147  -85  -43  -44  -99  -192  -295  -372  -409  -420  -412  -407  -429  -467  -496  -512  -519  -520  -515  -500  -473  -443  -431  -453  -503  -547  -557  -537  -505  -464  -400  -317  -242  -209  -215  -215  -184  -146  -132  -140  -148  -145  -148  -206  -352  -538  -652  -647  -575  -516  -505  -521  -533  -537  -538  -539  -538  -528  -504  -483  -503  -588  -728  -871  -961  -1006  -1079  -1194  -1235  -1129  -974  -803  -433  367  1678  3374  5128  6380  6560  5483  3437  1015  -1130  -2510  -3009  -2950  -2661  -2249  -1881  -1687  -1542  -1274  -887  -525  -320  -275  -300  -308  -253  -136  5  128  218  288  317  237  34  -186  -320  -352  -302  -178  -14  135  273  445  669  902  1092  1229  1339  1448  1568  1680  1735  1708  1642  1608  1649  1749  1861  1947  1991  2006  2024  2067  2105  2063  1858  1462  959  547  356  345  399  417  294  -49  -526  -906  -1067  -1079  -1055  -1038  -1027  -1017  -1000  -977  -950  -922  -909  -913  -909  -882  -843  -806  -796  -817  -843  -855  -858  -858  -835  -752  -605  -445  -326  -279  -311  -414  -574  -740  -824  -803  -737  -669  -596  -516  -468  -472  -499  -535  -608  -712  -792  -791  -694  -543  -417  -354  -336  -331  -318  -301  -291  -291  -299  -318  -367  -482  -656  -818  -885  -865  -861  -926  -1002  -1028  -1002  -946  -884  -835  -815  -843  -918  -1024  -1154  -1270  -1269  -1053  -530  419  1840  3566  5156  6013  5666  4013  1430  -1286  -3210  -3829  -3412  -2570  -1707  -1092  -886  -974  -1105  -1127  -998  -756  -508  -336  -228  -148  -86  -50  -38  -47  -57  -42  9  75  132  222  410  665  866  949  957  960  999  1067  1140  1200  1238  1255  1290  1405  1648  1966  2217  2330  2349  2355  2424  2577  2732  2770  2695  2617  2565  2417  2050  1548  1158  989  911  751  460  129  -134  -305  -424  -532  -639  -726  -779  -804  -812  -817  -824  -853  -908  -962  -981  -944  -838  -691  -550  -417  -286  -192  -161  -181  -240  -320  -411  -527  -654  -746  -780  -772  -734  -659  -547  -414  -300  -276  -360  -464  -507  -504  -497  -489  -473  -453  -470  -588  -819  -1048  -1138  -1090  -983  -840  -682  -562  -504  -494  -504  -523  -569  -658  -758  -803  -752  -627  -467  -316  -219  -192  -207  -226  -232  -235  -255  -283  -242  -97  39  1  -263  -603  -798  -820  -792  -759  -717  -682  -670  -680  -686  -667  -644  -655  -706  -796  -929  -1111  -1307  -1399  -1339  -1214  -942  -189  1310  3465  5801  7649  8351  7463  5092  1911  -1237  -3528  -4416  -4023  -2953  -1815  -995  -600  -494  -471  -433  -385  -335  -272  -180  -47  118  269  332  252  21  -281  -523  -618  -560  -372  -94  188  384  455  459  478  537  604  660  715  772  823  848  842  850  993  1374  1904  2336  2525  2517  2416  2300  2221  2198  2232  2322  2418  2399  2168  1794  1445  1202  1022  822  537  200  -72  -216  -267  -282  -291  -324  -435  -661  -934  -1107  -1093  -920  -701  -555  -509  -509  -519  -554  -660  -845  -1049  -1180  -1183  -1035  -767  -487  -297  -204  -173  -180  -203  -225  -250  -285  -333  -393  -463  -556  -659  -743  -814  -892  -941  -941  -933  -928  -884  -792  -680  -555  -428  -343  -340  -437  -607  -770  -841  -796  -667  -505  -355  -246  -169  -81  28  111  97  -69  -396  -784  -1077  -1179  -1101  -931  -760  -631  -535  -446  -371  -347  -362  -369  -384  -467  -621  -782  -894  -948  -964  -967  -967  -912  -701  -305  98  231  -55  -689  -1326  -1374  -268  2049  4887  7204  8100  7146  4703  1749  -753  -2314  -2881  -2692  -2213  -1865  -1672  -1458  -1200  -969  -790  -658  -542  -425  -333  -283  -264  -268  -266  -219  -138  -70  -37  -26  -14  1  -15  -102  -229  -303  -247  -48  251  578  844  1010  1134  1294  1480  1620  1722  1870  2078  2265  2373  2421  2439  2434  2401  2308  2156  2005  1885  1760  1619  1506  1447  1406  1318  1129  828  476  187  21  -61  -119  -190  -281  -365  -450  -594  -783  -923  -975  -981  -986  -1018  -1080  -1121  -1058  -849  -568  -342  -232  -214  -271  -404  -586  -747  -819  -747  -502  -132  205  337  167  -255  -727  -1034  -1145  -1143  -1037  -774  -401  -84  75  94  -21  -321  -795  -1284  -1582  -1595  -1321  -845  -370  -78  29  56  65  56  -2  -176  -511  -919  -1201  -1235  -1074  -871  -715  -569  -374  -146  48  168  197  88  -217  -636  -957  -1040  -856  -445  20  320  395  348  288  255  220  96  -193  -595  -942  -1122  -1154  -1104  -1029  -958  -889  -836  -836  -886  -938  -958  -953  -945  -952  -960  -875  -626  -291  25  341  839  1932  3849  6021  7342  7098  5381  2823  255  -1598  -2477  -2599  -2319  -1935  -1651  -1524  -1459  -1307  -1027  -730  -553  -501  -481  -443  -436  -505  -598  -639  -616  -548  -448  -311  -106  162  428  608  687  706  697  637  490  283  110  39  128  435  908  1389  1802  2151  2404  2521  2521  2437  2299  2155  2056  2019  2032  2098  2222  2369  2479  2539  2583  2596  2429  1911  1123  407  -18  -232  -354  -389  -338  -285  -294  -340  -378  -402  -424  -454  -498  -554  -604  -647  -686  -703  -681  -642  -621  -618  -625  -633  -634  -606  -534  -438  -358  -303  -255  -207  -173  -158  -150  -144  -164  -259  -458  -735  -996  -1109  -1000  -709  -352  -49  118  129  11  -186  -419  -652  -854  -991  -1052  -1038  -954  -822  -679  -555  -474  -449  -471  -504  -521  -524  -518  -506  -501  -538  -653  -815  -935  -948  -825  -551  -188  108  230  204  119  35  -46  -135  -221  -300  -389  -476  -527  -537  -534  -553  -609  -677  -695  -639  -572  -553  -561  -550  -503  -431  -355  -288  -302  -542  -1035  -1584  -1911  -1767  -1028  287  2148  4406  6544  7801  7584  5796  2983  133  -1913  -2878  -2978  -2643  -2179  -1673  -1184  -805  -568  -431  -365  -396  -559  -804  -968  -930  -716  -441  -218  -108  -83  -81  -68  -46  -7  89  277  494  637  677  661  637  634  690  841  1059  1265  1423  1533  1584  1594  1653  1849  2132  2350  2439  2459  2459  2417  2307  2180  2118  2113  2090  2011  1872  1656  1358  1026  753  606  544  448  226  -97  -404  -600  -681  -706  -734  -784  -830  -836  -795  -731  -672  -629  -604  -593  -595  -607  -628  -640  -609  -510  -375  -279  -256  -277  -304  -329  -391  -515  -642  -686  -659  -629  -622  -618  -591  -528  -429  -308  -204  -177  -263  -436  -610  -720  -769  -770  -721  -634  -546  -504  -524  -577  -632  -672  -678  -643  -565  -429  -242  -70  7  -47  -230  -506  -814  -1074  -1207  -1191  -1063  -880  -682  -502  -373  -316  -318  -355  -410  -487  -621  -831  -1063  -1224  -1286  -1287  -1272  -1248  -1209  -1163  -1111  -1030  -911  -705  -266  563  1880  3610  5352  6521  6671  5653  3695  1349  -769  -2224  -2829  -2707  -2237  -1797  -1587  -1602  -1659  -1571  -1290  -928  -660  -541  -483  -404  -316  -267  -255  -232  -168  -89  -40  -38  -70  -92  -49  83  261  405  473  494  503  502  483  469  540  792  1206  1625  1925  2087  2138  2139  2163  2228  2298  2337  2342  2342  2343  2308  2190  1988  1752  1531  1368  1294  1299  1312  1220  916  404  -190  -724  -1096  -1264  -1255  -1127  -949  -796  -701  -645  -597  -539  -463  -394  -416  -623  -994  -1359  -1555  -1528  -1300  -953  -619  -376  -217  -97  5  65  8  -227  -601  -972  -1215  -1254  -1069  -764  -510  -386  -346  -293  -165  9  132  111  -96  -430  -733  -894  -901  -792  -619  -432  -248  -70  71  130  45  -228  -596  -866  -963  -951  -881  -730  -460  -88  284  528  558  374  76  -195  -369  -462  -508  -526  -529  -528  -523  -512  -498  -491  -518  -615  -800  -1004  -1088  -974  -747  -563  -503  -580  -775  -1001  -1178  -1307  -1306  -952  16  1769  4072  6239  7455  7206  5560  3037  363  -1721  -2785  -2866  -2350  -1766  -1436  -1314  -1240  -1131  -958  -739  -538  -417  -374  -359  -341  -325  -339  -385  -423  -418  -353  -220  -54  88  197  291  368  433  498  574  676  791  865  871  851  898  1097  1419  1716  1879  1934  1966  2040  2167  2307  2408  2455  2456  2426  2391  2369  2328  2203  1972  1677  1369  1081  827  603  412  239  64  -92  -202  -292  -417  -576  -710  -773  -778  -760  -748  -773  -857  -979  -1065  -1048  -910  -716  -577  -559  -646  -774  -865  -866  -764  -598  -448  -374  -377  -426  -488  -533  -539  -501  -424  -343  -301  -310  -347  -390  -437  -484  -514  -536  -592  -715  -872  -989  -1031  -1007  -926  -803  -672  -554  -451  -369  -325  -310  -308  -317  -359  -445  -546  -617  -647  -649  -621  -550  -455  -374  -315  -257  -222  -257  -359  -475  -564  -641  -725  -765  -709  -601  -516  -474  -457  -473  -573  -787  -1049  -1248  -1318  -1201  -848  -364  -44  -134  -608  -1118  -1158  -268  1693  4267  6567  7777  7454  5702  3143  592  -1309  -2331  -2632  -2500  -2187  -1914  -1786  -1695  -1491  -1185  -919  -780  -732  -707  -660  -572  -463  -348  -220  -107  -42  -2  42  73  85  99  151  265  411  519  565  580  603  652  714  763  823  953  1178  1463  1730  1901  1965  1982  2010  2055  2087  2089  2077  2081  2143  2264  2350  2310  2153  1871  1435  956  615  454  391  364  343  272  79  -211  -463  -585  -606  -590  -570  -570  -623  -737  -863  -945  -992  -1034  -1049  -984  -833  -654  -508  -413  -347  -297  -267  -257  -268  -300  -352  -420  -501  -547  -493  -361  -265  -281  -376  -470  -517  -522  -514  -508  -514  -533  -558  -584  -626  -720  -892  -1100  -1214  -1133  -896  -637  -454  -363  -340  -346  -366  -416  -499  -561  -560  -512  -450  -391  -351  -333  -322  -296  -231  -126  -9  99  184  189  52  -209  -490  -688  -782  -811  -799  -721  -583  -465  -443  -530  -679  -823  -913  -919  -810  -607  -411  -351  -509  -829  -1177  -1484  -1686  -1608  -1014  252  2110  4251  6205  7359  7227  5783  3449  849  -1349  -2651  -2990  -2648  -2011  -1457  -1192  -1155  -1189  -1196  -1153  -1047  -837  -487  -84  202  308  272  109  -184  -514  -725  -751  -625  -384  -71  234  460  594  672  731  782  814  834  863  905  956  1026  1121  1237  1397  1621  1865  2051  2166  2243  2296  2343  2405  2473  2510  2471  2336  2135  1935  1803  1742  1649  1378  936  511  262  166  131  110  56  -95  -338  -590  -773  -862  -884  -887  -892  -877  -822  -746  -700  -702  -724  -758  -810  -841  -802  -709  -624  -585  -582  -575  -519  -387  -214  -71  27  116  193  198  53  -230  -523  -694  -736  -719  -701  -680  -624  -538  -469  -445  -449  -457  -460  -461  -466  -481  -518  -601  -739  -888  -985  -1012  -971  -862  -690  -460  -168  129  331  390  285  -4  -394  -699  -813  -761  -594  -359  -135  6  44  -49  -310  -661  -933  -1067  -1125  -1144  -1100  -989  -857  -765  -737  -743  -751  -744  -737  -799  -1026  -1392  -1631  -1370  -308  1678  4327  6898  8416  8163  6156  3116  20  -2267  -3331  -3344  -2786  -2158  -1807  -1700  -1562  -1321  -1089  -898  -726  -581  -453  -315  -183  -122  -193  -362  -526  -628  -675  -688  -675  -648  -608  -564  -533  -514  -472  -358  -110  291  737  1064  1249  1392  1533  1632  1675  1693  1706  1724  1772  1870  2016  2196  2384  2543  2599  2482  2227  1988  1858  1750  1526  1202  923  752  624  487  365  286  204  60  -123  -264  -324  -343  -399  -547  -777  -1005  -1131  -1139  -1090  -1043  -988  -878  -686  -470  -329  -289  -293  -294  -287  -278  -281  -324  -429  -560  -647  -652  -591  -507  -454  -457  -495  -520  -512  -506  -527  -552  -561  -561  -581  -645  -745  -841  -896  -901  -863  -784  -670  -550  -466  -430  -403  -352  -261  -132  -6  46  -5  -113  -196  -224  -221  -213  -205  -198  -209  -274  -408  -565  -680  -729  -720  -666  -597  -565  -605  -701  -796  -846  -848  -795  -670  -500  -374  -377  -551  -859  -1216  -1535  -1583  -991  391  2374  4557  6360  7161  6608  4862  2522  268  -1430  -2395  -2748  -2830  -2816  -2544  -1939  -1271  -826  -642  -601  -598  -625  -703  -789  -792  -680  -502  -325  -204  -155  -142  -126  -96  -46  22  98  170  257  396  582  756  868  913  922  939  1002  1118  1252  1367  1502  1742  2082  2386  2545  2580  2564  2522  2438  2301  2143  2004  1896  1790  1658  1496  1318  1129  940  774  639  524  421  285  59  -232  -470  -580  -602  -617  -677  -799  -951  -1060  -1098  -1090  -1061  -1010  -943  -876  -802  -684  -529  -393  -322  -307  -319  -342  -384  -450  -517  -545  -522  -471  -421  -373  -303  -209  -116  -28  55  76  -98  -543  -1106  -1514  -1648  -1534  -1210  -790  -461  -296  -221  -162  -81  16  47  -82  -343  -592  -722  -720  -606  -410  -201  -39  73  157  211  226  175  -4  -368  -826  -1104  -996  -632  -320  -203  -213  -262  -320  -379  -430  -490  -604  -783  -970  -1079  -1024  -762  -377  -88  -132  -636  -1408  -2003  -2096  -1566  -399  1337  3530  5762  7257  7337  5878  3359  564  -1731  -2989  -3149  -2650  -1980  -1344  -911  -846  -991  -1067  -1011  -895  -783  -702  -648  -608  -557  -471  -366  -290  -265  -269  -270  -245  -197  -147  -110  -68  8  133  291  461  614  709  739  738  749  813  961  1177  1394  1594  1817  2052  2217  2282  2289  2281  2268  2246  2205  2139  2041  1916  1776  1636  1478  1245  923  600  369  219  79  -69  -184  -246  -289  -369  -532  -774  -1006  -1143  -1182  -1175  -1140  -1071  -968  -857  -808  -848  -905  -888  -779  -641  -558  -540  -524  -462  -356  -288  -391  -700  -1058  -1262  -1252  -1090  -843  -559  -306  -143  -59  -10  10  -33  -176  -416  -699  -936  -1057  -1051  -946  -786  -612  -432  -258  -134  -82  -83  -128  -220  -342  -458  -561  -658  -710  -665  -535  -353  -152  14  113  164  187  143  -34  -326  -606  -767  -799  -758  -705  -661  -612  -536  -457  -427  -474  -601  -779  -908  -888  -710  -463  -261  -173  -238  -503  -926  -1369  -1715  -1852  -1742  -1470  -914  329  2381  4758  6701  7604  7082  5147  2527  99  -1812  -3047  -3377  -2969  -2317  -1770  -1402  -1167  -1026  -961  -940  -900  -782  -598  -422  -310  -264  -260  -265  -250  -205  -143  -85  -29  34  98  157  231  350  522  703  841  929  983  1021  1072  1151  1233  1283  1321  1416  1611  1850  2042  2160  2230  2273  2319  2408  2536  2646  2695  2655  2522  2353  2172  1884  1437  970  672  566  543  523  488  396  186  -108  -355  -467  -478  -459  -447  -444  -446  -450  -456  -472  -504  -552  -606  -641  -608  -464  -243  -43  73  117  127  129  136  143  116  15  -144  -292  -362  -321  -160  70  292  479  584  517  292  71  -21  4  69  129  189  246  297  355  409  441  457  475  494  502  477  396  262  127  53  62  144  279  459  648  778  819  822  834  855  883  912  951  1030  1154  1282  1376  1417  1408  1363  1290  1195  1101  1026  963  917  916  956  1001  1040  1100  1174  1218  1213  1183  1152  1121  1097  1089  1095  1078  994  890  833  769  794  1327  2702  4845  7315  9432  10461  9868  7745  4881  2157  146  -856  -902  -382  278  826  1143  1268  1345  1443  1550  1657  1812  2065  2360  2563  2621  2594  2552  2530  2536  2564  2597  2624  2662  2756  2914  3082  3193  3234  3232  3215  3196  3183  3189  3266  3527  4013  4547  4897  5046  5115  5170  5210  5237  5274  5341  5431  5505  5515  5446  5341  5252  5171  5051  4879  4690  4517  4355  4152  3858  3503  3168  2908  2745  2649  2546  2414  2300  2217  2106  1941  1784  1698  1679  1682  1690  1724  1800  1879  1898  1865  1843  1863  1901  1899  1840  1775  1740  1730  1716  1656  1533  1393  1310  1312  1365  1422  1462  1481  1445  1286  979  600  303  192  236  294  276  223  198  173  72  -130  -372  -551  -595  -512  -409  -409  -562  -830  -1101  -1304  -1502  -1755  -1999  -2136  -2167  -2151  -2128  -2101  -2085  -2150  -2383  -2771  -3166  -3441  -3644  -3921  -4273  -4531  -4588  -4497  -4368  -4282  -4251  -4249  -4270  -4356  -4575  -4987  -5623  -6413  -7146  -7619  -7818  -7858  -7841  -7825  -7865  -8007  -8251  -8564  -8940  -9334  -9654  -9903  -10200  -10644  -11213  -11774  -12185  -12412  -12526  -12569  -12541  -12447  -12196  -11542  -10239  -8225  -5736]
