reading_id,reading_time,wire_id,result_classification,heart_rate,heart_rate_alert,firmware_version,device_app_version,hardware_version,waveform_samples
4015c870-6946-11ed-8080-808080808080,Mon Nov 21 02:43:16 UTC 2022,a101e3f91939,NSR,93,NONE,20001.171.50,2.10.0,Charge 5,[-17045  -17198  -17219  -16784  -15571  -13745  -11885  -10302  -8938  -7719  -6513  -5167  -3755  -2482  -1441  -625  -64  319  779  1500  2523  3825  5252  6544  7562  8397  9245  10246  11345  12337  13120  13758  14352  14995  15652  16120  16309  16385  16564  16921  17340  17633  17734  17731  17724  17757  17852  18025  18228  18369  18425  18453  18486  18509  18503  18480  18466  18473  18490  18498  18492  18495  18556  18715  18985  19330  19588  19543  19187  18742  18391  18178  18071  18040  18088  18215  18345  18348  18181  17922  17686  17553  17536  17592  17642  17577  17376  17153  16973  16767  16488  16188  15916  15689  15507  15325  15103  14875  14718  14715  14801  14695  14193  13387  12674  12624  13544  15257  17245  18679  18834  17626  15387  12602  9991  8227  7422  7265  7588  8260  8885  9178  9231  9225  9219  9191  9128  9041  8935  8783  8558  8279  8010  7818  7703  7617  7528  7414  7243  7027  6839  6741  6721  6725  6711  6680  6655  6635  6588  6503  6381  6239  6090  5917  5722  5520  5264  4923  4605  4430  4377  4319  4132  3781  3352  2975  2715  2582  2557  2533  2326  1910  1463  1096  745  305  -191  -577  -745  -738  -650  -533  -385  -226  -130  -124  -165  -226  -308  -413  -525  -608  -662  -742  -908  -1153  -1382  -1519  -1573  -1595  -1626  -1674  -1691  -1623  -1498  -1448  -1622  -2036  -2549  -2992  -3280  -3418  -3451  -3424  -3361  -3282  -3243  -3276  -3340  -3399  -3495  -3714  -4055  -4351  -4492  -4611  -4717  -4446  -3512  -1996  -167  1493  2347  2051  726  -1270  -3513  -5569  -7044  -7739  -7747  -7231  -6396  -5635  -5193  -4964  -4794  -4653  -4508  -4308  -4068  -3841  -3659  -3513  -3364  -3184  -3003  -2841  -2663  -2458  -2281  -2166  -2107  -2082  -2053  -1928  -1621  -1202  -867  -708  -690  -739  -770  -746  -702  -678  -675  -687  -715  -754  -797  -848  -927  -1038  -1170  -1319  -1458  -1549  -1589  -1607  -1626  -1658  -1704  -1748  -1777  -1795  -1820  -1850  -1864  -1828  -1736  -1630  -1572  -1606  -1748  -1940  -2085  -2149  -2169  -2161  -2100  -1956  -1750  -1546  -1388  -1299  -1274  -1281  -1286  -1256  -1190  -1124  -1071  -1002  -899  -812  -797  -849  -912  -950  -964  -952  -873  -718  -562  -468  -408  -344  -288  -268  -315  -453  -642  -789  -843  -830  -802  -803  -861  -957  -1054  -1149  -1290  -1499  -1631  -1485  -1172  -1078  -1343  -1573  -1123  404  2862  5513  7204  6991  4904  1857  -1062  -3003  -3642  -3426  -3039  -2757  -2574  -2443  -2270  -2021  -1768  -1576  -1434  -1273  -1074  -910  -832  -813  -811  -816  -818  -784  -682  -542  -435  -381  -337  -277  -231  -223  -236  -208  -35  321  735  1011  1095  1070  1029  1009  1012  1030  1064  1125  1207  1260  1180  881  436  44  -173  -238  -224  -196  -215  -331  -538  -758  -920  -1016  -1087  -1143  -1187  -1243  -1308  -1326  -1288  -1241  -1208  -1165  -1082  -965  -857  -791  -798  -896  -1032  -1123  -1140  -1110  -1069  -1039  -1026  -1022  -1020  -1014  -1009  -1004  -1001  -1000  -1010  -1040  -1081  -1113  -1132  -1128  -1082  -991  -905  -875  -873  -848  -814  -821  -868  -886  -828  -741  -699  -719  -768  -793  -775  -743  -729  -736  -761  -808  -869  -901  -863  -772  -671  -591  -563  -589  -616  -604  -583  -586  -602  -587  -514  -430  -407  -447  -493  -494  -430  -333  -252  -192  -149  -152  -230  -353  -449  -482  -453  -368  -256  -168  -122  -103  -89  -68  -46  -34  -32  -33  -38  -49  -64  -54  22  180  373  531  617  651  669  675  670  682  720  757  773  775  777  777  756  709  671  641  567  483  472  501  508  499  488  420  193  -219  -670  -850  -429  819  2969  5629  7785  8410  7153  4491  1395  -1211  -2792  -3273  -2995  -2418  -1855  -1461  -1221  -1003  -763  -584  -517  -528  -575  -638  -699  -733  -704  -583  -397  -225  -108  -35  -5  -18  -35  7  187  545  969  1257  1346  1329  1290  1251  1220  1226  1278  1328  1308  1223  1144  1113  1112  1117  1122  1135  1152  1140  1055  884  660  434  251  133  71  36  -13  -112  -246  -358  -410  -418  -419  -426  -420  -376  -298  -210  -136  -90  -78  -97  -144  -202  -239  -245  -242  -269  -342  -422  -462  -469  -475  -484  -473  -398  -221  12  187  227  150  24  -105  -247  -395  -508  -567  -586  -593  -612  -644  -667  -667  -655  -645  -644  -648  -647  -642  -638  -640  -647  -656  -667  -681  -693  -704  -729  -775  -792  -712  -566  -465  -454  -484  -508  -520  -531  -542  -549  -538  -481  -349  -173  -42  13  37  68  108  153  192  192  125  24  -52  -82  -87  -74  -33  6  -31  -199  -431  -593  -641  -638  -637  -611  -486  -277  -191  -392  -775  -1141  -1345  -1134  -154  1720  4100  6181  7073  6259  3978  1088  -1560  -3461  -4439  -4650  -4362  -3722  -2908  -2162  -1599  -1214  -983  -881  -870  -884  -860  -769  -632  -497  -400  -337  -288  -235  -173  -97  -30  -12  -44  -84  -103  -92  -33  112  355  623  822  917  972  1088  1281  1480  1629  1722  1756  1733  1664  1551  1401  1242  1107  1012  939  849  713  538  346  138  -109  -401  -670  -828  -872  -857  -806  -715  -629  -615  -674  -748  -763  -643  -424  -237  -137  -87  -38  42  136  191  183  107  -44  -233  -393  -477  -489  -471  -473  -481  -414  -210  70  280  346  322  282  263  263  250  181  60  -50  -95  -93  -86  -91  -108  -127  -137  -124  -78  -3  82  166  242  298  325  308  244  159  69  -25  -118  -192  -212  -143  -3  164  319  419  458  443  357  186  -20  -175  -241  -252  -243  -206  -113  11  104  141  149  168  219  289  340  342  300  246  215  220  246  231  55  -353  -881  -1296  -1476  -1447  -1258  -972  -730  -645  -672  -728  -829  -1048  -1342  -1368  -575  1277  3793  6175  7530  7139  4987  1921  -1010  -3161  -4228  -4261  -3771  -3282  -2857  -2311  -1679  -1214  -1024  -977  -925  -848  -796  -790  -800  -764  -639  -452  -268  -83  129  328  438  441  368  278  235  276  392  540  679  810  965  1175  1444  1717  1941  2136  2316  2443  2492  2480  2425  2330  2190  1984  1723  1487  1347  1294  1268  1226  1169  1110  1039  937  790  596  361  127  -43  -134  -180  -204  -205  -185  -159  -148  -159  -175  -180  -174  -165  -152  -132  -110  -117  -192  -322  -392  -317  -182  -102  -85  -91  -110  -150  -215  -289  -353  -410  -484  -566  -620  -633  -624  -615  -629  -682  -763  -831  -844  -785  -686  -600  -552  -535  -545  -581  -642  -714  -767  -793  -809  -822  -813  -764  -678  -571  -470  -403  -398  -482  -662  -885  -1065  -1149  -1131  -1017  -839  -666  -541  -456  -392  -351  -336  -321  -255  -109  73  202  243  240  235  235  210  128  6  -103  -199  -336  -516  -665  -739  -760  -734  -647  -526  -429  -369  -289  -160  -123  -444  -1149  -1751  -1507  23  2648  5541  7542  7753  6047  3067  -156  -2739  -4228  -4606  -4217  -3511  -2763  -2086  -1538  -1139  -884  -755  -706  -689  -679  -672  -679  -681  -632  -502  -299  -87  49  108  154  231  320  394  449  511  619  781  955  1088  1164  1197  1205  1206  1229  1316  1495  1740  1956  2067  2088  2071  2047  2025  2016  2008  1907  1601  1132  694  418  270  155  37  -50  -104  -172  -270  -360  -422  -477  -524  -545  -545  -536  -517  -476  -418  -359  -312  -275  -239  -206  -222  -325  -466  -553  -569  -562  -555  -521  -430  -306  -205  -131  -47  24  13  -102  -260  -400  -529  -674  -803  -830  -716  -522  -349  -253  -226  -225  -221  -218  -242  -322  -448  -562  -616  -599  -518  -415  -344  -318  -305  -281  -265  -277  -302  -305  -276  -232  -206  -215  -240  -233  -149  -13  110  186  221  237  247  259  259  216  99  -55  -176  -230  -225  -181  -130  -107  -136  -225  -342  -434  -486  -513  -513  -472  -410  -445  -714  -1117  -1250  -651  911  3204  5494  6906  6850  5288  2717  -114  -2489  -3914  -4363  -4188  -3666  -2986  -2388  -1974  -1713  -1567  -1458  -1316  -1150  -977  -807  -670  -593  -548  -496  -430  -378  -359  -369  -394  -420  -443  -459  -444  -348  -141  138  396  557  658  782  928  1079  1253  1424  1546  1633  1712  1777  1819  1849  1869  1826  1626  1253  840  527  324  182  102  71  28  -75  -230  -403  -570  -707  -781  -771  -685  -570  -485  -451  -453  -492  -589  -713  -774  -710  -567  -436  -356  -316  -300  -290  -266  -223  -179  -143  -108  -71  -43  -23  6  41  54  26  -21  -56  -82  -134  -230  -368  -525  -632  -624  -516  -369  -237  -147  -83  -4  93  172  214  229  242  281  347  384  331  195  43  -64  -119  -123  -109  -157  -316  -519  -658  -704  -700  -695  -708  -725  -728  -736  -724  -578  -239  352  1382  2919  4645  5995  6373  5351  3067  242  -2255  -3755  -4096  -3659  -2993  -2472  -2186  -2011  -1758  -1344  -880  -529  -330  -223  -149  -75  26  155  266  323  320  289  263  249  247  279  368  491  594  681  812  1001  1195  1353  1456  1493  1492  1522  1643  1836  2019  2147  2225  2251  2224  2159  2064  1909  1680  1405  1137  927  792  712  654  582  452  240  0  -173  -259  -305  -359  -452  -586  -717  -788  -786  -744  -695  -656  -627  -610  -606  -615  -631  -641  -617  -535  -420  -337  -336  -420  -540  -629  -659  -650  -626  -598  -561  -518  -496  -508  -521  -504  -431  -309  -221  -245  -341  -426  -477  -514  -555  -593  -622  -655  -692  -720  -733  -737  -741  -749  -769  -799  -824  -835  -834  -823  -801  -805  -945  -1284  -1608  -1421  -354  1504  3747  5785  6840  6366  4506  1877  -848  -2992  -4085  -4246  -3942  -3523  -3133  -2792  -2446  -2053  -1630  -1231  -920  -748  -701  -709  -708  -673  -602  -496  -356  -217  -144  -157  -204  -236  -249  -247  -197  -50  177  423  658  871  1026  1147  1311  1547  1794  1970  2050  2074  2090  2105  2103  2060  1945  1770  1606  1465  1276  985  647  380  227  109  -34  -178  -273  -310  -312  -315  -345  -412  -523  -689  -878  -1023  -1088  -1084  -1028  -934  -830  -758  -726  -703  -668  -622  -569  -507  -459  -469  -522  -550  -524  -474  -424  -359  -279  -226  -244  -320  -361  -264  -63  113  196  190  107  -58  -302  -548  -698  -739  -729  -705  -668  -618  -581  -594  -651  -701  -710  -694  -678  -649  -576  -488  -541  -848  -1172  -913  380  2594  5118  7024  7383  5910  3181  95  -2542  -4134  -4553  -4174  -3477  -2764  -2194  -1836  -1624  -1447  -1279  -1124  -976  -841  -730  -627  -499  -360  -279  -290  -352  -392  -374  -307  -216  -108  28  202  402  590  717  771  807  918  1143  1404  1598  1732  1887  2072  2216  2275  2250  2141  1955  1724  1491  1299  1177  1127  1103  1024  829  527  219  29  -26  -31  -48  -66  -63  -73  -149  -277  -388  -439  -449  -448  -446  -440  -422  -383  -331  -280  -227  -172  -131  -113  -112  -118  -132  -163  -205  -240  -259  -274  -297  -325  -349  -358  -323  -215  -41  146  272  288  245  227  239  236  202  168  161  162  125  25  -139  -336  -509  -628  -701  -744  -773  -801  -835  -842  -748  -569  -465  -597  -951  -1134  -513  1226  3770  6257  7614  7094  4765  1512  -1602  -3797  -4666  -4357  -3459  -2581  -2072  -1918  -1856  -1661  -1291  -881  -618  -544  -573  -632  -692  -739  -752  -693  -527  -287  -56  103  184  201  184  168  191  279  417  554  666  788  950  1135  1310  1483  1652  1774  1836  1869  1883  1864  1797  1696  1611  1580  1589  1573  1429  1111  711  385  217  150  60  -97  -271  -421  -570  -744  -920  -1049  -1064  -925  -694  -506  -425  -422  -446  -470  -484  -504  -557  -654  -780  -874  -859  -734  -583  -487  -455  -461  -478  -496  -520  -571  -651  -726  -748  -708  -663  -681  -721  -665  -519  -397  -353  -352  -357  -357  -358  -363  -371  -378  -383  -384  -383  -383  -382  -382  -381  -377  -370  -372  -392  -404  -378  -332  -302  -296  -319  -387  -515  -679  -816  -888  -899  -840  -746  -736  -878  -1139  -1438  -1476  -795  810  3140  5673  7553  7841  6238  3392  313  -2177  -3563  -3866  -3603  -3209  -2793  -2393  -2014  -1616  -1223  -898  -647  -462  -360  -328  -330  -335  -319  -265  -181  -98  -42  -22  -25  -25  22  151  335  511  673  867  1098  1303  1420  1460  1507  1640  1841  2028  2166  2262  2317  2338  2346  2357  2375  2387  2335  2139  1763  1300  912  690  602  568  534  508  497  476  434  366  259  112  -43  -162  -215  -195  -116  -23  39  61  58  38  -4  -80  -179  -271  -339  -379  -397  -408  -423  -411  -314  -120  89  214  241  224  210  198  133  -39  -276  -454  -518  -513  -497  -491  -493  -495  -493  -485  -475  -477  -516  -597  -672  -678  -627  -587  -574  -552  -510  -482  -510  -596  -682  -706  -644  -515  -378  -294  -286  -346  -458  -603  -740  -823  -830  -782  -716  -667  -631  -580  -499  -412  -358  -349  -363  -382  -401  -425  -470  -538  -577  -532  -414  -272  -158  -112  -133  -191  -248  -280  -287  -296  -328  -382  -436  -484  -525  -547  -546  -530  -487  -408  -321  -268  -255  -260  -268  -289  -324  -357  -374  -376  -376  -392  -432  -483  -523  -541  -527  -464  -353  -237  -161  -125  -109  -113  -136  -159  -167  -160  -146  -129  -100  -49  48  221  434  589  628  565  421  215  -2  -157  -224  -235  -227  -221  -256  -371  -535  -659  -701  -682  -629  -566  -549  -635  -856  -1120  -1042  -157  1639  4035  6410  7864  7651  5789  2981  42  -2389  -3893  -4349  -3970  -3183  -2387  -1759  -1290  -943  -735  -666  -673  -676  -616  -482  -323  -201  -135  -106  -89  -74  -66  -74  -102  -127  -90  36  222  413  576  716  843  933  971  979  1016  1139  1344  1550  1682  1740  1755  1741  1702  1649  1592  1536  1482  1412  1300  1155  1021  922  853  800  735  612  422  230  104  41  3  -21  -37  -53  -67  -73  -82  -139  -278  -452  -565  -583  -536  -453  -361  -268  -143  14  155  248  284  232  61  -176  -368  -467  -493  -446  -308  -118  23  45  -22  -94  -130  -142  -143  -126  -96  -76  -79  -93  -99  -97  -96  -100  -123  -185  -285  -390  -465  -486  -443  -349  -239  -148  -100  -114  -207  -347  -434  -405  -322  -261  -237  -229  -225  -224  -237  -284  -358  -431  -482  -523  -566  -592  -529  -298  68  410  593  618  557  479  434  434  447  408  249  -26  -310  -489  -549  -540  -484  -393  -319  -304  -351  -428  -504  -571  -638  -682  -643  -574  -749  -1242  -1592  -1245  102  2514  5405  7573  8015  6428  3348  -25  -2612  -3979  -4242  -3842  -3260  -2769  -2398  -2079  -1803  -1616  -1528  -1497  -1441  -1284  -1043  -803  -608  -452  -343  -303  -308  -281  -216  -182  -195  -181  -67  131  336  493  620  743  849  908  939  1017  1204  1465  1681  1776  1783  1763  1744  1735  1734  1737  1733  1693  1582  1410  1230  1041  774  445  173  20  -72  -183  -331  -473  -573  -635  -678  -719  -766  -811  -834  -841  -869  -930  -965  -916  -811  -725  -677  -636  -587  -549  -533  -525  -516  -506  -511  -537  -574  -593  -578  -539  -495  -455  -423  -405  -410  -433  -452  -447  -422  -362  -246  -120  -99  -250  -509  -733  -844  -865  -840  -784  -706  -629  -566  -524  -512  -537  -599  -672  -713  -686  -578  -431  -313  -253  -232  -230  -241  -272  -323  -385  -445  -486  -490  -455  -387  -303  -239  -209  -193  -171  -134  -75  34  229  468  639  697  676  606  487  338  213  155  147  149  130  81  -17  -204  -455  -662  -756  -785  -843  -902  -753  -376  -164  -369  -653  -455  583  2480  4808  6710  7298  6265  4016  1271  -1219  -2855  -3438  -3253  -2774  -2297  -1921  -1641  -1393  -1141  -921  -765  -689  -686  -697  -625  -399  -88  138  203  157  83  34  40  118  256  405  521  589  610  596  586  642  812  1044  1222  1327  1443  1624  1845  2080  2300  2450  2514  2513  2407  2138  1762  1415  1155  970  841  743  647  553  475  420  359  253  105  -42  -163  -259  -344  -436  -560  -701  -797  -797  -696  -537  -398  -324  -304  -304  -309  -322  -357  -417  -468  -477  -471  -487  -501  -482  -451  -441  -442  -403  -282  -114  13  68  83  75  10  -156  -389  -592  -731  -812  -822  -774  -711  -655  -613  -589  -568  -543  -533  -551  -586  -609  -603  -587  -588  -626  -713  -848  -1001  -1135  -1205  -1160  -975  -722  -534  -469  -484  -509  -479  -342  -120  81  188  210  171  63  -100  -258  -371  -468  -569  -638  -639  -572  -477  -409  -391  -408  -435  -436  -390  -312  -224  -179  -257  -478  -810  -1025  -668  471  2211  4232  5943  6578  5772  3768  1168  -1325  -3074  -3788  -3691  -3226  -2710  -2258  -1848  -1436  -1062  -794  -641  -569  -533  -484  -394  -272  -138  -20  55  88  97  96  99  120  167  226  306  426  564  665  719  805  1047  1455  1867  2130  2261  2342  2396  2414  2400  2369  2308  2177  1968  1731  1520  1352  1233  1165  1137  1123  1077  955  782  628  504  368  180  -81  -363  -553  -612  -602  -583  -574  -579  -612  -692  -814  -917  -925  -849  -775  -735  -657  -458  -187  15  89  84  40  -45  -158  -251  -294  -299  -302  -352  -475  -625  -728  -766  -761  -719  -608  -398  -126  101  205  195  108  -57  -326  -636  -846  -864  -717  -509  -361  -313  -336  -397  -477  -555  -616  -650  -652  -621  -568  -539  -568  -627  -675  -691  -660  -562  -396  -212  -94  -72  -104  -143  -179  -212  -234  -226  -173  -83  10  87  150  175  131  28  -96  -201  -253  -246  -214  -208  -242  -279  -291  -300  -329  -374  -416  -461  -528  -622  -705  -731  -710  -757  -908  -828  -17  1723  4135  6523  7864  7335  4955  1632  -1495  -3617  -4377  -4016  -3242  -2542  -1992  -1625  -1414  -1183  -842  -487  -235  -106  -59  -55  -66  -74  -87  -129  -223  -341  -428  -465  -482  -486  -418  -207  100  358  499  580  665  762  867  1016  1248  1535  1779  1931  2017  2077  2118  2138  2119  2033  1864  1640  1410  1222  1100  1035  974  846  631  395  215  110  38  -56  -201  -364  -497  -568  -586  -582  -575  -560  -531  -515  -593  -830  -1136  -1283  -1138  -798  -459  -229  -106  -57  -78  -177  -320  -435  -479  -457  -390  -292  -182  -78  -1  46  50  -60  -350  -727  -971  -936  -652  -293  -50  -1  -122  -345  -564  -685  -692  -623  -529  -444  -366  -304  -291  -340  -437  -577  -720  -791  -757  -673  -601  -557  -535  -532  -543  -557  -564  -563  -563  -567  -562  -510  -380  -209  -91  -96  -226  -410  -541  -563  -489  -367  -257  -181  -125  -80  -49  -27  -7  5  9  7  3  8  31  68  65  -37  -215  -365  -435  -451  -454  -451  -434  -433  -491  -564  -565  -383  160  1203  2776  4799  6785  7778  7027  4582  1186  -2049  -4052  -4476  -3874  -2994  -2252  -1796  -1539  -1265  -922  -642  -517  -509  -537  -549  -529  -470  -377  -266  -159  -76  -27  -16  -33  -54  -51  0  111  260  410  566  751  952  1143  1304  1437  1554  1662  1779  1921  2063  2154  2181  2167  2131  2080  2021  1946  1852  1752  1643  1510  1348  1123  780  381  98  4  3  -35  -170  -349  -477  -517  -482  -388  -275  -220  -272  -400  -523  -588  -594  -565  -512  -449  -386  -315  -237  -194  -213  -243  -239  -208  -164  -118  -84  -71  -79  -113  -180  -270  -355  -400  -396  -367  -330  -264  -166  -115  -182  -318  -428  -480  -494  -489  -453  -364  -258  -213  -266  -391  -526  -618  -644  -598  -477  -318  -202  -187  -279  -437  -586  -664  -678  -664  -642  -593  -485  -340  -237  -240  -355  -520  -647  -692  -654  -525  -335  -170  -84  -66  -77  -96  -114  -122  -93  -2  111  157  92  -30  -126  -177  -227  -275  -276  -231  -203  -245  -340  -428  -475  -496  -518  -550  -595  -642  -685  -737  -776  -756  -741  -866  -1054  -877  151  2180  4838  7155  7916  6579  3690  364  -2340  -3813  -4099  -3700  -3177  -2829  -2568  -2188  -1690  -1238  -951  -805  -701  -607  -563  -574  -595  -594  -558  -488  -393  -290  -220  -200  -189  -157  -96  30  215  377  510  703  970  1202  1318  1352  1394  1480  1596  1703  1781  1847  1942  2083  2239  2348  2385  2378  2310  2084  1667  1206  892  754  683  558  359  165  48  13  12  -6  -65  -133  -165  -167  -192  -274  -398  -510  -573  -579  -541  -481  -430  -402  -393  -387  -370  -339  -299  -249  -199  -169  -170  -189  -194  -166  -115  -70  -59  -89  -135  -170  -195  -207  -183  -99  23  108  73  -115  -382  -587  -673  -679  -645  -557  -401  -224  -96  -44  -59  -154  -344  -554  -643  -587  -493  -445  -439  -439  -412  -363  -349  -407  -490  -537  -541  -526  -515  -527  -575  -643  -688  -680  -646  -634  -633  -592  -506  -409  -316  -222  -132  -97  -143  -216  -233  -167  -54  46  120  181  230  261  283  297  291  250  163  37  -95  -201  -276  -332  -373  -430  -554  -735  -890  -964  -968  -924  -832  -727  -709  -860  -1029  -745  450  2566  5090  7174  7939  6958  4574  1551  -1373  -3562  -4656  -4720  -4051  -3074  -2262  -1827  -1616  -1408  -1148  -895  -717  -633  -613  -616  -620  -623  -623  -599  -515  -358  -191  -90  -54  -36  -17  -10  -16  -11  54  208  445  733  1013  1224  1386  1570  1803  2022  2140  2144  2106  2088  2092  2093  2070  1993  1824  1582  1357  1208  1111  1037  993  947  817  574  304  113  24  -17  -83  -206  -359  -493  -579  -619  -626  -622  -625  -636  -636  -592  -512  -442  -393  -331  -247  -181  -160  -182  -231  -274  -282  -258  -218  -163  -97  -29  33  75  90  81  51  5  -50  -128  -260  -419  -529  -561  -553  -544  -542  -536  -511  -461  -389  -299  -200  -108  -42  -21  -78  -244  -466  -631  -681  -653  -596  -542  -511  -514  -548  -594  -626  -637  -638  -639  -639  -632  -616  -592  -559  -524  -493  -450  -379  -306  -243  -168  -60  80  231  338  374  352  287  195  88  -10  -50  -35  -81  -243  -434  -562  -613  -612  -583  -536  -481  -426  -370  -334  -406  -665  -1047  -1365  -1351  -658  895  3108  5512  7363  7796  6466  3839  771  -1911  -3630  -4251  -4078  -3531  -2855  -2166  -1593  -1240  -1088  -1021  -942  -843  -749  -662  -559  -425  -281  -168  -110  -107  -117  -88  -4  122  271  408  495  531  539  538  554  624  757  917  1066  1214  1403  1644  1877  2024  2072  2066  2052  2052  2067  2073  2012  1833  1582  1383  1299  1289  1263  1125  835  477  176  -36  -217  -394  -540  -630  -665  -651  -608  -570  -570  -619  -691  -747  -775  -780  -747  -643  -484  -340  -258  -227  -215  -203  -185  -160  -126  -94  -77  -69  -63  -66  -96  -176  -306  -455  -564  -577  -489  -347  -217  -151  -170  -254  -359  -436  -472  -476  -451  -404  -353  -319  -307  -308  -315  -317  -306  -286  -277  -295  -344  -420  -506  -575  -615  -609  -515  -292  -3  183  183  77  -41  -156  -255  -310  -336  -373  -437  -511  -582  -659  -758  -866  -936  -926  -840  -749  -731  -750  -742  -773  -898  -976  -701  283  2131  4498  6517  7267  6311  3906  880  -1837  -3618  -4312  -4183  -3597  -2893  -2316  -1876  -1520  -1257  -1057  -879  -751  -699  -686  -649  -549  -406  -297  -268  -265  -218  -129  -31  44  79  80  86  140  263  433  594  698  768  904  1186  1573  1912  2102  2172  2206  2264  2355  2431  2424  2301  2102  1920  1799  1699  1561  1366  1148  954  800  658  482  253  28  -106  -135  -117  -120  -192  -342  -538  -717  -806  -790  -726  -677  -660  -648  -594  -473  -332  -243  -221  -230  -251  -292  -364  -454  -513  -489  -361  -187  -60  -16  -13  -14  -11  -5  6  21  6  -99  -314  -555  -707  -733  -668  -567  -484  -437  -408  -386  -382  -398  -421  -438  -446  -454  -457  -424  -328  -195  -99  -79  -122  -190  -255  -307  -349  -372  -377  -368  -357  -371  -436  -549  -661  -732  -769  -794  -792  -723  -666  -815  -1224  -1626  -1511  -417  1684  4224  6325  7216  6533  4505  1784  -905  -2955  -4036  -4193  -3670  -2813  -2068  -1697  -1607  -1586  -1511  -1351  -1151  -975  -846  -744  -653  -573  -494  -401  -303  -201  -85  12  65  95  135  202  312  445  544  578  565  570  685  957  1284  1516  1636  1745  1916  2113  2254  2307  2307  2286  2230  2091  1842  1544  1303  1142  1019  926  833  658  378  70  -159  -268  -310  -370  -480  -579  -587  -513  -434  -404  -412  -436  -467  -480  -398  -148  203  471  543  411  122  -199  -407  -466  -433  -361  -284  -234  -225  -244  -263  -256  -213  -155  -109  -83  -64  -35  -10  -18  -72  -158  -247  -310  -340  -356  -373  -388  -380  -307  -129  143  376  385  148  -180  -451  -603  -647  -629  -562  -435  -286  -200  -223  -317  -417  -490  -538  -578  -625  -678  -755  -893  -1008  -836  -51  1581  3937  6341  7840  7663  5610  2355  -858  -3079  -4045  -3983  -3459  -3013  -2681  -2194  -1555  -1023  -739  -656  -663  -666  -617  -509  -356  -185  -58  -32  -67  -78  -53  -22  2  19  32  52  71  73  68  123  308  604  916  1180  1362  1436  1435  1465  1637  1967  2342  2605  2650  2452  2101  1763  1551  1430  1297  1110  927  797  651  389  22  -320  -530  -605  -617  -635  -686  -758  -818  -849  -860  -865  -867  -860  -844  -829  -816  -779  -699  -594  -520  -521  -578  -653  -735  -787  -759  -647  -506  -407  -374  -380  -390  -374  -318  -238  -184  -191  -255  -368  -528  -706  -843  -913  -924  -874  -753  -593  -446  -324  -218  -125  -36  56  127  149  102  -29  -205  -345  -430  -493  -552  -595  -610  -604  -606  -634  -680  -735  -807  -905  -1037  -1171  -1222  -1232  -1321  -1264  -547  1021  3209  5549  7265  7554  6202  3669  707  -1919  -3607  -4189  -3987  -3461  -2925  -2490  -2104  -1707  -1335  -1068  -933  -890  -881  -855  -778  -661  -545  -433  -301  -150  2  125  178  151  80  -11  -122  -209  -207  -89  108  322  537  789  1124  1524  1885  2111  2203  2211  2178  2133  2094  2054  1979  1842  1663  1494  1348  1175  950  730  569  457  353  210  3  -235  -432  -541  -579  -585  -585  -583  -564  -519  -472  -469  -542  -677  -826  -920  -911  -799  -643  -523  -471  -465  -476  -490  -507  -525  -517  -486  -486  -561  -672  -740  -743  -721  -707  -686  -640  -568  -473  -371  -321  -350  -421  -500  -565  -608  -656  -730  -799  -815  -785  -758  -765  -783  -787  -773  -721  -602  -443  -322  -258  -222  -214  -251  -308  -331  -291  -213  -151  -138  -175  -249  -353  -475  -563  -582  -560  -540  -504  -408  -264  -164  -230  -524  -934  -1216  -1219  -1010  -854  -989  -1274  -1201  -291  1598  4144  6555  7825  7313  5183  2227  -670  -2860  -3979  -4072  -3553  -2825  -2137  -1687  -1500  -1419  -1307  -1121  -901  -737  -677  -671  -620  -505  -382  -276  -155  9  212  391  463  408  289  190  152  190  324  528  719  855  985  1183  1475  1827  2142  2298  2288  2214  2158  2129  2113  2106  2126  2158  2132  2008  1839  1669  1478  1253  1036  889  824  787  720  621  532  461  364  195  -12  -168  -238  -261  -277  -301  -317  -318  -322  -324  -292  -224  -153  -105  -88  -81  -47  48  217  414  546  544  408  208  44  -46  -100  -148  -193  -232  -273  -324  -366  -364  -325  -288  -271  -243  -176  -95  -53  -60  -89  -121  -155  -201  -276  -362  -421  -446  -455  -467  -488  -507  -503  -457  -363  -239  -140  -120  -189  -306  -413  -491  -532  -504  -403  -296  -282  -406  -600  -747  -799  -791  -753  -686  -585  -454  -320  -229  -199  -216  -275  -369  -462  -493  -440  -357  -304  -284  -265  -238  -221  -241  -325  -453  -554  -580  -556  -523  -500  -489  -485  -486  -493  -503  -514  -525  -541  -560  -568  -529  -410  -246  -120  -72  -76  -117  -195  -291  -354  -377  -407  -478  -556  -587  -582  -600  -658  -693  -649  -548  -443  -365  -313  -214  18  335  565  614  523  384  249  98  -110  -348  -546  -661  -701  -693  -658  -603  -538  -491  -507  -601  -726  -793  -786  -802  -885  -852  -353  941  3080  5604  7658  8347  7184  4480  1158  -1854  -3869  -4573  -4221  -3373  -2506  -1872  -1502  -1322  -1255  -1250  -1255  -1201  -1027  -745  -443  -220  -124  -129  -161  -168  -163  -178  -209  -237  -262  -271  -200  17  323  551  624  617  634  728  887  1051  1179  1299  1466  1667  1816  1878  1893  1900  1894  1841  1718  1568  1463  1411  1348  1210  992  753  562  460  427  395  309  177  54  -22  -46  -20  39  113  185  221  152  -74  -392  -653  -786  -804  -711  -521  -299  -132  -56  -31  -4  31  52  49  36  39  90  198  325  404  376  207  -52  -271  -361  -338  -270  -212  -189  -205  -251  -313  -369  -401  -409  -409  -408  -404  -388  -367  -377  -431  -486  -493  -461  -428  -416  -411  -397  -374  -353  -349  -373  -424  -472  -486  -461  -434  -457  -528  -572  -545  -471  -409  -401  -436  -464  -451  -401  -335  -261  -173  -78  4  64  110  161  214  252  266  269  272  272  247  178  76  -28  -106  -149  -175  -218  -276  -320  -336  -345  -368  -397  -424  -441  -433  -459  -670  -1087  -1444  -1347  -459  1396  3985  6529  8030  7775  5740  2657  -433  -2758  -3956  -4088  -3615  -3048  -2580  -2167  -1796  -1500  -1251  -998  -738  -482  -255  -105  -57  -110  -260  -452  -597  -664  -670  -581  -340  -4  256  349  312  224  150  145  255  477  764  1031  1195  1232  1192  1161  1262  1585  2029  2357  2467  2440  2366  2282  2205  2149  2124  2094  1941  1549  1013  581  351  261  256  262  210  120  26  -110  -321  -557  -740  -838  -879  -903  -908  -864  -774  -671  -588  -538  -520  -523  -528  -511  -456  -377  -300  -201  -43  152  305  333  202  -77  -414  -663  -758  -746  -690  -630  -591  -577  -577  -582  -599  -627  -638  -597  -518  -458  -441  -449  -455  -457  -479  -539  -620  -679  -695  -673  -629  -586  -570  -576  -577  -560  -531  -508  -497  -496  -508  -542  -588  -627  -642  -623  -554  -444  -324  -211  -94  -1  9  -63  -154  -215  -251  -304  -401  -519  -596  -591  -506  -390  -306  -274  -267  -269  -296  -351  -396  -416  -484  -701  -1102  -1620  -2038  -1917  -834  1254  3963  6563  8032  7627  5504  2443  -662  -2931  -3899  -3865  -3421  -2933  -2541  -2212  -1855  -1464  -1111  -863  -731  -677  -665  -679  -694  -685  -641  -555  -397  -153  102  261  303  285  262  248  242  249  291  396  553  706  838  997  1198  1376  1492  1614  1831  2113  2336  2431  2411  2310  2160  1996  1838  1691  1560  1453  1392  1373  1329  1163  861  521  241  29  -166  -372  -555  -658  -651  -541  -381  -264  -269  -402  -576  -691  -730  -724  -680  -599  -514  -461  -455  -490  -559  -632  -663  -607  -451  -258  -129  -127  -256  -455  -624  -703  -704  -653  -548  -382  -205  -105  -113  -215  -404  -631  -793  -835  -787  -694  -574  -435  -298  -195  -137  -120  -180  -373  -668  -936  -1081  -1093  -967  -705  -383  -112  59  155  214  252  247  130  -139  -492  -780  -925  -952  -895  -761  -594  -474  -433  -439  -460  -498  -576  -699  -825  -909  -960  -1010  -1051  -1089  -1106  -890  -113  1363  3346  5323  6553  6419  4832  2289  -405  -2500  -3611  -3863  -3666  -3286  -2795  -2311  -1959  -1722  -1521  -1325  -1102  -838  -597  -455  -400  -366  -315  -251  -193  -130  -29  111  264  396  484  504  438  308  171  82  80  224  565  1061  1557  1911  2090  2155  2214  2363  2575  2731  2775  2742  2677  2571  2376  2066  1685  1321  1052  907  826  709  535  376  282  231  173  72  -75  -238  -367  -439  -464  -476  -529  -664  -860  -1034  -1120  -1093  -933  -656  -358  -135  -15  11  -23  -73  -110  -152  -212  -272  -318  -349  -367  -367  -340  -286  -218  -157  -121  -115  -129  -161  -221  -298  -370  -440  -507  -535  -497  -415  -330  -256  -190  -122  -41  43  98  100  53  -8  -52  -79  -120  -182  -245  -307  -377  -431  -440  -418  -422  -506  -690  -942  -1181  -1324  -1305  -1065  -658  -379  -532  -962  -1104  -450  1176  3520  5896  7425  7404  5701  2857  -256  -2791  -4177  -4429  -4028  -3428  -2864  -2384  -1926  -1529  -1281  -1141  -1008  -855  -730  -679  -682  -690  -681  -645  -548  -383  -209  -83  -13  17  21  17  43  135  275  409  505  594  748  993  1262  1487  1678  1868  2044  2166  2234  2291  2352  2365  2287  2150  2008  1842  1600  1311  1060  895  777  640  458  258  73  -75  -189  -279  -345  -394  -434  -447  -433  -451  -548  -704  -859  -960  -983  -924  -785  -612  -471  -388  -373  -437  -566  -716  -821  -821  -740  -667  -663  -710  -738  -711  -659  -617  -578  -541  -529  -547  -563  -548  -521  -509  -505  -485  -447  -432  -463  -487  -433  -298  -152  -44  27  69  72  34  -60  -232  -427  -556  -593  -584  -570  -565  -574  -601  -639  -682  -731  -782  -817  -831  -842  -858  -846  -762  -675  -762  -1068  -1350  -1130  70  2361  5184  7412  7960  6444  3398  -29  -2713  -4041  -4113  -3587  -3040  -2642  -2371  -2138  -1815  -1393  -1021  -824  -762  -705  -571  -393  -264  -219  -224  -243  -268  -297  -309  -275  -181  -47  91  235  415  612  760  836  888  959  1059  1176  1300  1438  1604  1782  1945  2090  2209  2271  2248  2136  1922  1606  1275  1061  1001  1003  952  784  543  341  244  220  218  205  140  -46  -354  -676  -913  -1049  -1109  -1123  -1122  -1116  -1070  -929  -686  -426  -251  -189  -197  -235  -276  -300  -288  -247  -198  -165  -156  -175  -235  -332  -428  -486  -513  -536  -567  -607  -648  -679  -688  -658  -577  -470  -370  -286  -215  -153  -100  -69  -61  -58  -37  22  135  278  389  422  376  264  102  -63  -196  -303  -395  -454  -467  -429  -336  -214  -120  -73  -47  -25  -24  -66  -146  -225  -306  -481  -792  -1164  -1464  -1505  -1066  86  2009  4371  6570  7838  7447  5322  2266  -700  -2903  -4025  -4128  -3583  -2764  -1980  -1474  -1282  -1248  -1234  -1192  -1107  -971  -793  -616  -486  -397  -298  -180  -91  -44  0  77  192  315  405  442  439  409  360  312  295  344  477  707  1052  1465  1822  2059  2220  2337  2361  2243  2043  1882  1818  1815  1810  1736  1544  1254  955  723  577  486  390  267  139  22  -95  -222  -340  -424  -488  -581  -713  -833  -892  -888  -842  -783  -735  -693  -642  -577  -507  -456  -428  -408  -382  -347  -298  -228  -137  -40  25  44  30  -9  -77  -180  -315  -476  -652  -829  -947  -917  -751  -561  -430  -380  -387  -401  -409  -416  -387  -308  -222  -160  -121  -126  -244  -509  -826  -1033  -1061  -945  -764  -598  -490  -436  -425  -434  -421  -379  -360  -389  -417  -389  -328  -288  -300  -349  -392  -403  -392  -379  -385  -433  -547  -730  -932  -1077  -1131  -1111  -1041  -924  -777  -636  -567  -675  -980  -1328  -1507  -1260  -311  1426  3724  6060  7638  7722  6128  3339  242  -2274  -3682  -3967  -3560  -3010  -2610  -2349  -2095  -1767  -1379  -1026  -811  -712  -616  -477  -338  -257  -231  -211  -150  -50  39  77  75  65  61  65  76  115  201  314  426  567  789  1069  1333  1566  1811  2074  2304  2451  2514  2502  2441  2358  2252  2123  1987  1839  1643  1389  1143  988  916  821  645  443  308  261  272  306  313  222  -8  -303  -520  -611  -643  -678  -726  -770  -786  -739  -587  -359  -161  -64  -47  -57  -68  -75  -74  -63  -44  -25  -20  -23  -5  50  119  164  172  161  143  116  75  12  -73  -171  -272  -356  -412  -446  -467  -482  -494  -499  -493  -477  -454  -409  -344  -299  -305  -354  -445  -542  -549  -481  -454  -507  -587  -638  -644  -625  -610  -586  -516  -378  -208  -80  -25  -18  -24  -21  -2  33  74  110  129  133  133  129  89  -27  -225  -441  -597  -675  -704  -716  -732  -767  -805  -824  -843  -924  -1121  -1387  -1611  -1747  -1720  -1257  -47  1972  4498  6828  7954  7147  4587  1226  -1850  -3866  -4564  -4266  -3574  -2921  -2468  -2185  -1916  -1544  -1160  -920  -847  -855  -877  -861  -744  -511  -242  -39  69  103  93  80  93  149  256  378  458  481  482  496  534  588  660  770  894  983  1037  1120  1294  1554  1833  2057  2193  2242  2200  2058  1868  1716  1605  1461  1232  952  712  567  506  493  496  490  459  407  332  203  7  -208  -366  -433  -437  -423  -420  -440  -475  -508  -568  -686  -801  -837  -814  -784  -744  -663  -536  -411  -337  -312  -311  -332  -380  -435  -458  -432  -376  -314  -248  -193  -192  -278  -433  -596  -699  -728  -720  -702  -671  -619  -558  -519  -504  -474  -392  -283  -220  -239  -315  -399  -447  -442  -403  -369  -372  -392  -389  -342  -272  -220  -203  -202  -198  -186  -176  -182  -212  -252  -275  -279  -286  -307  -334  -352  -364  -398  -478  -595  -724  -869  -1020  -1079  -970  -835  -933  -1298  -1485  -813  981  3541  6103  7654  7389  5370  2450  -458  -2713  -3923  -4146  -3796  -3183  -2442  -1750  -1281  -1043  -908  -772  -647  -598  -621  -622  -545  -464  -458  -498  -507  -455  -366  -256  -96  127  350  508  609  679  721  746  790  880  1015  1170  1310  1407  1464  1532  1672  1863  2021  2097  2110  2083  2026  1943  1852  1752  1609  1414  1213  1050  935  840  720  559  383  217  63  -92  -259  -442  -628  -782  -865  -864  -788  -660  -517  -404  -366  -424  -548  -667  -723  -673  -494  -248  -57  23  29  -20  -134  -281  -416  -551  -713  -865  -935  -906  -808  -687  -592  -551  -557  -581  -602  -617  -631  -642  -640  -611  -565  -552  -617  -733  -831  -852  -756  -567  -361  -206  -128  -110  -120  -139  -163  -173  -143  -81  -33  -48  -144  -279  -381  -416  -394  -330  -245  -176  -151  -193  -313  -471  -586  -623  -598  -540  -484  -468  -494  -552  -640  -681  -490  170  1509  3510  5664  7021  6733  4708  1699  -1246  -3317  -4192  -4121  -3664  -3208  -2825  -2471  -2070  -1574  -1071  -703  -532  -508  -525  -507  -433  -316  -190  -89  -14  51  85  84  93  123  132  112  94  93  118  178  274  395  559  816  1142  1422  1598  1718  1822  1906  1960  1988  2000  2009  2020  2039  2058  2028  1868  1538  1105  697  402  242  184  174  158  109  37  -38  -117  -192  -239  -251  -250  -266  -311  -376  -455  -552  -652  -719  -740  -714  -642  -544  -467  -434  -429  -430  -426  -405  -345  -239  -124  -46  -22  -50  -133  -248  -365  -481  -592  -666  -681  -649  -590  -521  -459  -418  -395  -379  -376  -386  -369  -289  -161  -35  40  63  39  -47  -224  -456  -653  -758  -783  -765  -734  -683  -584  -460  -377  -373  -440  -544  -655  -778  -909  -1024  -1139  -1192  -924  -83  1364  3224  4997  5915  5408  3592  1132  -1171  -2735  -3475  -3673  -3567  -3263  -2815  -2287  -1776  -1368  -1094  -934  -833  -741  -645  -549  -462  -392  -321  -216  -86  10  34  1  -44  -78  -96  -72  71  381  753  1003  1049  947  794  686  709  917  1290  1736  2136  2396  2488  2429  2224  1923  1643  1464  1377  1332  1250  1064  819  641  573  529  425  257  81  -48  -111  -133  -163  -244  -385  -550  -695  -814  -892  -896  -826  -725  -633  -548  -445  -323  -215  -142  -104  -102  -161  -282  -394  -420  -394  -395  -435  -477  -497  -500  -504  -516  -527  -495  -380  -205  -43  68  129  133  121  159  242  323  374  396  399  387  342  236  60  -150  -338  -464  -520  -523  -501  -471  -438  -417  -415  -417  -417  -423  -426  -421  -420  -442  -539  -737  -944  -993  -700  155  1727  3815  5789  6867  6497  4619  1773  -1145  -3320  -4345  -4294  -3580  -2727  -2122  -1796  -1540  -1236  -921  -658  -477  -375  -322  -295  -270  -233  -187  -148  -120  -96  -93  -123  -156  -152  -95  14  172  346  493  615  775  1032  1340  1569  1655  1668  1704  1805  1957  2117  2225  2227  2137  2013  1879  1728  1566  1403  1227  1009  736  453  234  114  63  34  -10  -93  -210  -354  -527  -697  -813  -875  -914  -949  -981  -999  -990  -949  -878  -798  -744  -727  -727  -724  -715  -708  -701  -694  -688  -689  -692  -677  -631  -567  -499  -430  -373  -358  -379  -386  -351  -284  -204  -131  -84  -66  -64  -76  -117  -191  -253  -236  -146  -55  -5  4  -39  -164  -347  -517  -644  -749  -838  -875  -840  -767  -702  -663  -645  -643  -645  -634  -602  -598  -731  -1035  -1413  -1646  -1322  -54  2127  4762  7043  7971  6987  4428  1178  -1833  -3875  -4710  -4631  -4045  -3210  -2306  -1537  -1080  -931  -937  -979  -1014  -1003  -901  -727  -560  -446  -365  -296  -244  -201  -162  -126  -93  -43  69  266  480  621  669  657  612  546  484  493  694  1138  1668  2044  2198  2228  2220  2189  2117  2000  1866  1745  1633  1503  1344  1171  992  768  495  236  55  -43  -86  -108  -140  -187  -234  -283  -368  -502  -646  -759  -820  -807  -736  -668  -640  -643  -652  -647  -619  -578  -535  -481  -400  -329  -342  -445  -557  -605  -586  -541  -497  -441  -368  -331  -367  -418  -419  -373  -309  -255  -235  -266  -356  -467  -530  -462  -221  97  311  331  209  60  -28  -56  -72  -90  -88  -62  -36  -35  -57  -85  -111  -160  -280  -485  -726  -926  -1032  -1046  -999  -925  -870  -844  -836  -863  -900  -855  -706  -435  180  1480  3524  5791  7324  7213  5236  2139  -898  -2997  -3855  -3745  -3236  -2713  -2246  -1792  -1359  -1024  -817  -697  -635  -623  -643  -664  -661  -625  -548  -415  -236  -56  60  94  91  125  228  375  523  637  712  764  815  901  1049  1236  1406  1525  1620  1739  1901  2075  2214  2282  2238  2051  1774  1543  1441  1421  1389  1293  1139  938  714  510  353  219  54  -195  -513  -800  -971  -1022  -993  -936  -882  -835  -790  -751  -725  -713  -719  -745  -760  -690  -484  -205  -8  15  -115  -310  -469  -555  -596  -616  -622  -622  -628  -641  -653  -652  -624  -554  -462  -397  -376  -378  -377  -377  -390  -412  -432  -458  -505  -566  -612  -629  -634  -650  -677  -698  -708  -715  -727  -737  -731  -706  -661  -591  -513  -492  -583  -725  -802  -795  -758  -701  -602  -466  -343  -276  -270  -292  -307  -311  -311  -280  -177  -4  162  229  164  6  -154  -243  -252  -208  -146  -109  -140  -264  -435  -562  -611  -612  -586  -543  -518  -584  -821  -1190  -1448  -1260  -368  1286  3478  5730  7328  7490  5924  3151  132  -2271  -3574  -3792  -3300  -2571  -2015  -1770  -1643  -1413  -1068  -740  -520  -403  -342  -294  -256  -241  -243  -243  -228  -179  -64  121  323  461  512  502  468  450  479  565  697  845  979  1087  1179  1274  1373  1476  1577  1671  1759  1838  1905  1978  2060  2125  2161  2167  2104  1900  1518  1038  626  394  326  340  374  402  386  255  -19  -338  -555  -629  -621  -589  -535  -446  -346  -298  -335  -427  -511  -566  -616  -657  -590  -331  38  326  405  258  -33  -336  -558  -664  -643  -496  -275  -82  18  40  11  -54  -128  -175  -185  -173  -153  -127  -105  -117  -188  -313  -464  -596  -655  -621  -530  -445  -402  -396  -403  -400  -382  -360  -346  -337  -326  -318  -327  -364  -419  -469  -497  -501  -486  -468  -464  -478  -492  -491  -474  -435  -353  -241  -152  -120  -132  -163  -207  -273  -360  -457  -523  -504  -394  -258  -140  -18  129  274  374  419  413  351  238  117  44  27  32  23  -16  -97  -208  -317  -393  -436  -455  -456  -437  -403  -379  -383  -401  -410  -377  -252  -83  -93  -429  -938  -1346  -1384  -745  766  2973  5340  7200  7874  6871  4361  1210  -1626  -3535  -4237  -3893  -3079  -2320  -1793  -1471  -1258  -1053  -848  -695  -601  -541  -509  -516  -545  -537  -432  -232  -13  131  178  172  161  149  135  152  242  384  508  594  682  796  930  1082  1265  1457  1596  1658  1680  1705  1750  1806  1855  1885  1891  1862  1797  1707  1572  1367  1130  944  839  774  675  491  260  73  -32  -94  -174  -300  -437  -536  -584  -591  -566  -540  -549  -599  -657  -677  -651  -609  -572  -536  -500  -473  -462  -476  -529  -612  -690  -734  -748  -743  -728  -726  -764  -847  -944  -1011  -1036  -1041  -1057  -1094  -1134  -1147  -1118  -1048  -962  -898  -869  -860  -874  -936  -1054  -1185  -1274  -1298  -1254  -1155  -1043  -959  -909  -878  -878  -970  -1190  -1447  -1592  -1583  -1505  -1433  -1405  -1426  -1467  -1512  -1573  -1641  -1650  -1550  -1368  -1198  -1104  -1080  -1085  -1097  -1120  -1160  -1200  -1233  -1281  -1354  -1433  -1500  -1558  -1611  -1632  -1613  -1604  -1631  -1661  -1668  -1666  -1674  -1702  -1749  -1803  -1849  -1887  -1922  -1948  -1959  -2023  -2271  -2609  -2564  -1637  318  2919  5229  6174  5257  2868  -134  -2931  -4875  -5656  -5471  -4786  -4002  -3406  -3109  -2998  -2939  -2873  -2747  -2524  -2260  -2058  -1955  -1912  -1909  -1945  -1995  -2028  -2030  -1993  -1905  -1771  -1633  -1541  -1508  -1514  -1535  -1534  -1432  -1179  -842  -561  -398  -320  -269  -177  -19  151  260  293  288  279  280  301  348  411  432  319  21  -379  -751  -1066  -1357  -1597  -1736  -1793  -1841  -1926  -2038  -2129  -2160  -2139  -2112  -2101  -2107  -2116  -2094  -1990  -1789  -1545  -1350  -1249  -1223  -1241  -1319  -1495  -1728  -1911  -1984  -1943  -1792  -1581  -1411  -1345  -1360  -1383  -1342  -1199  -990  -811  -719  -694  -697  -702  -692  -660  -618  -590  -585  -584  -550  -446  -269  -80  28  18  -63  -127  -115  -39  87  256  420  535  613  703  849  1060  1314  1554  1711  1766  1764  1747  1723  1691  1659  1649  1704  1862  2126  2440  2718  2897  2992  3059  3128  3188  3225  3250  3285  3333  3391  3464  3554  3642  3789  4238  5351  7215  9240  10579  10918  10384  9079  7246  5505  4451  4134  4186  4283  4322  4320  4306]
