reading_id,reading_time,wire_id,result_classification,heart_rate,heart_rate_alert,firmware_version,device_app_version,hardware_version,waveform_samples
8a65f9a0-6ae4-11ed-8080-808080808080,Wed Nov 23 04:08:52 UTC 2022,a101e3f91939,NSR,88,NONE,20001.171.50,2.10.0,Charge 5,[-2485  -2614  -2547  -2018  -902  655  2417  4192  5924  7553  8678  9185  9677  10498  11455  12417  13329  14165  15031  15852  16119  15359  13582  11218  9030  7913  8357  10171  12683  15073  16870  18231  19550  21061  22665  23992  24826  25293  25575  25742  25844  25951  26065  26128  26114  26041  25860  25379  24470  23367  22431  21667  20811  19687  18301  16918  15920  15389  15131  14996  14934  14906  14853  14721  14520  14291  14021  13647  13174  12705  12352  12159  12104  12110  12054  11794  11246  10434  9475  8518  7711  7159  6817  6495  6066  5600  5257  5119  5184  5420  5723  5939  6011  5996  5949  5878  5779  5664  5551  5420  5192  4811  4375  4072  3968  3987  4048  4096  4087  3989  3831  3711  3672  3634  3494  3213  2871  2609  2469  2379  2287  2182  2074  1993  1956  1946  1925  1853  1702  1469  1201  988  877  843  838  846  883  954  1024  1040  981  867  721  509  187  -170  -432  -588  -774  -1108  -1538  -1893  -1987  -1564  -364  1625  4160  6725  8420  8358  6351  3103  -232  -2724  -3972  -4107  -3758  -3542  -3467  -3270  -2984  -2805  -2807  -2916  -3005  -3002  -2894  -2652  -2296  -2004  -1987  -2227  -2503  -2670  -2744  -2781  -2785  -2722  -2590  -2434  -2317  -2272  -2272  -2271  -2259  -2242  -2208  -2129  -1992  -1819  -1660  -1534  -1413  -1258  -1066  -878  -755  -716  -736  -778  -806  -802  -794  -847  -1010  -1235  -1418  -1566  -1776  -2069  -2375  -2660  -2962  -3316  -3688  -3984  -4176  -4331  -4509  -4686  -4811  -4870  -4886  -4899  -4938  -4973  -4974  -4971  -4976  -4972  -4981  -4989  -4945  -4849  -4737  -4638  -4578  -4569  -4580  -4558  -4448  -4258  -4075  -3975  -3955  -3964  -3978  -3995  -4019  -4036  -4035  -4025  -4021  -4028  -4041  -4040  -4006  -3939  -3855  -3768  -3700  -3666  -3660  -3665  -3675  -3692  -3720  -3738  -3678  -3472  -3176  -2944  -2844  -2826  -2829  -2827  -2807  -2754  -2664  -2577  -2569  -2672  -2864  -3095  -3313  -3478  -3554  -3516  -3356  -3058  -2682  -2403  -2348  -2529  -2860  -3061  -2937  -2732  -2620  -2259  -1142  1017  3963  6778  8306  7753  5243  1745  -1630  -4042  -5042  -4826  -4132  -3572  -3269  -3092  -2873  -2519  -2124  -1864  -1782  -1789  -1799  -1771  -1697  -1587  -1470  -1379  -1331  -1313  -1287  -1223  -1110  -977  -882  -829  -759  -609  -389  -185  -70  -32  -4  49  108  136  155  260  555  1015  1447  1696  1794  1838  1864  1872  1880  1901  1906  1826  1623  1358  1153  1051  950  717  367  46  -150  -264  -378  -539  -763  -1027  -1264  -1405  -1460  -1488  -1556  -1702  -1876  -1980  -1975  -1914  -1868  -1868  -1896  -1883  -1721  -1373  -992  -780  -775  -863  -922  -958  -1060  -1224  -1359  -1393  -1311  -1139  -922  -719  -594  -556  -562  -575  -593  -617  -629  -600  -534  -465  -410  -335  -207  -84  -47  -63  -59  -45  -66  -111  -150  -169  -166  -149  -127  -107  -94  -78  -16  132  304  366  295  231  272  338  323  258  265  335  238  -176  -704  -832  41  2209  5347  8573  10710  10782  8585  4877  968  -1901  -3061  -2714  -1724  -870  -422  -335  -458  -568  -538  -405  -191  112  427  640  739  776  735  564  315  115  43  102  280  517  707  803  831  815  778  800  969  1254  1529  1720  1837  1881  1856  1834  1901  2050  2190  2279  2359  2462  2576  2680  2787  2929  3079  3179  3181  3022  2706  2318  1874  1365  914  670  610  603  562  455  231  -177  -719  -1149  -1288  -1273  -1312  -1389  -1383  -1269  -1119  -1019  -994  -1012  -1027  -990  -871  -713  -614  -604  -628  -645  -681  -779  -921  -1024  -1011  -862  -642  -451  -324  -269  -323  -500  -741  -962  -1085  -1097  -1065  -1041  -997  -880  -703  -551  -471  -449  -486  -567  -633  -658  -691  -799  -993  -1208  -1371  -1450  -1472  -1485  -1512  -1533  -1517  -1446  -1350  -1285  -1271  -1275  -1257  -1228  -1274  -1325  -976  283  2660  5760  8494  9552  8282  5147  1395  -1642  -3171  -3362  -3014  -2691  -2503  -2361  -2158  -1915  -1685  -1430  -1132  -856  -688  -639  -637  -616  -570  -534  -510  -476  -439  -419  -405  -377  -344  -336  -347  -305  -106  248  606  820  895  913  917  924  965  1064  1201  1328  1442  1617  1905  2228  2455  2546  2548  2505  2438  2371  2322  2281  2186  1942  1494  951  533  340  284  225  63  -204  -492  -721  -884  -998  -1064  -1086  -1081  -1063  -1043  -1037  -1071  -1148  -1227  -1288  -1358  -1427  -1458  -1448  -1427  -1432  -1473  -1507  -1493  -1453  -1424  -1409  -1399  -1389  -1383  -1393  -1400  -1324  -1080  -728  -448  -339  -379  -518  -680  -830  -1001  -1162  -1251  -1264  -1239  -1232  -1284  -1366  -1436  -1487  -1514  -1509  -1472  -1420  -1371  -1318  -1276  -1335  -1531  -1745  -1859  -1922  -2090  -2402  -2608  -2409  -1680  -243  2061  4883  7418  8823  8470  6265  2866  -602  -3127  -4214  -4023  -3195  -2349  -1779  -1527  -1433  -1301  -1095  -882  -725  -652  -634  -631  -639  -662  -700  -809  -1076  -1475  -1833  -2021  -2064  -2047  -2016  -1960  -1822  -1557  -1250  -1036  -872  -551  0  568  904  985  962  978  1109  1344  1598  1833  2081  2350  2609  2820  2945  2981  2950  2862  2732  2607  2540  2524  2432  2135  1723  1424  1324  1333  1354  1341  1290  1225  1172  1157  1222  1350  1456  1496  1500  1510  1538  1581  1655  1770  1901  2044  2216  2386  2529  2663  2772  2837  2883  2938  3009  3117  3294  3538  3811  4066  4279  4446  4565  4649  4699  4651  4465  4214  4009  3927  3973  4119  4327  4551  4773  5011  5241  5395  5450  5449  5446  5464  5505  5578  5753  6112  6586  6958  7108  7091  6919  6467  5650  4663  4013  4348  6018  8568  10867  11669  10161  6633  2469  -961  -3008  -3762  -3875  -3898  -3881  -3650  -3146  -2604  -2286  -2179  -2186  -2298  -2493  -2669  -2723  -2675  -2636  -2661  -2720  -2780  -2807  -2692  -2314  -1746  -1264  -1051  -1050  -1109  -1136  -1126  -1102  -1056  -941  -757  -578  -463  -409  -368  -256  12  405  778  1024  1148  1180  1134  1041  969  966  1036  1144  1250  1345  1381  1160  480  -490  -1275  -1648  -1778  -1903  -2133  -2461  -2778  -2978  -3048  -3047  -3033  -3054  -3131  -3230  -3305  -3387  -3567  -3873  -4240  -4613  -5012  -5430  -5800  -6079  -6279  -6439  -6633  -6920  -7245  -7497  -7672  -7841  -8017  -8166  -8312  -8499  -8701  -8858  -8966  -9067  -9175  -9261  -9311  -9325  -9281  -9110  -8789  -8401  -8047  -7772  -7584  -7449  -7269  -6946  -6530  -6195  -5981  -5743  -5392  -5013  -4715  -4489  -4247  -3974  -3764  -3670  -3632  -3583  -3528  -3500  -3530  -3533  -3134  -1883  414  3572  6813  8836  8606  6169  2619  -618  -2515  -2882  -2274  -1461  -956  -849  -959  -1080  -1126  -1115  -1092  -1074  -1038  -934  -755  -537  -300  -106  -87  -241  -426  -524  -484  -343  -203  -93  45  232  413  514  501  421  326  214  101  34  70  250  493  632  668  823  1297  2012  2686  3132  3388  3589  3827  4071  4225  4266  4255  4246  4229  4161  4015  3781  3471  3153  2923  2826  2865  3019  3221  3372  3422  3377  3231  2989  2686  2336  1907  1409  927  527  216  -30  -257  -507  -744  -853  -775  -574  -314  44  548  1132  1648  2005  2257  2541  2918  3280  3478  3504  3461  3429  3423  3436  3462  3495  3524  3552  3596  3661  3711  3720  3702  3684  3672  3668  3697  3784  3908  4002  4012  3921  3739  3502  3280  3152  3136  3197  3273  3286  3182  2993  2892  3202  4224  5996  8270  10600  12268  12473  10930  7986  4386  1188  -637  -901  -259  476  849  826  672  592  576  587  640  728  809  907  1095  1337  1528  1637  1685  1675  1589  1428  1257  1151  1121  1134  1168  1223  1281  1312  1349  1494  1759  2025  2193  2251  2227  2152  2036  1890  1755  1656  1560  1421  1193  868  517  239  57  -108  -388  -817  -1253  -1530  -1641  -1696  -1829  -2151  -2644  -3118  -3427  -3623  -3798  -3941  -4039  -4147  -4310  -4494  -4628  -4686  -4700  -4687  -4610  -4452  -4318  -4350  -4496  -4601  -4648  -4699  -4779  -4872  -4943  -5057  -5289  -5493  -5444  -5135  -4760  -4515  -4457  -4521  -4645  -4795  -4942  -5059  -5090  -4970  -4735  -4494  -4321  -4222  -4161  -4099  -4032  -3981  -3933  -3840  -3696  -3542  -3402  -3286  -3209  -3150  -3027  -2765  -2401  -2074  -1898  -1874  -1926  -1990  -2029  -2040  -2031  -2008  -1978  -1971  -2062  -2355  -2827  -3227  -3340  -3139  -2405  -783  1620  4295  6767  8363  8235  6256  3227  147  -2200  -3338  -3437  -3216  -3078  -2836  -2404  -2012  -1755  -1508  -1135  -558  131  668  859  729  446  190  67  97  260  489  687  819  923  1044  1192  1339  1452  1559  1718  1923  2098  2211  2326  2530  2792  2985  3053  3064  3124  3296  3533  3708  3766  3759  3742  3735  3733  3719  3674  3563  3350  3079  2865  2765  2717  2589  2306  1950  1686  1568  1505  1388  1200  983  737  475  275  182  190  306  545  899  1288  1559  1576  1311  888  521  332  291  316  351  392  477  608  686  645  559  489  406  310  241  204  173  130  80  41  25  25  12  -9  -4  36  74  76  43  21  99  345  693  976  1115  1140  1049  806  474  197  51  8  11  21  26  26  25  21  18  20  22  0  -72  -179  -287  -404  -540  -683  -941  -1441  -2056  -2454  -2153  -743  1733  4798  7589  9045  8587  6457  3431  410  -1915  -3346  -4085  -4297  -3996  -3304  -2414  -1541  -961  -763  -774  -822  -851  -858  -840  -771  -621  -426  -287  -248  -274  -299  -245  -50  231  453  525  487  433  458  595  788  941  1010  1026  1038  1073  1150  1279  1439  1604  1786  1974  2095  2114  2077  2042  2033  2039  2042  2017  1949  1824  1611  1284  908  606  420  296  160  -34  -270  -488  -647  -728  -747  -740  -730  -723  -726  -767  -879  -1072  -1298  -1475  -1564  -1592  -1601  -1629  -1696  -1778  -1825  -1836  -1844  -1860  -1876  -1894  -1929  -1983  -2030  -2045  -2012  -1927  -1816  -1739  -1741  -1836  -1987  -2125  -2203  -2228  -2226  -2217  -2212  -2210  -2193  -2130  -2033  -1959  -1938  -1944  -1930  -1863  -1761  -1679  -1643  -1638  -1641  -1652  -1678  -1712  -1725  -1702  -1657  -1612  -1570  -1527  -1506  -1550  -1647  -1707  -1675  -1619  -1610  -1624  -1593  -1475  -1304  -1145  -1006  -864  -735  -642  -611  -670  -792  -902  -955  -968  -966  -961  -952  -933  -907  -884  -856  -802  -730  -673  -646  -640  -655  -694  -732  -738  -685  -589  -566  -750  -1154  -1660  -1865  -1047  1220  4568  7983  10176  10126  7707  3898  180  -2352  -3270  -2837  -1894  -1187  -894  -843  -801  -662  -493  -368  -279  -182  -13  255  545  734  798  798  792  804  830  860  903  977  1081  1182  1267  1345  1417  1468  1488  1498  1552  1694  1897  2076  2173  2213  2277  2450  2723  2987  3152  3232  3293  3380  3453  3419  3269  3101  2984  2911  2876  2888  2921  2862  2551  1920  1134  514  227  168  171  170  151  96  1  -103  -171  -191  -179  -148  -107  -72  -73  -133  -218  -271  -311  -374  -436  -499  -584  -658  -665  -562  -357  -134  15  77  98  102  83  42  -5  -27  -40  -110  -228  -311  -342  -357  -361  -345  -312  -280  -256  -228  -209  -224  -272  -338  -405  -449  -459  -462  -498  -591  -707  -791  -827  -831  -810  -742  -594  -409  -291  -288  -366  -504  -738  -1034  -1271  -1382  -1405  -1393  -1385  -1407  -1457  -1497  -1446  -1257  -1048  -931  -866  -813  -776  -731  -677  -650  -660  -684  -683  -630  -552  -498  -479  -476  -481  -510  -571  -638  -709  -835  -1029  -1218  -1315  -1301  -1230  -1164  -1102  -1034  -1014  -1100  -1237  -1265  -1122  -997  -1138  -1543  -1837  -1409  134  2681  5750  8521  9922  9248  6667  2994  -721  -3423  -4586  -4504  -3714  -2707  -1916  -1434  -1131  -910  -705  -514  -400  -369  -357  -305  -226  -169  -153  -138  -72  43  150  196  188  170  192  283  425  581  742  899  1028  1126  1217  1315  1412  1510  1621  1752  1879  1960  1977  1969  2010  2125  2236  2281  2298  2365  2461  2451  2277  2067  1943  1891  1822  1651  1385  1132  969  849  676  426  134  -185  -520  -825  -1038  -1108  -1064  -997  -946  -889  -817  -763  -751  -776  -813  -842  -853  -845  -803  -715  -610  -538  -516  -506  -470  -413  -366  -344  -339  -335  -318  -294  -289  -340  -447  -563  -650  -712  -775  -852  -927  -966  -950  -893  -837  -817  -837  -898  -968  -983  -935  -860  -754  -598  -464  -456  -567  -685  -742  -744  -688  -550  -375  -276  -310  -423  -527  -597  -664  -737  -782  -776  -725  -676  -685  -742  -781  -771  -747  -736  -727  -702  -657  -604  -562  -523  -452  -326  -159  1  111  149  103  -36  -227  -377  -447  -462  -457  -452  -475  -554  -687  -828  -938  -1001  -1003  -917  -734  -529  -436  -534  -776  -1070  -1422  -1828  -2044  -1690  -502  1570  4292  7053  9034  9497  8033  4956  1338  -1612  -3131  -3196  -2581  -2181  -2206  -2297  -2218  -1999  -1665  -1241  -864  -644  -577  -624  -729  -797  -743  -567  -386  -284  -198  -112  -148  -308  -393  -252  24  249  373  489  634  739  744  677  644  787  1168  1664  2049  2209  2215  2190  2217  2338  2528  2716  2846  2914  2931  2884  2744  2535  2336  2195  2080  1930  1749  1587  1429  1202  894  555  229  -36  -196  -261  -285  -316  -378  -490  -652  -821  -930  -963  -947  -896  -790  -626  -446  -313  -236  -187  -159  -151  -149  -140  -116  -93  -92  -117  -155  -182  -168  -105  -37  -28  -94  -190  -245  -244  -221  -208  -209  -212  -205  -176  -133  -98  -94  -147  -270  -421  -530  -591  -661  -756  -819  -792  -682  -573  -525  -504  -496  -533  -592  -597  -501  -328  -130  61  221  306  327  313  240  60  -178  -360  -435  -440  -420  -400  -399  -430  -495  -579  -647  -681  -693  -690  -659  -582  -492  -492  -682  -1058  -1421  -1502  -1068  153  2301  5095  7837  9580  9537  7607  4433  1020  -1631  -2943  -3123  -2799  -2385  -2053  -1864  -1712  -1460  -1134  -863  -723  -690  -696  -679  -602  -488  -395  -353  -349  -355  -369  -394  -419  -394  -249  30  345  546  607  621  666  754  870  998  1143  1292  1404  1450  1455  1490  1632  1886  2162  2377  2541  2689  2818  2897  2880  2735  2479  2188  1952  1805  1704  1606  1493  1334  1107  848  640  522  411  174  -198  -579  -895  -1203  -1487  -1633  -1634  -1595  -1578  -1578  -1566  -1524  -1463  -1414  -1389  -1377  -1372  -1369  -1367  -1370  -1397  -1467  -1562  -1631  -1644  -1609  -1555  -1519  -1538  -1629  -1756  -1857  -1902  -1900  -1864  -1815  -1769  -1729  -1685  -1620  -1536  -1494  -1551  -1675  -1788  -1848  -1858  -1846  -1831  -1802  -1737  -1652  -1590  -1553  -1501  -1410  -1313  -1260  -1267  -1306  -1347  -1378  -1403  -1443  -1529  -1662  -1792  -1867  -1874  -1840  -1804  -1797  -1844  -1953  -2085  -2174  -2194  -2157  -2079  -1965  -1827  -1681  -1563  -1580  -1832  -2228  -2579  -2621  -1903  -130  2479  5304  7536  8373  7394  4916  1751  -1204  -3173  -3904  -3794  -3384  -3004  -2739  -2484  -2152  -1785  -1468  -1268  -1181  -1144  -1059  -844  -540  -291  -172  -148  -157  -156  -125  -71  -10  56  139  240  363  517  680  797  879  991  1137  1274  1406  1580  1796  2019  2241  2471  2693  2854  2921  2924  2944  3050  3229  3397  3491  3504  3420  3207  2888  2559  2292  2082  1898  1729  1563  1336  965  475  38  -203  -274  -282  -311  -393  -511  -614  -650  -618  -562  -517  -501  -513  -523  -511  -486  -441  -368  -283  -223  -196  -194  -241  -366  -531  -652  -708  -748  -800  -824  -762  -586  -314  -34  118  83  -88  -319  -564  -787  -929  -930  -811  -652  -495  -341  -202  -99  -43  -26  -20  -20  -60  -175  -333  -459  -527  -569  -593  -567  -445  -243  -57  22  -19  -136  -276  -400  -485  -528  -545  -554  -566  -594  -667  -798  -940  -1027  -1041  -1007  -960  -954  -1044  -1232  -1413  -1198  -15  2267  5179  7992  9748  9563  7371  3988  491  -2140  -3279  -3101  -2402  -1812  -1526  -1422  -1245  -950  -680  -466  -268  -115  -45  -72  -182  -308  -377  -392  -389  -373  -299  -91  237  561  774  881  927  935  928  929  944  953  945  950  1043  1276  1603  1928  2197  2388  2511  2621  2754  2875  2940  2957  2958  2958  2936  2857  2721  2567  2409  2196  1886  1499  1098  759  508  260  -68  -420  -680  -819  -874  -882  -865  -839  -811  -782  -771  -835  -1023  -1280  -1471  -1541  -1537  -1495  -1408  -1289  -1168  -1066  -999  -965  -931  -885  -835  -783  -755  -756  -747  -724  -731  -765  -793  -812  -843  -899  -975  -1050  -1127  -1210  -1279  -1317  -1334  -1342  -1321  -1233  -1085  -930  -798  -661  -516  -401  -325  -263  -205  -167  -160  -173  -196  -250  -398  -658  -953  -1176  -1269  -1260  -1225  -1200  -1177  -1159  -1157  -1179  -1217  -1260  -1308  -1361  -1412  -1433  -1405  -1336  -1271  -1310  -1574  -2049  -2458  -2375  -1435  515  3240  6156  8497  9365  8183  5319  1827  -1251  -3161  -3659  -3203  -2522  -2043  -1807  -1652  -1415  -1119  -893  -775  -707  -652  -604  -556  -492  -417  -341  -243  -102  53  187  279  335  366  387  408  434  500  646  843  1002  1083  1117  1125  1106  1082  1161  1472  1997  2543  2927  3106  3148  3145  3144  3133  3086  3008  2936  2878  2780  2566  2252  1958  1755  1551  1215  783  444  281  196  57  -179  -448  -636  -704  -696  -669  -668  -732  -885  -1095  -1282  -1380  -1374  -1281  -1142  -1018  -943  -908  -895  -887  -869  -840  -812  -796  -798  -800  -777  -710  -613  -565  -683  -991  -1327  -1478  -1381  -1154  -962  -871  -852  -877  -943  -1039  -1126  -1175  -1188  -1185  -1180  -1181  -1185  -1188  -1189  -1190  -1186  -1170  -1142  -1120  -1120  -1140  -1152  -1123  -1045  -963  -887  -716  -412  -148  -108  -306  -607  -868  -1062  -1228  -1356  -1429  -1446  -1423  -1399  -1398  -1412  -1427  -1434  -1429  -1408  -1371  -1332  -1302  -1273  -1235  -1197  -1209  -1291  -1376  -1340  -943  215  2408  5359  8147  9579  8877  6192  2509  -920  -3158  -3858  -3334  -2423  -1837  -1638  -1536  -1344  -1081  -901  -870  -872  -830  -787  -749  -659  -483  -264  -83  20  85  181  338  515  649  713  723  709  687  656  618  592  612  706  855  1009  1170  1412  1769  2143  2387  2496  2606  2794  2966  2983  2856  2720  2656  2644  2644  2626  2542  2356  2076  1746  1424  1168  991  836  612  304  1  -231  -399  -509  -570  -616  -665  -745  -909  -1129  -1291  -1325  -1249  -1115  -966  -824  -708  -644  -647  -706  -771  -778  -724  -657  -607  -567  -536  -516  -507  -507  -513  -523  -543  -581  -628  -668  -705  -757  -814  -839  -797  -707  -642  -633  -629  -609  -610  -647  -697  -733  -750  -757  -757  -752  -752  -768  -798  -829  -856  -880  -882  -793  -557  -248  -19  64  41  -45  -158  -246  -270  -223  -113  22  135  198  208  126  -73  -329  -522  -616  -653  -657  -627  -582  -552  -552  -579  -621  -658  -675  -686  -709  -722  -692  -675  -774  -1016  -1359  -1577  -1194  207  2725  5985  8984  10500  9882  7349  3796  371  -2036  -3191  -3378  -2971  -2244  -1472  -937  -738  -745  -791  -796  -715  -519  -262  -84  -53  -108  -164  -190  -192  -167  -96  17  144  262  361  443  508  557  586  583  566  589  704  883  1021  1069  1107  1232  1463  1743  1972  2101  2178  2280  2434  2609  2749  2797  2713  2508  2268  2059  1855  1612  1340  1052  769  554  450  402  309  101  -198  -499  -725  -857  -923  -970  -1058  -1239  -1475  -1654  -1708  -1662  -1576  -1496  -1433  -1371  -1299  -1223  -1166  -1147  -1173  -1241  -1325  -1387  -1401  -1333  -1154  -923  -776  -795  -965  -1189  -1351  -1424  -1468  -1519  -1542  -1484  -1350  -1223  -1181  -1191  -1179  -1140  -1103  -1078  -1066  -1066  -1066  -1053  -1052  -1147  -1405  -1731  -1890  -1753  -1454  -1223  -1143  -1127  -1074  -973  -864  -764  -679  -647  -707  -845  -1003  -1135  -1215  -1190  -1021  -774  -585  -519  -539  -606  -694  -783  -857  -904  -913  -882  -835  -802  -792  -794  -793  -785  -774  -767  -764  -759  -747  -731  -735  -806  -947  -1087  -1233  -1479  -1708  -1536  -564  1434  4352  7499  9691  9954  8089  4673  893  -1983  -3344  -3399  -2776  -2037  -1493  -1255  -1260  -1327  -1319  -1231  -1084  -882  -657  -470  -352  -282  -242  -240  -296  -396  -453  -402  -296  -216  -169  -125  -58  24  85  103  86  71  134  351  711  1120  1520  1893  2191  2372  2453  2497  2550  2620  2694  2760  2828  2919  3054  3218  3362  3443  3465  3439  3363  3244  3123  3024  2901  2672  2357  2056  1789  1496  1192  958  812  706  595  458  302  196  248  474  750  950  1064  1124  1164  1215  1272  1305  1288  1205  1085  990  948  941  948  967  1004  1047  1068  1036  927  731  491  296  206  220  313  454  594  680  676  592  479  384  323  292  277  277  306  350  350  282  163  20  -88  -140  -186  -225  -209  -154  -109  -89  -74  -25  79  234  389  484  504  478  444  426  436  476  532  578  598  579  500  370  243  171  162  203  283  376  453  493  489  452  418  406  375  251  31  -154  -210  -206  -224  -179  226  1396  3587  6543  9349  10783  10046  7359  3735  226  -2317  -3430  -3389  -2811  -2147  -1785  -1899  -2213  -2384  -2327  -2095  -1809  -1607  -1542  -1588  -1723  -1908  -2071  -2166  -2193  -2174  -2159  -2189  -2241  -2272  -2264  -2224  -2176  -2130  -2082  -2044  -2032  -2028  -1986  -1885  -1757  -1658  -1604  -1556  -1451  -1260  -1018  -787  -596  -438  -325  -286  -335  -456  -592  -685  -720  -720  -726  -790  -939  -1129  -1293  -1451  -1677  -1975  -2281  -2555  -2774  -2907  -2964  -2985  -2990  -2985  -2980  -2983  -2987  -2967  -2901  -2806  -2729  -2697  -2689  -2647  -2525  -2356  -2223  -2165  -2161  -2192  -2251  -2326  -2402  -2468  -2517  -2546  -2558  -2560  -2558  -2561  -2570  -2581  -2572  -2525  -2446  -2360  -2292  -2254  -2246  -2261  -2298  -2329  -2293  -2138  -1916  -1745  -1669  -1647  -1640  -1636  -1603  -1467  -1196  -869  -613  -476  -420  -387  -353  -326  -296  -229  -115  24  168  294  379  430  476  533  583  591  525  386  226  91  -23  -128  -182  -137  13  244  483  632  661  630  585  511  371  185  42  39  193  355  356  323  675  1871  4097  6960  9588  10981  10421  7968  4442  988  -1368  -2265  -2059  -1373  -732  -345  -139  10  173  362  535  651  721  776  825  885  986  1106  1204  1281  1341  1393  1500  1721  1991  2120  2007  1773  1651  1755  1984  2165  2246  2300  2376  2462  2555  2682  2844  3005  3139  3244  3310  3340  3356  3376  3401  3422  3403  3303  3113  2880  2644  2415  2214  2046  1850  1555  1191  843  528  177  -269  -745  -1106  -1295  -1377  -1430  -1496  -1584  -1658  -1669  -1624  -1575  -1571  -1628  -1721  -1799  -1844  -1864  -1842  -1775  -1710  -1682  -1686  -1695  -1668  -1567  -1414  -1282  -1221  -1217  -1227  -1217  -1171  -1120  -1098  -1077  -1008  -920  -869  -854  -854  -858  -861  -866  -882  -899  -908  -903  -883  -856  -838  -837  -850  -860  -824  -698  -508  -348  -284  -316  -413  -521  -587  -600  -572  -504  -396  -226  56  407  672  760  726  664  617  575  522  490  547  715  924  1075  1125  1060  874  612  365  173  49  8  43  161  395  681  879  933  894  809  677  534  411  235  129  620  2261  5121  8555  11312  12136  10585  7320  3607  647  -928  -1284  -992  -525  -169  -17  48  189  428  671  815  819  734  651  587  486  326  167  78  72  107  150  184  200  192  168  146  139  137  139  168  244  368  511  616  650  649  681  782  924  1044  1117  1177  1285  1472  1700  1883  1964  1937  1797  1544  1253  1043  943  875  759  550  276  14  -208  -418  -602  -726  -819  -970  -1218  -1492  -1708  -1837  -1898  -1925  -1942  -1954  -1958  -1962  -1975  -1999  -2023  -2035  -2026  -1997  -1955  -1905  -1883  -1913  -1959  -1983  -1966  -1899  -1822  -1783  -1778  -1786  -1794  -1803  -1804  -1790  -1763  -1737  -1734  -1785  -1900  -2048  -2183  -2280  -2346  -2385  -2372  -2294  -2206  -2151  -2112  -2075  -2063  -2102  -2197  -2325  -2439  -2511  -2537  -2539  -2535  -2537  -2539  -2521  -2476  -2429  -2420  -2459  -2499  -2440  -2223  -1896  -1574  -1370  -1313  -1347  -1413  -1480  -1556  -1689  -1863  -1994  -2042  -2040  -2028  -2019  -2004  -1966  -1886  -1755  -1603  -1478  -1380  -1284  -1195  -1131  -1092  -1055  -1003  -993  -1124  -1357  -1357  -564  1416  4431  7732  10109  10446  8518  5060  1274  -1628  -2960  -2943  -2361  -1780  -1324  -963  -651  -373  -195  -125  -48  159  502  844  1038  1082  1094  1169  1298  1405  1448  1466  1515  1620  1770  1944  2140  2369  2605  2805  2955  3052  3124  3239  3436  3662  3835  3921  3971  4082  4316  4635  4945  5188  5351  5452  5523  5577  5599  5560  5433  5240  5038  4865  4708  4497  4163  3718  3252  2873  2623  2448  2261  2001  1653  1264  919  682  558  513  499  465  329  27  -370  -689  -844  -884  -878  -857  -836  -826  -849  -920  -1000  -1037  -1023  -978  -935  -923  -949  -1015  -1107  -1190  -1239  -1265  -1292  -1328  -1340  -1295  -1212  -1131  -1051  -957  -878  -861  -931  -1069  -1244  -1431  -1568  -1581  -1490  -1404  -1399  -1458  -1514  -1541  -1584  -1647  -1685  -1694  -1711  -1756  -1816  -1839  -1804  -1755  -1728  -1718  -1719  -1747  -1826  -1932  -2012  -2047  -2048  -2015  -1930  -1813  -1717  -1650  -1562  -1430  -1305  -1244  -1250  -1283  -1307  -1308  -1291  -1281  -1335  -1498  -1718  -1874  -1922  -1915  -1898  -1869  -1816  -1743  -1662  -1586  -1524  -1476  -1428  -1366  -1331  -1423  -1660  -1917  -1955  -1492  -250  2006  5101  8110  9782  9320  6817  3173  -386  -2862  -3912  -3854  -3244  -2575  -2092  -1720  -1359  -1071  -905  -819  -768  -730  -693  -665  -646  -594  -454  -208  71  258  313  292  258  263  361  576  843  1055  1154  1170  1159  1148  1148  1179  1272  1464  1754  2057  2264  2354  2423  2579  2807  2993  3072  3075  3062  3062  3083  3122  3170  3210  3205  3085  2788  2353  1914  1556  1261  950  554  103  -295  -568  -708  -749  -755  -796  -901  -1045  -1171  -1233  -1227  -1168  -1063  -903  -676  -431  -282  -329  -577  -909  -1165  -1282  -1303  -1275  -1197  -1051  -867  -716  -645  -649  -693  -749  -804  -851  -879  -896  -919  -947  -960  -953  -972  -1093  -1345  -1636  -1812  -1815  -1712  -1578  -1444  -1329  -1207  -1033  -813  -603  -445  -342  -278  -249  -258  -298  -380  -538  -743  -897  -948  -911  -807  -677  -586  -557  -565  -579  -584  -563  -504  -425  -361  -322  -298  -319  -427  -617  -834  -1015  -1117  -1141  -1131  -1120  -1119  -1126  -1136  -1119  -1020  -808  -553  -409  -522  -904  -1344  -1583  -1557  -1367  -1118  -722  210  2108  4862  7577  9028  8373  5625  1732  -1892  -4192  -4953  -4614  -3788  -2959  -2412  -2197  -2165  -2160  -2134  -2111  -2108  -2109  -2054  -1881  -1613  -1354  -1170  -1047  -943  -819  -681  -578  -510  -409  -231  -25  119  188  226  237  214  230  392  703  1056  1346  1537  1677  1843  2082  2387  2712  2989  3185  3304  3354  3313  3161  2962  2828  2796  2820  2838  2778  2576  2235  1871  1616  1462  1310  1096  834  556  257  -37  -236  -307  -307  -291  -242  -131  -32  -92  -314  -541  -654  -661  -599  -490  -368  -279  -220  -163  -130  -160  -226  -268  -269  -249  -249  -290  -350  -377  -343  -270  -213  -208  -258  -357  -479  -581  -659  -741  -826  -878  -896  -931  -1024  -1143  -1203  -1163  -1059  -936  -819  -736  -706  -715  -734  -745  -750  -773  -828  -872  -838  -725  -606  -526  -471  -424  -385  -361  -357  -359  -347  -321  -273  -182  -68  -10  -86  -301  -589  -843  -984  -1017  -1001  -986  -994  -1019  -1038  -1024  -974  -913  -843  -759  -732  -818  -1023  -1331  -1417  -742  938  3509  6471  8836  9594  8353  5476  1891  -1245  -3081  -3546  -3229  -2730  -2285  -1911  -1570  -1225  -902  -668  -555  -538  -558  -571  -563  -549  -545  -526  -453  -293  -22  309  579  706  704  671  692  757  828  902  975  1032  1078  1136  1217  1305  1388  1488  1658  1914  2182  2380  2533  2701  2875  2988  3001  2943  2872  2803  2725  2639  2558  2479  2343  2083  1731  1417  1221  1100  957  726  419  103  -150  -310  -425  -591  -830  -1053  -1171  -1173  -1098  -1003  -939  -919  -927  -942  -950  -934  -880  -798  -713  -634  -564  -516  -500  -523  -589  -678  -746  -777  -789  -811  -845  -871  -857  -781  -666  -567  -521  -519  -547  -596  -646  -683  -700  -705  -705  -706  -706  -699  -679  -651  -631  -626  -629  -629  -614  -581  -557  -585  -659  -718  -715  -656  -570  -471  -379  -327  -321  -339  -358  -368  -371  -355  -305  -232  -176  -184  -290  -476  -661  -775  -829  -862  -884  -890  -888  -885  -881  -867  -841  -817  -852  -1014  -1307  -1624  -1812  -1766  -1373  -426  1271  3723  6540  8799  9438  8062  5173  1750  -1167  -2914  -3503  -3351  -2844  -2307  -1958  -1754  -1564  -1346  -1103  -891  -775  -747  -737  -667  -504  -300  -150  -97  -106  -132  -144  -103  24  200  325  342  272  187  153  167  202  303  557  923  1239  1427  1544  1646  1731  1816  1948  2133  2309  2419  2462  2468  2462  2461  2478  2511  2512  2392  2107  1744  1437  1231  1064  877  674  469  233  -35  -294  -549  -818  -1051  -1195  -1270  -1315  -1349  -1386  -1443  -1514  -1579  -1638  -1680  -1653  -1514  -1298  -1126  -1072  -1069  -1004  -867  -731  -650  -625  -628  -654  -731  -880  -1052  -1143  -1102  -989  -899  -866  -864  -870  -894  -954  -1036  -1094  -1103  -1079  -1050  -1031  -1014  -1001  -1000  -1008  -1016  -1021  -1022  -1016  -996  -976  -992  -1053  -1102  -1065  -910  -697  -551  -535  -603  -694  -786  -840  -788  -585  -294  -84  -93  -354  -759  -1098  -1249  -1245  -1164  -1062  -976  -908  -848  -798  -775  -777  -797  -854  -990  -1199  -1394  -1511  -1593  -1720  -1872  -1911  -1692  -1024  391  2701  5595  8293  9793  9348  6920  3208  -616  -3347  -4385  -4020  -3040  -2185  -1793  -1736  -1706  -1568  -1375  -1211  -1113  -1059  -1027  -1004  -962  -867  -719  -557  -425  -347  -311  -281  -220  -88  118  330  468  523  557  612  680  747  832  926  1021  1147  1317  1509  1704  1906  2127  2350  2547  2712  2863  3008  3118  3145  3088  2989  2876  2776  2714  2654  2521  2282  1966  1601  1188  770  438  249  179  151  95  -41  -255  -472  -619  -680  -686  -669  -640  -598  -563  -556  -561  -540  -486  -420  -368  -332  -292  -233  -144  -3  168  288  284  155  -26  -156  -176  -103  5  91  107  14  -201  -464  -647  -680  -587  -448  -325  -215  -106  -18  38  65  15  -167  -439  -668  -753  -687  -515  -320  -188  -143  -150  -171  -182  -165  -112  -44  5  32  50  61  60  42  13  -14  -29  -26  -6  20  42  47  26  -26  -102  -172  -213  -243  -300  -387  -466  -508  -510  -459  -358  -275  -311  -525  -861  -1026  -583  785  3120  6023  8659  10053  9518  7095  3641  319  -1993  -3029  -3102  -2688  -2093  -1530  -1137  -896  -713  -555  -452  -416  -418  -435  -467  -525  -603  -662  -637  -461  -143  203  454  564  574  550  532  546  622  762  910  999  1019  1014  1036  1093  1151  1223  1395  1713  2120  2500  2756  2861  2871  2858  2855  2851  2821  2758  2683  2614  2537  2431  2320  2234  2106  1803  1296  723  247  -54  -217  -327  -426  -506  -560  -600  -635  -672  -717  -760  -792  -815  -854  -927  -1012  -1085  -1154  -1226  -1289  -1351  -1442  -1603  -1832  -2079  -2300  -2479  -2607  -2695  -2761  -2815  -2872  -2951  -3033  -3072  -3062  -3037  -3025  -3023  -3022  -3020  -3027  -3055  -3091  -3078  -2944  -2693  -2435  -2280  -2236  -2243  -2256  -2261  -2263  -2279  -2311  -2300  -2190  -2007  -1815  -1644  -1521  -1470  -1480  -1496  -1438  -1259  -1018  -840  -774  -769  -765  -744  -705  -662  -636  -641  -677  -725  -749  -726  -676  -645  -685  -841  -1084  -1298  -1408  -1456  -1514  -1597  -1664  -1677  -1632  -1555  -1489  -1536  -1788  -2179  -2420  -2040  -662  1689  4648  7534  9370  9341  7314  3879  124  -2739  -4035  -3993  -3316  -2622  -2231  -2045  -1758  -1303  -887  -666  -604  -601  -592  -568  -543  -528  -521  -508  -456  -342  -187  -33  105  231  331  384  392  396  449  590  833  1141  1435  1674  1858  1984  2078  2191  2295  2309  2241  2212  2314  2501  2660  2737  2757  2753  2725  2659  2574  2494  2383  2177  1874  1522  1161  809  459  117  -180  -403  -553  -670  -812  -1009  -1203  -1284  -1198  -1024  -882  -803  -749  -721  -738  -765  -751  -676  -560  -451  -401  -461  -661  -935  -1135  -1172  -1063  -873  -676  -507  -374  -289  -250  -233  -210  -173  -150  -168  -210  -268  -374  -531  -682  -759  -723  -567  -355  -199  -141  -145  -177  -233  -297  -324  -284  -197  -111  -57  -40  -50  -61  -27  87  255  394  458  464  433  371  292  222  167  109  32  -57  -137  -174  -145  -45  106  256  315  240  87  -37  -86  -81  -28  114  292  254  -195  -890  -1371  -1175  -47  2025  4803  7699  9862  10447  9002  5911  2313  -608  -2164  -2310  -1632  -856  -340  -131  -124  -116  27  282  566  810  970  1030  1016  967  893  782  678  702  940  1344  1740  1973  2034  2013  1975  1938  1900  1859  1816  1793  1851  2043  2309  2507  2578  2584  2627  2757  2919  3040  3171  3393  3659  3842  3910  3923  3931  3905  3759  3433  2994  2599  2350  2217  2086  1864  1521  1085  654  330  82  -208  -553  -839  -984  -1017  -1025  -1091  -1260  -1509  -1752  -1907  -1966  -1965  -1916  -1803  -1637  -1470  -1355  -1296  -1258  -1216  -1193  -1193  -1171  -1119  -1086  -1082  -1084  -1094  -1126  -1181  -1229  -1244  -1237  -1233  -1243  -1247  -1202  -1071  -886  -736  -673  -673  -697  -725  -750  -777  -806  -819  -805  -774  -752  -768  -840  -941  -1028  -1082  -1107  -1113  -1096  -1047  -971  -899  -867  -886  -944  -1023  -1097  -1150  -1218  -1350  -1538  -1730  -1879  -1974  -2018  -2036  -2063  -2127  -2249  -2422  -2606  -2767  -2902  -3021  -3096  -3067  -2909  -2693  -2573  -2725  -3210  -3807  -3992  -3179  -1071  2081  5438  7749  7989  6081  2743  -985  -3921  -5323  -5439  -4968  -4397  -3986  -3788  -3649  -3410  -3055  -2681  -2406  -2247  -2138  -2033  -1941  -1875  -1819  -1743  -1622  -1444  -1242  -1086  -1012  -980  -924  -827  -724  -612  -445  -243  -77  26  89  162  308  533  775  976  1141  1316  1533  1781  2023  2225  2365  2437  2473  2507  2553  2601  2596  2472  2210  1846  1481  1230  1132  1127  1124  1045  823  398  -191  -729  -1003  -1029  -951  -862  -805  -792  -796  -800  -812  -841  -892  -951  -990  -984  -922  -826  -738  -681  -646  -605  -553  -521  -533  -556  -562  -559  -572  -606  -644  -689  -770  -880  -958  -933  -784  -577  -423  -358  -339  -338  -354  -372  -387  -432  -525  -623  -676  -684  -676  -669  -668  -671  -678  -681  -656  -577  -470  -423  -488  -606  -660  -589  -425  -241  -92  -6  18  -14  -116  -269  -413  -496  -509  -491  -525  -656  -835  -974  -1028  -1011  -975  -942  -897  -819  -700  -536  -399  -432  -687  -1109  -1613  -1891  -1383  372  3364  6932  9897  11014  9663  6307  2219  -1297  -3383  -3824  -3138  -2144  -1375  -940  -714  -571  -479  -448  -452  -429  -331  -185  -72  -31  -30  -18  30  104  183  287  460  694  903  1024  1083  1134  1208  1339  1523  1687  1766  1776  1775  1815  1914  2050  2200  2385  2601  2799  2977  3172  3370  3523  3609  3642  3654  3650  3591  3432  3202  3004  2911  2887  2841  2701  2458  2145  1810  1510  1271  1054  827  625  505  470  477  487  477  433  367  316  321  411  571  730  817  835  828  828  838  843  862  941  1070  1174  1207  1191  1161  1126  1076  1015  968  956  985  1037  1049  974  852  756  706  674  631  579  552  575  636  712  783  833  819  677  397  89  -102  -136  -68  40  165  287  345  288  153  -4  -152  -253  -282  -239  -137  -22  46  47  -21  -171  -373  -556  -684  -763  -806  -820  -836  -886  -986  -1136  -1335  -1549  -1729  -1856  -1933  -1971  -1985  -1998  -2038  -2136  -2322  -2620  -3029  -3404  -3331  -2313  -183  2743  5774  7948  8381  6846  3959  693  -2153  -4076  -4928  -4955  -4555  -4023  -3501  -3025  -2614  -2317  -2147  -2044  -1943  -1814  -1668  -1542  -1450  -1383  -1342  -1327  -1321  -1305  -1276  -1262  -1266  -1239  -1151  -1047  -984  -960  -893  -699  -417  -176  -18  119  266  394  514  690  915  1099  1210  1310  1451  1610  1740  1821  1856  1857  1846  1842  1863  1903  1921  1814  1470  946  481  207  9  -257  -574  -853  -1078  -1287  -1476  -1598  -1643  -1656  -1666  -1671  -1662  -1650  -1660  -1699  -1745  -1778  -1800  -1812  -1789  -1656  -1351  -923  -536  -340  -403  -712  -1125  -1419  -1506  -1456  -1357  -1252  -1152  -1064  -1009  -988  -975  -946  -893  -831  -793  -799  -825  -834  -810  -788  -818  -878  -913  -919  -933  -979  -1059  -1157  -1236  -1274  -1261  -1191  -1087  -987  -910  -857  -831  -817  -789  -750  -731  -750  -774  -733  -615  -499  -427  -330  -179  -56  -46  -152  -305  -414  -452  -455  -461  -484  -522  -564  -601  -630  -656  -679  -709  -774  -866  -921  -900  -847  -822  -831  -835  -828  -895  -1067  -1278  -1513  -1558  -888  876  3618  6681  9084  9933  8799  5998  2458  -774  -2941  -3786  -3516  -2663  -1870  -1465  -1322  -1214  -1056  -851  -593  -279  12  168  164  69  -17  -42  -29  -15  1  23  53  102  174  277  421  578  694  757  812  919  1103  1322  1507  1653  1808  1981  2142  2289  2433  2562  2664  2745  2821  2891  2938  2950  2933  2914  2910  2895  2818  2649  2405  2121  1798  1448  1143  953  855  742  523  233  -30  -271  -534  -776  -941  -1037  -1104  -1156  -1186  -1185  -1145  -1072  -993  -931  -895  -875  -841  -778  -704  -654  -639  -640  -635  -617  -591  -568  -537  -476  -391  -324  -306  -348  -453  -590  -696  -748  -773  -803  -843  -865  -850  -811  -771  -742  -752  -834  -962  -1030  -977  -879  -834  -866  -924  -944  -942  -961  -960  -903  -799  -655  -525  -500  -609  -782  -913  -962  -957  -920  -852  -771  -713  -695  -704  -724  -737  -695  -549  -329  -141  -58  -65  -117  -182  -240  -285  -315  -344  -397  -485  -590  -694  -781  -835  -856  -874  -902  -933  -954  -970  -996  -1040  -1073  -1065  -1029  -1082  -1371  -1762  -1755  -873  1050  3854  6900  9108  9572  8125  5257  1868  -1019  -2727  -3237  -2970  -2383  -1836  -1497  -1336  -1252  -1151  -1021  -922  -876  -835  -747  -601  -434  -309  -250  -236  -243  -248  -211  -99  55  169  213  230  277  382  518  634  738  885  1083  1289  1495  1721  1930  2058  2101  2112  2142  2198  2272  2371  2496  2617  2705  2752  2740  2666  2557  2443  2312  2139  1941  1767  1606  1394  1103  762  435  174  -48  -288  -529  -716  -855  -972  -1051  -1075  -1062  -1035  -1010  -974  -901  -812  -750  -728  -731  -754  -801  -851  -851  -774  -673  -611  -591  -586  -585  -585  -586  -589  -601  -622  -662  -734  -823  -884  -907  -913  -911  -888  -845  -786  -710  -633  -581  -544  -491  -410  -357  -435  -668  -936  -1105  -1160  -1166  -1161  -1128  -1049  -956  -895  -869  -865  -870  -867  -827  -720  -564  -431  -378  -380  -381  -359  -318  -268  -223  -186  -162  -169  -247  -427  -660  -836  -895  -854  -737  -596  -527  -600  -789  -985  -1090  -1089  -1032  -983  -948  -902  -896  -1013  -1252  -1511  -1504  -820  748  3049  5657  7927  9018  8307  5927  2687  -399  -2471  -3223  -3087  -2703  -2386  -2131  -1834  -1474  -1146  -919  -762  -644  -570  -530  -482  -386  -247  -112  -24  12  17  13  7  -2  -9  25  139  318  498  639  736  806  877  959  1051  1159  1293  1465  1666  1874  2096  2326  2502  2576  2575  2555  2567  2640  2747  2840  2903  2934  2904  2766  2471  2013  1495  1056  733  477  239  -2  -221  -370  -450  -502  -560  -655  -808  -986  -1119  -1174  -1179  -1173  -1168  -1147  -1094  -1012  -918  -821  -732  -673  -653  -649  -647  -662  -726  -826  -900  -907  -881  -868  -875  -894  -913  -920  -896  -833  -750  -693  -677  -680  -673  -646  -610  -574  -536  -521  -563  -657  -785  -949  -1120  -1217  -1198  -1107  -1012  -947  -896  -828  -747  -692  -687  -713  -743  -765  -773  -759  -703  -607  -514  -468  -464  -475  -478  -465  -433  -397  -372  -363  -364  -366  -367  -370  -394  -483  -653  -838  -952  -978  -956  -923  -895  -872  -854  -839  -815  -790  -779  -764  -739  -794  -1037  -1449  -1861  -1972  -1385  189  2708  5735  8426  9728  8963  6357  2864  -435  -2728  -3682  -3533  -2900  -2334  -1979  -1740  -1545  -1351  -1163  -1045  -1019  -1015  -943  -773  -574  -432  -339  -240  -147  -89  -8  133  266  327  332  329  343  372  415  497  634  790  918  1006  1064  1115  1198  1359  1589  1814  1990  2146  2310  2453  2549  2611  2658  2689  2705  2714  2717  2696  2627  2507  2327  2023  1530  950  515  329  299  307  281  161  -81  -406  -706  -884  -947  -967  -982  -1003  -1049  -1103  -1107  -1055  -1002  -976  -954  -919  -877  -840  -816  -804  -782  -710  -571  -403  -266  -196  -176  -164  -162  -243  -485  -832  -1117  -1244  -1242  -1181  -1101  -995  -872  -784  -753  -753  -753  -752  -781  -868  -990  -1086  -1129  -1140  -1144  -1177  -1274  -1410  -1500  -1477  -1325  -1070  -791  -603  -542  -569  -649  -764  -879  -966  -1023  -1053  -1061  -1047  -1008  -950  -874  -757  -590  -421  -311  -269  -264  -269  -280  -298  -319  -340  -364  -385  -394  -399  -414  -438  -460  -481  -518  -580  -650  -702  -728  -746  -773  -811  -849  -873  -853  -772  -795  -1177  -1736  -1784  -744  1520  4685  7884  9906  9882  7797  4398  786  -2040  -3517  -3615  -2790  -1726  -977  -750  -892  -1089  -1164  -1138  -1062  -943  -785  -618  -472  -366  -304  -271  -245  -211  -143  -16  170  380  573  738  871  963  1013  1029  1024  1013  1011  1023  1065  1168  1351  1589  1835  2047  2217  2355  2466  2567  2698  2874  3039  3117  3099  3021  2903  2733  2518  2323  2211  2139  1968  1621  1205  905  778  729  616  358  27  -260  -483  -656  -754  -780  -787  -830  -905  -976  -1021  -1041  -1040  -1026  -1003  -971  -931  -889  -865  -871  -901  -926  -907  -838  -746  -659  -590  -540  -499  -457  -413  -385  -385  -404  -426  -445  -468  -490  -499  -493  -482  -472  -470  -476  -487  -492  -487  -486  -505  -542  -581  -581  -536  -491  -471  -456  -445  -454  -496  -569  -662  -761  -865  -944  -943  -845  -688  -525  -386  -256  -94  79  198  227  165  13  -207  -423  -556  -593  -578  -556  -547  -544  -545  -570  -656  -800  -925  -947  -876  -787  -715  -651  -592  -564  -632  -871  -1253  -1647  -1911  -1820  -965  965  3802  6863  9110  9565  7940  4810  1251  -1672  -3363  -3836  -3519  -2911  -2335  -1894  -1567  -1330  -1183  -1110  -1087  -1074  -1011  -857  -631  -408  -266  -227  -287  -442  -632  -742  -708  -572  -391  -179  61  278  398  414  382  358  366  413  488  581  707  914  1225  1566  1813  1937  2003  2063  2121  2162  2185  2177  2100  1933  1736  1612  1590  1605  1552  1365  1100  888  774  661  409  -6  -436  -723  -869  -980  -1122  -1266  -1353  -1379  -1389  -1425  -1498  -1592  -1681  -1736  -1744  -1712  -1650  -1569  -1488  -1415  -1345  -1282  -1243  -1218  -1169  -1068  -945  -858  -832  -855  -917  -1013  -1113  -1172  -1188  -1204  -1263  -1357  -1440  -1487  -1504  -1512  -1511  -1481  -1380  -1179  -919  -695  -562  -503  -484  -480  -479  -479  -480  -475  -438  -348  -226  -125  -58  16  140  323  549  764  886  872  729  521  343  244  228  301  435  477  253  -166  -526  -715  -786  -790  -743  -672  -617  -585  -559  -546  -568  -640  -769  -970  -1228  -1437  -1384  -789  545  2660  5387  8121  9866  9823  7889  4635  1068  -1707  -3072  -3228  -2783  -2205  -1739  -1440  -1200  -924  -662  -511  -475  -486  -494  -483  -449  -396  -327  -238  -121  16  143  216  223  210  254  405  624  813  918  964  992  1021  1059  1130  1250  1377  1458  1502  1559  1677  1870  2088  2259  2376  2501  2706  3005  3306  3479  3497  3442  3334  3059  2537  1917  1467  1267  1135  871  494  174  -4  -96  -204  -388  -587  -676  -635  -559  -516  -504  -513  -568  -687  -831  -936  -985  -1002  -1001  -982  -928  -807  -596  -355  -187  -127  -119  -120  -151  -243  -383  -514  -581  -589  -582  -586  -602  -620  -637  -644  -627  -580  -517  -462  -429  -408  -383  -356  -365  -433  -525  -591  -622  -614  -555  -452  -345  -282  -268  -276  -269  -225  -150  -83  -56  -71  -106  -137  -159  -188  -240  -322  -417  -494  -542  -581  -643  -729  -810  -864  -878  -866  -885  -970  -1087  -1170  -1139  -997  -952  -1168  -1479  -1509  -850  854  3592  6701  9058  9604  7958  4736  1202  -1486  -2792  -2920  -2538  -2235  -2119  -1941  -1587  -1212  -940  -760  -649  -582  -534  -487  -429  -367  -322  -294  -262  -209  -131  -32  65  137  187  225  247  248  240  247  302  409  526  618  714  879  1106  1325  1493  1629  1779  1948  2088  2175  2259  2400  2571  2685  2672  2521  2295  2077  1896  1749  1632  1483  1214  824  384  -45  -452  -829  -1124  -1284  -1333  -1341  -1358  -1413  -1528  -1679  -1811  -1885  -1902  -1896  -1914  -1962  -2005  -2028  -2041  -2054  -2061  -2034  -1933  -1761  -1580  -1458  -1399  -1386  -1452  -1646  -1920  -2148  -2267  -2308  -2307  -2296  -2289  -2264  -2214  -2155  -2122  -2167  -2261  -2321  -2361  -2436  -2536  -2615  -2648  -2637  -2603  -2563  -2520  -2490  -2506  -2571  -2646  -2697  -2717  -2696  -2607  -2442  -2250  -2108  -2027  -1969  -1945  -1997  -2114  -2252  -2412  -2623  -2849  -3002  -3052  -3048  -3038  -3037  -3046  -3058  -3065  -3048  -2988  -2897  -2815  -2780  -2849  -3082  -3429  -3733  -3897  -3948  -3960  -3951  -3727  -2914  -1233  1294  4203  6520  7181  5804  2846  -816  -4118  -6124  -6652  -6236  -5484  -4783  -4320  -4063  -3892  -3761  -3670  -3622  -3598  -3554  -3466  -3361  -3286  -3252  -3250  -3244  -3140  -2862  -2487  -2221  -2155  -2200  -2256  -2299  -2337  -2376  -2414  -2439  -2424  -2348  -2198  -2000  -1797  -1582  -1334  -1077  -873  -759  -714  -674  -583  -432  -271  -168  -137  -160  -243  -406  -624  -829  -977  -1095  -1273  -1551  -1848  -2046  -2152  -2273  -2485  -2792  -3176  -3557  -3804  -3877  -3857  -3833  -3847  -3907  -3982  -4019  -3993  -3920  -3830  -3740  -3650  -3554  -3453  -3362  -3302  -3272  -3238  -3142  -2945  -2653  -2333  -2108  -2065  -2194  -2363  -2406  -2277  -2053  -1801  -1553  -1335  -1171  -1081  -1063  -1087  -1121  -1159  -1206  -1255  -1282  -1287  -1288  -1288  -1251  -1103  -802  -427  -128  19  47  26  10  40  174  421  692  890  1019  1111  1174  1239  1366  1593  1906  2235  2489  2639  2720  2779  2863  3012  3227  3459  3642  3747  3841  4039  4363  4647  4728  4694  4761  5004  5369  5751  6056  6263  6398  6509  6642  6763  6840  6935  7145  7651  8859  11140  14182  16919  18420  18489  17274  15070  12584  10686  9720  9320  8916  8293]
