reading_id,reading_time,wire_id,result_classification,heart_rate,heart_rate_alert,firmware_version,device_app_version,hardware_version,waveform_samples
57503a90-648f-11ed-8080-808080808080,Tue Nov 15 02:43:52 UTC 2022,a101e3f91939,UNCLASSIFIABLE,107,NONE,20001.171.50,2.10.0,Charge 5,[-19032  -20687  -21402  -20899  -19606  -18182  -16997  -15874  -14310  -12087  -9530  -7053  -4763  -2595  -412  1924  4037  5221  5679  6288  7303  8539  9839  10701  10600  9809  9043  8622  8485  8485  8478  8274  7616  6582  5663  5159  4952  4863  4829  4788  4662  4481  4371  4378  4381  4149  3506  2554  1681  1205  1127  1301  1621  1957  2179  2301  2455  2690  2953  3207  3421  3549  3603  3665  3825  4124  4515  4909  5230  5467  5692  5979  6347  6917  7852  8955  9739  10012  9965  9825  9758  9947  10553  11574  12671  13377  13572  13522  13527  13742  14171  14721  15301  15836  16243  16491  16625  16642  16462  16110  15893  16069  16394  16546  16800  17622  19042  20918  23034  24731  25339  24671  22813  20221  17795  16223  15464  15064  14731  14543  14740  15304  15886  16220  16388  16591  16817  16878  16711  16450  16258  16183  16171  16164  16158  16213  16405  16694  16834  16434  15290  13816  12777  12545  12996  13823  14620  15073  15191  15159  15080  14958  14769  14478  14098  13714  13393  13163  12992  12760  12365  11889  11506  11169  10646  9958  9421  9201  9149  9052  8838  8569  8288  7914  7314  6475  5635  5112  4958  4981  5027  5066  5101  5107  5060  4963  4853  4745  4618  4471  4349  4293  4294  4311  4287  4139  3812  3413  3134  3029  3022  3063  3143  3205  3127  2828  2412  2094  1958  1932  1947  1986  2006  1902  1580  1136  803  683  682  659  545  386  285  243  117  -222  -715  -1182  -1579  -1970  -2290  -2478  -2584  -2531  -2065  -807  1422  4164  6473  7350  6168  3217  -375  -3357  -4978  -5350  -5092  -4752  -4772  -5087  -5084  -4637  -4188  -3918  -3670  -3354  -3051  -2851  -2792  -2886  -3080  -3284  -3487  -3691  -3820  -3820  -3747  -3676  -3605  -3491  -3287  -3009  -2764  -2620  -2525  -2387  -2174  -1917  -1669  -1514  -1520  -1673  -1869  -2021  -2132  -2233  -2319  -2366  -2359  -2291  -2179  -2115  -2212  -2454  -2701  -2843  -2851  -2727  -2483  -2186  -2002  -2179  -2872  -3836  -4535  -4652  -4258  -3645  -3151  -2946  -2997  -3219  -3499  -3687  -3674  -3454  -3141  -2903  -2810  -2817  -2852  -2877  -2894  -2937  -3025  -3135  -3216  -3258  -3278  -3253  -3101  -2779  -2390  -2091  -1940  -1889  -1874  -1855  -1847  -1917  -2133  -2463  -2796  -3039  -3153  -3136  -3029  -2897  -2797  -2745  -2724  -2720  -2721  -2698  -2609  -2437  -2227  -2089  -2125  -2377  -2804  -3019  -2424  -934  1039  3202  5323  6931  7442  6544  4434  1661  -1083  -3083  -3939  -3777  -3067  -2309  -1836  -1740  -1874  -1979  -1849  -1417  -852  -447  -297  -267  -227  -169  -133  -127  -129  -130  -152  -216  -307  -379  -422  -472  -535  -490  -172  396  987  1395  1570  1543  1358  1084  816  620  531  596  848  1198  1443  1418  1106  676  371  271  241  93  -266  -738  -1094  -1227  -1203  -1113  -1007  -926  -913  -1032  -1322  -1709  -2031  -2167  -2128  -2023  -1925  -1839  -1787  -1787  -1797  -1771  -1710  -1632  -1551  -1459  -1357  -1271  -1200  -1119  -1051  -1067  -1185  -1340  -1459  -1510  -1492  -1411  -1247  -1017  -810  -704  -686  -699  -714  -719  -692  -625  -607  -776  -1094  -1358  -1460  -1461  -1434  -1402  -1385  -1423  -1514  -1576  -1547  -1463  -1395  -1362  -1334  -1283  -1248  -1328  -1572  -1929  -2131  -1720  -420  1677  4161  6302  7314  6788  4901  2264  -455  -2752  -4283  -4898  -4621  -3602  -2301  -1468  -1455  -1785  -1938  -1948  -1936  -1853  -1683  -1485  -1347  -1325  -1344  -1290  -1196  -1162  -1233  -1400  -1600  -1737  -1743  -1602  -1349  -1063  -775  -464  -152  85  185  147  43  -25  -17  34  80  110  141  173  183  138  12  -178  -378  -562  -751  -956  -1130  -1226  -1288  -1449  -1763  -2104  -2280  -2218  -1992  -1733  -1530  -1394  -1304  -1254  -1242  -1248  -1253  -1248  -1234  -1224  -1240  -1286  -1313  -1254  -1101  -919  -796  -750  -735  -728  -771  -924  -1187  -1450  -1541  -1390  -1123  -964  -1042  -1244  -1294  -1036  -634  -376  -348  -409  -436  -435  -506  -732  -1047  -1286  -1388  -1415  -1392  -1224  -857  -419  -2  399  584  295  -315  -825  -1021  -992  -893  -757  -547  -296  -97  2  10  -44  -115  -178  -234  -268  -262  -260  -372  -692  -1133  -1395  -1323  -1097  -920  -779  -412  633  2709  5651  8589  10234  9719  7225  3676  207  -2125  -2847  -2414  -1629  -954  -486  -164  54  159  177  164  147  136  143  184  252  313  344  373  456  616  854  1156  1446  1617  1643  1569  1458  1365  1347  1490  1849  2313  2682  2894  3044  3168  3208  3171  3132  3130  3160  3199  3229  3228  3148  2962  2699  2433  2220  2030  1824  1618  1426  1254  1115  979  815  659  564  501  390  204  10  -124  -214  -293  -344  -297  -102  185  423  544  591  610  584  476  339  278  271  222  138  85  73  72  62  44  18  -25  -69  -69  -6  116  270  361  270  -31  -417  -685  -765  -741  -713  -728  -790  -851  -869  -866  -894  -940  -949  -898  -839  -834  -873  -898  -870  -778  -656  -572  -556  -574  -590  -602  -634  -706  -822  -952  -1030  -996  -844  -647  -499  -423  -386  -366  -369  -398  -444  -510  -598  -687  -750  -783  -797  -828  -915  -1065  -1234  -1376  -1484  -1571  -1619  -1497  -1052  -526  -455  -965  -1596  -1688  -664  1718  5071  8262  9882  9131  6256  2303  -1330  -3514  -4029  -3513  -2763  -2277  -2189  -2285  -2240  -1903  -1399  -998  -841  -846  -865  -807  -670  -528  -443  -384  -270  -93  75  181  221  224  221  240  294  376  465  582  766  982  1150  1248  1292  1313  1373  1516  1696  1820  1830  1727  1550  1348  1139  921  694  475  281  109  -35  -130  -161  -138  -94  -88  -163  -327  -556  -791  -970  -1089  -1181  -1242  -1228  -1123  -998  -941  -964  -1025  -1071  -1079  -1043  -960  -857  -807  -888  -1122  -1403  -1571  -1593  -1526  -1394  -1220  -1061  -944  -855  -794  -767  -764  -775  -805  -877  -995  -1114  -1166  -1126  -1032  -936  -859  -803  -786  -823  -883  -905  -841  -708  -576  -503  -484  -485  -490  -491  -482  -456  -419  -394  -398  -429  -469  -503  -530  -547  -530  -425  -183  135  378  460  379  149  -144  -360  -464  -547  -675  -781  -755  -609  -469  -407  -399  -407  -424  -461  -520  -574  -582  -479  -255  -84  -239  -774  -1352  -1371  -319  1902  4899  7851  9725  9661  7516  4085  578  -2024  -3216  -3148  -2518  -1924  -1517  -1189  -842  -526  -349  -314  -329  -312  -220  -69  108  315  518  616  536  303  -2  -280  -386  -168  383  1033  1469  1601  1570  1543  1614  1800  2056  2296  2439  2473  2458  2446  2445  2448  2451  2456  2458  2445  2381  2191  1828  1416  1212  1320  1509  1468  1217  961  708  400  119  -73  -226  -386  -559  -724  -866  -1000  -1125  -1202  -1179  -1031  -811  -616  -488  -415  -384  -359  -299  -232  -248  -410  -685  -956  -1122  -1172  -1145  -1073  -943  -717  -422  -162  -33  -79  -304  -622  -873  -978  -983  -951  -900  -833  -761  -703  -682  -715  -779  -815  -780  -696  -611  -547  -498  -463  -444  -438  -441  -451  -453  -420  -324  -168  -15  55  20  -67  -142  -171  -141  -41  100  196  131  -152  -548  -833  -883  -741  -532  -376  -322  -371  -523  -719  -847  -843  -743  -681  -806  -1128  -1463  -1510  -902  706  3323  6342  8741  9524  8167  5048  1274  -2003  -4043  -4744  -4470  -3605  -2563  -1803  -1442  -1235  -1003  -792  -673  -620  -566  -487  -423  -405  -419  -434  -419  -370  -299  -225  -159  -102  -54  -10  30  69  156  383  763  1221  1644  1912  1985  1937  1865  1805  1749  1724  1789  1947  2100  2133  2041  1874  1635  1326  1024  820  726  637  423  102  -166  -295  -351  -441  -593  -767  -916  -1017  -1051  -1023  -989  -976  -935  -835  -738  -731  -832  -963  -1042  -1066  -1019  -873  -705  -612  -602  -641  -690  -725  -749  -768  -768  -751  -751  -803  -908  -1032  -1136  -1209  -1270  -1330  -1373  -1390  -1391  -1377  -1312  -1155  -954  -834  -860  -967  -1056  -1090  -1095  -1086  -1041  -927  -754  -587  -488  -468  -507  -566  -594  -579  -553  -538  -523  -519  -586  -779  -1034  -1190  -1184  -1102  -1020  -936  -845  -748  -616  -423  -227  -186  -449  -947  -1273  -826  748  3259  5995  7952  8298  6844  4066  766  -2142  -3855  -4180  -3576  -2602  -1673  -1061  -799  -746  -793  -887  -969  -986  -919  -763  -534  -291  -112  -21  19  43  52  40  25  71  243  526  817  1033  1181  1330  1493  1609  1649  1672  1753  1900  2061  2198  2306  2376  2403  2387  2320  2202  2037  1813  1550  1306  1119  987  890  793  632  372  70  -189  -401  -604  -786  -897  -929  -919  -905  -899  -895  -876  -836  -782  -716  -635  -558  -512  -499  -483  -429  -349  -279  -228  -182  -157  -212  -398  -655  -849  -909  -858  -736  -587  -473  -433  -464  -530  -589  -618  -624  -621  -618  -616  -605  -575  -529  -480  -432  -376  -296  -186  -100  -97  -120  -71  11  8  -132  -334  -472  -514  -557  -699  -912  -1065  -1062  -918  -755  -684  -677  -676  -745  -925  -1079  -953  -264  1283  3777  6587  8502  8653  6893  3676  97  -2580  -3803  -3793  -3057  -2159  -1556  -1378  -1452  -1546  -1550  -1422  -1130  -737  -402  -218  -150  -125  -97  -56  -20  4  44  114  202  287  350  377  383  415  518  663  792  913  1095  1374  1707  2000  2186  2271  2301  2299  2215  1987  1679  1457  1393  1418  1435  1388  1269  1057  712  301  0  -100  -66  -19  -89  -381  -830  -1214  -1389  -1404  -1367  -1331  -1283  -1200  -1113  -1086  -1131  -1185  -1180  -1094  -966  -869  -834  -837  -839  -822  -792  -761  -729  -694  -663  -642  -645  -680  -726  -752  -747  -716  -684  -683  -697  -655  -487  -218  24  143  141  80  13  -48  -119  -187  -227  -233  -223  -232  -283  -358  -391  -340  -228  -82  91  212  155  -101  -396  -511  -404  -167  37  -95  -770  -1760  -2453  -2057  -130  2956  6323  9018  10117  9097  6305  2760  -446  -2539  -3349  -3249  -2746  -2281  -2052  -1892  -1614  -1291  -1060  -892  -658  -332  -20  174  240  226  192  170  160  161  199  306  461  592  667  713  741  715  626  531  518  672  1042  1573  2100  2451  2589  2593  2554  2520  2501  2488  2472  2439  2393  2317  2128  1750  1285  945  786  672  461  118  -292  -662  -895  -975  -965  -930  -907  -901  -900  -892  -882  -892  -927  -964  -985  -1000  -1016  -1023  -1008  -965  -903  -807  -640  -435  -295  -278  -345  -444  -567  -702  -787  -798  -790  -764  -664  -537  -502  -612  -802  -957  -1021  -970  -771  -453  -181  -104  -194  -312  -393  -450  -502  -555  -611  -645  -633  -593  -562  -547  -550  -584  -665  -769  -846  -875  -889  -926  -988  -1044  -1096  -1135  -1048  -823  -668  -738  -922  -805  178  2272  5063  7632  8937  8342  6013  2793  -298  -2459  -3397  -3387  -2913  -2357  -1932  -1664  -1504  -1407  -1316  -1195  -1062  -945  -837  -707  -544  -369  -220  -129  -91  -62  -8  81  184  258  281  273  252  238  274  407  629  874  1079  1243  1434  1715  2065  2384  2568  2599  2531  2422  2297  2141  1936  1701  1480  1315  1222  1169  1061  784  314  -218  -623  -821  -893  -965  -1057  -1111  -1101  -1065  -1038  -1028  -1025  -1026  -1038  -1069  -1105  -1100  -1020  -888  -773  -722  -736  -809  -943  -1098  -1199  -1203  -1139  -1059  -976  -870  -765  -691  -638  -601  -586  -578  -556  -518  -480  -453  -439  -434  -434  -436  -436  -431  -425  -424  -431  -440  -453  -490  -568  -663  -706  -655  -549  -460  -419  -405  -394  -397  -443  -543  -677  -814  -924  -996  -1048  -1098  -1149  -1186  -1161  -1052  -896  -534  452  2294  4758  7220  8740  8451  6296  3105  -76  -2468  -3678  -3789  -3243  -2534  -1951  -1520  -1194  -973  -848  -766  -699  -672  -719  -824  -927  -965  -888  -649  -275  104  334  344  213  86  29  9  6  70  276  609  962  1249  1434  1520  1548  1573  1637  1771  1961  2144  2259  2297  2284  2236  2130  1942  1689  1406  1098  763  428  132  -106  -291  -433  -553  -670  -786  -902  -1010  -1074  -1078  -1040  -1000  -990  -1005  -1020  -1028  -1027  -982  -854  -678  -548  -504  -510  -526  -536  -542  -547  -560  -595  -650  -707  -744  -744  -700  -624  -544  -491  -472  -474  -498  -551  -621  -668  -661  -593  -497  -426  -402  -406  -413  -415  -406  -383  -347  -290  -206  -136  -160  -308  -521  -691  -745  -721  -680  -637  -605  -593  -589  -600  -625  -630  -588  -519  -478  -486  -513  -531  -550  -632  -853  -1208  -1634  -2010  -2022  -1276  386  2853  5745  8261  9329  8272  5414  1906  -1040  -2766  -3300  -3118  -2769  -2547  -2346  -1994  -1604  -1316  -1071  -788  -464  -159  22  5  -213  -524  -739  -706  -396  44  392  564  627  652  669  690  707  709  686  648  661  859  1317  1882  2287  2431  2415  2351  2292  2249  2222  2216  2263  2397  2582  2658  2409  1756  964  436  287  332  375  326  169  -76  -373  -682  -953  -1124  -1189  -1199  -1200  -1207  -1210  -1172  -1050  -827  -574  -409  -377  -435  -526  -612  -665  -680  -674  -656  -630  -605  -582  -541  -465  -371  -314  -339  -425  -489  -486  -452  -427  -418  -417  -437  -494  -578  -649  -690  -717  -738  -757  -785  -815  -819  -766  -650  -500  -359  -253  -197  -188  -206  -237  -294  -399  -533  -647  -720  -769  -802  -823  -836  -847  -864  -887  -905  -897  -837  -750  -691  -660  -699  -956  -1449  -1842  -1533  39  2880  6221  8914  9889  8560  5308  1357  -2011  -3953  -4225  -3346  -2251  -1546  -1279  -1239  -1190  -1046  -886  -753  -625  -503  -408  -358  -346  -339  -311  -259  -177  -31  185  403  557  645  683  685  671  682  775  980  1255  1521  1720  1833  1893  1953  2029  2096  2130  2140  2151  2179  2208  2186  2059  1815  1518  1264  1093  978  862  709  523  318  95  -139  -372  -564  -686  -739  -745  -725  -683  -632  -606  -630  -701  -781  -831  -839  -810  -751  -669  -593  -547  -528  -527  -557  -662  -857  -1055  -1116  -1002  -805  -629  -545  -560  -603  -603  -569  -580  -685  -825  -910  -929  -920  -906  -884  -846  -784  -688  -572  -475  -415  -383  -366  -376  -429  -504  -548  -539  -509  -488  -484  -488  -500  -527  -567  -601  -616  -618  -615  -614  -613  -614  -618  -630  -675  -777  -916  -1048  -1197  -1426  -1633  -1486  -545  1479  4387  7380  9381  9474  7429  3945  185  -2767  -4239  -4315  -3639  -2764  -1976  -1429  -1122  -956  -861  -810  -804  -835  -845  -782  -681  -616  -591  -506  -268  62  318  411  382  294  204  176  238  354  467  561  677  868  1149  1444  1649  1767  1910  2148  2428  2631  2694  2629  2447  2177  1917  1765  1717  1679  1547  1293  987  728  515  261  -58  -351  -528  -604  -639  -664  -688  -719  -747  -758  -756  -765  -807  -879  -959  -1028  -1062  -1041  -971  -881  -801  -734  -656  -567  -491  -429  -375  -351  -379  -443  -512  -579  -640  -682  -700  -708  -715  -725  -744  -786  -846  -895  -892  -793  -589  -337  -119  8  49  18  -106  -294  -448  -546  -632  -699  -725  -738  -776  -834  -881  -901  -905  -908  -917  -926  -901  -786  -587  -464  -594  -987  -1425  -1487  -721  1055  3564  6138  7976  8382  7072  4372  1049  -1956  -3823  -4270  -3684  -2745  -1990  -1577  -1337  -1099  -881  -758  -713  -673  -597  -507  -463  -507  -585  -582  -465  -298  -124  64  245  350  364  356  420  613  898  1173  1365  1477  1553  1627  1703  1787  1909  2067  2211  2304  2337  2283  2119  1897  1719  1607  1513  1434  1394  1340  1151  776  321  -61  -325  -499  -609  -666  -688  -695  -702  -723  -765  -821  -864  -875  -865  -859  -872  -874  -829  -757  -692  -643  -611  -598  -596  -600  -619  -665  -735  -804  -841  -807  -684  -514  -385  -338  -353  -384  -407  -419  -425  -426  -428  -432  -433  -425  -428  -481  -575  -662  -717  -741  -745  -747  -762  -794  -833  -863  -879  -872  -819  -706  -569  -467  -426  -441  -520  -656  -760  -752  -750  -930  -1164  -1010  -70  1785  4349  6922  8390  7936  5649  2350  -832  -2913  -3591  -3318  -2694  -2094  -1711  -1547  -1460  -1350  -1215  -1092  -991  -890  -758  -583  -366  -150  10  109  164  172  131  81  79  153  275  388  476  603  820  1087  1314  1456  1531  1575  1613  1647  1678  1714  1772  1884  2063  2256  2393  2446  2394  2169  1755  1282  922  705  544  361  144  -78  -280  -451  -595  -766  -1027  -1313  -1417  -1215  -849  -589  -549  -640  -735  -789  -809  -812  -806  -820  -906  -1075  -1220  -1200  -1024  -827  -693  -618  -585  -579  -580  -578  -580  -596  -598  -563  -516  -480  -406  -236  -8  160  196  103  -73  -264  -421  -567  -725  -856  -921  -938  -952  -975  -996  -1003  -1004  -1008  -1015  -1013  -990  -958  -933  -924  -924  -924  -948  -1014  -1041  -792  155  2044  4518  6837  8210  7992  6061  3071  73  -2127  -3178  -3182  -2651  -2110  -1744  -1499  -1271  -1042  -883  -816  -780  -737  -702  -674  -625  -541  -437  -336  -248  -165  -69  52  203  367  519  643  729  789  845  900  938  985  1118  1371  1663  1867  1955  1984  2013  2083  2194  2253  2187  2023  1808  1581  1406  1285  1123  848  492  165  -37  -120  -158  -201  -276  -408  -588  -755  -870  -938  -958  -927  -874  -825  -769  -709  -681  -724  -830  -947  -1016  -1017  -958  -868  -795  -773  -798  -830  -803  -671  -478  -328  -276  -319  -443  -602  -719  -764  -768  -759  -733  -682  -633  -617  -634  -657  -641  -575  -494  -439  -414  -402  -408  -452  -520  -580  -613  -621  -618  -620  -650  -711  -776  -826  -875  -917  -928  -901  -882  -968  -1205  -1406  -1106  143  2388  5202  7780  9101  8449  5930  2452  -814  -3010  -3819  -3500  -2745  -2195  -1999  -1885  -1599  -1192  -892  -789  -794  -810  -799  -742  -633  -498  -357  -209  -73  4  25  44  112  215  295  336  373  437  535  693  943  1234  1442  1535  1613  1767  1972  2125  2178  2155  2081  1976  1874  1804  1755  1644  1389  1049  781  623  494  359  235  119  -3  -140  -313  -529  -734  -861  -893  -869  -832  -807  -801  -809  -819  -835  -869  -928  -1000  -1049  -1046  -984  -892  -826  -813  -827  -827  -791  -716  -629  -561  -518  -485  -460  -453  -470  -517  -605  -708  -752  -686  -549  -416  -321  -269  -272  -332  -431  -543  -628  -653  -621  -565  -529  -516  -521  -583  -700  -817  -884  -839  -700  -582  -543  -551  -577  -625  -706  -814  -977  -1207  -1424  -1569  -1516  -873  697  3090  5874  8324  9414  8457  5743  2220  -1055  -3180  -3822  -3438  -2796  -2365  -2133  -1890  -1554  -1212  -945  -752  -620  -555  -542  -545  -536  -514  -490  -458  -381  -222  -9  188  338  440  504  555  611  658  691  735  842  1057  1343  1591  1738  1821  1896  1977  2037  2050  2031  2007  1988  1970  1933  1836  1623  1294  942  685  555  466  322  130  -58  -266  -542  -850  -1089  -1200  -1211  -1182  -1153  -1137  -1133  -1136  -1149  -1170  -1185  -1158  -1048  -877  -726  -652  -630  -624  -628  -671  -775  -905  -996  -1023  -1018  -1011  -1012  -1014  -995  -937  -857  -793  -754  -716  -646  -528  -408  -339  -314  -311  -342  -415  -512  -572  -516  -364  -235  -222  -328  -487  -622  -712  -776  -819  -835  -827  -806  -792  -802  -839  -898  -963  -1010  -1007  -910  -723  -575  -681  -1130  -1608  -1443  -127  2269  5188  7789  9163  8727  6578  3415  149  -2423  -3788  -3887  -3201  -2378  -1747  -1346  -1129  -1013  -906  -756  -572  -404  -298  -264  -271  -276  -263  -234  -180  -80  68  230  362  467  560  629  672  717  800  951  1155  1349  1484  1575  1678  1809  1923  2018  2148  2310  2414  2366  2131  1809  1575  1480  1438  1349  1179  946  694  446  165  -155  -433  -614  -729  -797  -782  -695  -620  -629  -713  -811  -902  -1011  -1117  -1133  -996  -747  -525  -434  -476  -581  -661  -672  -621  -546  -492  -472  -482  -521  -590  -673  -733  -729  -657  -554  -467  -423  -439  -518  -632  -728  -776  -775  -739  -674  -580  -472  -387  -350  -351  -363  -371  -372  -371  -395  -462  -548  -602  -610  -597  -579  -556  -519  -457  -371  -282  -238  -272  -361  -473  -576  -635  -648  -645  -625  -538  -381  -351  -689  -1262  -1537  -937  847  3626  6680  8952  9413  7691  4457  903  -1962  -3509  -3676  -3053  -2331  -1810  -1510  -1362  -1251  -1111  -971  -854  -749  -665  -606  -545  -479  -421  -369  -327  -306  -310  -327  -329  -274  -112  178  522  796  953  1054  1154  1247  1329  1407  1481  1557  1641  1721  1802  1905  2033  2160  2243  2249  2175  2039  1843  1578  1286  1049  854  590  241  -58  -209  -258  -348  -572  -864  -1070  -1135  -1122  -1099  -1091  -1098  -1111  -1120  -1116  -1102  -1082  -1067  -1052  -1001  -872  -700  -573  -506  -443  -357  -280  -237  -245  -355  -602  -916  -1144  -1202  -1108  -916  -692  -522  -459  -479  -525  -561  -583  -591  -579  -544  -480  -385  -282  -214  -193  -195  -203  -222  -265  -338  -427  -496  -519  -518  -530  -565  -599  -607  -596  -589  -597  -611  -614  -604  -640  -872  -1340  -1709  -1391  32  2527  5534  8114  9222  8208  5410  1937  -1181  -3223  -3858  -3495  -2824  -2155  -1603  -1279  -1131  -1000  -829  -678  -597  -570  -550  -507  -442  -383  -354  -347  -334  -299  -243  -177  -103  16  224  476  677  810  913  1005  1092  1197  1351  1569  1812  1998  2090  2107  2079  2016  1910  1778  1682  1657  1660  1621  1493  1297  1093  903  700  444  119  -200  -393  -443  -458  -542  -704  -860  -941  -961  -988  -1077  -1218  -1357  -1442  -1428  -1287  -1071  -889  -789  -735  -691  -651  -624  -627  -659  -696  -742  -829  -943  -1028  -1056  -1050  -1030  -984  -886  -759  -667  -637  -641  -646  -643  -635  -628  -604  -542  -452  -377  -344  -371  -478  -658  -841  -958  -995  -982  -947  -912  -889  -876  -870  -894  -1018  -1299  -1679  -1978  -1931  -1185  525  3079  5841  7799  8058  6427  3490  258  -2260  -3507  -3591  -3018  -2271  -1648  -1272  -1130  -1127  -1151  -1133  -1053  -926  -775  -608  -439  -304  -221  -172  -115  -18  137  352  573  720  773  770  721  608  453  329  317  487  864  1347  1761  2008  2125  2184  2211  2184  2095  1989  1918  1874  1815  1748  1713  1674  1494  1089  587  190  -73  -276  -433  -525  -559  -555  -537  -534  -591  -735  -915  -1033  -1057  -1034  -1014  -989  -934  -838  -722  -630  -586  -557  -513  -464  -434  -425  -428  -443  -477  -524  -560  -564  -518  -424  -319  -258  -248  -244  -187  -63  52  64  -24  -126  -191  -244  -316  -405  -483  -543  -603  -666  -709  -725  -738  -772  -848  -982  -1147  -1268  -1251  -1049  -777  -717  -1031  -1557  -1857  -1382  253  2974  6019  8085  8129  6137  2991  -178  -2439  -3398  -3418  -3129  -2770  -2328  -1895  -1569  -1323  -1092  -874  -717  -636  -609  -606  -599  -568  -485  -325  -131  3  48  45  35  23  9  50  253  640  1055  1311  1398  1428  1465  1495  1499  1492  1513  1611  1783  1953  2030  2000  1928  1880  1846  1742  1510  1216  1007  928  857  650  316  2  -197  -312  -418  -567  -745  -888  -958  -971  -963  -954  -927  -843  -697  -541  -444  -423  -443  -458  -442  -391  -328  -295  -318  -400  -506  -600  -688  -781  -836  -817  -762  -722  -703  -661  -543  -354  -142  51  195  272  293  256  126  -95  -322  -459  -496  -486  -480  -521  -632  -798  -959  -1057  -1082  -1070  -1056  -1045  -1033  -1018  -1001  -981  -1000  -1163  -1520  -1895  -1858  -963  973  3736  6542  8190  7846  5639  2445  -663  -2798  -3646  -3525  -2949  -2337  -1944  -1777  -1690  -1582  -1431  -1242  -1019  -785  -582  -430  -327  -276  -263  -254  -216  -155  -85  -13  49  93  135  212  343  499  625  744  933  1203  1482  1690  1797  1817  1788  1745  1712  1689  1669  1655  1647  1623  1556  1440  1293  1138  982  825  672  539  411  251  32  -234  -480  -636  -730  -824  -918  -995  -1056  -1083  -1061  -1004  -912  -789  -670  -591  -560  -562  -577  -599  -629  -648  -637  -603  -556  -494  -427  -376  -361  -375  -392  -418  -480  -560  -611  -601  -528  -424  -333  -269  -224  -204  -214  -250  -325  -463  -627  -729  -738  -710  -713  -779  -884  -973  -1010  -998  -950  -892  -853  -843  -837  -799  -736  -767  -1032  -1456  -1654  -1156  367  2922  5860  7979  8301  6626  3503  -25  -2794  -4093  -4097  -3497  -2826  -2304  -1939  -1623  -1334  -1129  -995  -884  -791  -731  -700  -658  -544  -343  -131  0  40  37  31  44  88  150  186  210  320  536  752  918  1117  1437  1828  2131  2269  2307  2331  2344  2316  2248  2139  1987  1832  1707  1578  1391  1143  893  711  606  531  411  194  -73  -280  -376  -397  -402  -431  -508  -634  -769  -844  -826  -737  -617  -510  -447  -428  -448  -503  -577  -641  -690  -738  -770  -742  -656  -564  -509  -492  -495  -503  -502  -480  -432  -377  -338  -325  -325  -312  -268  -210  -182  -203  -244  -282  -326  -380  -416  -424  -454  -560  -698  -763  -747  -727  -751  -808  -855  -869  -854  -787  -678  -628  -704  -881  -1010  -736  245  1931  4045  6031  7132  6772  4891  2025  -861  -2854  -3613  -3434  -2852  -2286  -1866  -1469  -1051  -753  -658  -686  -737  -769  -772  -730  -632  -492  -364  -306  -320  -341  -247  57  476  787  897  892  869  864  884  928  979  1032  1132  1338  1617  1845  1952  1990  2039  2106  2156  2164  2138  2098  2021  1833  1524  1191  926  742  606  487  356  186  -16  -222  -395  -493  -514  -512  -527  -567  -632  -685  -692  -675  -674  -682  -668  -619  -559  -544  -575  -578  -511  -380  -229  -179  -290  -473  -620  -702  -739  -746  -706  -604  -466  -352  -300  -295  -303  -310  -313  -313  -308  -298  -291  -305  -359  -452  -560  -654  -698  -671  -588  -510  -502  -558  -620  -662  -703  -748  -776  -793  -883  -1191  -1687  -2033  -1897  -1037  806  3545  6420  8316  8378  6462  3197  -305  -2946  -4147  -4073  -3352  -2575  -2040  -1780  -1671  -1594  -1508  -1396  -1205  -904  -570  -324  -199  -147  -126  -134  -186  -286  -410  -516  -551  -461  -240  38  280  450  571  680  813  992  1222  1470  1670  1821  1978  2144  2255  2264  2162  1974  1745  1514  1319  1199  1155  1144  1092  919  623  293  16  -176  -302  -409  -518  -598  -636  -669  -736  -828  -903  -945  -966  -976  -978  -985  -1007  -1041  -1072  -1091  -1096  -1089  -1083  -1083  -1078  -1063  -1037  -963  -762  -428  -86  119  157  54  -160  -405  -566  -614  -601  -575  -545  -510  -472  -442  -419  -396  -378  -364  -345  -302  -241  -190  -165  -165  -202  -301  -454  -602  -696  -736  -745  -725  -658  -588  -695  -1159  -1865  -2258  -1663  152  2822  5626  7699  8348  7329  4952  2002  -722  -2683  -3533  -3367  -2773  -2246  -1856  -1525  -1244  -1052  -959  -909  -841  -750  -658  -566  -476  -378  -246  -92  25  116  245  403  513  555  567  572  566  559  584  683  877  1151  1463  1737  1915  2000  2047  2090  2105  2048  1923  1772  1633  1513  1378  1228  1108  1018  909  757  570  353  113  -116  -323  -543  -771  -933  -991  -977  -916  -821  -727  -670  -657  -675  -714  -751  -747  -689  -615  -584  -603  -630  -640  -645  -683  -764  -841  -844  -762  -643  -546  -495  -492  -531  -614  -739  -879  -974  -946  -718  -325  50  215  139  -51  -210  -291  -336  -376  -416  -458  -505  -568  -641  -704  -754  -801  -837  -846  -824  -786  -771  -783  -771  -713  -666  -704  -827  -968  -1123  -1339  -1406  -793  923  3641  6656  8863  9246  7508  4288  746  -2051  -3507  -3664  -3083  -2430  -2078  -1959  -1820  -1538  -1155  -782  -520  -395  -371  -388  -392  -338  -211  -60  57  142  239  340  381  346  280  229  242  334  491  719  1010  1279  1434  1462  1429  1419  1526  1796  2141  2403  2526  2549  2482  2275  1901  1468  1155  1012  931  794  574  319  84  -91  -179  -192  -199  -262  -389  -520  -601  -628  -625  -611  -607  -648  -769  -929  -1038  -1053  -1014  -966  -917  -864  -813  -767  -727  -704  -696  -687  -666  -646  -647  -668  -687  -684  -645  -575  -503  -461  -466  -525  -639  -774  -863  -841  -695  -493  -348  -301  -310  -331  -345  -339  -299  -225  -143  -80  -39  -27  -54  -116  -209  -327  -438  -523  -586  -599  -560  -525  -522  -529  -534  -541  -561  -588  -608  -612  -603  -606  -666  -809  -1051  -1372  -1552  -1206  -48  1965  4597  7177  8643  8162  5849  2618  -468  -2585  -3371  -3170  -2714  -2381  -2079  -1706  -1305  -954  -711  -581  -524  -507  -531  -596  -630  -542  -324  -54  181  355  483  574  626  651  667  685  708  737  763  800  879  1005  1168  1359  1562  1757  1939  2091  2183  2214  2212  2184  2114  2010  1909  1836  1783  1682  1409  934  437  123  -1  -60  -128  -204  -274  -353  -449  -546  -630  -693  -725  -729  -716  -698  -677  -656  -639  -632  -625  -621  -634  -672  -728  -792  -854  -904  -922  -900  -859  -810  -742  -672  -616  -582  -589  -598  -537  -438  -389  -441  -574  -685  -693  -648  -659  -776  -948  -1092  -1170  -1186  -1141  -1028  -880  -758  -678  -622  -598  -615  -626  -568  -427  -237  -54  50  38  -79  -268  -480  -673  -812  -877  -888  -881  -873  -866  -864  -871  -886  -902  -915  -930  -944  -947  -934  -914  -905  -929  -1013  -1082  -834  130  2036  4664  7265  8786  8413  6145  2830  -437  -2810  -3881  -3826  -3213  -2496  -1873  -1460  -1261  -1136  -979  -815  -700  -620  -521  -387  -254  -163  -119  -84  2  147  294  423  553  666  727  731  695  637  594  619  744  937  1117  1259  1412  1625  1904  2190  2400  2500  2518  2477  2364  2185  1976  1749  1480  1160  834  576  410  290  182  102  43  -39  -156  -270  -373  -483  -584  -657  -721  -811  -934  -1048  -1111  -1105  -1042  -945  -853  -789  -744  -707  -680  -662  -642  -622  -612  -614  -618  -616  -606  -591  -575  -563  -552  -543  -539  -543  -550  -561  -592  -652  -741  -841  -927  -987  -1008  -963  -857  -758  -720  -722  -717  -680  -618  -554  -504  -488  -526  -603  -672  -667  -542  -342  -172  -80  -36  0  29  27  -20  -98  -166  -199  -208  -219  -255  -304  -334  -333  -325  -367  -499  -675  -786  -790  -750  -738  -756  -731  -629  -631  -967  -1489  -1685  -1069  618  3261  6242  8553  9167  7652  4514  886  -2022  -3488  -3592  -2955  -2236  -1805  -1634  -1503  -1299  -1080  -930  -856  -824  -790  -717  -592  -421  -223  -37  87  145  160  137  104  122  198  304  420  535  654  777  891  1007  1195  1510  1876  2136  2227  2215  2176  2138  2107  2082  2063  2042  2009  1951  1847  1667  1401  1085  776  492  248  89  9  -57  -157  -284  -409  -528  -652  -767  -826  -801  -708  -581  -464  -407  -434  -543  -719  -906  -1015  -1025  -980  -917  -853  -803  -759  -703  -638  -579  -546  -539  -537  -506  -433  -359  -333  -345  -358  -358  -360  -396  -487  -602  -675  -687  -670  -650  -631  -596  -519  -391  -247  -139  -88  -97  -179  -341  -532  -670  -720  -700  -648  -629  -686  -771  -817  -824  -821  -822  -832  -847  -835  -740  -559  -445  -590  -967  -1201  -702  879  3363  6114  8135  8457  6791  3712  275  -2438  -3735  -3734  -3172  -2641  -2328  -2220  -2187  -2088  -1820  -1364  -885  -614  -606  -731  -847  -891  -829  -632  -348  -99  41  84  79  81  142  281  450  583  668  731  786  864  1021  1273  1560  1787  1914  1993  2073  2131  2115  2007  1842  1675  1533  1412  1320  1271  1231  1131  906  581  259  23  -125  -243  -401  -637  -910  -1120  -1216  -1233  -1229  -1234  -1248  -1260  -1262  -1244  -1192  -1092  -960  -832  -734  -673  -654  -681  -737  -784  -823  -881  -935  -955  -950  -947  -952  -958  -942  -870  -723  -546  -415  -354  -332  -323  -321  -323  -325  -328  -338  -357  -384  -416  -439  -435  -405  -375  -380  -465  -655  -897  -1080  -1136  -1054  -842  -577  -393  -382  -535  -765  -974  -1155  -1356  -1515  -1496  -1198  -488  782  2581  4626  6396  7281  6911  5284  2762  6  -2216  -3391  -3523  -3019  -2314  -1687  -1288  -1134  -1120  -1130  -1114  -1057  -957  -849  -782  -750  -665  -450  -139  142  308  359  346  325  330  369  440  537  655  773  863  938  1051  1241  1507  1816  2095  2284  2380  2410  2368  2229  2040  1896  1826  1797  1776  1739  1650  1474  1214  900  586  344  198  85  -61  -248  -451  -666  -868  -1003  -1053  -1049  -1026  -986  -919  -842  -791  -780  -789  -792  -768  -713  -660  -646  -663  -679  -684  -685  -684  -674  -648  -610  -587  -591  -602  -610  -599  -521  -372  -209  -70  37  73  -4  -175  -357  -484  -557  -596  -604  -601  -613  -632  -641  -641  -655  -698  -756  -780  -751  -710  -695  -690  -666  -613  -558  -578  -730  -987  -1251  -1281  -678  849  3195  5805  7803  8329  7066  4440  1229  -1748  -3715  -4340  -3921  -2967  -1952  -1279  -1046  -1028  -1001  -912  -787  -649  -532  -471  -464  -475  -459  -389  -285  -197  -146  -103  -21  125  296  408  440  443  487  612  801  998  1154  1252  1321  1423  1573  1744  1917  2067  2133  2086  1981  1903  1886  1887  1825  1641  1368  1063  726  360  37  -192  -359  -503  -627  -727  -810  -891  -989  -1090  -1136  -1097  -1011  -945  -911  -882  -838  -787  -734  -686  -654  -641  -638  -639  -639  -632  -613  -586  -570  -568  -569  -547  -492  -436  -416  -426  -440  -456  -492  -543  -583  -594  -563  -483  -364  -256  -200  -186  -166  -121  -88  -116  -220  -387  -561  -677  -741  -816  -917  -995  -999  -923  -800  -682  -657  -891  -1382  -1777  -1771  -1324  -350  1271  3421  5785  7822  8667  7668  5067  1814  -1078  -2920  -3580  -3455  -3024  -2528  -2038  -1627  -1386  -1304  -1273  -1225  -1139  -972  -707  -437  -280  -240  -233  -202  -169  -162  -123  27  243  401  456  457  472  540  668  818  947  1065  1197  1312  1377  1425  1519  1669  1824  1949  2039  2085  2071  1978  1797  1563  1338  1144  924  609  255  0  -112  -154  -197  -262  -337  -438  -600  -807  -1014  -1185  -1283  -1301  -1277  -1246  -1203  -1124  -1028  -964  -949  -944  -902  -807  -696  -633  -652  -703  -717  -692  -658  -621  -585  -553  -522  -498  -499  -537  -608  -687  -723  -689  -632  -603  -594  -546  -421  -261  -153  -119  -127  -142  -158  -201  -295  -419  -530  -604  -645  -663  -647  -596  -565  -609  -706  -797  -850  -876  -903  -930  -932  -886  -797  -711  -684  -805  -1140  -1487  -1307  -76  2325  5356  7941  9032  8131  5545  2232  -754  -2738  -3528  -3362  -2705  -1972  -1412  -1093  -953  -907  -892  -857  -789  -708  -624  -526  -424  -347  -305  -297  -316  -331  -295  -188  -45  80  211  440  770  1075  1241  1281  1275  1267  1249  1216  1206  1267  1420  1668  1983  2262  2383  2304  2076  1784  1522  1367  1321  1318  1277  1110  769  331  -41  -262  -376  -454  -532  -609  -660  -669  -653  -658  -744  -936  -1163  -1309  -1314  -1197  -1031  -917  -916  -1029  -1192  -1304  -1278  -1092  -834  -646  -583  -582  -575  -548  -522  -510  -506  -505  -504  -504  -505  -505  -501  -499  -506  -525  -547  -567  -595  -635  -679  -713  -734  -743  -744  -722  -656  -561  -482  -442  -430  -430  -430  -425  -407  -383  -365  -354  -330  -270  -190  -131  -109  -109  -116  -142  -203  -297  -389  -447  -468  -473  -481  -495  -515  -541  -563  -571  -559  -529  -497  -474  -467  -473  -515  -716  -1178  -1716  -1956  -1501  44  2704  5835  8429  9500  8492  5726  2213  -1022  -3254  -4138  -3859  -3007  -2170  -1608  -1247  -968  -742  -564  -411  -253  -120  -88  -142  -191  -211  -229  -245  -237  -189  -86  81  264  392  453  499  583  734  944  1153  1293  1370  1444  1551  1686  1855  2100  2412  2682  2818  2820  2710  2505  2259  2044  1891  1799  1766  1748  1623  1266  714  187  -128  -234  -248  -263  -299  -335  -344  -353  -435  -585  -711  -749  -722  -677  -644  -630  -632  -638  -619  -564  -503  -481  -481  -463  -417  -370  -339  -323  -308  -289  -274  -276  -309  -372  -445  -506  -551  -579  -583  -541  -435  -282  -147  -93  -149  -304  -496  -644  -710  -716  -702  -691  -694  -715  -743  -764  -775  -784  -804  -835  -850  -799  -653  -465  -329  -293  -349  -479  -640  -765  -826  -824  -771  -704  -667  -663  -662  -624  -530  -394  -260  -174  -146  -146  -146  -136  -141  -182  -245  -292  -308  -299  -290  -333  -481  -717  -938  -1056  -1079  -1064  -1049  -1041  -1051  -1106  -1195  -1229  -1147  -1042  -1059  -1116  -780  470  2783  5720  8297  9329  8179  5213  1464  -1832  -3704  -4038  -3458  -2655  -2048  -1717  -1526  -1351  -1149  -943  -789  -703  -654  -615  -581  -556  -535  -508  -447  -317  -125  67  217  315  382  442  513  617  753  875  944  976  1031  1152  1312  1452  1588  1796  2061  2272  2368  2375  2329  2238  2089  1888  1687  1545  1468  1391  1222  966  707  463  203  -45  -218  -315  -403  -534  -709  -888  -1027  -1102  -1119  -1104  -1077  -1045  -1015  -975  -908  -825  -746  -668  -581  -493  -410  -336  -280  -243  -219  -210  -236  -322  -452  -576  -660  -696  -669  -563  -406  -273  -216  -254  -391  -600  -798  -902  -891  -799  -705  -681  -706  -716  -701  -685  -658  -595  -511  -453  -434  -413  -348  -249  -166  -136  -177  -303  -475  -606  -659  -659  -631  -553  -388  -147  79  182  126  -21  -177  -310  -415  -480  -509  -543  -624  -733  -816  -856  -861  -817  -696  -525  -376  -283  -233  -283  -570  -1097  -1592  -1593  -628  1499  4420  7194  8703  8279  6080  2900  -253  -2493  -3458  -3458  -3019  -2467  -1954  -1582  -1384  -1287  -1182  -1022  -853  -725  -627  -527  -424  -337  -292  -304  -348  -360  -262  -19  277  476  531  504  469  492  636  900  1192  1409  1525  1595  1689  1854  2086  2311  2438  2441  2363  2268  2188  2118  2059  1995  1864  1654  1432  1237  1018  751  496  303  150  -28  -271  -525  -688  -735  -720  -694  -677  -684  -724  -787  -858  -940  -1031  -1104  -1146  -1159  -1133  -1055  -927  -773  -614  -469  -381  -370  -426  -536  -676  -789  -833  -819  -777  -721  -646  -577  -567  -614  -658  -655  -617  -578  -555  -540  -531  -538  -562  -579  -549  -453  -295  -103  57  130  104  13  -112  -258  -412  -531  -572  -544  -515  -534  -589  -644  -688  -731  -768  -783  -758  -692  -615  -557  -525  -510  -507  -543  -694  -973  -1197  -1164  -781  109  1646  3655  5676  7124  7347  5975  3321  258  -2264  -3613  -3743  -3141  -2373  -1751  -1377  -1224  -1156  -1042  -869  -713  -620  -576  -538  -483  -418  -363  -340  -345  -348  -343  -338  -303  -195  0  237  445  588  689  787  923  1089  1241  1371  1521  1706  1901  2093  2270  2398  2469  2507  2507  2399  2114  1708  1356  1180  1138  1081  894  590  275  16  -192  -362  -481  -555  -616  -682  -745  -801  -855  -899  -934  -967  -1010  -1079  -1158  -1212  -1228  -1228  -1228  -1217  -1168  -1071  -943  -829  -765  -737  -696  -611  -487  -352  -250  -209  -238  -334  -453  -540  -584  -606  -628  -663  -713  -763  -789  -757  -613  -336  -11  237  367  372  215  -108  -471  -702  -765  -745  -716  -704  -723  -784  -869  -929  -927  -868  -796  -754  -736  -716  -704  -712  -729  -751  -834  -1054  -1403  -1698  -1542  -515  1475  4115  6753  8526  8697  7087  4170  814  -2038  -3769  -4320  -3926  -2954  -1973  -1373  -1069  -854  -669  -535  -457  -426  -425  -439  -455  -456  -409  -289  -128  -3  42  35  12  -4  1  72  253  510  741  895  1026  1210  1449  1686  1888  2062  2206  2311  2366  2379  2369  2343  2290  2201  2100  2010  1910  1764  1568  1329  1046  751  503  305  93  -150  -354  -450  -460  -459  -501  -588  -687  -775  -848  -902  -938  -968  -993  -990  -952  -910  -871  -812  -751  -722  -724  -734  -737  -735  -740  -748  -752  -751  -760  -788  -829  -863  -879  -883  -883  -878  -859  -800  -675  -508  -368  -301  -304  -336  -359  -364  -365  -375  -388  -403  -442  -533  -640  -693  -677  -643  -624  -621  -644  -707  -796  -872  -913  -928  -919  -880  -839  -823  -834  -944  -1141  -1072  -235  1603  4222  6904  8554  8325  6282  3240  157  -2168  -3345  -3542  -3181  -2600  -2006  -1498  -1108  -859  -747  -698  -624  -521  -441  -398  -358  -303  -249  -203  -165  -141  -136  -140  -146  -156  -156  -78  154  496  797  989  1140  1322  1511  1625  1646  1639  1659  1701  1757  1840  1936  2007  2039  2031  1967  1836  1666  1500  1339  1146  894  584  249  -42  -259  -418  -528  -577  -577  -558  -550  -581  -671  -803  -931  -1023  -1048  -1003  -949  -952  -999  -1013  -913  -695  -458  -314  -290  -355  -475  -624  -763  -847  -868  -865  -865  -844  -754  -589  -420  -322  -284  -240  -165  -96  -85  -135  -197  -227  -246  -287  -340  -372  -372  -348  -306  -241  -160  -91  -59  -90  -194  -334  -442  -501  -540  -566  -546  -477  -408  -383  -406  -458  -524  -597  -670  -722  -750  -812  -951  -1119  -1229  -1163  -635  757  3120  5968  8382  9332  8184  5275  1748  -1232  -3010  -3548  -3298  -2811  -2336  -1863  -1418  -1059  -792  -605  -485  -408  -357  -328  -301  -248  -157  -44  80  222  345  390  367  340  337  343  344  343  356  400  485  649  940  1328  1685  1918  2041  2125  2210  2273  2288  2273  2242  2183  2095  1994  1892  1738  1463  1110  811  612  414  109  -246  -498  -609  -661  -721  -797  -862  -891  -889  -875  -862  -854  -850  -863  -917  -1026  -1155  -1239  -1254  -1236  -1220  -1207  -1174  -1101  -998  -897  -811  -732  -667  -642  -673  -745  -829  -907  -978  -1048  -1084  -1024  -879  -739  -670  -672  -704  -730  -723  -660  -535  -395  -305  -279  -282  -277  -269  -300  -410  -582  -752  -864  -900  -870  -812  -769  -758  -763  -765  -747  -701  -627  -544  -492  -522  -666  -876  -1035  -1041  -906  -799  -946  -1423  -1968  -1963  -844  1435  4421  7317  9107  8982  6945  3795  478  -2229  -3740  -3981  -3434  -2564  -1622  -945  -744  -804  -840  -797  -733  -679  -613  -517  -402  -283  -176  -98  -50  -12  23  41  38  44  118  297  531  718  806  832  892  1086  1404  1702  1871  1956  2069  2222  2341  2388  2399  2396  2340  2193  1999  1854  1794  1774  1725  1574  1268  809  291  -110  -294  -313  -276  -247  -252  -319  -459  -640  -808  -934  -1012  -1026  -964  -853  -745  -678  -659  -685  -736  -788  -828  -848  -830  -751  -633  -555  -562  -611  -651  -682  -714  -745  -764  -758  -689  -514  -275  -94  -55  -149  -323  -497  -614  -676  -707  -724  -743  -753  -731  -687  -638  -577  -494  -397  -311  -253  -217  -170  -96  -21  19  24  13  -2  -21  -54  -133  -274  -424  -509  -521  -514  -524  -555  -589  -611  -631  -647  -638  -602  -576  -616  -738  -849  -847  -834  -1004  -1236  -1073  -65  1977  4811  7577  9077  8512  6020  2538  -780  -3010  -3784  -3432  -2617  -1879  -1430  -1178  -995  -856  -743  -621  -490  -375  -296  -263  -269  -271  -251  -224  -189  -124  -6  146  275  346  378  408  473  593  744  870  948  998  1045  1131  1316  1602  1897  2098  2199  2232  2208  2147  2075  2023  2005  1972  1844  1602  1333  1145  1058  977  791  470  78  -273  -503  -630  -731  -843  -947  -1012  -1032  -1033  -1030  -1003  -925  -814  -723  -680  -674  -694  -749  -824  -836  -715  -506  -308  -172  -101  -105  -215  -439  -696  -867  -919  -908  -889  -884  -887  -879  -830  -722  -588  -493  -461  -465  -474  -487  -522  -577  -628  -654  -661  -662  -666  -670  -650  -585  -484  -380  -280  -188  -120  -81  -59  -59  -97  -170  -253  -317  -368  -438  -548  -673  -766  -804  -805  -806  -832  -870  -858  -768  -652  -556  -460  -336  -255  -394  -828  -1259  -1087  143  2387  5152  7659  8911  8196  5669  2156  -1242  -3472  -4105  -3565  -2601  -1771  -1329  -1221  -1230  -1198  -1074  -869  -661  -536  -499  -497  -491  -477  -463  -437  -345  -178  -9  107  189  275  395  543  693  845  1013  1181  1320  1436  1543  1638  1720  1804  1880  1948  2028  2120  2205  2278  2329  2338  2290  2160  1922  1599  1298  1113  1030  971  861  666  433  262  172  54  -198  -547  -844  -1008  -1078  -1117  -1139  -1129  -1106  -1106  -1135  -1157  -1126  -1030  -897  -766  -642  -537  -475  -454  -446  -446  -488  -599  -753  -844  -766  -555  -356  -247  -217  -252  -363  -561  -805  -1002  -1105  -1128  -1049  -803  -424  -83  95  138  108  24  -94  -222  -370  -549  -715  -817  -861  -886  -924  -975  -1016  -1041  -1062  -1083  -1089  -1064  -1003  -942  -916  -931  -984  -1095  -1267  -1429  -1459  -1256  -674  469  2203  4323  6339  7464  7063  5126  2191  -840  -3000  -3814  -3575  -2941  -2445  -2280  -2280  -2213  -2048  -1824  -1528  -1208  -1000  -949  -977  -991  -948  -842  -719  -645  -628  -595  -475  -288  -134  -60  -9  102  278  436  516  551  629  798  1014  1192  1314  1419  1526  1625  1685  1657  1559  1464  1415  1395  1345  1211  1022  855  710  502  218  -48  -243  -421  -667  -1023  -1456  -1841  -2055  -2105  -2092  -2080  -2061  -2003  -1916  -1848  -1822  -1814  -1795  -1768  -1756  -1771  -1794  -1788  -1731  -1650  -1593  -1575  -1576  -1576  -1575  -1594  -1674  -1852  -2114  -2368  -2524  -2560  -2468  -2221  -1895  -1662  -1631  -1780  -2007  -2193  -2277  -2268  -2207  -2147  -2123  -2135  -2153  -2148  -2135  -2140  -2175  -2225  -2270  -2302  -2321  -2326  -2329  -2364  -2474  -2674  -2907  -3076  -3140  -3110  -2963  -2681  -2428  -2495  -2826  -2868  -2101  -398  2032  4589  6304  6341  4568  1534  -1891  -4718  -6216  -6351  -5601  -4584  -3840  -3537  -3482  -3440  -3318  -3172  -3102  -3103  -3085  -2982  -2774  -2508  -2282  -2165  -2145  -2174  -2225  -2284  -2311  -2241  -2035  -1757  -1546  -1470  -1490  -1531  -1509  -1331  -974  -547  -207  -41  -20  -67  -111  -94  -12  78  119  92  31  -9  -24  -68  -206  -452  -762  -1050  -1237  -1326  -1398  -1525  -1678  -1762  -1750  -1707  -1684  -1675  -1662  -1641  -1628  -1644  -1690  -1742  -1790  -1820  -1792  -1703  -1604  -1501  -1351  -1176  -1046  -975  -908  -809  -689  -577  -503  -473  -449  -366  -204  -12  161  335  537  732  869  945  992  1051  1133  1213  1257  1258  1248  1301  1478  1741  1962  2075  2131  2190  2269  2346  2398  2427  2461  2540  2712  3006  3351  3632  3821  3947  4019  4041  4050  4157  4561  5478  7017  9008  10914  12190  12685  12362  10966  8615  6297  4988  4660  4674  4638  4556  4496]
