reading_id,reading_time,wire_id,result_classification,heart_rate,heart_rate_alert,firmware_version,device_app_version,hardware_version,waveform_samples
92a1fef0-58ad-11ed-8080-808080808080,Sun Oct 30 23:50:03 UTC 2022,a101e3f91939,NSR,85,NONE,20001.171.50,2.10.0,Charge 5,[-5006  -5398  -5496  -5273  -4817  -4112  -3060  -1516  672  3363  5875  7316  7118  5536  3641  2365  1935  2303  3197  3990  4291  4239  4068  3895  3752  3608  3470  3382  3367  3429  3558  3752  4019  4328  4599  4758  4773  4651  4418  4100  3728  3373  3101  2919  2814  2768  2734  2673  2612  2659  2899  3312  3808  4279  4617  4775  4785  4663  4383  3979  3568  3279  3164  3155  3113  2942  2674  2446  2340  2324  2338  2343  2303  2179  1985  1787  1615  1446  1280  1177  1205  1397  1690  1939  2052  2047  1975  1871  1757  1635  1521  1457  1483  1617  1873  2239  2651  3004  3245  3428  3729  4350  5198  5891  6209  6269  6246  6214  6186  6175  6180  6179  6149  6095  6073  6152  6272  6305  6258  6212  6187  6146  6070  5973  5873  5774  5669  5577  5509  5446  5389  5370  5393  5427  5404  5269  5064  4879  4699  4406  3948  3454  3083  2846  2676  2533  2372  2131  1835  1599  1518  1586  1714  1781  1701  1468  1162  882  686  593  574  565  509  385  216  65  -28  -76  -106  -120  -79  61  278  486  627  709  778  863  945  989  968  886  793  704  572  392  224  126  107  132  175  291  554  902  1154  1215  1133  991  831  643  441  286  211  183  162  116  29  -45  148  1063  2904  5304  7542  8830  8529  6598  3700  676  -1773  -3153  -3414  -2933  -2169  -1530  -1271  -1316  -1420  -1446  -1344  -1099  -776  -479  -265  -140  -101  -125  -171  -230  -317  -419  -493  -523  -521  -487  -407  -300  -222  -210  -261  -349  -428  -474  -498  -506  -469  -363  -242  -149  25  464  1137  1780  2218  2475  2608  2596  2405  2047  1610  1247  1022  830  522  68  -448  -889  -1159  -1276  -1323  -1359  -1417  -1528  -1694  -1896  -2122  -2340  -2494  -2586  -2650  -2697  -2745  -2829  -2955  -3074  -3146  -3154  -3062  -2839  -2550  -2333  -2259  -2299  -2391  -2482  -2538  -2554  -2541  -2510  -2469  -2429  -2404  -2404  -2447  -2538  -2645  -2729  -2780  -2802  -2795  -2753  -2616  -2308  -1909  -1616  -1505  -1514  -1576  -1671  -1782  -1889  -1987  -2081  -2159  -2216  -2237  -2177  -2003  -1757  -1524  -1330  -1143  -964  -847  -812  -845  -932  -1037  -1097  -1076  -1003  -929  -894  -924  -1035  -1200  -1337  -1362  -1283  -1166  -1048  -949  -892  -883  -912  -964  -1016  -1043  -1044  -1034  -1044  -1093  -1139  -1145  -1228  -1402  -1302  -616  613  2322  4388  6293  7321  6996  5287  2635  -232  -2579  -3939  -4271  -3789  -2837  -1879  -1256  -952  -772  -636  -588  -636  -679  -616  -458  -287  -163  -86  -6  108  240  360  473  600  725  804  798  702  557  436  389  433  576  784  983  1131  1231  1304  1378  1497  1683  1884  2019  2094  2187  2370  2648  2926  3074  3032  2819  2505  2217  2058  2003  1939  1751  1397  986  676  485  297  14  -315  -503  -467  -371  -406  -575  -718  -721  -659  -670  -759  -845  -879  -862  -810  -746  -701  -680  -666  -662  -717  -885  -1137  -1357  -1442  -1335  -1024  -622  -319  -191  -165  -169  -188  -239  -344  -488  -601  -637  -610  -554  -507  -486  -463  -410  -352  -347  -403  -464  -472  -408  -296  -186  -131  -168  -315  -518  -672  -723  -668  -502  -236  40  217  258  191  37  -193  -432  -593  -694  -831  -1005  -1084  -979  -756  -558  -441  -357  -240  -127  -130  -290  -542  -762  -788  -589  -425  -498  -583  -188  1045  3121  5638  7755  8506  7421  4797  1553  -1217  -2855  -3282  -2839  -2116  -1525  -1113  -842  -704  -649  -624  -603  -588  -613  -716  -869  -993  -1037  -1001  -925  -847  -780  -736  -713  -674  -569  -362  -83  176  338  401  414  427  459  494  494  467  485  572  683  826  1090  1512  1973  2302  2469  2551  2582  2549  2482  2436  2408  2317  2099  1807  1566  1409  1234  936  535  159  -84  -222  -392  -677  -1009  -1263  -1415  -1511  -1562  -1554  -1495  -1420  -1358  -1303  -1264  -1254  -1236  -1149  -976  -759  -578  -503  -602  -923  -1371  -1738  -1918  -1893  -1570  -890  -98  393  420  132  -219  -445  -509  -496  -480  -485  -516  -571  -627  -674  -723  -771  -796  -772  -681  -539  -406  -329  -291  -246  -177  -99  -44  -31  -33  -28  -32  -67  -125  -174  -192  -193  -204  -214  -200  -166  -144  -148  -158  -134  -59  20  30  -38  -133  -243  -398  -585  -733  -785  -746  -769  -1032  -1351  -1258  -461  1119  3326  5559  7128  7667  6983  5058  2379  -278  -2358  -3600  -4071  -4043  -3664  -3016  -2264  -1565  -1031  -670  -377  -100  98  184  189  161  133  118  90  19  -86  -187  -248  -253  -198  -79  85  237  324  349  372  446  563  686  810  935  1034  1113  1227  1390  1561  1705  1810  1890  1974  2074  2171  2243  2304  2376  2457  2540  2613  2636  2496  2074  1411  740  265  9  -120  -205  -268  -307  -322  -339  -422  -621  -884  -1089  -1184  -1210  -1207  -1185  -1148  -1099  -1022  -911  -814  -778  -793  -819  -810  -764  -707  -638  -555  -442  -291  -179  -190  -278  -379  -501  -626  -706  -736  -744  -746  -748  -751  -762  -772  -755  -697  -643  -661  -746  -782  -641  -334  -7  206  248  101  -152  -362  -461  -494  -521  -559  -602  -646  -683  -697  -692  -700  -736  -787  -843  -918  -1042  -1231  -1466  -1658  -1689  -1539  -1313  -1121  -991  -904  -906  -1119  -1551  -1970  -1995  -1210  631  3263  5873  7559  7666  6016  3226  333  -1951  -3400  -4022  -3920  -3326  -2593  -2051  -1843  -1877  -1982  -2034  -1910  -1504  -919  -425  -176  -131  -183  -256  -314  -350  -352  -295  -162  7  137  188  185  165  155  190  294  429  515  536  573  727  992  1249  1416  1539  1692  1908  2193  2490  2699  2777  2758  2705  2664  2642  2593  2442  2164  1831  1520  1229  932  652  458  378  381  398  382  335  283  232  160  43  -104  -237  -332  -411  -490  -560  -587  -494  -212  175  469  572  531  412  273  172  125  115  148  250  399  526  584  591  585  583  574  535  477  472  560  667  659  464  169  -47  -110  -87  -54  -37  -34  -41  -52  -62  -59  -23  67  207  351  442  471  466  451  425  391  364  337  278  181  52  -96  -278  -537  -848  -1093  -1208  -1235  -1225  -1198  -1160  -1122  -1085  -1054  -1073  -1214  -1475  -1665  -1607  -1459  -1482  -1652  -1697  -1227  29  1928  4004  5620  6131  5321  3426  867  -1746  -3705  -4542  -4299  -3438  -2583  -2174  -2152  -2157  -1953  -1546  -1116  -852  -772  -767  -781  -842  -963  -1079  -1124  -1095  -1035  -986  -926  -788  -593  -435  -363  -356  -368  -345  -239  -65  97  198  276  388  542  691  792  907  1155  1534  1888  2098  2185  2245  2356  2522  2698  2833  2867  2753  2488  2113  1694  1316  1060  933  884  876  888  885  832  710  554  414  283  109  -132  -415  -661  -806  -852  -829  -727  -527  -283  -79  60  152  234  343  453  504  477  375  239  132  83  81  148  320  559  745  815  807  770  700  563  386  255  217  236  262  272  285  325  351  240  -96  -519  -752  -720  -588  -499  -466  -448  -426  -407  -400  -402  -405  -403  -387  -360  -345  -364  -411  -457  -488  -532  -630  -758  -848  -883  -926  -1025  -1131  -1166  -1160  -1192  -1254  -1305  -1366  -1457  -1550  -1602  -1607  -1594  -1591  -1635  -1774  -2018  -2193  -1906  -841  960  3204  5420  6915  7024  5519  2782  -377  -3068  -4633  -4875  -4144  -3118  -2363  -2038  -1973  -1963  -1924  -1852  -1773  -1699  -1579  -1350  -1031  -740  -581  -543  -554  -561  -539  -461  -312  -137  -5  50  42  -6  -67  -104  -74  91  440  876  1210  1374  1456  1572  1738  1874  1923  1919  1916  1952  2056  2204  2320  2365  2369  2362  2322  2216  2071  1954  1871  1741  1489  1176  940  800  649  451  260  80  -130  -349  -537  -723  -923  -1080  -1153  -1168  -1161  -1116  -1000  -843  -728  -687  -686  -669  -598  -489  -386  -315  -275  -258  -271  -322  -421  -590  -807  -959  -949  -799  -619  -504  -469  -460  -435  -391  -345  -319  -318  -334  -349  -346  -329  -319  -332  -343  -301  -206  -157  -243  -440  -636  -772  -871  -960  -1021  -1024  -948  -790  -589  -416  -326  -309  -300  -251  -173  -113  -97  -120  -163  -217  -282  -352  -392  -384  -354  -333  -328  -329  -339  -382  -490  -666  -843  -888  -724  -445  -228  -153  -199  -341  -548  -745  -856  -819  -670  -639  -944  -1468  -1812  -1572  -506  1339  3622  5841  7319  7331  5699  2970  -2  -2349  -3476  -3442  -2804  -2069  -1463  -1062  -860  -760  -652  -525  -432  -400  -417  -465  -521  -570  -597  -583  -510  -380  -228  -105  -29  38  151  304  433  500  519  528  549  570  554  494  470  601  945  1447  1972  2368  2567  2623  2636  2654  2677  2690  2681  2638  2530  2320  2035  1771  1608  1522  1421  1247  1029  851  768  754  747  687  548  373  235  145  64  -31  -122  -174  -187  -207  -294  -456  -631  -752  -818  -863  -878  -825  -689  -523  -402  -351  -342  -350  -393  -499  -651  -789  -856  -832  -718  -558  -420  -337  -315  -396  -623  -940  -1199  -1313  -1314  -1273  -1217  -1141  -1035  -896  -781  -790  -941  -1141  -1292  -1363  -1382  -1392  -1419  -1465  -1512  -1536  -1517  -1460  -1380  -1305  -1263  -1254  -1246  -1202  -1122  -1035  -963  -902  -846  -799  -768  -762  -791  -857  -920  -921  -843  -722  -609  -544  -526  -528  -530  -531  -544  -575  -603  -604  -598  -627  -702  -813  -933  -1040  -1141  -1208  -1193  -1117  -1045  -976  -835  -621  -535  -794  -1271  -1494  -935  682  3134  5736  7605  7917  6385  3558  412  -2153  -3560  -3789  -3349  -2827  -2479  -2209  -1836  -1352  -895  -561  -329  -140  1  74  88  87  108  166  243  300  330  364  435  539  632  696  765  863  981  1092  1167  1225  1317  1481  1695  1880  1966  1964  1941  1945  1969  1992  2030  2152  2433  2857  3284  3560  3645  3568  3342  3016  2710  2515  2401  2276  2075  1769  1377  986  717  635  687  756  762  705  625  554  488  378  181  -45  -181  -174  -88  -13  16  14  0  -4  34  130  239  302  311  286  216  80  -98  -269  -444  -665  -901  -1059  -1111  -1104  -1075  -1013  -885  -719  -602  -578  -605  -631  -637  -629  -614  -601  -587  -576  -585  -639  -754  -935  -1158  -1350  -1412  -1292  -1035  -773  -613  -550  -521  -490  -445  -394  -363  -378  -456  -582  -726  -864  -983  -1078  -1119  -1038  -794  -458  -162  15  87  105  109  118  129  126  105  79  65  56  26  -53  -195  -381  -561  -670  -673  -597  -504  -433  -385  -352  -357  -451  -673  -989  -1281  -1402  -1358  -1343  -1406  -1270  -588  853  3069  5590  7392  7582  6038  3291  232  -2201  -3529  -3865  -3647  -3274  -2882  -2488  -2123  -1779  -1475  -1289  -1199  -1084  -891  -683  -537  -471  -460  -467  -472  -481  -519  -575  -622  -646  -649  -621  -528  -364  -175  -11  106  177  214  238  259  279  297  338  491  825  1235  1526  1664  1769  1906  2024  2065  2052  2059  2106  2154  2174  2173  2148  2032  1737  1303  887  580  383  256  104  -151  -444  -640  -702  -693  -660  -613  -558  -514  -489  -478  -502  -604  -788  -980  -1093  -1090  -968  -763  -553  -392  -277  -197  -146  -110  -79  -54  -29  -6  -9  -66  -180  -322  -452  -535  -554  -489  -327  -131  -42  -142  -371  -583  -686  -688  -623  -507  -354  -196  -78  -16  1  -16  -84  -217  -382  -520  -613  -675  -697  -661  -581  -500  -450  -433  -433  -436  -438  -439  -439  -437  -432  -422  -414  -430  -493  -594  -687  -725  -674  -526  -325  -143  -4  92  124  83  2  -70  -134  -226  -354  -495  -621  -671  -626  -580  -602  -651  -684  -724  -820  -973  -1114  -1179  -1187  -1272  -1551  -1828  -1615  -572  1304  3722  6013  7376  7253  5528  2641  -517  -2980  -4114  -3950  -3097  -2293  -1936  -1909  -1849  -1583  -1226  -962  -851  -825  -790  -688  -514  -331  -228  -243  -336  -441  -514  -533  -457  -242  44  254  323  312  297  327  437  607  767  884  1004  1169  1346  1492  1598  1676  1760  1926  2197  2474  2640  2681  2643  2555  2437  2328  2250  2199  2155  2088  1965  1761  1467  1117  802  596  503  479  452  365  222  32  -243  -572  -804  -822  -635  -363  -159  -87  -123  -230  -372  -497  -571  -612  -670  -766  -867  -913  -888  -828  -773  -722  -648  -519  -338  -142  28  141  186  180  154  122  77  -11  -171  -371  -534  -607  -592  -525  -457  -438  -499  -648  -873  -1095  -1202  -1151  -981  -740  -489  -316  -265  -314  -416  -508  -544  -506  -383  -187  16  152  201  192  137  22  -128  -248  -301  -316  -332  -351  -351  -335  -336  -388  -477  -544  -556  -537  -517  -504  -492  -454  -384  -364  -505  -795  -1066  -1088  -640  434  2146  4279  6291  7335  6729  4505  1423  -1498  -3449  -4062  -3565  -2609  -1791  -1365  -1247  -1199  -1072  -896  -765  -709  -681  -645  -603  -579  -578  -564  -491  -347  -175  -49  -8  -26  -56  -65  -18  107  260  354  362  352  448  739  1134  1423  1521  1506  1462  1420  1419  1567  1955  2470  2850  2984  2956  2850  2697  2540  2420  2329  2234  2138  2035  1851  1535  1165  852  586  329  122  -1  -113  -300  -540  -724  -806  -825  -825  -818  -788  -715  -623  -579  -614  -697  -767  -789  -751  -645  -488  -329  -226  -228  -366  -578  -746  -807  -794  -763  -737  -711  -666  -604  -545  -513  -531  -603  -696  -776  -813  -792  -728  -629  -504  -394  -339  -353  -448  -640  -887  -1090  -1186  -1192  -1151  -1095  -1028  -944  -850  -778  -751  -765  -799  -842  -902  -965  -967  -836  -585  -336  -196  -166  -186  -221  -281  -386  -514  -604  -627  -603  -564  -529  -501  -492  -524  -603  -697  -761  -779  -775  -764  -736  -684  -628  -652  -912  -1411  -1758  -1412  -16  2356  4981  6752  6928  5468  2867  -29  -2386  -3765  -4160  -3873  -3308  -2736  -2299  -2063  -1954  -1810  -1528  -1180  -941  -879  -914  -958  -979  -974  -935  -847  -711  -546  -392  -286  -254  -298  -389  -476  -521  -513  -443  -313  -141  37  184  277  322  356  421  547  755  1053  1427  1855  2257  2508  2580  2555  2511  2474  2422  2300  2088  1855  1684  1599  1568  1529  1414  1214  983  784  636  509  391  313  300  342  384  315  40  -355  -662  -775  -748  -655  -522  -384  -292  -272  -304  -355  -394  -375  -250  -29  197  326  300  101  -214  -516  -703  -768  -768  -752  -743  -743  -754  -773  -780  -744  -651  -504  -315  -121  27  95  59  -112  -388  -646  -790  -834  -837  -813  -719  -523  -270  -64  31  39  12  -15  -34  -43  -38  -17  -5  -63  -236  -472  -661  -767  -822  -825  -729  -531  -314  -179  -144  -164  -199  -225  -244  -283  -355  -453  -597  -890  -1436  -2016  -1990  -808  1452  4179  6587  7870  7478  5535  2721  -233  -2663  -3959  -3973  -3142  -2047  -1166  -749  -681  -726  -783  -834  -863  -850  -796  -720  -613  -461  -304  -202  -160  -128  -54  99  327  551  681  690  608  493  417  439  572  771  968  1130  1252  1330  1384  1440  1537  1719  1955  2142  2223  2239  2256  2305  2398  2518  2592  2581  2543  2505  2383  2099  1699  1344  1170  1128  989  558  -81  -622  -881  -927  -897  -838  -733  -610  -557  -628  -771  -883  -922  -908  -866  -816  -784  -808  -905  -1042  -1155  -1198  -1142  -952  -668  -426  -320  -336  -424  -556  -720  -877  -952  -915  -837  -798  -798  -806  -793  -756  -740  -828  -1000  -1127  -1153  -1136  -1120  -1089  -1017  -914  -811  -706  -593  -510  -519  -661  -903  -1129  -1245  -1239  -1140  -984  -803  -609  -412  -220  -59  26  25  -17  -53  -68  -70  -73  -101  -176  -286  -393  -466  -500  -509  -508  -502  -477  -428  -383  -363  -351  -316  -231  -113  -110  -422  -998  -1446  -1325  -375  1478  3945  6260  7546  7297  5525  2799  40  -2086  -3319  -3610  -3236  -2622  -1970  -1408  -1064  -899  -780  -657  -550  -489  -466  -427  -322  -176  -57  38  178  360  500  563  572  562  542  513  476  438  406  401  459  588  760  943  1113  1260  1398  1554  1741  1933  2095  2202  2257  2282  2283  2260  2244  2268  2308  2328  2321  2299  2245  2113  1881  1560  1180  815  543  348  148  -76  -263  -362  -387  -390  -410  -455  -518  -597  -678  -733  -755  -770  -816  -918  -1062  -1172  -1166  -1036  -853  -689  -562  -470  -416  -394  -383  -386  -448  -604  -825  -1028  -1147  -1173  -1169  -1177  -1146  -1007  -783  -597  -582  -719  -861  -921  -921  -910  -901  -887  -857  -791  -673  -542  -487  -539  -632  -698  -726  -739  -760  -793  -818  -799  -710  -564  -391  -196  3  149  190  132  28  -65  -127  -144  -54  195  534  788  848  701  388  25  -243  -357  -344  -287  -275  -331  -406  -458  -481  -478  -454  -411  -362  -327  -319  -299  -181  13  22  -390  -1056  -1534  -1437  -524  1185  3349  5474  7034  7446  6321  3883  946  -1587  -3087  -3407  -2968  -2373  -1964  -1783  -1688  -1526  -1277  -1004  -748  -515  -323  -215  -198  -237  -293  -326  -281  -120  99  263  326  335  321  253  99  -53  -55  117  339  506  602  646  678  749  860  972  1103  1284  1491  1706  1917  2077  2156  2163  2112  2018  1924  1912  2013  2086  1973  1726  1497  1338  1192  994  757  527  281  -50  -413  -660  -740  -725  -681  -615  -546  -550  -684  -878  -1012  -1052  -1049  -1040  -1017  -955  -861  -780  -744  -739  -744  -748  -757  -774  -793  -798  -764  -672  -551  -466  -440  -447  -457  -463  -496  -609  -812  -1047  -1238  -1331  -1318  -1213  -979  -597  -191  52  73  -68  -272  -457  -616  -777  -937  -1057  -1094  -1052  -970  -874  -790  -741  -708  -666  -620  -570  -490  -396  -324  -276  -241  -220  -212  -211  -219  -239  -237  -141  60  281  425  476  431  241  -95  -449  -673  -763  -793  -803  -803  -819  -896  -1056  -1246  -1361  -1340  -1199  -986  -747  -525  -419  -521  -787  -1094  -1210  -693  773  2959  5250  6917  7256  5983  3450  352  -2496  -4274  -4617  -3870  -2688  -1656  -1097  -954  -963  -944  -878  -781  -632  -437  -253  -125  -55  -16  14  32  33  29  54  128  225  289  318  378  515  663  713  663  607  597  626  728  961  1284  1572  1774  1924  2037  2103  2133  2161  2215  2292  2362  2403  2414  2416  2421  2414  2360  2226  2014  1768  1512  1214  886  626  495  434  339  162  -43  -188  -246  -254  -265  -320  -422  -558  -711  -842  -876  -775  -602  -456  -362  -268  -143  -33  16  17  7  1  -12  -55  -140  -248  -346  -415  -439  -433  -470  -562  -616  -556  -426  -326  -294  -295  -285  -256  -248  -287  -322  -293  -234  -224  -310  -472  -641  -754  -788  -736  -612  -457  -327  -239  -185  -157  -147  -145  -153  -178  -217  -256  -286  -303  -312  -331  -387  -496  -629  -740  -813  -845  -810  -668  -386  -35  221  311  301  264  211  136  55  -3  -37  -83  -188  -352  -522  -645  -703  -709  -698  -702  -737  -800  -875  -934  -955  -953  -993  -1083  -1084  -935  -846  -953  -1011  -575  720  2871  5290  7011  7224  5704  2961  -17  -2330  -3508  -3615  -3170  -2683  -2309  -2037  -1837  -1653  -1430  -1140  -856  -688  -647  -666  -696  -715  -692  -581  -382  -182  -70  -58  -105  -167  -219  -267  -319  -359  -360  -292  -151  28  206  365  506  632  746  844  941  1037  1116  1217  1421  1709  1963  2114  2180  2192  2190  2210  2231  2172  1971  1659  1348  1125  950  734  487  316  276  321  361  256  -120  -700  -1211  -1450  -1429  -1246  -981  -696  -464  -362  -410  -545  -685  -789  -846  -844  -780  -679  -589  -530  -465  -336  -158  -6  75  98  80  6  -136  -291  -373  -351  -253  -139  -47  20  59  67  56  41  32  32  41  47  22  -67  -223  -388  -490  -510  -468  -399  -369  -417  -503  -565  -587  -579  -542  -467  -373  -298  -260  -247  -250  -276  -351  -462  -554  -584  -552  -477  -387  -315  -268  -228  -174  -113  -84  -106  -152  -177  -168  -156  -164  -175  -168  -168  -255  -473  -693  -695  -457  -178  -28  -25  -99  -163  -179  -155  -109  -38  84  242  369  425  434  434  451  483  508  517  525  555  605  649  672  682  675  578  319  -33  -288  -337  -221  -54  60  95  87  75  69  73  109  206  316  242  -133  -533  -466  461  2433  5132  7636  8871  8191  5762  2523  -427  -2402  -3224  -3107  -2468  -1731  -1195  -901  -698  -500  -327  -170  -22  69  65  -33  -175  -285  -329  -309  -234  -117  28  194  359  493  566  557  487  410  352  308  279  268  265  277  336  489  752  1109  1494  1796  1943  1986  2034  2126  2222  2280  2304  2318  2326  2303  2197  1980  1710  1501  1418  1440  1499  1495  1326  983  564  178  -96  -237  -285  -292  -287  -301  -374  -526  -750  -1017  -1256  -1384  -1393  -1344  -1292  -1243  -1201  -1184  -1206  -1244  -1250  -1196  -1107  -1038  -1012  -1016  -1039  -1089  -1173  -1272  -1341  -1331  -1208  -998  -799  -703  -712  -762  -798  -824  -887  -1014  -1173  -1295  -1339  -1325  -1298  -1282  -1264  -1196  -1033  -810  -627  -538  -525  -541  -554  -557  -561  -576  -607  -649  -699  -780  -938  -1178  -1433  -1606  -1595  -1353  -992  -712  -567  -466  -347  -239  -172  -143  -141  -173  -262  -418  -620  -821  -965  -1027  -1034  -1018  -980  -912  -803  -627  -352  -21  254  390  375  253  98  -26  -93  -118  -135  -171  -233  -314  -397  -481  -579  -669  -675  -548  -346  -183  -108  -104  -188  -401  -690  -931  -1089  -1246  -1414  -1358  -669  912  3257  5789  7571  7665  5816  2799  -243  -2554  -3714  -3712  -3133  -2612  -2321  -2112  -1802  -1369  -929  -592  -413  -372  -403  -465  -540  -604  -629  -590  -504  -461  -507  -549  -473  -295  -101  67  198  272  292  287  274  249  219  242  373  565  697  744  828  1085  1486  1847  2044  2106  2119  2133  2159  2193  2250  2346  2441  2471  2435  2379  2288  2059  1626  1113  763  633  518  211  -224  -540  -623  -564  -468  -364  -274  -242  -295  -436  -648  -842  -940  -954  -938  -927  -928  -942  -964  -973  -926  -783  -586  -425  -333  -285  -258  -248  -262  -287  -284  -236  -186  -169  -172  -175  -184  -219  -268  -273  -208  -135  -109  -104  -77  -36  -21  -61  -123  -113  -5  124  204  227  220  202  149  20  -170  -345  -450  -483  -482  -494  -549  -626  -655  -597  -496  -407  -346  -317  -307  -263  -113  160  479  720  821  759  540  249  36  -40  -47  -55  -82  -121  -159  -186  -194  -169  -88  71  299  516  625  617  544  427  266  84  -97  -273  -440  -593  -743  -885  -985  -1034  -1064  -1095  -1070  -893  -657  -638  -848  -872  -269  1118  3142  5341  7037  7535  6476  4127  1199  -1543  -3482  -4354  -4307  -3669  -2829  -2180  -1814  -1503  -1127  -819  -675  -597  -453  -249  -93  -45  -89  -192  -312  -399  -417  -389  -373  -353  -236  -32  137  223  274  329  383  450  555  693  830  949  1050  1131  1235  1438  1738  2036  2244  2339  2351  2334  2334  2387  2496  2616  2670  2585  2344  2031  1749  1496  1230  994  842  756  683  607  520  374  122  -186  -441  -612  -734  -812  -838  -834  -819  -775  -679  -555  -468  -455  -503  -569  -594  -561  -523  -517  -541  -594  -651  -692  -714  -710  -680  -644  -611  -598  -664  -873  -1171  -1381  -1336  -996  -520  -169  -46  -80  -201  -382  -568  -696  -755  -773  -773  -750  -709  -699  -779  -927  -1043  -1059  -981  -864  -760  -676  -601  -544  -492  -417  -333  -270  -237  -244  -281  -307  -297  -249  -184  -137  -123  -128  -133  -123  -94  -51  -8  36  84  117  90  -24  -186  -316  -375  -382  -374  -370  -377  -401  -466  -612  -852  -1122  -1306  -1268  -1020  -810  -660  -146  962  2458  4072  5474  6178  5767  4207  1857  -710  -2813  -3931  -4054  -3583  -2946  -2398  -2012  -1720  -1466  -1287  -1197  -1101  -915  -674  -482  -390  -359  -335  -314  -302  -275  -227  -176  -132  -72  19  121  196  240  268  288  314  375  499  667  819  911  956  998  1090  1307  1677  2079  2350  2455  2463  2434  2404  2405  2444  2494  2517  2484  2360  2096  1706  1291  943  691  536  454  379  250  38  -254  -560  -777  -863  -865  -842  -829  -846  -908  -996  -1066  -1095  -1105  -1124  -1159  -1182  -1156  -1089  -1022  -966  -897  -778  -593  -395  -268  -232  -242  -256  -258  -251  -239  -222  -203  -192  -193  -186  -144  -70  -9  -16  -82  -152  -203  -263  -351  -438  -487  -502  -499  -483  -459  -422  -353  -265  -206  -209  -258  -293  -280  -236  -195  -164  -137  -103  -65  -52  -103  -187  -220  -157  -19  139  270  354  393  392  349  248  90  -77  -190  -248  -306  -373  -397  -358  -328  -388  -543  -715  -786  -684  -478  -312  -248  -245  -280  -393  -595  -819  -1031  -1271  -1466  -1284  -279  1736  4432  7004  8420  7964  5705  2415  -869  -3238  -4195  -3863  -2913  -2100  -1742  -1697  -1728  -1710  -1634  -1506  -1308  -1043  -749  -446  -173  -4  50  53  56  68  81  90  92  78  38  -14  -19  92  332  620  867  1029  1104  1127  1138  1157  1186  1247  1373  1578  1842  2105  2293  2389  2430  2460  2512  2588  2655  2669  2609  2488  2346  2209  2059  1827  1454  1009  644  418  283  157  -32  -271  -450  -493  -442  -389  -402  -514  -730  -1003  -1231  -1332  -1303  -1192  -1048  -904  -796  -739  -713  -684  -649  -618  -594  -582  -592  -632  -683  -712  -711  -720  -780  -856  -846  -734  -607  -522  -470  -429  -382  -328  -277  -239  -222  -245  -299  -357  -409  -459  -507  -563  -629  -703  -797  -906  -983  -1005  -1002  -1011  -1034  -1051  -1047  -1019  -962  -870  -774  -714  -698  -704  -712  -717  -719  -722  -722  -712  -682  -645  -610  -560  -474  -369  -251  -104  14  6  -142  -345  -487  -530  -518  -498  -495  -531  -621  -769  -972  -1189  -1336  -1323  -1096  -705  -320  -122  -235  -670  -1167  -1385  -1311  -972  -69  1610  3866  6208  7857  7975  6332  3492  337  -2345  -3979  -4319  -3624  -2538  -1680  -1291  -1174  -1058  -878  -701  -581  -508  -444  -371  -301  -260  -251  -246  -234  -225  -212  -151  21  304  580  733  765  749  734  726  714  699  699  739  828  966  1133  1294  1427  1537  1627  1696  1770  1877  2069  2410  2834  3134  3189  3048  2846  2696  2601  2483  2276  1974  1620  1262  970  803  721  606  390  132  -72  -205  -320  -437  -516  -535  -516  -490  -475  -477  -496  -541  -618  -697  -726  -676  -574  -476  -401  -328  -259  -229  -259  -354  -522  -736  -919  -1019  -1051  -1053  -1026  -955  -857  -784  -745  -669  -504  -295  -140  -75  -78  -169  -381  -652  -843  -900  -876  -838  -816  -821  -858  -911  -947  -919  -802  -635  -502  -446  -450  -487  -551  -648  -758  -835  -838  -761  -631  -508  -433  -408  -414  -434  -456  -480  -506  -531  -552  -565  -575  -626  -769  -978  -1152  -1218  -1123  -832  -434  -130  -15  -16  -30  -22  -25  -85  -199  -328  -467  -617  -750  -867  -982  -1059  -1060  -1006  -973  -994  -1005  -941  -829  -700  -538  -415  -504  -856  -1235  -1097  88  2352  5101  7373  8212  7153  4569  1427  -1246  -2790  -3195  -2917  -2370  -1857  -1569  -1411  -1236  -1055  -902  -764  -637  -509  -382  -296  -274  -289  -304  -273  -163  2  153  243  268  225  124  27  19  119  268  401  487  550  634  732  801  855  963  1151  1373  1554  1654  1725  1890  2192  2526  2775  2919  2984  2955  2807  2598  2427  2319  2219  2083  1912  1707  1462  1167  808  417  114  -21  -47  -85  -205  -404  -652  -891  -1035  -1038  -932  -787  -635  -489  -413  -425  -446  -431  -414  -447  -551  -684  -769  -763  -675  -561  -486  -465  -457  -415  -339  -302  -358  -456  -530  -603  -733  -911  -1041  -1017  -794  -455  -158  19  86  29  -107  -212  -257  -290  -336  -399  -466  -518  -544  -553  -555  -553  -530  -464  -373  -304  -280  -286  -298  -302  -295  -274  -248  -248  -295  -363  -432  -504  -562  -585  -581  -569  -559  -553  -552  -556  -564  -566  -541  -471  -376  -300  -258  -237  -225  -217  -201  -174  -141  -103  -69  -38  1  40  47  0  -83  -130  -120  -140  -220  -299  -373  -487  -650  -833  -986  -1066  -1080  -1069  -1075  -1104  -1098  -995  -845  -715  -608  -485  -76  1001  2789  4941  6852  7728  6990  4712  1606  -1331  -3237  -3798  -3370  -2636  -2140  -2038  -2124  -2078  -1722  -1156  -664  -406  -314  -277  -265  -280  -303  -314  -316  -321  -324  -290  -163  85  371  565  635  634  622  638  702  779  809  772  707  662  651  666  730  884  1103  1327  1574  1904  2299  2658  2881  2955  2945  2911  2864  2783  2670  2570  2493  2373  2147  1830  1480  1127  781  460  183  -40  -212  -347  -479  -618  -734  -805  -842  -853  -813  -688  -501  -341  -271  -271  -296  -335  -397  -487  -601  -725  -828  -876  -860  -813  -758  -679  -555  -419  -322  -275  -249  -229  -224  -232  -242  -253  -271  -290  -277  -207  -98  -25  -54  -163  -268  -362  -511  -701  -825  -804  -664  -475  -305  -197  -154  -154  -184  -250  -334  -394  -413  -405  -393  -401  -453  -557  -699  -841  -925  -883  -689  -425  -235  -177  -199  -243  -308  -452  -707  -990  -1163  -1131  -891  -555  -305  -212  -202  -201  -192  -173  -117  -2  177  383  519  490  275  -22  -235  -299  -279  -253  -275  -376  -531  -683  -799  -883  -953  -1037  -1131  -1169  -1099  -975  -873  -833  -876  -938  -948  -920  -712  82  1733  3995  6223  7630  7507  5643  2640  -463  -2887  -4275  -4577  -4124  -3355  -2458  -1588  -933  -485  -168  -26  -87  -248  -373  -414  -408  -396  -391  -390  -383  -356  -328  -322  -300  -208  -75  32  110  184  269  364  463  560  671  828  1001  1098  1091  1050  1054  1137  1313  1565  1835  2088  2362  2654  2879  2981  3003  3000  2979  2902  2743  2526  2314  2150  1972  1643  1137  604  203  -16  -89  -86  -67  -53  -50  -68  -127  -229  -352  -452  -498  -494  -471  -453  -454  -502  -627  -800  -956  -1078  -1184  -1254  -1254  -1176  -1030  -812  -503  -166  63  101  -24  -199  -290  -276  -228  -200  -185  -180  -233  -406  -658  -855  -900  -802  -653  -535  -455  -379  -303  -248  -224  -232  -267  -322  -383  -420  -408  -334  -227  -137  -106  -168  -350  -584  -698  -587  -323  -100  -46  -135  -263  -358  -408  -424  -410  -337  -183  -13  68  50  -15  -96  -164  -200  -223  -247  -254  -219  -148  -69  5  67  108  136  168  190  166  66  -103  -297  -458  -599  -766  -939  -1047  -1072  -1061  -1071  -1133  -1234  -1352  -1497  -1618  -1548  -1261  -980  -716  -27  1467  3666  6055  7755  7849  6150  3348  368  -2087  -3613  -4189  -4130  -3743  -3118  -2324  -1603  -1199  -1098  -1123  -1143  -1124  -1051  -862  -511  -121  53  -113  -476  -780  -907  -877  -693  -367  -12  227  320  334  329  322  311  305  333  399  459  493  538  646  854  1189  1619  2063  2481  2853  3112  3218  3165  2944  2603  2280  2085  2011  1998  2014  2040  2015  1851  1518  1094  746  586  571  592  573  476  300  83  -110  -234  -294  -345  -444  -591  -733  -841  -938  -1059  -1187  -1244  -1171  -989  -791  -653  -580  -520  -443  -370  -367  -465  -597  -681  -713  -714  -659  -513  -316  -171  -121  -125  -141  -165  -196  -207  -181  -159  -186  -254  -321  -373  -415  -445  -445  -413  -403  -456  -522  -555  -574  -589  -593  -585  -565  -531  -486  -441  -409  -379  -323  -248  -192  -183  -215  -257  -286  -303  -336  -399  -476  -525  -475  -292  -44  145  230  245  245  262  297  324  308  226  81  -90  -233  -299  -307  -326  -378  -428  -451  -459  -486  -560  -684  -817  -903  -936  -968  -1018  -1002  -830  -668  -776  -960  -565  832  3047  5543  7449  7745  6206  3577  695  -1816  -3411  -3983  -3955  -3669  -3188  -2644  -2176  -1770  -1378  -977  -603  -349  -241  -211  -199  -210  -292  -465  -674  -833  -896  -855  -699  -440  -154  48  129  132  116  108  111  137  225  404  639  842  965  1035  1081  1095  1111  1228  1465  1708  1854  1910  1935  1992  2118  2292  2464  2576  2554  2327  1908  1441  1078  834  646  487  348  208  50  -160  -417  -633  -756  -803  -786  -731  -695  -717  -807  -927  -1013  -1042  -1041  -1041  -1043  -1014  -925  -790  -675  -620  -616  -636  -659  -669  -657  -637  -619  -592  -547  -471  -360  -267  -281  -390  -471  -445  -349  -271  -248  -255  -263  -272  -298  -349  -411  -444  -420  -367  -343  -367  -406  -425  -420  -418  -438  -470  -498  -502  -450  -302  -96  67  126  111  78  36  -28  -104  -155  -165  -155  -146  -144  -136  -95  -11  62  34  -131  -388  -646  -812  -862  -868  -915  -1004  -1054  -1009  -943  -1053  -1411  -1744  -1715  -1191  -105  1533  3525  5508  6943  7183  5871  3331  415  -1975  -3310  -3663  -3437  -2999  -2634  -2407  -2159  -1845  -1591  -1453  -1349  -1117  -648  -77  320  446  420  370  336  315  307  309  312  300  256  191  138  127  182  308  463  582  648  701  769  847  954  1136  1397  1689  1978  2245  2449  2554  2582  2578  2567  2541  2491  2413  2302  2160  1996  1809  1600  1388  1169  909  640  457  397  416  435  358  105  -270  -603  -793  -863  -879  -885  -892  -900  -900  -883  -843  -784  -714  -642  -573  -517  -495  -514  -558  -597  -613  -602  -574  -532  -462  -369  -288  -253  -262  -307  -385  -478  -539  -527  -438  -330  -280  -301  -341  -364  -377  -393  -413  -429  -438  -451  -482  -533  -581  -609  -617  -612  -601  -572  -487  -313  -94  71  142  130  23  -194  -449  -631  -708  -715  -692  -678  -708  -785  -861  -875  -832  -769  -622  -284  184  565  742  772  700  504  223  -31  -185  -245  -262  -304  -407  -558  -699  -774  -784  -784  -844  -996  -1172  -1244  -1187  -1073  -938  -808  -800  -902  -721  189  1858  4001  6144  7462  7228  5411  2590  -368  -2620  -3689  -3647  -3051  -2518  -2299  -2279  -2215  -1873  -1216  -509  -50  129  183  207  199  130  0  -155  -303  -445  -572  -653  -669  -604  -429  -135  208  493  671  754  771  757  759  827  985  1206  1410  1527  1554  1537  1515  1513  1563  1702  1927  2165  2315  2352  2334  2332  2391  2508  2638  2722  2689  2449  1988  1426  924  566  343  172  -44  -298  -479  -541  -533  -508  -475  -435  -395  -351  -299  -270  -349  -603  -952  -1214  -1313  -1325  -1329  -1315  -1209  -1001  -772  -583  -425  -285  -172  -102  -83  -111  -151  -168  -168  -176  -211  -270  -337  -421  -541  -684  -801  -847  -810  -709  -578  -455  -363  -301  -254  -214  -180  -163  -176  -235  -341  -467  -572  -648  -723  -802  -825  -757  -667  -631  -646  -664  -627  -496  -299  -131  -54  -46  -64  -88  -119  -150  -171  -191  -235  -310  -410  -534  -670  -784  -851  -892  -936  -991  -1060  -1139  -1171  -1106  -994  -916  -891  -888  -861  -807  -794  -807  -662  -124  991  2774  4998  6916  7502  6218  3481  258  -2505  -4116  -4442  -3961  -3187  -2355  -1604  -1044  -709  -568  -525  -481  -404  -315  -243  -194  -178  -227  -375  -570  -688  -650  -469  -210  36  187  230  234  251  266  250  230  281  457  771  1200  1651  1987  2137  2151  2100  2006  1888  1809  1846  2047  2344  2582  2670  2637  2552  2465  2396  2332  2225  2029  1757  1489  1287  1147  1049  985  907  737  473  223  62  -54  -200  -398  -627  -815  -892  -856  -750  -625  -535  -501  -507  -531  -561  -588  -598  -560  -442  -279  -151  -107  -145  -249  -394  -556  -721  -852  -901  -837  -666  -456  -305  -252  -268  -311  -356  -396  -447  -529  -619  -660  -646  -620  -628  -698  -816  -906  -878  -713  -495  -333  -267  -275  -353  -522  -741  -910  -981  -982  -943  -889  -838  -785  -701  -542  -334  -164  -73  -42  -47  -81  -130  -167  -177  -182  -198  -215  -220  -210  -210  -260  -360  -456  -491  -488  -505  -558  -635  -735  -842  -907  -888  -785  -668  -612  -610  -616  -527  -13  1234  3068  5057  6673  7170  6041  3596  670  -1926  -3591  -4077  -3682  -2953  -2239  -1691  -1369  -1195  -1050  -901  -776  -696  -657  -634  -595  -546  -515  -495  -426  -269  -77  55  100  103  108  141  205  286  381  514  690  833  883  855  745  565  415  397  551  846  1206  1564  1894  2180  2428  2653  2835  2931  2938  2895  2846  2819  2795  2666  2314  1769  1210  804  590  489  395  272  157  61  -63  -243  -437  -570  -625  -641  -653  -666  -672  -671  -662  -649  -638  -636  -650  -684  -749  -842  -937  -1032  -1137  -1167  -962  -489  49  389  445  289  19  -282  -537  -681  -712  -693  -676  -674  -679  -682  -686  -703  -736  -757  -732  -655  -563  -518  -554  -630  -717  -846  -999  -1077  -1007  -822  -592  -359  -163  -56  -32  -27  -5  22  33  25  1  -63  -190  -358  -508  -595  -608  -593  -604  -638  -661  -664  -659  -662  -681  -708  -729  -744  -769  -806  -839  -850  -829  -781  -759  -902  -1286  -1686  -1760  -1364  -458  945  2705  4627  6311  7086  6462  4446  1515  -1486  -3711  -4643  -4330  -3369  -2375  -1673  -1356  -1276  -1209  -1062  -865  -696  -605  -576  -560  -519  -457  -410  -400  -416  -425  -373  -203  90  418  658  764  773  703  533  308  156  177  366  621  835  1017  1223  1435  1616  1786  1976  2182  2365  2488  2551  2592  2653  2727  2724  2568  2318  2095  1959  1873  1778  1664  1528  1308  938  502  177  34  7  0  -76  -274  -571  -878  -1123  -1302  -1426  -1480  -1462  -1390  -1251  -1033  -790  -625  -563  -537  -501  -458  -424  -403  -394  -413  -485  -615  -775  -917  -1005  -1049  -1075  -1066  -976  -798  -597  -442  -331  -262  -249  -279  -305  -286  -225  -162  -119  -104  -121  -169  -242  -329  -414  -503  -603  -667  -663  -632  -613  -599  -580  -551  -500  -407  -263  -122  -75  -127  -211  -291  -344  -359  -359  -393  -488  -618  -722  -769  -762  -718  -653  -589  -542  -520  -516  -516  -504  -480  -454  -432  -429  -491  -670  -1006  -1379  -1362  -584  933  3030  5344  7137  7718  6773  4445  1419  -1321  -3061  -3641  -3347  -2690  -2132  -1836  -1683  -1485  -1196  -921  -745  -651  -556  -395  -198  -45  42  83  93  91  85  73  57  42  28  18  16  49  140  281  468  722  1004  1201  1269  1263  1237  1201  1183  1289  1627  2114  2503  2661  2653  2582  2494  2419  2379  2379  2413  2470  2525  2525  2385  2060  1663  1386  1295  1279  1149  775  258  -156  -377  -502  -606  -678  -702  -698  -688  -675  -638  -562  -465  -399  -413  -520  -670  -783  -819  -812  -813  -864  -970  -1089  -1158  -1119  -952  -726  -563  -511  -526  -555  -583  -607  -619  -604  -573  -537  -498  -459  -436  -436  -455  -483  -503  -513  -531  -569  -621  -669  -691  -690  -706  -747  -776  -758  -670  -523  -363  -255  -247  -330  -456  -578  -661  -693  -690  -678  -674  -677  -670  -630  -546  -425  -295  -192  -132  -108  -100  -84  -61  -54  -94  -192  -328  -456  -537  -567  -574  -582  -595  -593  -556  -505  -514  -617  -749  -837  -868  -857  -816  -714  -496  -209  -36  -184  -609  -881  -545  550  2333  4522  6490  7446  6890  4897  1994  -986  -3128  -3932  -3570  -2587  -1533  -768  -436  -489  -680  -787  -792  -765  -736  -680  -581  -486  -456  -467  -462  -449  -451  -397  -178  177  476  572  511  415  357  375  453  523  550  559  589  667  796  953  1121  1294  1458  1586  1684  1784  1893  2032  2281  2669  3069  3308  3312  3102  2760  2408  2103  1770  1333  859  504  326  253  174  26  -168  -337  -433  -466  -486  -540  -635  -729  -781  -794  -793  -790  -771  -723  -670  -702  -908  -1256  -1613  -1891  -2039  -1965  -1651  -1246  -920  -705  -563  -477  -440  -441  -491  -603  -741  -838  -866  -856  -849  -865  -886  -874  -830  -791  -777  -779  -777  -760  -732  -714  -727  -779  -840  -857  -796  -658  -485  -351  -300  -345  -500  -730  -937  -1049  -1071  -1015  -883  -716  -594  -549  -549  -555  -554  -567  -621  -718  -826  -917  -985  -1022  -1018  -964  -866  -736  -560  -342  -145  -30  8  6  -18  -43  -44  -9  56  137  215  257  195  -22  -328  -547  -549  -334  -27  188  205  43  -186  -348  -370  -271  -122  -23  -69  -303  -630  -851  -817  -549  -304  -442  -1000  -1513  -1405  -423  1325  3501  5638  7173  7537  6501  4361  1693  -862  -2646  -3317  -3124  -2624  -2233  -2051  -1935  -1724  -1400  -1081  -891  -840  -832  -760  -593  -385  -178  53  298  475  535  481  317  92  -87  -164  -166  -149  -143  -112  26  301  607  794  827  798  834  1019  1318  1603  1796  1901  1946  1953  1949  1963  2023  2126  2250  2373  2472  2512  2479  2385  2243  2017  1644  1166  753  532  471  472  470  431  300  41  -295  -596  -776  -841  -840  -792  -686  -558  -493  -535  -632  -716  -768  -795  -789  -741  -664  -591  -551  -551  -583  -618  -634  -631  -626  -626  -624  -614  -594  -586  -612  -659  -685  -651  -548  -427  -356  -343  -346  -340  -329  -350  -437  -582  -728  -814  -824  -772  -699  -651  -637  -613  -535  -420  -327  -282  -262  -242  -238  -322  -561  -895  -1161  -1278  -1285  -1221  -1075  -868  -680  -553  -452  -352  -278  -253  -267  -293  -293  -230  -97  77  248  368  410  335  99  -243  -528  -652  -649  -589  -522  -470  -436  -429  -474  -589  -751  -901  -964  -915  -798  -679  -598  -576  -613  -700  -808  -875  -869  -770  -420  495  2198  4411  6371  7219  6422  4186  1382  -1059  -2546  -2991  -2816  -2516  -2281  -2025  -1654  -1263  -1005  -902  -876  -873  -883  -865  -756  -551  -318  -123  17  139  274  411  509  549  537  489  400  261  101  -10  -41  -15  46  181  449  827  1180  1393  1465  1485  1569  1789  2075  2277  2342  2330  2308  2300  2310  2339  2377  2401  2382  2299  2159  2004  1872  1758  1630  1461  1201  809  330  -95  -351  -445  -460  -466  -493  -543  -618  -734  -861  -914  -823  -603  -351  -170  -91  -83  -119  -217  -404  -657  -890  -1022  -1044  -987  -888  -785  -712  -690  -731  -803  -814  -710  -519  -322  -205  -187  -214  -245  -293  -378  -477  -535  -531  -494  -462  -449  -455  -478  -522  -589  -664  -681  -590  -437  -315  -251  -216  -184  -157  -153  -194  -289  -409  -511  -573  -591  -567  -524  -509  -550  -628  -696  -732  -751  -777  -796  -754  -601  -356  -125  -21  -101  -350  -689  -1001  -1212  -1334  -1337  -1151  -982  -1150  -1461  -1310  -255  1786  4378  6578  7445  6572  4274  1346  -1370  -3248  -4117  -4261  -3950  -3308  -2556  -1949  -1575  -1380  -1305  -1311  -1337  -1273  -1018  -619  -268  -94  -62  -78  -87  -89  -106  -163  -244  -304  -310  -266  -199  -135  -81  -35  4  37  85  254  666  1228  1676  1888  1937  1904  1837  1786  1787  1842  1927  2038  2219  2496  2831  3130  3246  3022  2438  1730  1231  1043  1003  910  693  410  174  50  -1  -96  -316  -615  -877  -1047  -1162  -1292  -1455  -1588  -1617  -1514  -1302  -1062  -888  -805  -775  -762  -762  -779  -790  -781  -798  -864  -931  -963  -974  -1002  -1055  -1070  -986  -839  -698  -591  -519  -484  -498  -598  -795  -1004  -1100  -1031  -858  -667  -490  -361  -333  -398  -493  -554  -501  -325  -132  -12  42  31  -139  -548  -1070  -1433  -1463  -1155  -651  -196  54  130  131  116  104  102  121  168  217  225  184  106  -21  -198  -387  -547  -668  -731  -676  -484  -256  -121  -156  -352  -571  -694  -750  -766  -722  -645  -575  -606  -814  -974  -665  408  2330  4774  6931  7934  7290  5113  2111  -752  -2732  -3617  -3675  -3296  -2782  -2294  -1832  -1369  -948  -646  -472  -373  -305  -261  -220  -145  -23  100  156  118  38  -25  -57  -58  -23  59  204  378  514  600  659  692  692  673  682  791  1048  1401  1706  1857  1873  1843  1829  1891  2098  2436  2767  2952  2972  2882  2737  2571  2409  2284  2204  2120  1954  1680  1371  1123  971  877  776  602  313  -34  -308  -430  -449  -452  -474  -493  -489  -475  -479  -520  -614  -756  -900  -980  -962  -850  -704  -608  -579  -545  -442  -293  -181  -144  -149  -156  -153  -146  -138  -115  -53  30  94  118  107  66  6  -49  -86  -113  -136  -152  -158  -161  -159  -149  -132  -133  -174  -213  -196  -142  -98  -82  -105  -152  -145  -28  150  288  343  351  356  367  361  297  173  39  -59  -93  -25  113  242  341  460  604  706  703  590  430  311  255  205  118  21  -47  -90  -142  -223  -320  -399  -397  -270  -67  100  194  260  308  271  109  -157  -436  -473  59  1323  3229  5367  7001  7396  6215  3793  1005  -1301  -2628  -2873  -2437  -1978  -1777  -1563  -1100  -546  -153  12  25  -38  -153  -303  -450  -554  -579  -501  -346  -186  -87  -40  11  118  277  425  488  450  363  292  260  252  251  264  323  456  618  727  795  927  1175  1476  1751  1978  2168  2312  2390  2403  2360  2252  2074  1880  1755  1733  1776  1800  1672  1285  707  160  -197  -356  -381  -353  -352  -438  -622  -848  -1048  -1222  -1386  -1511  -1572  -1589  -1589  -1557  -1443  -1213  -942  -767  -767  -938  -1246  -1579  -1748  -1633  -1280  -843  -492  -368  -490  -722  -909  -1006  -1020  -958  -861  -781  -715  -628  -543  -513  -511  -473  -406  -346  -288  -221  -173  -193  -295  -426  -526  -586  -636  -693  -719  -658  -509  -353  -314  -477  -789  -1073  -1206  -1219  -1184  -1102  -941  -724  -525  -393  -339  -361  -449  -552  -599  -576  -535  -546  -654  -838  -1023  -1158  -1236  -1262  -1241  -1194  -1149  -1127  -1128  -1145  -1173  -1208  -1243  -1255  -1234  -1186  -1118  -1032  -938  -753  -169  1122  2961  4675  5621  5539  4451  2683  814  -755  -1906  -2564  -2736  -2576  -2292  -2009  -1704  -1317  -904  -560  -304  -132  -40  7  48  78  89  88  98  168  368  696  1038  1267  1335  1207  847  375  36  -61  -11]
