reading_id,reading_time,wire_id,result_classification,heart_rate,heart_rate_alert,firmware_version,device_app_version,hardware_version,waveform_samples
5c51bff0-5d7d-11ed-8080-808080808080,Sun Nov 06 02:47:31 UTC 2022,a101e3f91939,NSR,100,NONE,20001.171.50,2.10.0,Charge 5,[-8006  -8189  -7972  -6994  -5359  -3713  -2604  -2071  -1846  -1712  -1626  -1590  -1559  -1527  -1540  -1639  -1938  -2649  -3893  -5487  -6989  -8008  -8490  -8660  -8738  -8754  -8620  -8352  -8075  -7860  -7716  -7636  -7502  -7123  -6499  -5902  -5575  -5510  -5608  -5821  -6080  -6217  -6051  -5528  -4780  -4061  -3541  -3210  -2971  -2762  -2531  -2224  -1864  -1551  -1333  -1190  -1077  -941  -787  -644  -431  63  973  2022  2603  2458  1976  1900  3075  5862  9660  13354  15823  16308  14921  12517  10079  8400  7910  8576  9978  11636  13246  14608  15617  16314  16808  17216  17615  18058  18634  19353  20037  20507  20751  20872  20979  21139  21377  21684  21990  22211  22323  22350  22330  22306  22318  22386  22488  22575  22625  22648  22653  22621  22521  22375  22240  22117  21943  21722  21540  21409  21219  20870  20390  19893  19456  19119  18905  18762  18564  18216  17736  17239  16835  16524  16221  15901  15623  15425  15266  15057  14698  14177  13623  13153  12765  12445  12225  12067  11847  11475  11019  10638  10384  10168  9886  9541  9222  8941  8578  8090  7587  7172  6854  6608  6413  6214  5911  5437  4858  4324  3920  3601  3281  2923  2528  2124  1781  1533  1310  993  524  -17  -512  -942  -1345  -1753  -2260  -2916  -3623  -4135  -3971  -2709  -418  2436  5013  6109  4938  1801  -2229  -5905  -8178  -8691  -8061  -7238  -6692  -6480  -6546  -6702  -6775  -6800  -6943  -7302  -7769  -8124  -8277  -8307  -8293  -8248  -8174  -8099  -8049  -8023  -8001  -7983  -7979  -7979  -7963  -7940  -7931  -7936  -7942  -7945  -7952  -7979  -8040  -8108  -8141  -8136  -8122  -8118  -8130  -8150  -8188  -8286  -8466  -8688  -8891  -9037  -9108  -9116  -9110  -9147  -9267  -9457  -9648  -9755  -9761  -9721  -9685  -9659  -9629  -9587  -9546  -9513  -9481  -9447  -9391  -9282  -9147  -9041  -8969  -8894  -8780  -8616  -8396  -8093  -7754  -7519  -7451  -7484  -7564  -7694  -7855  -7989  -8060  -8075  -8047  -7976  -7868  -7728  -7516  -7180  -6751  -6333  -6027  -5872  -5832  -5841  -5858  -5891  -5951  -6008  -5973  -5831  -5716  -5729  -5806  -5841  -5790  -5614  -5278  -4875  -4654  -4783  -5220  -5795  -6184  -5950  -4711  -2295  976  4165  6121  6014  3755  190  -3338  -5749  -6649  -6384  -5661  -4991  -4495  -4120  -3830  -3601  -3391  -3192  -3040  -2957  -2919  -2875  -2768  -2531  -2142  -1706  -1399  -1276  -1247  -1227  -1213  -1233  -1284  -1300  -1188  -920  -567  -227  37  207  308  377  422  450  485  572  747  966  1119  1128  1010  856  740  646  546  468  425  382  314  240  209  236  275  278  253  219  178  134  89  45  20  34  86  151  210  279  400  568  724  817  835  799  767  775  802  811  804  828  945  1172  1425  1578  1585  1500  1418  1382  1362  1343  1349  1379  1408  1420  1417  1409  1403  1387  1345  1283  1231  1206  1193  1159  1091  1025  1020  1086  1179  1270  1333  1277  973  458  36  110  1045  2987  5642  8324  10165  10429  8901  5995  2607  -233  -1868  -2242  -1785  -1091  -558  -278  -152  -61  38  134  200  212  166  68  -64  -189  -261  -245  -135  36  189  271  310  368  446  505  543  623  797  1022  1202  1288  1303  1294  1306  1372  1479  1579  1640  1665  1673  1673  1652  1577  1420  1219  1062  983  945  913  883  843  770  667  573  515  498  506  496  409  223  -2  -187  -318  -416  -480  -487  -391  -153  157  391  480  466  415  367  334  317  312  314  314  305  283  247  216  209  217  235  289  371  434  456  467  547  767  1057  1208  1087  778  483  323  281  286  291  284  278  295  332  344  274  146  54  44  49  -70  -425  -932  -1234  -798  825  3650  7019  9781  10811  9572  6422  2446  -1066  -3123  -3406  -2456  -1296  -630  -456  -430  -362  -286  -253  -244  -208  -131  -50  14  101  216  340  496  713  966  1213  1413  1521  1522  1456  1398  1400  1458  1573  1774  2027  2224  2332  2445  2653  2912  3116  3241  3328  3378  3392  3405  3436  3450  3395  3269  3118  2977  2837  2706  2617  2575  2552  2527  2489  2415  2295  2159  2057  2010  2005  2022  2048  2077  2106  2134  2144  2125  2089  2062  2061  2087  2158  2289  2413  2407  2242  2015  1838  1755  1748  1765  1756  1680  1518  1320  1179  1126  1126  1140  1165  1217  1327  1508  1726  1903  1986  1968  1872  1744  1641  1571  1493  1364  1169  939  732  583  488  437  424  429  434  427  405  365  284  159  34  -101  -317  -612  -870  -750  307  2624  5827  8873  10396  9431  6227  2069  -1665  -4036  -4791  -4447  -3767  -3198  -2874  -2772  -2754  -2676  -2495  -2277  -2120  -2062  -2064  -2087  -2122  -2161  -2185  -2173  -2116  -2037  -1979  -1959  -1963  -1975  -1983  -1973  -1925  -1850  -1778  -1717  -1654  -1567  -1425  -1234  -1048  -911  -827  -780  -772  -819  -918  -1053  -1202  -1326  -1402  -1447  -1505  -1601  -1715  -1810  -1874  -1912  -1935  -1976  -2084  -2272  -2485  -2655  -2782  -2912  -3050  -3153  -3187  -3140  -3006  -2843  -2775  -2877  -3085  -3271  -3382  -3438  -3434  -3313  -3034  -2686  -2439  -2359  -2377  -2414  -2439  -2441  -2414  -2365  -2329  -2337  -2402  -2523  -2671  -2822  -2946  -2955  -2833  -2698  -2638  -2632  -2643  -2665  -2714  -2782  -2832  -2816  -2712  -2554  -2420  -2350  -2328  -2318  -2286  -2213  -2126  -2086  -2124  -2209  -2283  -2330  -2388  -2502  -2669  -2826  -2911  -2918  -2906  -2957  -3107  -3264  -3284  -3169  -3047  -2995  -2985  -2968  -2952  -3030  -3286  -3672  -3992  -3994  -3372  -1779  875  4139  7046  8413  7511  4668  1016  -2258  -4353  -5064  -4805  -4173  -3475  -2860  -2520  -2473  -2538  -2567  -2457  -2137  -1691  -1325  -1145  -1089  -1068  -1039  -1002  -946  -848  -695  -491  -267  -90  2  46  109  252  492  763  971  1107  1217  1335  1480  1660  1847  1993  2072  2101  2118  2145  2174  2173  2128  2041  1912  1754  1605  1466  1338  1249  1191  1114  998  871  757  661  586  539  514  480  406  304  225  196  217  284  381  486  611  780  968  1093  1099  989  818  666  577  546  547  549  530  484  427  395  400  410  373  283  200  164  161  167  180  212  264  292  252  161  69  8  -9  21  113  243  346  374  328  230  113  15  -39  -23  108  364  648  827  862  806  723  643  561  446  312  215  168  121  38  -73  -179  -251  -310  -408  -540  -614  -527  -249  121  353  257  -114  -485  -454  436  2466  5435  8617  11000  11593  9981  6806  3275  364  -1331  -1753  -1442  -1033  -799  -651  -400  -50  255  481  675  856  1037  1216  1361  1444  1444  1382  1292  1153  937  680  468  368  390  507  693  913  1140  1370  1590  1768  1873  1899  1877  1848  1831  1828  1845  1898  1979  2058  2114  2138  2115  2022  1858  1675  1547  1493  1479  1478  1483  1496  1513  1497  1385  1147  842  557  335  194  130  102  71  29  -15  -52  -75  -87  -95  -95  -60  15  76  65  37  52  59  17  -31  -75  -130  -175  -190  -189  -199  -228  -255  -246  -207  -177  -172  -175  -157  -108  -46  0  18  18  -9  -84  -213  -379  -533  -597  -514  -320  -147  -117  -202  -278  -260  -132  53  207  275  266  204  112  24  -42  -124  -280  -482  -632  -694  -736  -836  -982  -1102  -1161  -1181  -1190  -1207  -1253  -1321  -1350  -1285  -1162  -1091  -1211  -1445  -1251  5  2486  5764  8832  10368  9552  6673  2826  -782  -3277  -4361  -4332  -3720  -2906  -2087  -1416  -992  -801  -752  -757  -795  -888  -1020  -1130  -1181  -1176  -1105  -949  -712  -455  -272  -182  -97  94  424  792  1036  1075  957  786  667  660  777  975  1165  1278  1318  1321  1318  1319  1318  1304  1278  1263  1265  1257  1218  1137  961  671  373  183  58  -138  -444  -775  -1032  -1174  -1222  -1244  -1301  -1406  -1524  -1611  -1656  -1679  -1703  -1728  -1724  -1673  -1605  -1584  -1636  -1717  -1807  -1912  -1971  -1908  -1755  -1617  -1552  -1541  -1538  -1534  -1537  -1538  -1493  -1375  -1240  -1181  -1199  -1228  -1237  -1247  -1279  -1317  -1332  -1331  -1351  -1418  -1515  -1595  -1633  -1622  -1557  -1451  -1337  -1247  -1198  -1170  -1100  -932  -709  -543  -496  -550  -667  -807  -921  -985  -1008  -1008  -1000  -994  -1018  -1098  -1213  -1318  -1405  -1486  -1548  -1565  -1526  -1422  -1255  -1125  -1219  -1560  -1763  -1182  658  3683  7112  9687  10235  8311  4565  419  -2739  -4202  -4146  -3366  -2683  -2418  -2315  -2029  -1578  -1207  -1022  -953  -917  -908  -924  -915  -840  -713  -575  -491  -457  -368  -192  -15  90  127  132  150  211  310  430  558  694  845  1035  1239  1386  1490  1660  1933  2201  2337  2275  2010  1654  1392  1297  1304  1335  1349  1331  1265  1136  961  798  688  599  459  266  85  -39  -107  -124  -95  -26  68  169  265  338  356  284  123  -55  -174  -211  -175  -76  67  215  322  369  370  361  371  403  437  461  483  519  574  613  548  317  6  -189  -164  -4  98  51  -44  -80  -57  -10  50  147  298  459  559  582  566  547  525  458  313  112  -72  -183  -227  -243  -252  -255  -249  -234  -196  -91  73  172  96  -115  -349  -349  290  1852  4294  7173  9645  10779  10021  7467  3845  232  -2374  -3463  -3249  -2466  -1708  -1145  -736  -416  -162  25  165  296  422  503  507  440  342  257  208  210  295  491  771  1038  1198  1254  1266  1279  1306  1360  1452  1572  1697  1827  1974  2121  2240  2328  2371  2352  2305  2272  2253  2225  2167  2055  1892  1727  1610  1553  1523  1461  1312  1098  913  824  801  727  487  110  -239  -439  -502  -505  -509  -526  -538  -527  -499  -480  -493  -535  -593  -650  -685  -683  -644  -582  -523  -496  -552  -740  -1016  -1249  -1357  -1372  -1358  -1349  -1348  -1349  -1348  -1340  -1334  -1361  -1453  -1599  -1744  -1846  -1898  -1917  -1926  -1936  -1942  -1938  -1940  -2006  -2163  -2352  -2483  -2540  -2566  -2587  -2613  -2650  -2689  -2711  -2704  -2683  -2690  -2728  -2763  -2810  -2846  -2764  -2593  -2343  -1668  -119  2376  5294  7505  7800  5836  2398  -1262  -3985  -5110  -4900  -4189  -3558  -3121  -2782  -2467  -2172  -1929  -1764  -1693  -1722  -1777  -1727  -1508  -1181  -871  -687  -633  -607  -546  -481  -440  -362  -223  -113  -115  -210  -294  -267  -80  279  713  1017  1111  1092  1079  1118  1189  1246  1268  1260  1226  1166  1071  946  823  745  697  629  508  354  219  130  66  -6  -114  -246  -390  -558  -739  -881  -958  -1015  -1107  -1218  -1276  -1227  -1084  -925  -826  -785  -770  -782  -829  -891  -916  -846  -668  -456  -306  -261  -350  -597  -921  -1164  -1263  -1262  -1160  -915  -589  -318  -116  90  284  377  337  207  3  -307  -671  -924  -966  -825  -598  -406  -321  -322  -369  -467  -646  -863  -998  -997  -918  -813  -657  -477  -491  -869  -1473  -2022  -2208  -1587  213  3096  6414  9154  10233  9052  5992  2170  -1262  -3509  -4307  -4016  -3290  -2597  -2135  -1901  -1789  -1715  -1647  -1543  -1318  -933  -511  -243  -180  -248  -367  -489  -582  -622  -605  -540  -428  -290  -171  -72  70  297  550  740  834  864  875  901  943  978  998  1017  1046  1080  1095  1065  985  881  799  755  712  615  431  204  33  -45  -90  -173  -341  -575  -802  -978  -1107  -1208  -1293  -1351  -1319  -1143  -872  -643  -522  -461  -411  -413  -512  -648  -719  -732  -761  -826  -888  -926  -945  -940  -869  -709  -507  -357  -307  -333  -395  -462  -516  -543  -525  -452  -324  -179  -78  -43  -45  -49  -43  -37  -42  -58  -77  -113  -185  -258  -273  -232  -189  -172  -180  -195  -197  -193  -200  -205  -187  -195  -337  -683  -1143  -1339  -786  765  3262  6296  9003  10336  9579  6815  2968  -665  -2963  -3501  -2800  -1806  -1139  -895  -866  -821  -658  -435  -277  -246  -317  -437  -558  -637  -643  -565  -401  -152  133  367  499  542  517  429  303  210  260  538  993  1430  1717  1892  2044  2202  2329  2390  2390  2360  2325  2302  2295  2297  2304  2312  2309  2276  2198  2093  1987  1887  1754  1528  1199  849  567  381  261  169  90  41  42  88  141  164  157  137  116  95  81  82  103  140  182  226  272  298  283  230  150  60  -17  -72  -108  -129  -143  -160  -181  -195  -176  -102  -3  72  169  379  680  932  1054  1073  988  750  383  11  -268  -432  -503  -525  -528  -524  -527  -559  -635  -734  -822  -902  -985  -1055  -1091  -1085  -1030  -915  -754  -684  -915  -1373  -1504  -622  1594  4834  8124  10174  10033  7682  4050  343  -2498  -3999  -4278  -3841  -3133  -2384  -1690  -1121  -756  -610  -604  -639  -661  -640  -557  -431  -309  -226  -186  -180  -197  -231  -256  -248  -228  -226  -229  -165  42  360  642  798  886  997  1174  1427  1708  1921  2006  1944  1730  1438  1204  1095  1088  1137  1185  1167  1048  865  686  534  391  231  38  -159  -309  -423  -559  -719  -834  -870  -867  -902  -1023  -1194  -1328  -1392  -1416  -1418  -1387  -1335  -1296  -1296  -1327  -1359  -1373  -1375  -1374  -1360  -1313  -1237  -1188  -1201  -1240  -1270  -1304  -1355  -1413  -1479  -1563  -1646  -1680  -1635  -1540  -1441  -1345  -1233  -1121  -1050  -1013  -949  -825  -680  -573  -523  -512  -502  -448  -330  -171  -50  -76  -275  -544  -731  -756  -661  -538  -446  -407  -441  -564  -731  -854  -900  -907  -931  -985  -1026  -1067  -1158  -1113  -495  964  3199  5954  8673  10363  10082  7718  4043  162  -2811  -4147  -4038  -3299  -2469  -1643  -933  -549  -519  -681  -859  -950  -956  -929  -887  -816  -696  -528  -359  -223  -93  57  200  302  354  378  404  433  458  485  514  538  573  671  863  1111  1357  1566  1714  1792  1829  1849  1843  1802  1742  1690  1662  1642  1587  1461  1247  967  691  471  297  136  -17  -144  -221  -252  -276  -327  -414  -511  -562  -534  -448  -324  -173  -48  -20  -110  -253  -357  -394  -397  -401  -400  -387  -377  -380  -388  -394  -400  -411  -418  -397  -338  -272  -246  -241  -230  -246  -338  -500  -687  -847  -971  -1048  -1009  -832  -615  -523  -650  -892  -1069  -1142  -1152  -1110  -1049  -1021  -1060  -1158  -1245  -1243  -1123  -879  -586  -369  -273  -245  -220  -153  -57  -5  -46  -166  -313  -441  -518  -550  -550  -509  -432  -367  -361  -420  -505  -567  -587  -582  -568  -565  -620  -748  -898  -1086  -1286  -1118  -27  2216  5353  8593  10700  10613  8233  4467  619  -2208  -3533  -3631  -3157  -2646  -2231  -1782  -1323  -1032  -935  -916  -897  -872  -841  -780  -672  -531  -368  -181  14  171  242  240  220  216  217  204  193  218  298  418  560  736  963  1200  1383  1493  1555  1593  1636  1714  1806  1849  1805  1710  1622  1549  1467  1379  1295  1187  1025  846  712  636  590  516  362  119  -190  -527  -818  -989  -1038  -1010  -935  -824  -709  -637  -616  -617  -615  -608  -594  -563  -514  -460  -421  -413  -430  -451  -460  -461  -459  -454  -434  -401  -368  -354  -382  -472  -601  -727  -847  -963  -1048  -1092  -1115  -1127  -1114  -1064  -1008  -987  -1005  -1025  -996  -888  -730  -593  -524  -516  -555  -642  -762  -864  -883  -766  -527  -265  -82  4  38  55  26  -123  -418  -736  -902  -861  -712  -582  -517  -495  -496  -524  -593  -693  -798  -888  -951  -997  -1021  -990  -969  -1112  -1391  -1487  -1017  334  2707  5772  8578  9901  9010  6123  2184  -1519  -3873  -4608  -4314  -3681  -2979  -2291  -1793  -1547  -1410  -1276  -1132  -968  -802  -685  -635  -633  -653  -671  -669  -641  -602  -570  -544  -521  -515  -531  -525  -437  -222  121  517  836  1004  1053  1056  1055  1064  1099  1172  1257  1320  1386  1503  1665  1809  1885  1848  1632  1227  754  392  226  206  231  230  172  53  -94  -228  -351  -469  -549  -572  -580  -636  -769  -929  -1019  -1006  -939  -857  -757  -636  -512  -414  -353  -337  -365  -412  -449  -469  -474  -454  -397  -324  -287  -324  -420  -528  -606  -639  -632  -596  -559  -549  -565  -583  -590  -592  -597  -591  -528  -380  -186  -17  92  137  107  -8  -165  -275  -301  -285  -275  -277  -264  -215  -127  -14  88  150  167  143  74  -28  -132  -218  -315  -465  -648  -789  -845  -832  -770  -668  -547  -436  -364  -357  -437  -589  -741  -846  -966  -1181  -1457  -1654  -1494  -490  1699  4835  8101  10297  10331  8029  4331  578  -2191  -3493  -3523  -2953  -2362  -1921  -1543  -1191  -936  -822  -812  -848  -893  -924  -896  -752  -499  -253  -130  -144  -218  -284  -322  -327  -250  -36  264  516  648  697  714  723  761  882  1098  1353  1561  1671  1693  1653  1566  1478  1495  1691  1979  2159  2129  1963  1770  1585  1400  1214  1016  789  526  217  -108  -364  -507  -583  -643  -684  -696  -692  -693  -713  -740  -745  -721  -676  -608  -530  -426  -252  -36  116  151  100  24  -37  -73  -91  -87  -71  -57  -34  6  38  16  -79  -194  -249  -242  -242  -285  -355  -425  -460  -447  -415  -397  -393  -394  -395  -403  -430  -479  -537  -578  -606  -643  -693  -727  -728  -696  -621  -460  -196  96  301  368  325  226  113  9  -71  -129  -182  -268  -398  -524  -615  -682  -721  -735  -759  -800  -836  -872  -940  -1031  -1104  -1157  -1250  -1445  -1727  -1856  -1322  315  3079  6511  9615  11108  10227  7255  3278  -457  -3044  -4122  -3945  -3158  -2280  -1551  -1119  -990  -1004  -1014  -987  -947  -915  -884  -840  -794  -772  -774  -757  -661  -481  -295  -185  -157  -172  -175  -99  75  286  482  673  855  998  1110  1234  1399  1582  1736  1819  1811  1732  1635  1565  1538  1552  1608  1690  1750  1720  1543  1239  888  545  256  81  12  -47  -180  -381  -567  -666  -679  -675  -704  -774  -854  -862  -750  -596  -483  -389  -292  -230  -238  -300  -370  -412  -412  -371  -302  -236  -202  -198  -205  -209  -215  -224  -223  -200  -176  -204  -297  -384  -377  -268  -147  -135  -251  -411  -556  -659  -690  -647  -581  -561  -598  -666  -754  -857  -950  -1012  -1043  -1040  -993  -899  -788  -699  -642  -592  -515  -417  -339  -311  -334  -408  -513  -619  -716  -816  -912  -973  -987  -983  -1007  -1082  -1179  -1246  -1267  -1255  -1227  -1186  -1131  -1078  -1083  -1246  -1649  -2189  -2428  -1834  -139  2643  6129  9265  10682  9683  6640  2617  -1057  -3343  -4096  -3955  -3482  -2841  -2218  -1848  -1720  -1674  -1615  -1527  -1429  -1338  -1256  -1160  -1044  -911  -735  -508  -287  -132  -58  -44  -52  -47  -15  37  99  168  243  306  362  450  602  784  940  1065  1186  1303  1412  1529  1643  1715  1733  1707  1642  1529  1360  1177  1050  976  878  718  550  442  405  404  385  286  49  -321  -709  -955  -1018  -981  -921  -865  -820  -792  -779  -770  -738  -666  -567  -481  -427  -397  -383  -388  -427  -467  -448  -368  -291  -257  -253  -269  -317  -400  -495  -585  -674  -764  -847  -913  -944  -876  -649  -325  -62  55  69  31  -51  -182  -336  -489  -635  -764  -852  -891  -881  -819  -710  -580  -453  -337  -218  -64  125  291  362  321  199  27  -174  -360  -472  -492  -449  -383  -333  -356  -512  -791  -1064  -1190  -1141  -1013  -908  -855  -821  -813  -918  -1199  -1496  -1405  -469  1580  4625  8021  10561  11026  9108  5542  1496  -1812  -3539  -3752  -3194  -2464  -1801  -1288  -924  -686  -548  -450  -341  -231  -154  -104  -46  33  131  236  325  385  440  524  649  826  1029  1176  1233  1238  1230  1232  1270  1354  1468  1581  1678  1774  1893  2033  2166  2256  2273  2235  2211  2250  2323  2349  2291  2201  2145  2109  1997  1696  1199  675  327  171  75  -42  -179  -320  -464  -611  -792  -1016  -1204  -1293  -1306  -1295  -1287  -1293  -1320  -1361  -1388  -1364  -1271  -1144  -1047  -1000  -976  -956  -940  -929  -925  -927  -939  -962  -991  -1018  -1029  -1022  -1018  -1047  -1118  -1205  -1273  -1315  -1329  -1275  -1081  -762  -456  -299  -291  -346  -397  -435  -471  -509  -547  -583  -627  -678  -716  -726  -713  -699  -711  -758  -822  -889  -953  -1004  -1028  -1030  -1020  -1015  -1036  -1101  -1189  -1256  -1296  -1338  -1404  -1522  -1693  -1749  -1445  -542  1263  4016  7092  9410  9983  8414  5160  1326  -1899  -3775  -4272  -3924  -3327  -2744  -2185  -1676  -1256  -919  -685  -570  -526  -492  -463  -450  -438  -401  -334  -248  -167  -104  -59  -44  -52  -35  81  314  590  817  966  1069  1171  1285  1405  1560  1796  2078  2291  2378  2381  2365  2348  2315  2252  2132  1921  1635  1363  1173  1044  927  782  575  303  14  -223  -389  -498  -558  -588  -621  -695  -831  -994  -1110  -1150  -1146  -1136  -1128  -1101  -1052  -1033  -1080  -1130  -1120  -1063  -996  -939  -885  -818  -758  -733  -723  -706  -688  -678  -665  -642  -613  -599  -609  -636  -666  -703  -745  -779  -804  -831  -847  -806  -663  -440  -233  -122  -99  -110  -107  -60  29  142  252  311  230  -49  -434  -712  -774  -671  -518  -408  -374  -414  -523  -657  -731  -692  -579  -475  -445  -513  -673  -874  -1061  -1248  -1451  -1550  -1203  34  2321  5323  8307  10243  10219  8075  4506  656  -2382  -3987  -4216  -3657  -2920  -2317  -1915  -1643  -1369  -1051  -767  -585  -511  -505  -520  -517  -478  -394  -258  -102  4  28  -18  -100  -181  -241  -287  -307  -213  105  589  1008  1210  1237  1206  1186  1184  1200  1280  1474  1748  1996  2143  2197  2183  2083  1866  1536  1166  874  727  687  659  568  376  96  -190  -394  -476  -473  -443  -413  -380  -363  -418  -588  -816  -983  -1040  -1030  -996  -949  -883  -812  -768  -748  -713  -644  -579  -538  -484  -409  -346  -313  -297  -283  -278  -323  -461  -651  -790  -807  -719  -592  -502  -484  -526  -598  -667  -714  -728  -677  -526  -316  -142  -54  -41  -72  -107  -102  -56  -30  -83  -192  -300  -374  -408  -429  -477  -573  -693  -789  -832  -829  -818  -821  -835  -845  -846  -822  -756  -684  -702  -848  -1080  -1332  -1373  -762  882  3590  6875  9683  10755  9450  6206  2171  -1368  -3479  -4044  -3620  -2817  -2040  -1531  -1329  -1296  -1278  -1206  -1046  -779  -470  -252  -174  -173  -187  -188  -171  -130  -75  -22  24  77  151  256  367  440  473  523  651  834  984  1071  1181  1415  1747  2033  2196  2265  2285  2279  2261  2233  2179  2069  1904  1710  1461  1100  697  418  325  345  396  425  359  117  -268  -626  -815  -847  -801  -725  -649  -612  -625  -657  -664  -630  -569  -506  -469  -492  -590  -726  -822  -836  -779  -702  -647  -612  -565  -504  -457  -422  -366  -288  -230  -235  -315  -436  -543  -610  -636  -633  -636  -694  -813  -945  -1019  -1005  -955  -930  -928  -894  -759  -501  -227  -95  -121  -219  -337  -441  -502  -525  -537  -555  -577  -596  -619  -650  -684  -708  -724  -737  -742  -729  -716  -768  -956  -1258  -1576  -1857  -2120  -2290  -2082  -1120  854  3791  7090  9648  10376  8814  5451  1437  -1971  -3939  -4411  -3918  -3089  -2372  -1925  -1711  -1626  -1558  -1446  -1301  -1156  -1044  -979  -932  -863  -755  -631  -532  -481  -460  -431  -371  -302  -268  -274  -269  -195  -48  115  245  338  402  479  639  917  1262  1563  1730  1770  1751  1715  1664  1610  1581  1577  1536  1413  1260  1161  1110  997  711  275  -146  -429  -578  -670  -766  -885  -1003  -1079  -1100  -1083  -1050  -1008  -960  -915  -887  -885  -903  -922  -930  -919  -878  -789  -639  -450  -277  -168  -130  -173  -317  -534  -724  -798  -754  -665  -600  -576  -582  -597  -609  -614  -616  -612  -591  -548  -497  -463  -467  -501  -521  -507  -504  -536  -582  -620  -637  -651  -699  -771  -822  -811  -679  -400  -60  188  272  247  189  90  -88  -308  -473  -551  -584  -609  -626  -631  -628  -624  -622  -630  -653  -680  -682  -650  -603  -535  -445  -461  -779  -1376  -1880  -1717  -430  2046  5373  8763  10971  10919  8562  4790  796  -2237  -3619  -3561  -2805  -1973  -1380  -1116  -1087  -1102  -1002  -750  -444  -203  -60  11  25  -11  -74  -104  -11  258  613  875  976  983  970  973  1005  1055  1099  1134  1176  1216  1233  1218  1179  1130  1087  1131  1369  1744  2048  2171  2138  2029  1931  1872  1829  1768  1642  1417  1140  924  813  753  679  561  378  122  -157  -389  -567  -733  -895  -1005  -1009  -898  -739  -610  -518  -439  -378  -361  -383  -399  -353  -242  -143  -147  -243  -332  -367  -393  -469  -586  -676  -674  -565  -392  -238  -153  -129  -146  -205  -319  -467  -588  -648  -662  -658  -655  -655  -658  -659  -660  -663  -680  -710  -723  -672  -516  -277  -110  -179  -426  -617  -620  -506  -400  -329  -252  -159  -84  -48  -45  -59  -75  -79  -64  -23  57  158  235  268  271  238  143  -6  -164  -293  -383  -432  -443  -412  -333  -230  -158  -150  -195  -258  -314  -372  -461  -594  -743  -865  -1019  -1301  -1506  -1122  254  2669  5815  8926  10849  10660  8293  4550  597  -2480  -4063  -4285  -3744  -2937  -2149  -1533  -1071  -682  -384  -234  -223  -292  -384  -460  -505  -528  -543  -563  -580  -566  -483  -315  -91  116  238  273  293  362  483  610  703  763  824  915  1048  1243  1496  1737  1884  1936  1939  1906  1840  1775  1736  1704  1623  1439  1187  981  873  804  700  512  228  -74  -272  -338  -356  -408  -531  -693  -798  -796  -748  -725  -726  -729  -722  -704  -686  -677  -701  -779  -892  -983  -1019  -1006  -958  -899  -857  -842  -846  -863  -896  -938  -965  -939  -821  -623  -427  -324  -352  -525  -832  -1183  -1435  -1545  -1566  -1540  -1498  -1474  -1483  -1508  -1515  -1474  -1378  -1262  -1185  -1168  -1182  -1176  -1102  -946  -768  -680  -734  -850  -953  -1062  -1203  -1339  -1416  -1434  -1437  -1461  -1513  -1578  -1640  -1676  -1659  -1553  -1337  -1056  -840  -790  -876  -1023  -1229  -1518  -1845  -2114  -2163  -1717  -471  1740  4739  7751  9509  9039  6377  2486  -1287  -3795  -4613  -4212  -3382  -2591  -1983  -1621  -1446  -1295  -1098  -907  -766  -663  -574  -494  -436  -405  -390  -373  -340  -276  -174  -33  144  324  439  468  459  474  546  645  724  794  928  1160  1411  1581  1707  1928  2252  2530  2652  2617  2462  2252  2084  2008  1987  1925  1700  1291  860  588  493  476  449  358  170  -80  -314  -484  -588  -641  -673  -700  -729  -763  -796  -821  -838  -850  -849  -812  -731  -631  -552  -500  -452  -409  -404  -439  -485  -525  -556  -567  -563  -563  -574  -580  -564  -536  -520  -529  -550  -561  -548  -506  -449  -404  -385  -381  -382  -380  -380  -404  -462  -519  -516  -438  -314  -168  -27  82  165  255  352  415  386  241  36  -118  -178  -178  -162  -149  -147  -161  -196  -251  -306  -331  -324  -303  -283  -271  -289  -392  -623  -968  -1357  -1613  -1471  -598  1362  4401  7832  10516  11338  9811  6441  2444  -937  -2944  -3527  -3205  -2599  -2096  -1799  -1580  -1302  -974  -692  -501  -350  -191  -47  42  69  56  43  37  32  61  146  260  371  449  476  477  506  579  657  705  756  864  1046  1278  1511  1698  1844  1981  2109  2206  2258  2261  2210  2092  1917  1725  1536  1337  1124  907  700  540  441  374  275  89  -198  -541  -825  -966  -987  -967  -965  -1000  -1056  -1115  -1182  -1257  -1328  -1389  -1441  -1461  -1420  -1318  -1200  -1118  -1076  -1042  -1020  -1035  -1090  -1152  -1196  -1219  -1220  -1171  -1043  -871  -744  -703  -723  -775  -852  -940  -1007  -1041  -1064  -1096  -1133  -1144  -1105  -1027  -952  -916  -922  -937  -892  -725  -464  -215  -55  20  48  34  -84  -358  -707  -966  -1066  -1070  -1050  -1035  -1029  -1027  -1024  -1022  -1047  -1126  -1245  -1346  -1402  -1438  -1525  -1743  -2079  -2367  -2328  -1643  -89  2316  5284  8187  10080  10127  8109  4542  551  -2606  -4225  -4395  -3674  -2710  -1988  -1647  -1534  -1461  -1347  -1207  -1109  -1068  -1008  -857  -644  -468  -387  -379  -399  -414  -392  -300  -150  16  175  314  433  543  639  696  722  751  800  866  947  1053  1213  1471  1815  2132  2324  2394  2404  2379  2271  2024  1677  1375  1226  1183  1101  883  598  393  298  222  104  -31  -151  -257  -367  -476  -548  -545  -476  -393  -333  -309  -332  -408  -498  -543  -531  -500  -471  -437  -406  -396  -401  -397  -382  -346  -269  -165  -87  -77  -131  -213  -273  -294  -294  -291  -282  -256  -212  -162  -118  -93  -102  -164  -282  -433  -573  -654  -652  -585  -500  -423  -295  -43  260  437  406  249  76  -90  -247  -350  -375  -358  -338  -325  -320  -345  -418  -519  -593  -621  -626  -635  -665  -730  -817  -888  -922  -951  -1047  -1215  -1197  -479  1374  4312  7626  10148  10743  8980  5519  1676  -1396  -3071  -3377  -2948  -2423  -2021  -1713  -1423  -1080  -701  -381  -214  -212  -327  -484  -615  -706  -770  -786  -703  -510  -251  0  186  294  337  341  322  280  220  183  244  455  749  987  1130  1239  1360  1496  1618  1691  1715  1712  1685  1622  1537  1468  1403  1285  1093  860  627  439  304  162  -61  -389  -733  -957  -1037  -1060  -1087  -1102  -1086  -1065  -1056  -1056  -1066  -1089  -1127  -1183  -1257  -1322  -1326  -1237  -1098  -993  -955  -954  -955  -949  -945  -947  -954  -948  -917  -879  -857  -851  -850  -847  -846  -866  -919  -987  -1024  -1009  -943  -827  -687  -574  -513  -494  -511  -575  -675  -768  -805  -768  -676  -576  -513  -498  -516  -560  -601  -581  -451  -252  -85  -3  0  -62  -185  -340  -485  -597  -662  -679  -653  -584  -491  -414  -375  -374  -423  -534  -678  -781  -784  -695  -646  -848  -1348  -1848  -1830  -826  1396  4622  8017  10379  10692  8700  5150  1305  -1738  -3385  -3724  -3335  -2704  -2059  -1533  -1130  -800  -574  -476  -449  -445  -445  -438  -411  -372  -342  -335  -340  -317  -221  -50  144  318  461  548  557  541  583  662  725  786  911  1174  1575  1975  2225  2318  2333  2326  2309  2285  2249  2177  2041  1855  1676  1538  1417  1295  1184  1076  918  674  409  230  168  177  195  162  21  -228  -488  -654  -716  -725  -720  -716  -714  -709  -704  -706  -713  -706  -655  -545  -407  -296  -244  -244  -284  -362  -471  -584  -666  -698  -695  -683  -674  -667  -664  -660  -634  -561  -462  -412  -461  -565  -623  -601  -565  -578  -623  -665  -703  -736  -749  -730  -678  -614  -544  -446  -321  -222  -193  -218  -266  -342  -454  -561  -603  -561  -482  -439  -465  -535  -611  -692  -782  -861  -916  -969  -1041  -1109  -1116  -1055  -972  -887  -825  -881  -1109  -1379  -1340  -523  1382  4277  7529  10002  10563  8814  5315  1249  -2077  -3868  -4182  -3666  -2983  -2434  -2018  -1670  -1382  -1188  -1081  -999  -888  -745  -603  -481  -358  -227  -112  -34  -3  4  43  121  180  183  145  111  117  150  187  236  326  464  673  990  1381  1748  2030  2220  2327  2375  2388  2354  2229  2013  1787  1617  1475  1309  1126  981  879  737  482  175  -54  -177  -293  -495  -747  -929  -987  -966  -917  -869  -844  -845  -858  -870  -884  -896  -897  -880  -837  -759  -635  -493  -389  -372  -477  -701  -956  -1124  -1180  -1180  -1162  -1112  -1008  -879  -789  -761  -768  -776  -767  -745  -724  -705  -673  -631  -606  -627  -710  -824  -902  -897  -813  -700  -618  -579  -557  -542  -543  -559  -569  -544  -478  -410  -408  -495  -591  -616  -599  -614  -688  -792  -891  -983  -1079  -1168  -1246  -1315  -1339  -1292  -1271  -1396  -1572  -1436  -524  1480  4470  7758  10152  10499  8445  4710  632  -2547  -4187  -4395  -3819  -3079  -2403  -1844  -1492  -1353  -1319  -1293  -1223  -1087  -875  -609  -350  -135  33  147  203  214  201  187  189  214  275  378  492  566  600  661  807  1019  1230  1418  1603  1788  1943  2050  2125  2187  2223  2225  2212  2203  2181  2121  2019  1883  1708  1511  1350  1268  1249  1233  1126  839  408  -4  -285  -428  -492  -547  -617  -688  -743  -793  -834  -844  -813  -748  -662  -577  -501  -435  -386  -361  -350  -338  -309  -265  -242  -266  -332  -415  -494  -561  -606  -626  -630  -630  -628  -612  -582  -569  -598  -643  -671  -682  -691  -699  -708  -730  -764  -770  -715  -628  -556  -482  -358  -187  -37  42  46  -19  -146  -292  -409  -482  -526  -564  -623  -699  -748  -748  -725  -709  -701  -687  -674  -694  -765  -872  -1026  -1291  -1628  -1859  -1857  -1464  -326  1811  4774  7939  10257  10614  8631  4993  1003  -2064  -3570  -3772  -3361  -2834  -2359  -1947  -1587  -1297  -1089  -931  -787  -658  -556  -492  -464  -448  -420  -370  -315  -268  -217  -152  -73  5  61  92  142  249  403  556  683  795  908  1022  1137  1283  1501  1761  1966  2057  2069  2065  2067  2042  1933  1731  1517  1379  1321  1266  1121  859  572  383  280  125  -180  -560  -843  -962  -988  -1006  -1036  -1055  -1051  -1033  -1015  -1003  -998  -1015  -1065  -1138  -1197  -1207  -1139  -994  -827  -713  -674  -683  -727  -821  -959  -1073  -1075  -974  -863  -795  -755  -738  -758  -815  -878  -914  -914  -891  -866  -870  -930  -1030  -1115  -1156  -1168  -1159  -1096  -927  -663  -407  -260  -222  -229  -246  -282  -358  -463  -574  -687  -794  -864  -880  -863  -838  -819  -807  -799  -796  -808  -844  -893  -913  -848  -711  -626  -710  -958  -1307  -1548  -1247  58  2576  5959  9233  11123  10646  7798  3633  -466  -3376  -4520  -4182  -3194  -2235  -1623  -1380  -1354  -1382  -1376  -1286  -1083  -814  -588  -464  -416  -395  -381  -370  -342  -280  -179  -43  108  240  327  389  458  534  580  580  553  555  682  994  1388  1677  1813  1893  1979  2047  2075  2072  2051  2016  1971  1922  1865  1789  1658  1406  1039  692  482  383  305  215  104  -88  -402  -750  -988  -1070  -1043  -952  -826  -711  -640  -609  -598  -596  -635  -749  -911  -1028  -1044  -975  -863  -755  -683  -641  -605  -565  -533  -522  -535  -570  -612  -641  -656  -670  -683  -698  -722  -756  -785  -789  -749  -669  -586  -529  -483  -424  -377  -407  -530  -692  -824  -894  -897  -836  -702  -501  -274  -76  72  168  186  116  1  -96  -172  -272  -418  -571  -678  -724  -729  -725  -728  -736  -734  -717  -703  -720  -772  -835  -884  -900  -878  -848  -903  -1149  -1508  -1579  -789  1221  4291  7692  10256  10810  8996  5535  1568  -1771  -3610  -3900  -3321  -2512  -1800  -1355  -1185  -1152  -1090  -922  -703  -550  -498  -475  -389  -211  3  182  291  346  379  404  412  398  370  357  389  477  591  695  777  853  949  1079  1276  1572  1902  2132  2224  2253  2283  2318  2317  2246  2118  1960  1774  1578  1420  1319  1237  1141  1043  944  821  671  511  309  23  -296  -556  -734  -862  -932  -876  -677  -448  -365  -503  -759  -960  -1032  -1019  -971  -907  -838  -780  -757  -769  -795  -811  -816  -807  -774  -721  -674  -655  -653  -648  -629  -603  -614  -705  -860  -1023  -1161  -1258  -1271  -1169  -1007  -885  -838  -833  -843  -877  -948  -1053  -1159  -1221  -1204  -1099  -953  -842  -797  -791  -783  -749  -703  -673  -672  -715  -825  -971  -1076  -1108  -1092  -1067  -1053  -1051  -1056  -1061  -1050  -1010  -949  -904  -931  -1071  -1304  -1582  -1889  -2175  -2248  -1741  -224  2435  5784  8927  10780  10456  7952  4192  323  -2643  -4053  -4076  -3449  -2735  -2159  -1801  -1634  -1535  -1362  -1083  -799  -619  -551  -524  -461  -340  -194  -70  0  13  6  22  71  142  221  297  372  445  531  665  843  1017  1175  1337  1507  1670  1810  1935  2048  2102  2063  1989  1945  1926  1897  1844  1759  1623  1436  1230  1042  889  743  535  237  -79  -300  -384  -384  -370  -374  -394  -414  -411  -363  -268  -163  -107  -160  -356  -661  -954  -1116  -1125  -1032  -907  -808  -754  -744  -775  -829  -882  -922  -943  -930  -865  -733  -575  -492  -539  -644  -703  -683  -619  -564  -545  -553  -565  -572  -573  -561  -529  -482  -443  -419  -412  -430  -483  -543  -529  -406  -258  -198  -260  -388  -491  -533  -541  -550  -580  -644  -744  -869  -1004  -1117  -1179  -1198  -1200  -1204  -1219  -1262  -1309  -1287  -1206  -1166  -1218  -1261  -897  409  2788  5820  8660  10163  9477  6708  2859  -815  -3374  -4426  -4231  -3501  -2795  -2239  -1832  -1582  -1419  -1270  -1127  -1002  -895  -801  -716  -640  -554  -433  -300  -202  -114  22  200  343  402  402  388  391  430  502  590  692  818  983  1183  1374  1526  1682  1909  2178  2380  2451  2416  2344  2263  2148  1977  1778  1592  1442  1325  1215  1070  861  613  354  93  -145  -336  -512  -676  -775  -816  -870  -956  -1034  -1075  -1089  -1101  -1102  -1066  -979  -859  -743  -673  -670  -720  -786  -831  -853  -883  -935  -980  -991  -976  -947  -908  -875  -871  -881  -857  -778  -704  -702  -742  -742  -689  -646  -642  -634  -617  -635  -678  -707  -713  -714  -723  -730  -698  -588  -414  -245  -120  -6  124  241  291  195  -118  -574  -951  -1114  -1094  -974  -827  -719  -680  -704  -779  -881  -977  -1052  -1089  -1065  -939  -673  -427  -559  -1075  -1356  -653  1379  4523  7969  10479  10947  9107  5657  1720  -1632  -3608  -4055  -3501  -2621  -1873  -1450  -1308  -1270  -1178  -984  -750  -568  -456  -381  -313  -200  23  328  561  598  492  390  350  333  321  334  392  511  696  907  1076  1181  1270  1381  1518  1683  1868  2047  2224  2427  2654  2855  2974  2974  2789  2385  1876  1475  1279  1218  1176  1092  964  803  595  352  138  -31  -218  -448  -652  -754  -757  -730  -709  -695  -686  -678  -658  -623  -588  -586  -630  -693  -769  -816  -715  -447  -169  -7  52  53  -25  -234  -522  -759  -882  -907  -844  -701  -511  -339  -236  -211  -258  -412  -698  -1024  -1201  -1147  -975  -827  -748  -720  -722  -718  -651  -482  -259  -103  -98  -236  -430  -568  -605  -573  -520  -483  -503  -613  -798  -977  -1080  -1103  -1055  -929  -760  -637  -617  -690  -799  -897  -993  -1136  -1345  -1548  -1693  -1798  -1642  -672  1469  4576  7923  10330  10630  8564  4986  1162  -1817  -3326  -3526  -3126  -2645  -2205  -1834  -1590  -1452  -1337  -1209  -1076  -920  -733  -558  -435  -364  -328  -303  -263  -185  -65  59  140  178  218  278  331  368  409  457  483  469  455  545  827  1226  1555  1749  1868  1954  2000  2010  2000  1960  1867  1736  1609  1493  1382  1278  1153  962  693  363  20  -301  -590  -806  -912  -939  -947  -983  -1075  -1232  -1400  -1471  -1371  -1133  -879  -713  -650  -640  -633  -631  -706  -927  -1224  -1421  -1413  -1236  -1008  -857  -823  -846  -865  -875  -902  -957  -1025  -1065  -1026  -923  -835  -793  -792  -845  -936  -1019  -1068  -1086  -1088  -1083  -1068  -1026  -951  -868  -812  -780  -741  -683  -624  -581  -561  -573  -619  -680  -725  -739  -734  -723  -716  -729  -773  -835  -883  -904  -910  -911  -910  -909  -914  -928  -943  -961  -1031  -1168  -1309  -1491  -1818  -2100  -1777  -291  2470  5977  9161  10776  10083  7399  3791  300  -2370  -3809  -4012  -3446  -2682  -2021  -1523  -1204  -1069  -1059  -1071  -1025  -887  -667  -412  -200  -88  -62  -69  -80  -90  -98  -89  -25  123  327  506  602  624  612  609  659  780  955  1141  1293  1404  1515  1679  1887  2061  2128  2086  1986  1880  1785  1681  1572  1486  1409  1289  1115  946  820  697  501  223  -43  -196  -236  -271  -403  -616  -799  -881  -888  -868  -841  -805  -764  -727  -705  -699  -698  -697  -697  -711  -742  -767  -755  -689  -567  -438  -379  -401  -459  -526  -577  -574  -488  -327  -155  -56  -84  -241  -456  -622  -711  -777  -852  -911  -936  -934  -910  -856  -761  -636  -515  -426  -378  -357  -328  -261  -171  -104  -80  -83  -92  -103  -133  -196  -280  -369  -472  -585  -666  -701  -714  -729  -749  -763  -770  -803  -909  -1063  -1150  -1063  -872  -843  -1105  -1479  -1636  -1153  345  2896  6077  9031  10627  10099  7568  3871  140  -2594  -3857  -3848  -3090  -2120  -1411  -1202  -1322  -1428  -1337  -1064  -756  -557  -469  -399  -313  -239  -155  0  197  321  324  290  301  352  412  504  656  833  956  1000  996  980  977  1011  1102  1266  1504  1758  1929  1986  1983  1971  1966  1966  1967  1970  1974  1968  1908  1732  1431  1073  733  441  205  48  -18  -36  -99  -278  -559  -840  -1022  -1089  -1089  -1057  -967  -786  -565  -414  -380  -433  -522  -609  -673  -707  -713  -697  -666  -639  -643  -691  -762  -784  -698  -534  -391  -333  -337  -353  -359  -358  -367  -407  -497  -622  -726  -775  -781  -773  -769  -783  -828  -897  -967  -1006  -967  -792  -500  -218  -70  -81  -218  -424  -614  -727  -759  -756  -773  -844  -952  -1049  -1112  -1170  -1257  -1359  -1433  -1461  -1471  -1495  -1557  -1636  -1625  -1436  -1250  -1320  -1461  -1065  405  3059  6383  9236  10311  8959  5626  1496  -2126  -4277  -4779  -4277  -3533  -2915  -2526  -2303  -2088  -1799  -1454  -1111  -852  -720  -701  -747  -800  -813  -799  -800  -809  -762  -612  -390  -175  -19  78  135  178  242  333  423  497  609  826  1109  1345  1495  1615  1731  1811  1836  1838  1844  1849  1822  1737  1595  1439  1308  1192  1047  866  675  458  160  -179  -433  -548  -581  -602  -640  -707  -842  -1057  -1277  -1418  -1475  -1486  -1462  -1390  -1272  -1139  -1021  -934  -860  -789  -738  -738  -795  -877  -935  -953  -957  -973  -1001  -1033  -1071  -1115  -1145  -1146  -1114  -1057  -992  -937  -910  -921  -962  -1007  -1027  -1016  -993  -975  -967  -962  -946  -884  -744  -553  -393  -311  -293  -318  -382  -468  -538  -569  -570  -562  -552  -545  -565  -635  -742  -829  -855  -824  -756  -678  -616  -577  -575  -680  -948  -1275  -1469  -1475  -1274  -635  774  3081  6063  9052  10970  10845  8568  4942  1098  -1893  -3342  -3355  -2617  -1690  -901  -468  -366  -357  -240  22  356  656  849  921  922  906  903  919  954  1020  1111  1204  1296  1415  1568  1725  1856  1981  2145  2359  2585  2760  2866  2976  3185  3473  3715  3842  3895  3927  3950  3964  3970  3978  3986  3969  3873  3663  3389  3164  3042  2999  2983  2928  2761  2465  2130  1866  1711  1629  1550  1414  1228  1055  942  897  935  1079  1299  1513  1654  1692  1612  1426  1212  1071  1027  1037  1078  1158  1284  1410  1457  1405  1329  1303  1327  1364  1390  1400  1404  1407  1393  1321  1164  967  810  729  706  721  759  801  836  848  825  779  742  754  837  959  1057  1096  1066  954  778  609  507  469  461  462  463  452  423  373  295  177  45  -45  -79  -75  -87  -233  -591  -1058  -1469  -1695  -1422  -139  2369  5664  8785  10569  10135  7498  3601  -288  -3101  -4374  -4406  -3830  -3129  -2563  -2227  -2077  -2020  -1995  -1975  -1941  -1870  -1756  -1644  -1591  -1595  -1612  -1608  -1592  -1585  -1589  -1595  -1605  -1623  -1633  -1575  -1393  -1133  -934  -865  -862  -827  -740  -660  -634  -637  -625  -594  -551  -474  -355  -237  -173  -198  -321  -503  -672  -799  -932  -1156  -1519  -1980  -2406  -2679  -2818  -2926  -3075  -3300  -3599  -3913  -4161  -4301  -4369  -4417  -4450  -4455  -4444  -4422  -4404  -4421  -4496  -4639  -4817  -4939  -4916  -4725  -4455  -4264  -4260  -4436  -4685  -4867  -4933  -4931  -4915  -4905  -4903  -4908  -4920  -4929  -4913  -4837  -4702  -4562  -4474  -4450  -4469  -4532  -4638  -4760  -4872  -4959  -4977  -4916  -4844  -4817  -4820  -4831  -4838  -4804  -4674  -4440  -4166  -3936  -3784  -3677  -3572  -3468  -3380  -3321  -3296  -3306  -3363  -3462  -3559  -3598  -3562  -3496  -3462  -3495  -3570  -3636  -3661  -3615  -3475  -3288  -3152  -3110  -3111  -3094  -3078  -3085  -3058  -2864  -2159  -473  2323  5755  8769  10069  8904  5610  1370  -2420  -4683  -5119  -4334  -3240  -2373  -1844  -1561  -1370  -1210  -1110  -1053  -953  -763  -519  -313  -205  -167  -120  -17  119  236  336  466  629  778  906  1059  1266  1495  1690  1831  1955  2159  2501  2885  3167  3333  3451  3557  3649  3725  3781  3821  3864  3923  3980  4007  3995  3954  3928  3947  3956  3814  3422  2896  2503  2349  2310  2253  2156  2054  1962  1867  1750  1638  1588  1631  1732  1834  1909  1957  1983  1989  1989  2003  2032  2059  2069  2060  2054  2094  2219  2391  2520  2566  2561  2548  2538  2518  2467  2379  2283  2221  2211  2237  2286  2351  2423  2486  2527  2543  2546  2557  2588  2609  2547  2395  2258  2219  2258  2332  2434  2562  2683  2738  2695  2573  2402  2201  2017  1911  1892  1924  1969  1996  1973  1881  1744  1608  1461  1256  1050  978  1052  1154  1203  1186  1086  868  501  82  -9  793  2902  6198  9798  12346  12724  10691  7063  3162  55  -1727  -2241  -1939  -1286  -622  -154  117  330  574  815  974  1025  1016  1000  974  900  780  684  681  771  888  977  1060  1181  1335  1475  1587  1674  1720  1720  1700  1701  1778  1974  2235  2445  2547  2573  2568  2553  2531  2511  2482  2418  2296  2099  1849  1624  1471  1361  1232  1027  728  386  65  -204  -416  -585  -718  -802  -839  -852  -869  -913  -994  -1089  -1152  -1168  -1157  -1143  -1135  -1121  -1078  -1005  -931  -883  -882  -930  -1009  -1084  -1112  -1046  -906  -778  -721  -728  -779  -875  -1004  -1116  -1181  -1216  -1245  -1269  -1285  -1295  -1301  -1307  -1320  -1340  -1358  -1365  -1347  -1287  -1180  -1058  -968  -936  -971  -1096  -1311  -1544  -1699  -1756  -1754  -1740  -1752  -1821  -1938  -2053  -2133  -2197  -2276  -2370  -2450  -2507  -2566  -2638  -2667  -2606  -2550  -2627  -2808  -2887  -2402  -808  1952  5200  7811  8692  7351  4238  460  -2827  -4877  -5576  -5347  -4697  -3981  -3451  -3208  -3123  -2998  -2784  -2559  -2369  -2191  -2012  -1855  -1756  -1737  -1784  -1877  -1992  -2083  -2126  -2143  -2148  -2124  -2038  -1881  -1680  -1477  -1291  -1097  -891  -718  -603  -530  -459  -313  -49  265  499  598  607  589  573  560  539  481  348  75  -384  -914  -1276  -1378  -1333  -1285  -1348  -1608  -2039  -2463  -2705  -2748  -2687  -2606  -2544  -2507  -2494  -2506  -2537  -2564  -2578  -2580  -2572  -2559  -2545  -2542  -2579  -2677  -2798  -2862  -2823  -2716  -2605  -2517  -2436  -2352  -2293  -2277  -2283  -2281  -2266  -2241  -2188  -2080  -1921  -1766  -1664  -1602  -1552  -1512  -1475  -1421  -1349  -1280  -1232  -1205  -1200  -1244  -1366  -1529  -1648  -1675  -1616  -1497  -1340  -1180  -1063  -1022  -1068  -1198  -1370  -1507  -1571  -1572  -1519  -1411  -1275  -1191  -1251  -1472  -1673  -1448  -396  1612  4356  7239  9315  9691  8130  5155  1673  -1326  -3124  -3672  -3411  -2788  -2170  -1766  -1506  -1259  -984  -667  -311  9  224  355  448  511  562  641  750  857  960  1098  1285  1502  1731  1945  2101  2179  2200  2215  2283  2437  2659  2904  3141  3391  3721  4133  4520  4770  4870  4882  4870  4862  4854  4834  4791  4715  4600  4455  4306  4165  3994  3731  3357  2903]
