reading_id,reading_time,wire_id,result_classification,heart_rate,heart_rate_alert,firmware_version,device_app_version,hardware_version,waveform_samples
09ce7ab0-6300-11ed-8080-808080808080,Sun Nov 13 03:05:33 UTC 2022,a101e3f91939,NSR,92,NONE,20001.171.50,2.10.0,Charge 5,[2432  2666  2895  3161  3542  4017  4456  4787  5055  5310  5554  5765  5939  6076  6162  6195  6206  6251  6395  6630  6822  6852  6778  6722  6706  6681  6618  6563  6595  6708  6830  6927  7020  7148  7349  7584  7759  7864  7985  8166  8376  8555  8619  8505  8252  7995  7847  7803  7800  7806  7816  7807  7764  7679  7518  7239  6872  6516  6266  6135  6052  5947  5810  5657  5516  5427  5401  5401  5394  5365  5257  4957  4444  3865  3386  3057  2848  2724  2701  2779  2825  2669  2328  2126  2585  3936  5902  7893  9008  8414  6193  3291  648  -1157  -1875  -1754  -1322  -867  -548  -494  -573  -591  -532  -420  -249  -59  69  89  0  -171  -393  -629  -842  -1015  -1147  -1257  -1363  -1449  -1524  -1637  -1794  -1935  -2011  -2022  -2012  -2027  -2096  -2193  -2268  -2296  -2296  -2302  -2355  -2460  -2568  -2638  -2731  -2960  -3325  -3693  -3951  -4071  -4081  -4036  -3994  -4063  -4392  -5020  -5713  -6153  -6273  -6241  -6224  -6294  -6464  -6720  -6994  -7185  -7245  -7182  -7010  -6791  -6635  -6593  -6627  -6694  -6806  -7002  -7245  -7429  -7534  -7626  -7715  -7709  -7530  -7238  -6991  -6876  -6850  -6835  -6786  -6680  -6496  -6247  -6003  -5820  -5722  -5704  -5729  -5745  -5689  -5515  -5251  -4938  -4625  -4439  -4444  -4533  -4572  -4526  -4412  -4260  -4116  -4025  -3991  -3994  -4011  -4030  -4022  -3932  -3729  -3459  -3211  -3045  -2970  -2950  -2938  -2889  -2763  -2541  -2260  -2011  -1872  -1840  -1850  -1843  -1812  -1774  -1732  -1698  -1750  -1903  -2052  -2117  -2106  -2042  -1922  -1735  -1508  -1302  -1176  -1131  -1138  -1205  -1334  -1409  -1328  -1223  -1211  -1012  -79  1890  4549  6955  8042  7197  4679  1499  -1288  -3112  -3867  -3772  -3191  -2505  -2006  -1725  -1487  -1213  -991  -906  -938  -1005  -1035  -1038  -1028  -929  -724  -515  -356  -233  -141  -75  -11  87  233  368  437  458  469  516  640  813  946  1016  1105  1293  1566  1861  2108  2251  2286  2248  2161  2037  1920  1890  1977  2098  2144  2112  2067  2052  2052  2016  1875  1599  1248  937  737  648  627  632  641  645  650  664  676  693  765  888  1002  1080  1124  1138  1131  1118  1106  1096  1086  1074  1066  1066  1080  1106  1126  1131  1127  1136  1177  1227  1206  1093  989  970  999  1022  1027  1007  966  908  819  684  526  403  350  354  389  440  510  574  589  549  484  432  426  443  436  413  406  417  429  432  433  438  435  409  355  291  260  294  357  402  423  433  440  442  422  360  270  195  151  128  101  23  -152  -379  -544  -612  -643  -686  -743  -817  -965  -1163  -1167  -863  -510  -399  -576  -764  -416  910  3161  5640  7317  7444  5937  3403  733  -1432  -2802  -3366  -3333  -2962  -2451  -1910  -1391  -967  -729  -674  -700  -699  -622  -489  -362  -274  -213  -187  -245  -384  -523  -582  -536  -397  -177  99  373  582  715  797  852  903  959  1004  1033  1072  1168  1336  1532  1686  1788  1861  1908  1925  1926  1923  1910  1873  1810  1736  1665  1600  1519  1396  1225  1045  903  764  551  289  96  18  -4  -37  -107  -189  -230  -202  -142  -101  -86  -66  -24  16  24  15  25  57  76  54  0  -64  -127  -177  -208  -212  -193  -181  -193  -221  -253  -280  -301  -336  -402  -511  -634  -692  -658  -603  -602  -673  -790  -916  -1012  -1056  -1045  -998  -962  -989  -1085  -1198  -1305  -1434  -1560  -1623  -1615  -1550  -1431  -1265  -1113  -1068  -1149  -1285  -1413  -1498  -1512  -1444  -1314  -1170  -1057  -1000  -995  -1017  -1050  -1084  -1117  -1132  -1132  -1157  -1233  -1330  -1403  -1427  -1410  -1384  -1379  -1429  -1532  -1644  -1719  -1737  -1706  -1630  -1534  -1469  -1434  -1416  -1362  -1010  -51  1621  3836  6032  7356  7088  5181  2314  -635  -2859  -3821  -3648  -2928  -2167  -1585  -1206  -1006  -926  -879  -822  -762  -712  -673  -645  -636  -649  -674  -690  -682  -646  -549  -344  -68  147  225  204  159  124  114  181  376  645  867  1010  1126  1220  1277  1344  1507  1776  2075  2315  2443  2463  2415  2337  2255  2182  2121  2048  1897  1631  1297  997  788  632  460  282  157  99  77  70  70  77  81  34  -127  -399  -666  -804  -781  -634  -432  -260  -171  -150  -158  -174  -181  -146  -37  108  191  133  -35  -208  -323  -373  -335  -244  -196  -209  -229  -235  -254  -321  -420  -490  -501  -489  -492  -514  -550  -580  -565  -487  -373  -285  -257  -294  -409  -606  -819  -942  -950  -912  -870  -819  -763  -726  -724  -776  -867  -918  -888  -819  -753  -704  -679  -667  -639  -585  -531  -500  -505  -576  -732  -934  -1098  -1186  -1215  -1216  -1201  -1156  -1076  -989  -933  -911  -896  -862  -800  -721  -661  -648  -694  -863  -1254  -1655  -1526  -489  1514  4164  6547  7646  7027  4885  1868  -1064  -3031  -3692  -3334  -2503  -1676  -1176  -1046  -1049  -1008  -933  -840  -700  -510  -313  -160  -77  -46  -20  30  119  241  356  426  455  490  591  774  991  1184  1315  1372  1374  1365  1378  1402  1419  1444  1512  1640  1819  2028  2202  2263  2220  2144  2077  2037  1999  1924  1838  1779  1708  1565  1325  1041  814  703  664  600  467  309  188  110  49  -30  -160  -325  -441  -446  -348  -188  -19  108  185  229  241  213  162  115  88  85  73  14  -84  -193  -307  -413  -482  -503  -502  -514  -558  -622  -685  -747  -821  -901  -956  -974  -970  -960  -952  -946  -943  -946  -951  -944  -909  -843  -774  -734  -729  -751  -787  -827  -873  -910  -913  -881  -831  -763  -682  -624  -612  -635  -668  -693  -717  -746  -770  -787  -825  -894  -951  -955  -891  -787  -693  -637  -591  -510  -439  -523  -795  -1094  -1257  -1086  -320  1121  3076  5181  6807  7211  6046  3690  910  -1485  -2796  -2884  -2299  -1658  -1208  -958  -816  -658  -442  -227  -82  -20  -12  -23  -46  -88  -131  -143  -112  -35  108  310  509  651  721  741  744  755  788  850  944  1066  1182  1254  1279  1285  1291  1302  1331  1395  1493  1596  1703  1834  1924  1817  1458  1008  672  499  436  432  434  382  266  132  2  -149  -361  -621  -842  -959  -996  -1004  -1007  -997  -966  -918  -880  -886  -919  -933  -928  -928  -927  -878  -751  -615  -588  -673  -748  -726  -644  -580  -554  -540  -517  -498  -500  -522  -541  -529  -488  -443  -413  -399  -393  -407  -476  -615  -780  -868  -804  -617  -399  -239  -173  -171  -187  -203  -223  -244  -253  -255  -288  -387  -526  -640  -701  -723  -720  -705  -694  -706  -768  -886  -1016  -1104  -1138  -1069  -917  -900  -1088  -1157  -721  361  2067  4172  6058  6957  6377  4313  1379  -1389  -3143  -3661  -3292  -2649  -2227  -2100  -2053  -1933  -1722  -1460  -1202  -985  -796  -567  -242  120  386  523  596  624  563  403  215  85  32  19  25  70  186  380  619  853  1022  1093  1082  1044  1062  1241  1616  2068  2424  2589  2561  2411  2225  2047  1891  1775  1706  1668  1608  1469  1269  1090  948  744  416  70  -160  -285  -389  -499  -595  -661  -698  -711  -710  -698  -647  -526  -359  -218  -152  -141  -140  -132  -128  -133  -140  -140  -134  -132  -152  -211  -283  -311  -276  -240  -269  -322  -317  -258  -214  -216  -244  -276  -310  -340  -386  -477  -589  -666  -692  -690  -682  -683  -700  -722  -706  -609  -462  -349  -307  -301  -294  -283  -287  -328  -438  -636  -879  -1074  -1175  -1211  -1235  -1269  -1285  -1254  -1213  -1212  -1236  -1246  -1278  -1410  -1574  -1521  -953  344  2389  4799  6814  7591  6635  4193  1129  -1623  -3375  -3904  -3554  -2878  -2257  -1787  -1409  -1095  -885  -791  -773  -769  -719  -580  -383  -204  -71  61  239  430  561  618  639  649  654  661  694  800  1010  1295  1598  1862  2040  2129  2168  2197  2240  2284  2294  2253  2181  2130  2128  2152  2162  2143  2096  2032  1948  1839  1717  1610  1532  1465  1365  1185  930  673  467  288  90  -120  -279  -337  -308  -256  -226  -213  -210  -239  -336  -494  -651  -758  -800  -786  -717  -557  -285  11  201  250  214  152  83  1  -87  -176  -275  -403  -557  -699  -784  -799  -766  -715  -665  -626  -599  -581  -572  -569  -564  -547  -524  -513  -542  -615  -726  -886  -1108  -1345  -1520  -1606  -1641  -1663  -1696  -1750  -1796  -1753  -1561  -1274  -1043  -978  -1130  -1461  -1775  -1899  -1749  -1207  -187  1330  3265  5288  6793  7067  5760  3241  351  -2050  -3367  -3580  -3183  -2648  -2202  -1879  -1547  -1130  -753  -549  -510  -541  -575  -600  -614  -602  -541  -419  -239  -26  165  288  345  367  377  388  417  475  547  610  677  768  886  1029  1196  1367  1500  1566  1573  1557  1552  1589  1693  1866  2048  2156  2166  2082  1855  1462  1016  663  450  356  336  336  321  281  194  24  -207  -410  -541  -647  -760  -845  -875  -861  -821  -777  -763  -796  -860  -931  -1012  -1098  -1135  -1049  -822  -541  -356  -326  -374  -405  -406  -435  -524  -629  -692  -708  -707  -705  -686  -626  -525  -419  -339  -288  -248  -193  -124  -68  -49  -89  -189  -294  -329  -259  -111  28  87  80  58  46  39  26  5  -15  -35  -56  -92  -174  -323  -529  -749  -933  -1054  -1113  -1128  -1139  -1193  -1279  -1335  -1318  -1217  -1077  -1017  -1068  -1134  -1245  -1436  -1299  -258  1749  4248  6501  7603  6953  4781  1917  -776  -2669  -3490  -3408  -2846  -2218  -1810  -1647  -1518  -1275  -991  -811  -765  -784  -805  -797  -742  -638  -514  -412  -337  -266  -183  -97  -21  37  83  141  242  383  520  621  698  770  829  872  945  1115  1378  1648  1859  2010  2100  2102  2018  1898  1796  1739  1707  1631  1471  1279  1148  1082  981  772  517  328  218  101  -92  -322  -484  -563  -635  -735  -832  -896  -936  -963  -981  -995  -1014  -1016  -958  -849  -761  -728  -715  -694  -669  -655  -649  -635  -606  -580  -579  -596  -608  -602  -575  -539  -509  -480  -432  -369  -319  -308  -333  -379  -425  -462  -495  -513  -493  -444  -401  -380  -367  -354  -370  -441  -530  -567  -530  -460  -384  -291  -191  -125  -105  -104  -105  -107  -106  -92  -59  -19  26  110  245  386  473  485  455  427  396  335  254  191  168  171  178  186  218  278  319  288  191  103  92  93  -50  -355  -473  180  1882  4302  6860  8870  9506  8346  5792  2710  -33  -1764  -2265  -1918  -1280  -655  -195  13  55  76  126  183  217  228  249  308  389  454  491  514  537  569  613  680  796  952  1092  1179  1225  1243  1246  1248  1267  1304  1356  1421  1500  1596  1705  1818  1938  2066  2178  2253  2281  2215  1976  1585  1217  1023  964  895  750  586  472  393  273  66  -207  -491  -737  -931  -1086  -1205  -1284  -1323  -1329  -1316  -1315  -1380  -1520  -1623  -1579  -1448  -1353  -1318  -1307  -1300  -1302  -1321  -1349  -1379  -1410  -1442  -1465  -1470  -1462  -1449  -1438  -1433  -1440  -1467  -1515  -1572  -1604  -1590  -1540  -1475  -1415  -1369  -1337  -1308  -1263  -1214  -1182  -1160  -1128  -1091  -1083  -1124  -1195  -1265  -1347  -1412  -1353  -1162  -984  -919  -951  -1033  -1143  -1261  -1362  -1439  -1489  -1500  -1469  -1407  -1320  -1214  -1115  -1041  -978  -916  -874  -859  -851  -826  -786  -754  -750  -780  -846  -934  -1002  -1027  -1023  -1018  -1039  -1123  -1284  -1452  -1511  -1448  -1368  -1356  -1407  -1464  -1497  -1527  -1560  -1560  -1495  -1390  -1349  -1459  -1710  -2014  -2140  -1735  -535  1494  4018  6279  7436  7019  5092  2307  -348  -2184  -3046  -3086  -2648  -2130  -1727  -1458  -1295  -1196  -1117  -1022  -889  -734  -607  -541  -510  -474  -428  -384  -343  -291  -222  -150  -99  -79  -91  -118  -115  -25  197  508  767  898  937  941  941  965  1044  1171  1304  1412  1494  1569  1644  1701  1704  1656  1590  1508  1404  1291  1179  1063  955  859  752  593  373  147  -18  -136  -262  -409  -560  -693  -782  -825  -851  -877  -895  -900  -891  -853  -759  -613  -473  -395  -376  -385  -406  -436  -462  -473  -487  -522  -557  -563  -534  -474  -404  -348  -318  -312  -316  -317  -319  -346  -405  -468  -499  -497  -487  -481  -478  -473  -463  -459  -491  -586  -732  -882  -990  -1030  -997  -891  -737  -595  -495  -422  -371  -357  -369  -368  -316  -230  -183  -220  -302  -369  -412  -446  -449  -389  -283  -191  -142  -128  -157  -244  -358  -434  -441  -395  -335  -293  -275  -264  -243  -214  -225  -378  -716  -1078  -1265  -1250  -939  -72  1438  3372  5381  6966  7488  6627  4584  1881  -731  -2521  -3213  -3055  -2466  -1797  -1282  -991  -844  -755  -698  -657  -620  -598  -604  -614  -562  -378  -97  143  246  255  284  404  576  713  785  810  796  765  804  1037  1453  1856  2077  2126  2112  2116  2157  2226  2311  2395  2449  2465  2464  2463  2458  2423  2325  2145  1897  1653  1499  1412  1283  1062  806  583  394  225  84  -36  -170  -321  -442  -499  -510  -512  -519  -527  -536  -558  -603  -671  -750  -816  -862  -906  -959  -982  -897  -658  -355  -143  -74  -80  -102  -154  -278  -447  -569  -589  -533  -444  -308  -73  220  437  510  476  375  220  36  -140  -261  -297  -289  -283  -251  -184  -128  -98  -83  -86  -109  -136  -144  -136  -128  -126  -120  -98  -52  36  162  241  206  116  51  18  0  -12  -20  -23  -7  40  108  148  119  19  -78  -83  1  90  133  148  162  162  124  45  -48  -116  -140  -129  -87  -5  94  164  187  178  136  54  -47  -117  -138  -142  -157  -174  -185  -229  -397  -676  -862  -815  -522  190  1606  3737  6152  8060  8639  7511  5042  2141  -322  -1884  -2449  -2278  -1840  -1404  -1021  -767  -647  -556  -461  -387  -347  -342  -334  -277  -189  -123  -85  -13  148  358  515  573  563  533  511  507  511  537  628  794  986  1137  1218  1240  1235  1239  1280  1366  1521  1772  2069  2290  2379  2371  2298  2146  1911  1644  1424  1298  1229  1141  1011  865  714  572  455  303  34  -316  -613  -804  -931  -1026  -1081  -1106  -1123  -1108  -987  -716  -391  -164  -78  -79  -157  -340  -591  -796  -888  -903  -900  -900  -879  -785  -597  -391  -281  -296  -351  -356  -322  -321  -373  -420  -415  -365  -310  -286  -285  -295  -340  -423  -503  -556  -597  -639  -673  -678  -633  -546  -456  -376  -277  -172  -117  -133  -180  -210  -210  -219  -291  -449  -648  -825  -947  -1009  -1023  -1014  -989  -944  -879  -814  -781  -788  -810  -825  -833  -843  -836  -789  -719  -694  -747  -833  -880  -867  -844  -849  -874  -904  -934  -989  -1116  -1299  -1452  -1528  -1555  -1578  -1625  -1665  -1615  -1552  -1623  -1613  -1097  168  2213  4731  6966  7988  7214  4842  1746  -1095  -2997  -3720  -3566  -3086  -2523  -1899  -1386  -1130  -1047  -1020  -1006  -995  -989  -992  -996  -976  -905  -777  -624  -479  -348  -235  -150  -80  -2  78  143  192  233  260  272  272  269  280  357  569  926  1315  1576  1661  1648  1624  1629  1675  1759  1848  1896  1884  1838  1776  1646  1379  1022  732  581  477  311  91  -106  -278  -480  -693  -832  -875  -874  -871  -872  -869  -867  -887  -949  -1035  -1091  -1086  -1032  -961  -887  -819  -783  -780  -788  -797  -780  -695  -575  -498  -504  -569  -642  -706  -783  -870  -931  -948  -932  -918  -924  -940  -951  -955  -955  -950  -933  -907  -888  -887  -902  -935  -994  -1071  -1137  -1156  -1110  -1022  -928  -850  -804  -793  -815  -865  -923  -956  -953  -922  -877  -849  -866  -917  -988  -1070  -1132  -1111  -934  -609  -276  -90  -66  -117  -173  -225  -275  -301  -269  -183  -114  -116  -159  -186  -204  -263  -385  -530  -658  -776  -894  -980  -1017  -1030  -1041  -1037  -964  -773  -508  -318  -329  -546  -896  -1143  -864  270  2242  4672  6847  7963  7523  5598  2832  73  -1992  -2962  -2917  -2381  -1876  -1595  -1438  -1251  -977  -655  -377  -198  -103  -35  29  77  96  96  94  87  58  16  30  207  554  913  1115  1151  1107  1051  1007  983  986  1036  1181  1458  1825  2160  2373  2478  2540  2587  2610  2606  2597  2619  2706  2837  2930  2874  2601  2192  1837  1630  1511  1394  1247  1083  930  790  629  447  304  238  218  192  131  35  -66  -123  -112  -71  -20  79  254  471  671  768  683  466  282  228  265  316  334  325  299  241  149  60  12  6  17  30  31  -7  -113  -266  -402  -485  -524  -531  -525  -548  -646  -813  -985  -1114  -1183  -1175  -1078  -917  -764  -699  -721  -778  -847  -935  -1047  -1163  -1243  -1276  -1269  -1206  -1067  -890  -753  -689  -676  -684  -684  -665  -636  -604  -561  -504  -447  -404  -378  -364  -356  -356  -390  -480  -601  -693  -726  -724  -720  -740  -799  -879  -928  -904  -819  -740  -729  -779  -835  -864  -874  -868  -855  -903  -1082  -1312  -1281  -557  1091  3463  6029  7998  8463  7057  4324  1254  -1226  -2511  -2657  -2266  -1792  -1330  -945  -733  -669  -651  -616  -569  -512  -395  -187  49  205  247  222  181  162  221  415  698  928  1024  1025  996  974  979  1035  1155  1316  1475  1603  1702  1786  1891  2042  2201  2297  2327  2366  2489  2684  2871  2978  2918  2631  2240  1971  1890  1882  1818  1661  1427  1100  671  242  -61  -251  -404  -528  -598  -653  -767  -944  -1116  -1220  -1238  -1188  -1110  -1053  -1035  -1049  -1090  -1141  -1177  -1190  -1192  -1187  -1166  -1122  -1081  -1081  -1122  -1164  -1169  -1124  -1043  -965  -924  -924  -953  -989  -1015  -1024  -1025  -1020  -1002  -967  -930  -906  -897  -894  -896  -917  -960  -972  -918  -866  -902  -1007  -1101  -1141  -1148  -1152  -1132  -1041  -899  -793  -772  -810  -851  -858  -817  -707  -566  -490  -518  -591  -620  -511  -267  -16  136  205  235  221  129  -17  -125  -150  -143  -200  -382  -637  -835  -925  -953  -968  -970  -948  -914  -889  -882  -880  -869  -845  -813  -780  -745  -725  -769  -889  -932  -575  441  2177  4474  6759  8124  7859  5920  2967  -20  -2185  -3076  -2871  -2190  -1548  -1158  -1023  -1008  -979  -887  -719  -487  -242  -39  112  228  307  349  369  378  374  368  384  442  530  614  676  726  775  830  894  974  1074  1194  1299  1356  1396  1507  1738  2031  2281  2436  2529  2603  2651  2649  2587  2482  2358  2189  1923  1600  1340  1207  1157  1093  922  638  322  52  -145  -269  -320  -333  -388  -547  -776  -968  -1065  -1085  -1072  -1057  -1051  -1048  -1038  -1022  -995  -959  -933  -933  -948  -959  -955  -930  -887  -848  -845  -892  -968  -1023  -1031  -1001  -950  -894  -856  -847  -860  -887  -924  -966  -1004  -1034  -1067  -1095  -1109  -1118  -1136  -1164  -1179  -1165  -1138  -1122  -1118  -1111  -1083  -1022  -949  -899  -885  -888  -885  -870  -856  -859  -872  -870  -831  -732  -585  -454  -397  -430  -542  -703  -864  -987  -1068  -1126  -1167  -1184  -1173  -1147  -1124  -1116  -1118  -1122  -1126  -1133  -1140  -1147  -1173  -1234  -1337  -1465  -1462  -982  265  2252  4604  6631  7464  6608  4335  1390  -1371  -3137  -3574  -3074  -2244  -1465  -948  -737  -695  -683  -665  -632  -571  -482  -370  -217  -22  171  313  385  404  399  385  365  361  426  610  904  1222  1460  1571  1583  1550  1502  1452  1425  1475  1644  1880  2068  2154  2163  2128  2080  2043  2026  2032  2055  2064  2040  1974  1840  1582  1222  862  556  286  50  -152  -373  -623  -829  -957  -1053  -1152  -1238  -1281  -1290  -1308  -1358  -1423  -1479  -1519  -1532  -1513  -1484  -1472  -1476  -1472  -1429  -1329  -1165  -952  -749  -634  -644  -763  -922  -1034  -1068  -1054  -1027  -997  -970  -957  -977  -1047  -1157  -1268  -1341  -1361  -1350  -1355  -1403  -1475  -1520  -1456  -1256  -1004  -844  -860  -1004  -1150  -1241  -1304  -1359  -1395  -1362  -1205  -951  -713  -580  -548  -576  -637  -723  -821  -910  -986  -1060  -1133  -1186  -1201  -1193  -1180  -1163  -1147  -1144  -1165  -1228  -1332  -1435  -1500  -1524  -1510  -1439  -1322  -1275  -1390  -1541  -1382  -568  964  2963  4991  6496  6927  6016  3981  1391  -1043  -2672  -3263  -3078  -2516  -1903  -1414  -1075  -884  -827  -829  -797  -669  -461  -244  -70  50  123  158  187  240  324  448  619  795  906  933  910  870  841  889  1095  1431  1754  1963  2094  2225  2384  2551  2709  2848  2961  3047  3114  3183  3260  3323  3362  3393  3402  3304  3016  2618  2311  2172  2120  2078  2026  1950  1812  1618  1417  1238  1095  1014  1030  1144  1302  1412  1431  1382  1312  1258  1233  1246  1326  1496  1737  1974  2116  2113  1978  1783  1652  1717  2033  2469  2782  2858  2767  2634  2537  2471  2395  2326  2331  2413  2511  2586  2639  2667  2674  2669  2663  2663  2680  2726  2805  2899  2970  2999  2998  2989  2985  3003  3060  3146  3225  3276  3305  3321  3315  3274  3202  3112  3009  2907  2833  2800  2797  2814  2836  2844  2824  2780  2726  2666  2590  2477  2282  2012  1760  1625  1619  1673  1666  1619  1841  2753  4569  7024  9294  10358  9611  7310  4394  1786  -8  -890  -1060  -813  -350  132  441  565  629  693  755  831  923  1004  1057  1089  1099  1048  897  668  439  260  133  48  2  -1  45  128  186  187  176  197  241  283  314  357  445  548  587  524  415  337  319  338  354  324  206  -3  -257  -517  -785  -1055  -1287  -1467  -1678  -2049  -2571  -3055  -3373  -3583  -3760  -3891  -3981  -4076  -4181  -4281  -4409  -4605  -4829  -4986  -5042  -5038  -5023  -5020  -5033  -5054  -5080  -5133  -5233  -5352  -5438  -5477  -5492  -5502  -5517  -5556  -5627  -5704  -5751  -5761  -5759  -5773  -5815  -5871  -5916  -5943  -5971  -6026  -6106  -6185  -6243  -6262  -6239  -6210  -6202  -6201  -6219  -6295  -6415  -6530  -6616  -6661  -6623  -6465  -6237  -6044  -5927  -5861  -5830  -5824  -5824  -5822  -5814  -5791  -5739  -5670  -5620  -5622  -5679  -5761  -5821  -5835  -5806  -5741  -5642  -5531  -5443  -5405  -5405  -5424  -5449  -5471  -5486  -5476  -5405  -5252  -5045  -4859  -4778  -4865  -5076  -5113  -4508  -2978  -630  1992  4007  4574  3378  845  -2129  -4669  -6209  -6602  -6139  -5288  -4416  -3736  -3319  -3101  -2990  -2942  -2942  -2973  -3003  -2936  -2656  -2161  -1625  -1238  -1047  -983  -968  -972  -984  -983  -900  -662  -279  129  432  592  673  747  840  955  1079  1189  1297  1468  1763  2136  2443  2595  2642  2685  2765  2848  2887  2887  2880  2886  2889  2849  2733  2579  2464  2403  2336  2205  2010  1804  1647  1566  1542  1542  1546  1561  1612  1722  1872  2010  2100  2159  2226  2303  2356  2367  2365  2393  2478  2596  2699  2758  2775  2778  2809  2885  2983  3072  3113  3083  2998  2876  2740  2627  2563  2560  2628  2734  2832  2901  2937  2943  2929  2925  2967  3048  3116  3142  3148  3166  3201  3243  3279  3305  3322  3349  3404  3470  3499  3457  3358  3239  3118  2999  2899  2836  2790  2720  2621  2529  2465  2411  2349  2292  2264  2266  2279  2294  2315  2326  2266  2085  1831  1590  1419  1507  2237  3839  6109  8520  10354  10843  9636  7117  4092  1359  -411  -949  -598  40  566  869  1052  1247  1450  1585  1631  1616  1561  1494  1462  1494  1559  1608  1632  1661  1722  1798  1848  1863  1878  1934  2021  2090  2112  2101  2089  2114  2217  2411  2655  2867  2989  3042  3090  3178  3302  3425  3503  3504  3423  3290  3148  3026  2910  2765  2589  2408  2242  2092  1926  1691  1363  992  681  479  350  227  75  -86  -204  -270  -309  -343  -384  -444  -521  -601  -663  -696  -707  -709  -710  -714  -719  -719  -709  -693  -681  -674  -667  -661  -678  -740  -834  -912  -948  -958  -971  -999  -1007  -938  -804  -711  -729  -801  -861  -910  -972  -1038  -1068  -1024  -912  -784  -674  -587  -533  -532  -597  -698  -785  -842  -890  -959  -1058  -1176  -1282  -1342  -1354  -1346  -1358  -1415  -1504  -1581  -1619  -1624  -1614  -1593  -1563  -1531  -1512  -1554  -1714  -1976  -2217  -2198  -1629  -357  1564  3908  6122  7352  6921  4762  1466  -1865  -4122  -4861  -4407  -3457  -2675  -2325  -2241  -2200  -2126  -2005  -1851  -1704  -1583  -1471  -1354  -1237  -1116  -1006  -932  -890  -862  -837  -820  -820  -831  -828  -776  -638  -406  -152  18  89  137  229  364  501  622  751  891  1008  1078  1110  1129  1156  1191  1224  1253  1269  1250  1157  963  688  375  52  -247  -474  -609  -696  -805  -975  -1178  -1365  -1527  -1660  -1741  -1767  -1767  -1761  -1746  -1721  -1697  -1680  -1653  -1609  -1570  -1553  -1536  -1451  -1235  -938  -707  -625  -705  -946  -1265  -1489  -1488  -1255  -922  -691  -628  -623  -590  -549  -536  -547  -559  -569  -606  -701  -828  -896  -850  -751  -679  -644  -626  -615  -614  -621  -637  -673  -760  -921  -1120  -1279  -1353  -1362  -1335  -1281  -1218  -1181  -1198  -1256  -1322  -1369  -1398  -1400  -1368  -1373  -1485  -1646  -1706  -1424  -481  1293  3697  6111  7667  7617  5793  2793  -360  -2744  -3899  -3966  -3454  -2880  -2519  -2267  -1867  -1360  -1024  -967  -1060  -1159  -1208  -1189  -1057  -792  -492  -293  -230  -249  -303  -387  -482  -528  -463  -271  -4  268  500  668  778  849  888  924  1007  1136  1253  1333  1455  1705  2027  2255  2294  2184  2014  1841  1643  1408  1203  1074  984  884  764  627  471  299  129  -18  -154  -311  -489  -654  -778  -857  -895  -903  -896  -899  -935  -1008  -1111  -1222  -1309  -1340  -1300  -1198  -1082  -1003  -968  -925  -826  -676  -538  -460  -425  -382  -315  -250  -221  -267  -407  -580  -649  -537  -319  -130  -21  38  76  103  124  148  197  290  395  450  424  335  228  140  95  93  94  27  -146  -331  -391  -364  -365  -377  -357  -343  -374  -438  -507  -572  -650  -726  -731  -680  -646  -505  129  1638  3978  6533  8347  8530  6809  3846  745  -1647  -2889  -3006  -2490  -1835  -1264  -894  -723  -611  -469  -324  -210  -128  -61  10  108  215  282  303  348  493  718  915  1008  1010  980  949  922  901  904  950  1045  1196  1398  1598  1738  1816  1861  1876  1861  1841  1844  1890  1989  2113  2213  2258  2219  2042  1730  1396  1151  989  848  717  633  599  561  435  158  -231  -589  -795  -851  -824  -762  -694  -646  -622  -609  -601  -606  -641  -700  -757  -796  -815  -824  -836  -850  -854  -840  -812  -786  -767  -747  -718  -691  -695  -752  -850  -953  -1032  -1074  -1090  -1097  -1096  -1053  -948  -840  -832  -930  -1032  -1046  -959  -813  -678  -604  -601  -647  -719  -819  -937  -1025  -1054  -1043  -1026  -1053  -1152  -1288  -1399  -1468  -1510  -1543  -1561  -1539  -1439  -1281  -1174  -1197  -1337  -1569  -1738  -1430  -230  1871  4419  6644  7674  6993  4835  1971  -726  -2594  -3424  -3427  -2933  -2258  -1694  -1388  -1277  -1228  -1167  -1073  -971  -899  -840  -734  -576  -419  -300  -223  -192  -201  -212  -160  7  238  412  480  487  473  449  423  439  553  777  1041  1258  1394  1475  1558  1673  1800  1897  1933  1912  1867  1828  1798  1749  1639  1446  1191  908  635  409  241  103  -48  -202  -299  -324  -332  -382  -500  -670  -849  -1008  -1125  -1181  -1180  -1154  -1143  -1160  -1164  -1110  -1019  -939  -892  -873  -870  -874  -880  -885  -882  -866  -855  -866  -895  -931  -966  -995  -1010  -1014  -1019  -1041  -1086  -1137  -1174  -1190  -1200  -1213  -1220  -1183  -1062  -872  -659  -431  -209  -72  -55  -115  -227  -406  -628  -811  -913  -957  -975  -980  -968  -909  -770  -589  -454  -399  -383  -364  -308  -190  -85  -176  -532  -968  -1191  -804  511  2597  5000  7200  8403  7887  5702  2635  -327  -2399  -3227  -3042  -2441  -1852  -1365  -978  -705  -544  -450  -374  -308  -273  -267  -272  -272  -253  -214  -167  -134  -120  -113  -70  55  251  449  593  664  680  669  649  628  640  757  1025  1396  1739  1946  2011  2004  1986  1977  1972  1964  1937  1869  1754  1605  1433  1267  1132  1012  866  689  522  401  313  212  59  -132  -307  -425  -513  -621  -746  -832  -854  -843  -832  -832  -842  -850  -822  -723  -574  -447  -397  -446  -596  -780  -896  -911  -869  -817  -776  -738  -689  -620  -519  -395  -292  -234  -214  -259  -389  -569  -735  -851  -889  -821  -651  -439  -261  -154  -121  -154  -233  -336  -418  -433  -412  -414  -446  -489  -540  -590  -638  -683  -716  -745  -798  -884  -966  -995  -972  -944  -941  -954  -962  -970  -1001  -1056  -1081  -1081  -1151  -1124  -514  998  3325  5921  7820  8159  6690  3896  757  -1791  -3199  -3404  -2817  -2007  -1373  -1037  -888  -787  -672  -538  -421  -354  -339  -359  -393  -423  -416  -333  -171  20  186  285  324  340  373  444  537  609  656  719  839  1015  1203  1356  1462  1534  1576  1586  1587  1614  1695  1816  1921  1956  1898  1757  1561  1360  1214  1148  1120  1082  1031  974  865  631  280  -55  -244  -285  -271  -282  -356  -496  -690  -914  -1116  -1247  -1289  -1226  -1028  -730  -447  -276  -221  -229  -254  -272  -276  -257  -207  -136  -65  -13  12  19  34  60  75  55  4  -55  -112  -166  -187  -142  -46  46  97  87  -18  -229  -467  -620  -637  -527  -327  -94  118  279  383  431  425  377  314  269  255  267  293  305  231  23  -240  -434  -526  -556  -560  -570  -582  -577  -552  -538  -556  -562  -505  -438  -472  -657  -907  -1076  -1166  -1223  -1043  -299  1148  3229  5592  7470  8003  6883  4489  1559  -1071  -2716  -3176  -2831  -2245  -1775  -1528  -1439  -1352  -1159  -902  -707  -626  -606  -587  -562  -542  -530  -518  -507  -502  -502  -478  -380  -196  2  126  157  138  108  102  166  335  578  809  980  1107  1200  1248  1263  1278  1321  1392  1455  1463  1409  1299  1117  873  635  470  379  324  271  208  110  -74  -364  -693  -966  -1113  -1145  -1128  -1114  -1125  -1173  -1276  -1446  -1640  -1786  -1859  -1882  -1882  -1874  -1867  -1859  -1809  -1677  -1490  -1331  -1244  -1213  -1209  -1212  -1214  -1214  -1215  -1222  -1232  -1236  -1228  -1215  -1207  -1205  -1204  -1202  -1193  -1184  -1205  -1292  -1422  -1510  -1510  -1461  -1426  -1420  -1394  -1285  -1081  -817  -546  -330  -207  -161  -152  -153  -162  -201  -289  -394  -461  -479  -479  -483  -496  -527  -570  -603  -600  -549  -463  -387  -364  -397  -458  -512  -550  -585  -614  -628  -660  -785  -1029  -1213  -962  57  1867  4107  6255  7714  7878  6589  4336  1810  -397  -1804  -2290  -2205  -1894  -1461  -1034  -761  -623  -515  -407  -304  -204  -118  -66  -43  -6  78  200  319  409  465  492  508  535  586  637  659  658  668  721  837  1037  1319  1617  1846  1973  2031  2058  2076  2098  2151  2251  2358  2406  2385  2330  2246  2114  1956  1831  1769  1742  1684  1530  1260  914  572  299  101  -50  -161  -215  -225  -220  -217  -207  -172  -102  -17  41  63  74  100  137  167  179  172  146  99  46  2  -25  -26  22  121  237  326  374  390  383  357  316  271  225  176  133  112  109  99  59  -6  -65  -91  -87  -68  -59  -111  -263  -460  -570  -539  -442  -344  -247  -169  -154  -207  -291  -349  -340  -258  -144  -62  -34  -39  -56  -79  -97  -96  -80  -73  -88  -127  -194  -275  -334  -354  -347  -328  -309  -312  -367  -481  -619  -734  -802  -842  -884  -936  -988  -1029  -1051  -1045  -1005  -949  -955  -1092  -1312  -1461  -1256  -345  1375  3617  5910  7666  8206  7177  4863  1967  -693  -2384  -2843  -2489  -1937  -1473  -1150  -953  -809  -673  -527  -341  -146  -13  41  56  68  100  152  205  241  259  277  311  353  382  396  408  424  456  514  580  619  626  625  633  669  787  1050  1397  1663  1770  1778  1757  1730  1691  1616  1487  1329  1193  1084  959  770  483  118  -230  -468  -599  -678  -744  -824  -942  -1109  -1298  -1453  -1546  -1592  -1615  -1633  -1644  -1633  -1590  -1531  -1496  -1506  -1544  -1591  -1651  -1721  -1773  -1769  -1684  -1530  -1377  -1287  -1254  -1232  -1193  -1142  -1095  -1068  -1065  -1077  -1094  -1108  -1120  -1130  -1137  -1138  -1137  -1139  -1147  -1159  -1167  -1160  -1128  -1070  -1011  -976  -967  -971  -978  -990  -1007  -1014  -999  -970  -951  -951  -947  -899  -804  -691  -579  -475  -408  -430  -543  -683  -777  -809  -804  -790  -788  -818  -882  -946  -992  -1041  -1095  -1145  -1206  -1277  -1330  -1353  -1359  -1350  -1310  -1235  -1163  -1202  -1435  -1710  -1662  -987  437  2559  5008  7052  7889  7092  4877  1949  -836  -2725  -3419  -3216  -2591  -1859  -1254  -915  -771  -694  -641  -612  -580  -516  -422  -328  -259  -223  -197  -150  -70  16  73  99  139  235  394  575  727  835  923  1008  1085  1156  1237  1361  1561  1826  2080  2235  2275  2252  2223  2223  2255  2297  2312  2268  2119  1840  1518  1301  1236  1257  1299  1328  1297  1136  832  469  140  -122  -281  -283  -185  -119  -124  -151  -169  -192  -242  -326  -414  -479  -521  -557  -587  -606  -609  -608  -617  -628  -619  -575  -504  -427  -349  -269  -204  -160  -130  -115  -116  -113  -94  -72  -58  -56  -70  -110  -187  -285  -358  -383  -366  -319  -264  -234  -245  -278  -293  -269  -211  -142  -86  -66  -99  -177  -262  -310  -287  -182  -38  63  73  2  -97  -167  -192  -194  -197  -201  -201  -200  -218  -278  -371  -470  -560  -639  -680  -641  -497  -301  -155  -103  -118  -178  -285  -405  -460  -407  -292  -200  -167  -174  -184  -166  -106  -32  3  -18  -64  -106  -148  -185  -200  -200  -219  -292  -425  -581  -691  -717  -689  -662  -656  -662  -671  -665  -621  -552  -566  -746  -1021  -1177  -847  367  2447  4909  7115  8326  7960  6112  3455  707  -1523  -2801  -3065  -2638  -1979  -1429  -1102  -922  -766  -585  -401  -257  -182  -152  -113  -30  97  254  411  527  583  595  587  569  532  476  435  466  591  795  1039  1249  1365  1409  1447  1518  1607  1679  1752  1878  2042  2166  2215  2217  2205  2206  2237  2285  2318  2301  2204  2023  1783  1530  1312  1136  962  767  570  386  202  6  -202  -405  -568  -677  -761  -860  -980  -1093  -1162  -1160  -1092  -988  -886  -816  -782  -770  -768  -773  -789  -809  -830  -858  -881  -869  -802  -707  -638  -616  -618  -625  -638  -655  -668  -672  -670  -669  -673  -669  -639  -573  -498  -449  -436  -441  -448  -448  -442  -439  -454  -496  -552  -592  -606  -608  -610  -610  -600  -586  -577  -578  -583  -583  -572  -558  -556  -571  -592  -598  -592  -587  -585  -577  -561  -550  -562  -595  -618  -605  -575  -561  -574  -604  -634  -657  -684  -724  -749  -695  -523  -278  -68  36  59  59  54  15  -105  -324  -572  -749  -832  -861  -850  -783  -675  -567  -490  -455  -467  -522  -593  -644  -664  -663  -638  -580  -534  -632  -942  -1350  -1640  -1556  -832  668  2822  5232  7255  8142  7419  5273  2414  -371  -2386  -3261  -3176  -2573  -1820  -1206  -894  -828  -848  -854  -792  -627  -404  -229  -156  -155  -175  -193  -203  -200  -181  -142  -83  -17  42  106  197  321  453  560  644  738  854  960  1033  1102  1221  1392  1581  1767  1931  2035  2075  2086  2087  2075  2041  1977  1896  1810  1672  1429  1125  861  667  507  347  173  -9  -173  -293  -364  -404  -447  -520  -621  -731  -825  -892  -939  -970  -988  -992  -959  -874  -762  -662  -603  -588  -589  -577  -528  -432  -320  -257  -281  -369  -463  -528  -554  -517  -395  -223  -91  -67  -179  -405  -643  -746  -651  -424  -199  -59  0  4  -73  -273  -539  -738  -802  -752  -629  -486  -392  -373  -405  -451  -487  -506  -498  -436  -306  -146  -24  39  68  71  45  4  -46  -141  -304  -474  -531  -462  -382  -380  -426  -459  -468  -468  -471  -484  -512  -544  -561  -558  -550  -552  -559  -550  -521  -546  -737  -1106  -1512  -1700  -1260  153  2385  4837  6833  7735  7166  5319  2775  165  -1899  -2987  -3126  -2657  -1932  -1293  -975  -927  -954  -938  -866  -765  -664  -582  -539  -537  -555  -560  -531  -464  -344  -141  134  393  539  572  544  491  440  435  517  678  870  1058  1231  1400  1584  1779  1943  2044  2102  2159  2224  2277  2307  2318  2310  2255  2112  1856  1535  1276  1156  1121  1074  989  878  708  427  88  -175  -314  -381  -440  -532  -680  -858  -1003  -1078  -1101  -1100  -1058  -938  -772  -652  -628  -665  -712  -739  -746  -752  -771  -788  -771  -718  -669  -651  -654  -660  -662  -662  -662  -662  -658  -650  -639  -624  -605  -589  -574  -557  -541  -534  -535  -538  -538  -538  -551  -566  -558  -544  -556  -583  -597  -597  -595  -598  -605  -604  -575  -517  -456  -410  -376  -346  -318  -294  -293  -334  -428  -567  -717  -842  -919  -940  -906  -846  -797  -770  -765  -800  -901  -1043  -1155  -1191  -1132  -975  -806  -777  -931  -1114  -1070  -532  670  2499  4667  6606  7567  7039  5130  2450  -230  -2210  -3176  -3308  -2889  -2154  -1448  -1030  -887  -856  -786  -632  -452  -306  -197  -112  -50  -20  -16  -23  -22  -8  9  27  57  107  180  278  425  649  904  1095  1187  1218  1235  1275  1378  1587  1899  2210  2396  2448  2432  2381  2290  2167  2049  1962  1910  1871  1811  1706  1543  1318  1037  743  523  426  400  330  126  -199  -549  -841  -1040  -1147  -1191  -1215  -1239  -1240  -1196  -1140  -1126  -1158  -1181  -1130  -999  -824  -651  -533  -481  -461  -454  -461  -475  -498  -535  -554  -516  -435  -358  -312  -294  -297  -313  -343  -382  -425  -474  -559  -703  -857  -890  -721  -441  -226  -141  -129  -165  -286  -481  -652  -708  -629  -467  -333  -284  -291  -309  -316  -313  -308  -301  -269  -180  -50  58  117  138  118  6  -225  -508  -720  -816  -842  -853  -863  -848  -777  -653  -531  -463  -450  -461  -468  -467  -488  -576  -785  -1086  -1212  -792  374  2277  4622  6775  7970  7585  5544  2534  -431  -2515  -3290  -2972  -2204  -1517  -1134  -1009  -935  -787  -630  -537  -500  -484  -462  -423  -387  -376  -365  -304  -192  -87  -30  -1  50  141  247  355  479  626  770  871  928  959  979  1033  1183  1417  1641  1780  1841  1863  1876  1904  1964  2044  2102  2110  2056  1945  1789  1591  1353  1088  839  653  513  349  132  -87  -229  -291  -358  -494  -659  -788  -879  -959  -1025  -1062  -1077  -1078  -1058  -988  -880  -804  -787  -765  -700  -637  -610  -606  -604  -612  -665  -772  -867  -896  -897  -892  -858  -805  -770  -763  -770  -775  -764  -717  -625  -511  -423  -391  -426  -540  -705  -849  -929  -954  -932  -848  -692  -515  -402  -387  -424  -467  -513  -575  -645  -682  -637  -511  -372  -286  -260  -266  -278  -284  -276  -252  -218  -190  -177  -184  -224  -309  -433  -568  -681  -755  -787  -792  -786  -779  -778  -794  -841  -926  -1014  -1017  -905  -833  -970  -1167  -952  151  2326  5148  7591  8606  7744  5352  2326  -408  -2263  -3090  -3108  -2640  -1940  -1250  -766  -516  -421  -409  -432  -470  -521  -578  -602  -527  -316  -39  175  274  297  296  293  297  323  389  475  546  614  727  882  1033  1172  1332  1517  1691  1833  1949  2052  2149  2243  2331  2401  2438  2437  2417  2400  2366  2248  2006  1699  1439  1277  1183  1104  992  793  512  207  -98  -401  -652  -803  -856  -834  -780  -737  -728  -749  -781  -807  -820  -821  -822  -840  -872  -885  -853  -794  -737  -694  -663  -620  -531  -415  -331  -304  -303  -297  -289  -299  -340  -394  -435  -464  -507  -565  -616  -656  -695  -726  -729  -701  -656  -601  -545  -508  -497  -500  -504  -501  -490  -482  -511  -604  -735  -836  -881  -889  -866  -790  -651  -476  -320  -231  -206  -197  -165  -111  -65  -38  -21  -6  0  -19  -85  -185  -292  -400  -497  -584  -667  -717  -703  -633  -521  -396  -313  -316  -408  -539  -645  -699  -707  -704  -778  -988  -1228  -1254  -778  434  2368  4701  6877  8143  7851  5966  3099  118  -2137  -3171  -3143  -2541  -1704  -926  -498  -422  -473  -490  -462  -411  -340  -261  -196  -144  -94  -48  -3  57  134  210  265  289  285  272  283  341  434  526  599  655  717  811  931  1040  1128  1206  1284  1390  1556  1762  1941  2055  2104  2098  2049  1971  1866  1728  1574  1438  1321  1192  1035  846  603  295  -29  -303  -515  -685  -808  -875  -905  -924  -951  -996  -1048  -1083  -1094  -1090  -1085  -1084  -1086  -1087  -1075  -1042  -998  -968  -955  -940  -906  -859  -817  -789  -784  -800  -812  -793  -743  -683  -627  -583  -566  -584  -635  -709  -791  -845  -860  -866  -884  -898  -895  -871  -831  -780  -726  -691  -683  -674  -661  -676  -713  -737  -721  -658  -554  -423  -314  -308  -411  -534  -622  -691  -759  -798  -789  -759  -744  -732  -685  -589  -480  -408  -391  -409  -428  -379  -203  41  217  263  216  130  29  -79  -195  -307  -391  -429  -427  -410  -392  -379  -370  -368  -382  -412  -454  -503  -537  -541  -522  -481  -459  -578  -814  -812  -148  1381  3676  6202  8009  8212  6571  3647  483  -1913  -3008  -2937  -2288  -1638  -1257  -1080  -917  -714  -526  -369  -239  -149  -108  -95  -84  -71  -59  -49  -45  -53  -64  -54  23  197  418  591  669  685  700  744  818  906  975  1012  1050  1143  1309  1534  1804  2076  2275  2365  2380  2365  2347  2325  2285  2209  2080  1879  1603  1293  1015  815  681  577  487  401  295  135  -98  -386  -659  -854  -961  -1004  -991  -918  -806  -718  -697  -709  -713  -711  -726  -767  -815  -844  -850  -842  -813  -751  -673  -616  -596  -604  -639  -693  -746  -776  -783  -778  -768  -758  -748  -743  -754  -795  -867  -942  -992  -1012  -1008  -980  -937  -904  -893  -896  -904  -908  -895  -849  -781  -728  -708  -705  -691  -655  -611  -582  -576  -581  -583  -567  -519  -417  -245  -47  95  142  122  75  24  -22  -69  -126  -191  -265  -365  -486  -587  -639  -620  -505  -318  -144  -50  -36  -82  -186  -333  -480  -597  -680  -724  -714  -685  -723  -729  -358  622  2167  4129  6139  7466  7460  5979  3385  457  -1852  -2977  -3008  -2423  -1722  -1228  -1001  -929  -898  -853  -739  -503  -201  20  102  107  100  108  125  139  145  161  211  302  410  498  547  589  682  828  959  1028  1052  1072  1099  1134  1176  1244  1410  1740  2145  2425  2494  2427  2324  2245  2200  2185  2190  2180  2077  1808  1412  1027  735  538  403  273  106  -70  -233  -418  -637  -838  -967  -1012  -1002  -980  -968  -963  -961  -972  -1009  -1061  -1100  -1101  -1061  -1002  -951  -922  -908  -896  -874  -832  -773  -710  -654  -602  -551  -522  -518  -507  -472  -436  -401  -344  -277  -257  -332  -479  -625  -725  -779  -803  -803  -779  -748  -727  -716  -683  -622  -574  -572  -592  -602  -603  -603  -604  -604  -601  -591  -577  -566  -564  -573  -592  -610  -599  -518  -360  -187  -81  -63  -105  -178  -257  -311  -310  -256  -177  -104  -60  -60  -120  -238  -365  -441  -456  -447  -458  -514  -594  -656  -688  -710  -732  -749  -766  -793  -832  -873  -905  -956  -1069  -1235  -1373  -1309  -822  263  1979  4101  6176  7586  7664  6154  3505  580  -1790  -3082  -3267  -2799  -2216  -1788  -1542  -1359  -1117  -832  -621  -548  -566  -594  -602  -615  -648  -663  -603  -441  -212  -1  111  118  75  31  13  40  140  302  483  679  937  1247  1503  1627  1647  1643  1672  1741  1828  1907  1966  2020  2098  2198  2296  2367  2382  2331  2246  2146  1999  1755  1398  990  632  381  221  113  16  -110  -258  -358  -387  -389  -441  -596  -838  -1068  -1193  -1192  -1091  -942  -798  -685  -608  -551  -499  -464  -438  -403  -390  -424  -479  -541  -605  -670  -735  -794  -836  -851  -841  -831  -817  -748  -616  -461  -297  -144  -60  -81  -190  -325  -452  -574  -664  -671  -589  -482  -438  -500  -639  -786  -869  -881  -856  -797  -671  -488  -318  -220  -191  -196  -205  -202  -191  -186  -200  -215  -194  -143  -120  -151  -208  -260  -298  -330  -363  -398  -431  -440  -409  -364  -369  -477  -675  -879  -1017  -1075  -1078  -1053  -1011  -968  -948  -992  -1154  -1429  -1743  -1937  -1734  -814  988  3493  6162  8195  8741  7400  4636  1450  -1247  -2897  -3417  -3205  -2714  -2141  -1557  -1077  -796  -686  -662  -689  -748  -800  -811  -765  -650  -470  -276  -132  -47  10  54  94  154  240  316  327  274  243  329  523  748  962  1151  1291  1371  1411  1443  1500  1612  1786  1968  2079  2096  2052  1992  1952  1932  1901  1813  1655  1456  1261  1093  941  792  634  413  99  -236  -476  -579  -594  -593  -629  -728  -873  -1021  -1131  -1185  -1197  -1195  -1190  -1181  -1172  -1173  -1168  -1102  -937  -728  -582  -537  -553  -583  -598  -557  -430  -256  -130  -92  -115  -162  -226  -312  -412  -523  -635  -702  -721  -739  -763  -763  -739  -728  -761  -818  -860  -875  -875  -855  -782  -634  -441  -267  -158  -115  -117  -138  -168  -219  -306  -404  -470  -495  -496  -490  -486  -495  -524  -562  -593  -617  -663  -758  -865  -912  -881  -844  -861  -917  -980  -1045  -1106  -1142  -1163  -1219  -1322  -1407  -1414  -1236  -647  508  2216  4284  6214  7340  7184  5656  3172  512  -1617  -2795  -2973  -2552  -2027  -1603  -1293  -1114  -1045  -990  -869  -670  -416  -161  17  77  47  -6  -31  -23  -7  2  11  25  38  48  70  123  219  361  540  719  856  948  1039  1176  1341  1463  1521  1553  1604  1685  1780  1863  1919  1953  1967  1942  1847  1703  1573  1465  1305  1036  694  342  15  -242  -390  -463  -545  -658  -765  -889  -1104  -1385  -1599  -1646  -1507  -1221  -911  -719  -694  -804  -986  -1163  -1280  -1328  -1320  -1279  -1235  -1195  -1146  -1075  -972  -835  -694  -606  -611  -714  -865  -984  -1029  -1014  -960  -879  -796  -739  -720  -727  -744  -767  -798  -831  -858  -882  -911  -942  -958  -940  -883  -794  -687  -577  -461  -348  -276  -282  -379  -536  -696  -823  -909  -952  -963  -968  -993  -1050  -1127  -1194  -1240  -1282  -1324  -1346  -1333  -1301  -1282  -1292  -1328  -1380  -1459  -1582  -1781  -2014  -2066  -1658  -544  1379  3777  5922  7073  6698  4786  1985  -767  -2693  -3469  -3353  -2893  -2452  -2099  -1805  -1557  -1368  -1237  -1141  -1044  -921  -788  -691  -650  -629  -563  -404  -180  21  151  249  394  603  797  902  926  912  887  873  900  993  1144  1306  1440  1538  1642  1790  1987  2242  2561  2868  3065  3138  3143  3103  2997  2817  2608  2430  2282  2112  1904  1723  1626  1589  1537  1413  1213  994  825  714  608  466  290  124  0]
