reading_id,reading_time,wire_id,result_classification,heart_rate,heart_rate_alert,firmware_version,device_app_version,hardware_version,waveform_samples
8ebea8c0-63ba-11ed-8080-808080808080,Mon Nov 14 01:20:42 UTC 2022,a101e3f91939,NSR,93,NONE,20001.171.50,2.10.0,Charge 5,[-4261  -4328  -4442  -4495  -4220  -3364  -1906  -184  1361  2526  3313  3828  4239  4630  4962  5172  5250  5288  5474  5918  6501  7002  7352  7600  7761  7835  7850  7838  7824  7837  7912  8057  8232  8350  8349  8266  8163  8043  7912  7779  7616  7392  7121  6867  6713  6715  6852  7043  7188  7156  6909  6600  6376  6245  6170  6122  6093  6094  6114  6112  6026  5820  5556  5347  5179  4912  4459  3935  3581  3532  3741  4059  4315  4374  4097  3357  2240  1146  452  175  118  103  11  -164  -324  -331  -105  292  773  1291  1714  1904  1912  1876  1851  1825  1809  1866  2060  2358  2647  2817  2760  2419  1959  1715  1855  2229  2682  3413  4714  6235  7136  7222  7070  7213  8120  10218  13107  15487  16300  15375  13129  10316  7843  6276  5644  5784  6474  7413  8379  9196  9711  9937  10011  10077  10305  10829  11525  12058  12264  12279  12314  12494  12808  13124  13312  13360  13304  13150  12925  12704  12546  12436  12286  12006  11631  11287  11005  10711  10400  10161  10036  9992  9997  10019  9974  9731  9204  8466  7774  7374  7264  7274  7286  7282  7253  7180  7078  7005  6981  6961  6897  6792  6668  6482  6172  5795  5489  5272  5006  4632  4287  4098  4030  3975  3889  3802  3728  3586  3270  2845  2514  2383  2375  2338  2163  1874  1616  1508  1548  1670  1823  1962  2016  1937  1768  1611  1524  1500  1501  1508  1522  1542  1540  1437  1171  822  557  414  294  133  -32  -147  -216  -314  -499  -726  -898  -980  -1000  -990  -963  -910  -835  -769  -708  -748  -1070  -1563  -1822  -1458  -204  1821  3971  5413  5504  4136  1823  -698  -2780  -3972  -4250  -3988  -3606  -3274  -2941  -2623  -2416  -2330  -2314  -2347  -2432  -2536  -2576  -2502  -2363  -2255  -2218  -2235  -2284  -2341  -2382  -2403  -2418  -2421  -2366  -2234  -2080  -1977  -1938  -1938  -1930  -1883  -1831  -1812  -1818  -1831  -1838  -1831  -1821  -1849  -1962  -2155  -2356  -2489  -2533  -2539  -2608  -2836  -3229  -3700  -4123  -4439  -4695  -4961  -5238  -5471  -5612  -5681  -5736  -5816  -5937  -6093  -6239  -6317  -6313  -6262  -6220  -6211  -6237  -6317  -6460  -6590  -6633  -6587  -6521  -6513  -6579  -6673  -6748  -6786  -6793  -6785  -6769  -6752  -6741  -6740  -6741  -6736  -6714  -6665  -6575  -6456  -6331  -6175  -5965  -5759  -5634  -5592  -5590  -5602  -5633  -5690  -5761  -5827  -5881  -5939  -6027  -6135  -6213  -6229  -6193  -6137  -6098  -6101  -6155  -6232  -6225  -6046  -5759  -5492  -5300  -5144  -4829  -4051  -2630  -764  888  1475  552  -1620  -4291  -6502  -7538  -7395  -6619  -5798  -5248  -4960  -4744  -4406  -3945  -3557  -3374  -3342  -3351  -3323  -3222  -3060  -2881  -2721  -2605  -2562  -2571  -2552  -2446  -2282  -2126  -2006  -1890  -1751  -1585  -1365  -1080  -813  -659  -616  -618  -618  -600  -567  -506  -357  -60  302  504  401  90  -187  -279  -247  -223  -247  -318  -467  -704  -955  -1121  -1199  -1264  -1346  -1440  -1569  -1738  -1901  -2023  -2094  -2097  -2025  -1884  -1685  -1474  -1308  -1174  -1043  -944  -911  -932  -971  -984  -952  -906  -884  -880  -864  -823  -777  -751  -746  -756  -775  -787  -772  -719  -629  -493  -323  -175  -58  70  182  210  175  152  166  186  152  24  -172  -339  -409  -412  -410  -418  -425  -440  -482  -543  -583  -584  -598  -717  -939  -1089  -1043  -877  -609  -93  804  2157  3892  5543  6372  5862  4048  1432  -1213  -3053  -3599  -2973  -1733  -591  8  120  -13  -221  -389  -415  -222  172  625  977  1193  1319  1373  1327  1187  1059  1072  1220  1418  1621  1800  1938  2048  2136  2212  2290  2366  2444  2538  2659  2799  2931  3032  3101  3145  3159  3124  3039  2940  2876  2861  2877  2896  2865  2710  2426  2133  1950  1827  1629  1359  1149  1065  1049  1025  956  845  719  614  557  544  570  642  757  891  1029  1162  1275  1351  1386  1371  1300  1194  1102  1052  1037  1043  1065  1096  1123  1138  1144  1146  1150  1153  1131  1062  962  893  921  1057  1222  1320  1352  1360  1358  1354  1358  1363  1333  1210  977  726  595  618  707  763  766  735  675  597  532  497  493  500  477  377  253  265  410  474  386  391  889  2172  4157  6292  7741  7770  6193  3574  854  -1177  -2127  -2112  -1606  -1051  -688  -522  -366  -90  236  468  560  575  584  611  670  785  970  1181  1339  1409  1413  1389  1373  1391  1444  1525  1638  1791  1970  2117  2191  2200  2178  2162  2204  2347  2561  2749  2857  2916  2979  3054  3114  3137  3108  3012  2863  2689  2472  2187  1874  1607  1416  1264  1082  842  563  295  106  41  80  155  210  229  223  205  188  208  307  457  566  591  551  482  431  408  376  327  293  274  221  87  -75  -155  -157  -170  -207  -238  -257  -280  -315  -343  -330  -261  -161  -72  -16  4  -15  -90  -204  -304  -355  -370  -371  -348  -266  -122  21  108  136  127  71  -54  -232  -414  -581  -750  -916  -1043  -1106  -1119  -1111  -1099  -1089  -1083  -1076  -1067  -1067  -1134  -1369  -1804  -2277  -2490  -2158  -1115  605  2752  4852  6218  6181  4551  1794  -1243  -3693  -4945  -4967  -4212  -3174  -2244  -1676  -1432  -1311  -1215  -1147  -1121  -1137  -1171  -1199  -1218  -1237  -1249  -1223  -1118  -949  -787  -688  -649  -634  -604  -550  -496  -459  -429  -401  -359  -268  -99  145  426  683  869  966  992  987  966  914  824  706  580  456  329  188  50  -42  -78  -99  -158  -286  -457  -625  -792  -988  -1203  -1389  -1507  -1552  -1556  -1549  -1530  -1482  -1415  -1367  -1375  -1437  -1509  -1567  -1621  -1664  -1679  -1672  -1653  -1626  -1605  -1620  -1678  -1733  -1743  -1714  -1682  -1680  -1692  -1709  -1789  -1942  -2074  -2114  -2061  -1937  -1759  -1559  -1380  -1248  -1172  -1148  -1159  -1192  -1224  -1217  -1128  -927  -664  -465  -400  -442  -546  -662  -745  -775  -746  -674  -617  -618  -676  -762  -845  -906  -938  -948  -953  -999  -1077  -1042  -852  -710  -690  -585  -241  384  1433  2879  4179  4663  3970  2128  -366  -2660  -4027  -4276  -3686  -2687  -1701  -1057  -819  -805  -824  -813  -794  -785  -760  -712  -653  -589  -538  -521  -508  -447  -324  -177  -44  77  242  490  770  980  1071  1085  1097  1147  1222  1283  1325  1388  1491  1619  1754  1883  2010  2162  2338  2485  2571  2608  2602  2528  2338  2037  1713  1443  1252  1127  1013  861  675  487  318  192  114  71  49  35  4  -42  -92  -130  -147  -140  -124  -109  -89  -69  -59  -70  -104  -149  -180  -170  -95  36  193  347  473  554  571  519  421  308  202  116  47  -3  -19  -5  17  34  46  60  68  61  53  97  223  350  396  401  419  443  460  463  422  296  95  -99  -215  -257  -258  -236  -214  -243  -361  -538  -708  -827  -890  -907  -894  -845  -750  -617  -467  -378  -425  -535  -497  -116  728  2099  3841  5346  5859  5131  3399  1035  -1274  -2717  -3102  -2824  -2232  -1522  -932  -625  -530  -491  -429  -358  -314  -308  -315  -281  -169  -2  152  267  349  400  427  445  477  571  762  998  1184  1271  1281  1270  1304  1446  1711  2027  2277  2405  2435  2407  2339  2257  2195  2167  2152  2121  2066  1986  1873  1732  1588  1452  1299  1081  786  457  156  -76  -226  -332  -437  -548  -643  -701  -719  -714  -708  -728  -789  -873  -938  -965  -963  -931  -860  -779  -737  -742  -765  -791  -829  -888  -952  -996  -1016  -1026  -1033  -1037  -1038  -1037  -1036  -1034  -1030  -1021  -1006  -991  -989  -1015  -1061  -1098  -1110  -1113  -1143  -1205  -1253  -1254  -1228  -1212  -1224  -1261  -1301  -1321  -1322  -1308  -1288  -1269  -1229  -1134  -981  -813  -687  -634  -637  -666  -713  -789  -881  -947  -962  -944  -916  -894  -878  -866  -863  -875  -890  -897  -893  -881  -870  -900  -996  -1084  -1099  -1078  -905  -253  1089  3080  5388  7257  7768  6529  3935  817  -1862  -3338  -3504  -2865  -2014  -1302  -836  -564  -367  -179  -16  74  92  80  75  86  89  57  -3  -55  -82  -98  -101  -46  118  348  524  586  575  548  550  648  892  1228  1508  1645  1673  1664  1656  1653  1662  1705  1785  1855  1855  1783  1697  1620  1501  1298  1060  867  732  597  419  232  108  66  66  60  16  -67  -146  -155  -100  -36  -5  -25  -83  -139  -174  -207  -244  -260  -220  -101  77  237  300  261  177  105  54  9  -23  -25  -5  15  26  55  132  239  325  387  444  478  477  474  465  407  303  172  26  -98  -197  -293  -367  -374  -296  -169  -56  18  75  108  104  93  107  127  111  42  -81  -245  -399  -482  -469  -371  -240  -147  -118  -126  -153  -204  -274  -314  -293  -253  -245  -298  -432  -618  -727  -480  450  2156  4374  6550  7908  7735  5904  3037  74  -2194  -3287  -3188  -2427  -1605  -976  -604  -492  -490  -455  -387  -320  -258  -197  -134  -72  -30  -14  4  69  203  381  525  588  607  641  718  849  1029  1218  1354  1406  1399  1376  1392  1511  1734  1961  2090  2119  2111  2120  2153  2165  2099  1942  1718  1471  1269  1152  1107  1103  1091  996  768  457  178  -23  -198  -417  -689  -936  -1066  -1066  -1006  -953  -929  -926  -958  -1044  -1167  -1267  -1312  -1296  -1215  -1081  -937  -827  -771  -760  -767  -779  -795  -821  -852  -874  -890  -937  -1045  -1192  -1322  -1398  -1408  -1355  -1277  -1219  -1200  -1202  -1208  -1213  -1218  -1225  -1232  -1230  -1220  -1244  -1342  -1482  -1536  -1419  -1201  -1023  -945  -933  -938  -942  -963  -1020  -1091  -1105  -997  -790  -582  -442  -374  -361  -393  -477  -601  -704  -748  -759  -774  -809  -865  -944  -1035  -1117  -1173  -1199  -1207  -1212  -1236  -1303  -1423  -1566  -1657  -1669  -1682  -1767  -1763  -1302  -63  2016  4544  6632  7281  6030  3325  234  -2262  -3670  -3951  -3481  -2787  -2216  -1908  -1841  -1865  -1841  -1718  -1527  -1338  -1183  -1045  -915  -797  -702  -641  -576  -448  -279  -161  -140  -173  -181  -114  31  229  432  607  767  937  1116  1276  1392  1499  1651  1836  1997  2104  2156  2178  2190  2192  2162  2074  1941  1823  1773  1777  1750  1607  1339  1033  767  568  440  362  289  194  97  14  -64  -145  -216  -269  -305  -327  -347  -389  -446  -483  -475  -428  -359  -263  -125  25  134  179  177  151  116  87  75  82  102  121  127  124  121  122  120  107  85  76  93  121  128  99  37  -41  -118  -175  -194  -169  -111  -49  -26  -63  -142  -224  -291  -338  -365  -377  -384  -405  -443  -463  -434  -379  -332  -289  -231  -166  -118  -95  -88  -92  -117  -177  -257  -333  -425  -571  -748  -899  -1016  -1108  -1169  -1208  -1249  -1288  -1300  -1290  -1296  -1338  -1369  -1267  -1010  -847  -1003  -1372  -1645  -1416  -338  1577  3929  6022  7060  6543  4555  1743  -993  -2951  -3812  -3681  -2998  -2190  -1510  -1096  -932  -878  -804  -660  -474  -308  -186  -95  -28  19  66  126  191  246  290  325  340  329  310  335  461  682  900  1023  1070  1115  1196  1306  1443  1609  1786  1948  2081  2179  2232  2241  2204  2100  1938  1793  1725  1718  1708  1625  1418  1080  682  370  233  226  246  204  53  -176  -394  -540  -629  -698  -775  -881  -977  -999  -955  -899  -827  -742  -681  -660  -669  -695  -730  -775  -826  -863  -860  -803  -700  -583  -476  -395  -367  -411  -505  -610  -722  -856  -972  -1012  -974  -888  -781  -691  -641  -610  -594  -631  -766  -992  -1233  -1405  -1479  -1472  -1394  -1255  -1097  -983  -954  -1003  -1067  -1091  -1057  -950  -768  -575  -456  -420  -422  -431  -443  -463  -489  -515  -541  -596  -720  -909  -1099  -1228  -1293  -1320  -1326  -1311  -1263  -1190  -1124  -1094  -1091  -1088  -1091  -1144  -1288  -1518  -1683  -1422  -376  1509  3896  6058  7048  6263  3945  963  -1746  -3478  -3991  -3612  -2873  -2149  -1603  -1224  -935  -731  -625  -552  -423  -226  -34  83  144  207  288  363  417  451  477  502  522  546  615  765  971  1155  1276  1351  1422  1540  1726  1930  2090  2204  2301  2398  2499  2587  2643  2661  2656  2657  2663  2640  2540  2330  2050  1800  1625  1472  1259  970  674  449  316  246  208  189  173  135  58  -39  -127  -215  -326  -443  -523  -547  -529  -488  -417  -299  -162  -60  -14  -5  -9  -12  -12  -10  -14  -31  -61  -82  -75  -68  -98  -151  -189  -198  -177  -124  -59  -26  -53  -108  -153  -194  -255  -342  -433  -505  -559  -596  -615  -622  -627  -627  -598  -521  -431  -394  -421  -463  -478  -465  -438  -399  -331  -214  -79  16  61  72  61  26  -59  -214  -387  -498  -528  -520  -513  -517  -524  -532  -558  -621  -716  -833  -973  -1118  -1218  -1244  -1184  -1048  -933  -989  -1202  -1269  -787  476  2472  4800  6642  7125  5914  3394  371  -2269  -3825  -4118  -3538  -2580  -1606  -970  -811  -896  -956  -920  -814  -679  -554  -437  -322  -236  -184  -119  -18  90  166  199  213  239  309  452  665  877  1010  1076  1156  1279  1407  1498  1554  1623  1765  1997  2249  2418  2477  2481  2482  2481  2456  2394  2283  2119  1925  1708  1429  1092  777  535  351  198  69  -19  -70  -109  -166  -281  -489  -745  -936  -1010  -999  -937  -823  -677  -557  -494  -469  -464  -484  -536  -602  -658  -710  -764  -790  -760  -689  -616  -567  -538  -521  -530  -566  -600  -611  -611  -624  -661  -699  -692  -624  -530  -465  -446  -449  -451  -444  -437  -443  -456  -461  -448  -415  -361  -278  -188  -135  -137  -163  -185  -200  -221  -245  -246  -205  -148  -111  -104  -109  -113  -121  -152  -214  -280  -322  -332  -331  -342  -376  -425  -488  -563  -627  -665  -693  -735  -792  -845  -868  -855  -861  -972  -1169  -1302  -1107  -224  1554  3978  6305  7571  7075  4874  1800  -1089  -2994  -3634  -3343  -2669  -1916  -1271  -902  -783  -748  -686  -569  -434  -335  -290  -271  -224  -102  93  286  398  434  452  480  482  425  352  331  377  473  613  789  966  1112  1250  1423  1639  1875  2102  2273  2355  2361  2337  2316  2307  2271  2152  1950  1743  1603  1538  1490  1376  1145  801  410  100  -38  -69  -137  -333  -604  -836  -975  -1041  -1071  -1093  -1110  -1118  -1130  -1163  -1212  -1247  -1254  -1252  -1252  -1232  -1148  -991  -827  -735  -729  -763  -798  -834  -880  -939  -1013  -1095  -1161  -1184  -1171  -1142  -1100  -1046  -982  -918  -879  -886  -931  -992  -1051  -1104  -1150  -1172  -1153  -1094  -1000  -878  -761  -677  -614  -557  -510  -474  -434  -389  -358  -359  -391  -432  -453  -458  -492  -597  -747  -862  -904  -899  -886  -884  -902  -930  -951  -958  -957  -959  -963  -970  -996  -1064  -1151  -1217  -1149  -672  486  2288  4386  6251  7097  6232  3792  676  -2137  -3940  -4477  -4056  -3290  -2621  -2091  -1587  -1144  -851  -683  -567  -492  -485  -530  -560  -550  -531  -532  -534  -477  -309  -68  141  258  290  267  224  192  209  338  611  954  1250  1435  1523  1570  1618  1691  1811  1964  2083  2115  2058  1945  1804  1646  1508  1420  1352  1252  1126  1018  888  647  318  41  -114  -222  -346  -454  -474  -372  -192  -34  45  65  57  21  -52  -149  -236  -285  -292  -263  -202  -137  -97  -88  -90  -88  -78  -69  -72  -96  -140  -191  -229  -254  -273  -275  -253  -250  -316  -445  -567  -630  -634  -605  -564  -518  -462  -400  -349  -314  -275  -224  -176  -157  -173  -198  -200  -169  -123  -89  -76  -76  -89  -145  -281  -475  -649  -754  -802  -823  -838  -861  -896  -942  -1001  -1071  -1087  -973  -815  -790  -900  -926  -524  591  2417  4582  6372  6943  5860  3453  561  -1938  -3394  -3676  -3233  -2605  -2074  -1699  -1423  -1173  -909  -646  -446  -343  -315  -328  -366  -416  -469  -520  -542  -452  -177  202  495  614  626  615  611  611  600  585  631  828  1176  1533  1750  1804  1765  1710  1678  1666  1685  1774  1911  1999  1979  1894  1808  1718  1567  1327  1021  686  392  221  176  193  217  227  192  62  -160  -389  -549  -656  -763  -884  -1007  -1116  -1197  -1221  -1159  -1021  -880  -810  -804  -803  -765  -677  -562  -462  -405  -387  -385  -381  -380  -404  -460  -523  -568  -572  -506  -395  -310  -277  -268  -257  -241  -228  -223  -223  -223  -224  -228  -241  -271  -343  -482  -669  -828  -906  -920  -910  -881  -826  -770  -766  -825  -916  -1002  -1039  -986  -854  -693  -558  -522  -664  -905  -950  -460  753  2584  4610  6189  6636  5593  3318  481  -2088  -3572  -3712  -3030  -2181  -1455  -942  -631  -413  -238  -129  -56  15  80  115  111  76  33  22  73  177  289  379  444  494  551  632  746  883  1023  1153  1270  1378  1473  1540  1574  1595  1614  1638  1703  1845  2030  2173  2236  2239  2196  2084  1875  1606  1377  1246  1153  1006  783  528  291  95  -76  -251  -423  -562  -663  -736  -780  -765  -688  -588  -515  -491  -530  -660  -889  -1154  -1372  -1483  -1403  -1068  -598  -249  -126  -142  -203  -297  -437  -598  -720  -772  -766  -723  -652  -555  -429  -288  -162  -76  -40  -45  -71  -90  -80  -53  -39  -47  -57  -64  -96  -196  -368  -549  -685  -792  -917  -1057  -1153  -1178  -1152  -1110  -1067  -1025  -997  -993  -986  -970  -1019  -1186  -1334  -1103  -118  1719  4027  6017  6854  6052  3725  624  -2225  -4014  -4429  -3729  -2589  -1668  -1189  -975  -853  -793  -786  -801  -802  -779  -755  -747  -735  -684  -573  -438  -344  -307  -282  -217  -96  53  172  223  219  204  249  410  643  831  918  947  963  988  1081  1301  1593  1812  1885  1863  1820  1796  1785  1753  1670  1542  1403  1259  1085  845  518  166  -78  -165  -160  -155  -193  -275  -363  -424  -461  -486  -502  -500  -479  -445  -406  -369  -339  -314  -286  -249  -214  -193  -186  -187  -200  -232  -279  -331  -385  -426  -423  -372  -308  -254  -214  -182  -155  -121  -80  -58  -71  -91  -80  -41  -14  -24  -72  -150  -248  -338  -402  -458  -521  -586  -649  -706  -757  -786  -757  -682  -642  -676  -752  -824  -864  -864  -825  -786  -863  -1124  -1357  -1120  -104  1699  3983  5995  6769  5833  3518  621  -1986  -3595  -3978  -3484  -2633  -1815  -1296  -1122  -1099  -1040  -918  -786  -688  -642  -634  -629  -599  -533  -435  -316  -206  -138  -108  -65  15  111  203  310  445  587  729  871  982  1048  1107  1221  1419  1669  1894  2021  2044  1995  1888  1738  1593  1496  1444  1410  1352  1230  1034  793  530  248  -33  -264  -427  -555  -673  -778  -869  -942  -998  -1054  -1116  -1179  -1227  -1248  -1250  -1239  -1202  -1114  -975  -834  -749  -735  -765  -812  -853  -884  -912  -943  -961  -944  -881  -777  -668  -597  -573  -571  -575  -608  -695  -811  -893  -912  -878  -814  -750  -697  -644  -598  -581  -585  -581  -537  -445  -334  -242  -184  -158  -153  -165  -194  -234  -265  -274  -254  -217  -196  -213  -256  -305  -361  -426  -492  -545  -563  -549  -534  -543  -574  -623  -701  -805  -963  -1175  -1181  -545  917  3016  5334  7154  7619  6349  3735  627  -2096  -3738  -4034  -3372  -2403  -1540  -997  -831  -875  -921  -872  -705  -481  -302  -202  -147  -101  -58  -29  1  69  178  296  399  494  597  697  763  791  816  877  1006  1219  1471  1674  1782  1815  1822  1839  1870  1895  1905  1907  1906  1898  1871  1825  1753  1646  1504  1342  1164  956  725  519  355  185  -22  -219  -344  -415  -470  -510  -530  -547  -585  -660  -769  -873  -915  -869  -765  -665  -603  -569  -538  -483  -395  -315  -292  -307  -303  -273  -243  -219  -187  -147  -132  -171  -255  -338  -384  -394  -385  -359  -311  -246  -192  -166  -162  -165  -167  -170  -178  -192  -211  -225  -230  -230  -233  -241  -244  -233  -218  -210  -213  -219  -225  -235  -254  -276  -298  -325  -354  -367  -341  -258  -139  -28  59  152  264  372  444  466  448  423  408  391  340  204  -39  -325  -534  -617  -621  -607  -598  -597  -596  -589  -572  -546  -510  -493  -574  -829  -1223  -1554  -1506  -781  762  2951  5252  6927  7234  5853  3195  150  -2312  -3522  -3490  -2794  -2001  -1377  -1007  -888  -911  -950  -958  -949  -945  -945  -922  -837  -682  -477  -256  -54  96  195  248  269  274  268  254  257  329  496  702  849  900  901  909  954  1028  1123  1263  1459  1660  1797  1853  1865  1861  1831  1730  1525  1262  1043  916  818  660  453  273  140  10  -140  -282  -361  -380  -382  -402  -466  -588  -744  -892  -1011  -1093  -1129  -1123  -1093  -1037  -939  -801  -658  -558  -516  -510  -513  -510  -507  -515  -535  -564  -593  -616  -625  -610  -576  -552  -558  -582  -602  -615  -623  -635  -656  -664  -638  -592  -572  -614  -718  -853  -978  -1054  -1075  -1060  -1025  -982  -950  -941  -947  -956  -952  -924  -877  -820  -758  -698  -660  -651  -662  -679  -689  -657  -552  -408  -302  -268  -273  -284  -292  -305  -326  -352  -380  -419  -494  -607  -711  -765  -765  -728  -673  -617  -570  -549  -555  -562  -565  -583  -624  -653  -627  -642  -867  -1194  -1207  -462  1227  3531  5676  6778  6234  4185  1432  -1139  -2824  -3352  -3108  -2580  -1900  -1219  -847  -806  -837  -790  -695  -628  -610  -608  -565  -453  -311  -214  -184  -162  -88  24  117  194  341  609  911  1121  1201  1202  1194  1201  1214  1244  1324  1479  1713  1965  2147  2229  2246  2236  2219  2203  2182  2137  2067  1985  1889  1769  1630  1474  1283  1043  767  510  325  204  93  -30  -161  -280  -367  -404  -379  -291  -148  0  68  19  -94  -191  -245  -276  -302  -339  -389  -421  -365  -173  95  300  383  390  384  381  344  225  44  -93  -125  -87  -41  -22  -28  -29  -9  8  -14  -93  -192  -251  -258  -249  -254  -286  -350  -430  -498  -532  -542  -546  -550  -551  -541  -522  -506  -506  -517  -539  -583  -643  -686  -679  -615  -519  -437  -392  -374  -366  -353  -330  -303  -284  -269  -244  -209  -184  -194  -250  -356  -509  -686  -846  -964  -1043  -1094  -1111  -1078  -997  -898  -819  -785  -800  -854  -900  -880  -839  -913  -1119  -1166  -596  819  2915  5159  6687  6693  5090  2513  -173  -2201  -3155  -3195  -2797  -2318  -1880  -1481  -1108  -781  -535  -401  -365  -371  -361  -305  -225  -156  -96  -17  69  123  132  119  115  142  213  331  483  659  851  1039  1199  1322  1425  1544  1681  1795  1873  1936  1986  2021  2049  2095  2169  2248  2295  2296  2226  2028  1693  1330  1079  967  924  876  777  616  409  181  -41  -230  -363  -450  -521  -587  -651  -718  -746  -697  -612  -558  -557  -590  -625  -645  -656  -663  -656  -613  -520  -404  -306  -240  -190  -155  -144  -161  -189  -211  -223  -223  -208  -180  -144  -120  -135  -210  -326  -426  -476  -484  -470  -440  -395  -355  -377  -497  -658  -762  -784  -771  -775  -825  -906  -975  -1004  -1007  -1015  -1016  -969  -880  -811  -805  -852  -910  -959  -1010  -1053  -1067  -1058  -1044  -1028  -990  -909  -803  -719  -675  -651  -627  -595  -546  -472  -375  -270  -171  -115  -153  -272  -377  -414  -408  -393  -379  -368  -385  -467  -615  -767  -861  -904  -930  -938  -889  -773  -623  -495  -449  -514  -694  -925  -923  -257  1290  3520  5855  7492  7684  6183  3523  622  -1756  -3067  -3205  -2649  -1954  -1363  -959  -769  -722  -727  -739  -732  -669  -546  -411  -324  -282  -240  -180  -118  -52  28  113  183  241  307  380  439  474  497  521  551  613  760  1026  1390  1765  2051  2211  2271  2277  2268  2269  2288  2302  2289  2247  2159  2002  1825  1718  1682  1595  1337  963  651  479  400  351  280  152  -36  -250  -433  -557  -635  -686  -712  -713  -690  -644  -575  -502  -461  -488  -583  -672  -661  -551  -446  -417  -457  -524  -579  -609  -620  -616  -591  -542  -481  -436  -430  -458  -499  -546  -593  -606  -548  -421  -268  -144  -101  -168  -327  -508  -637  -689  -668  -585  -467  -364  -306  -292  -323  -414  -560  -706  -799  -841  -848  -819  -742  -631  -526  -469  -461  -480  -504  -521  -527  -517  -489  -448  -414  -402  -428  -502  -593  -606  -468  -214  24  163  205  152  -28  -312  -558  -645  -596  -518  -475  -476  -514  -585  -673  -750  -793  -807  -805  -796  -791  -809  -852  -890  -919  -1005  -1106  -992  -393  956  3111  5570  7435  7890  6569  3845  693  -1871  -3245  -3411  -2825  -2065  -1512  -1269  -1228  -1211  -1101  -881  -625  -423  -275  -106  90  236  284  259  210  185  219  328  476  600  682  753  825  897  982  1076  1154  1205  1247  1315  1452  1663  1883  2042  2142  2224  2312  2409  2497  2547  2533  2444  2302  2131  1924  1693  1501  1391  1326  1209  959  599  252  9  -144  -271  -391  -478  -529  -595  -718  -863  -939  -906  -825  -773  -768  -781  -789  -791  -793  -784  -757  -722  -680  -636  -604  -589  -589  -594  -594  -584  -574  -569  -568  -561  -542  -513  -498  -536  -642  -793  -947  -1065  -1120  -1117  -1078  -1026  -984  -953  -918  -882  -859  -852  -850  -853  -870  -913  -975  -1039  -1092  -1123  -1124  -1089  -1015  -914  -804  -728  -757  -883  -1001  -1051  -1054  -1039  -1006  -940  -850  -780  -751  -725  -676  -607  -531  -464  -403  -340  -281  -237  -216  -222  -258  -319  -382  -423  -442  -475  -554  -663  -747  -791  -814  -825  -788  -670  -500  -372  -365  -506  -768  -1078  -1326  -1393  -1275  -922  -51  1484  3493  5583  7100  7311  5940  3372  415  -2052  -3384  -3484  -2813  -1953  -1269  -857  -641  -541  -513  -520  -536  -549  -544  -487  -346  -118  157  401  547  589  575  547  525  518  526  548  580  620  687  791  917  1046  1176  1313  1482  1717  1992  2228  2403  2534  2612  2632  2613  2579  2541  2505  2472  2433  2362  2237  2083  1945  1803  1578  1238  875  625  506  426  300  98  -159  -412  -596  -691  -718  -712  -708  -720  -738  -743  -730  -711  -712  -729  -720  -658  -558  -457  -386  -353  -345  -347  -340  -313  -275  -247  -238  -239  -240  -238  -238  -246  -260  -268  -265  -255  -256  -292  -382  -501  -588  -616  -610  -598  -595  -618  -679  -760  -822  -849  -855  -859  -872  -889  -902  -910  -915  -908  -864  -780  -722  -734  -754  -691  -563  -463  -428  -422  -403  -365  -322  -273  -200  -108  -20  51  101  97  -14  -212  -376  -435  -428  -420  -453  -531  -622  -687  -717  -721  -713  -716  -740  -781  -840  -914  -988  -1052  -1111  -1203  -1341  -1410  -1184  -407  1066  3116  5296  6847  7000  5544  2982  101  -2322  -3710  -4032  -3725  -3151  -2416  -1628  -981  -579  -403  -374  -398  -427  -461  -491  -470  -348  -136  78  204  235  246  304  407  504  574  643  738  851  942  993  1037  1124  1250  1370  1480  1636  1841  2020  2118  2161  2201  2265  2354  2453  2533  2562  2504  2331  2092  1884  1732  1577  1381  1171  980  800  625  468  308  79  -211  -453  -555  -537  -475  -428  -411  -409  -407  -400  -410  -468  -576  -685  -749  -763  -742  -693  -630  -574  -531  -501  -502  -524  -517  -451  -347  -241  -166  -138  -164  -254  -390  -521  -602  -627  -614  -576  -529  -497  -484  -472  -455  -465  -553  -679  -723  -664  -592  -553  -534  -528  -538  -569  -617  -681  -756  -824  -864  -875  -863  -822  -756  -690  -642  -614  -607  -616  -607  -558  -483  -412  -366  -348  -344  -343  -346  -364  -407  -460  -493  -496  -493  -520  -593  -677  -753  -841  -931  -983  -997  -996  -994  -993  -991  -986  -984  -1021  -1151  -1397  -1704  -1935  -1864  -1227  183  2357  4817  6753  7455  6529  4160  1162  -1544  -3315  -3861  -3396  -2526  -1779  -1359  -1212  -1183  -1168  -1142  -1094  -1016  -897  -725  -521  -344  -242  -217  -235  -252  -233  -169  -81  8  107  211  297  362  433  512  570  607  672  809  980  1107  1196  1325  1516  1719  1887  2002  2060  2074  2054  1992  1887  1764  1637  1494  1326  1143  964  794  633  469  291  118  -46  -247  -488  -682  -774  -800  -813  -834  -879  -966  -1092  -1221  -1294  -1282  -1204  -1095  -995  -935  -905  -867  -807  -748  -707  -678  -640  -582  -510  -437  -382  -354  -346  -347  -361  -399  -460  -522  -573  -612  -636  -647  -641  -607  -535  -436  -329  -233  -174  -174  -240  -349  -467  -567  -647  -715  -782  -845  -890  -890  -830  -718  -599  -524  -467  -344  -137  73  222  325  412  477  511  523  521  487  395  273  185  146  114  52  -32  -112  -161  -176  -180  -196  -223  -240  -242  -254  -292  -356  -455  -561  -621  -621  -611  -697  -912  -959  -287  1405  3876  6425  8087  8094  6390  3614  690  -1578  -2780  -2958  -2516  -1895  -1321  -897  -673  -583  -502  -384  -269  -200  -180  -178  -153  -50  154  394  552  604  620  647  681  705  715  727  764  841  948  1055  1127  1168  1212  1303  1457  1672  1909  2116  2285  2422  2514  2550  2544  2524  2512  2505  2484  2432  2325  2158  1958  1729  1444  1129  854  643  467  308  152  -29  -247  -481  -708  -892  -980  -924  -706  -413  -202  -142  -181  -248  -312  -365  -401  -422  -443  -471  -497  -519  -535  -556  -599  -660  -708  -721  -687  -605  -503  -422  -386  -387  -405  -421  -425  -425  -435  -467  -515  -569  -632  -707  -785  -870  -945  -974  -954  -923  -891  -825  -694  -524  -395  -350  -379  -472  -610  -734  -785  -767  -753  -787  -837  -871  -888  -901  -911  -889  -785  -595  -401  -291  -269  -286  -295  -260  -163  -36  64  98  35  -147  -395  -587  -665  -665  -641  -610  -573  -541  -530  -554  -626  -740  -861  -949  -1003  -1043  -1080  -1107  -1102  -1027  -891  -814  -913  -1132  -1193  -634  874  3167  5625  7341  7442  5694  2732  -384  -2677  -3628  -3419  -2687  -2000  -1617  -1503  -1466  -1361  -1165  -919  -696  -565  -534  -546  -546  -510  -458  -420  -394  -331  -190  -7  139  228  314  435  568  684  790  902  1018  1108  1149  1152  1149  1176  1278  1478  1732  1951  2085  2165  2235  2294  2322  2304  2240  2164  2105  2043  1911  1656  1302  936  629  387  197  38  -102  -214  -283  -335  -416  -544  -677  -764  -795  -794  -784  -773  -761  -747  -728  -712  -707  -701  -688  -665  -632  -606  -605  -624  -646  -658  -656  -637  -599  -544  -487  -446  -433  -444  -454  -457  -474  -508  -523  -501  -480  -495  -528  -553  -575  -619  -697  -797  -896  -973  -1022  -1040  -1023  -974  -898  -817  -761  -742  -741  -735  -717  -702  -710  -746  -804  -865  -901  -896  -821  -656  -458  -291  -181  -183  -294  -413  -481  -520  -563  -611  -641  -640  -623  -612  -611  -619  -632  -648  -662  -672  -693  -745  -810  -849  -882  -967  -1108  -1215  -1038  -234  1347  3502  5661  7049  7049  5510  2903  132  -1960  -2928  -2860  -2286  -1727  -1387  -1224  -1126  -1025  -897  -751  -625  -539  -454  -316  -133  30  118  134  124  133  190  290  413  528  610  671  738  813  873  907  912  906  939  1080  1336  1614  1802  1885  1939  2048  2218  2365  2437  2467  2494  2497  2400  2145  1799  1509  1328  1187  1016  829  681  555  379  142  -75  -199  -241  -280  -379  -528  -665  -739  -754  -758  -786  -832  -867  -880  -884  -892  -895  -851  -719  -523  -352  -268  -253  -259  -265  -290  -355  -443  -508  -539  -562  -591  -613  -618  -609  -600  -602  -616  -631  -646  -659  -666  -663  -656  -665  -719  -824  -940  -1008  -986  -861  -676  -520  -445  -444  -488  -537  -552  -526  -472  -411  -365  -342  -328  -303  -268  -253  -275  -297  -292  -307  -370  -455  -544  -623  -673  -708  -767  -857  -941  -979  -948  -840  -687  -547  -476  -557  -842  -1189  -1282  -771  600  2770  5124  6705  6771  5223  2628  -142  -2320  -3480  -3680  -3353  -2860  -2306  -1744  -1264  -918  -688  -551  -489  -475  -457  -387  -259  -124  -41  -23  -40  -63  -71  -46  21  108  200  316  460  641  864  1084  1253  1361  1421  1443  1440  1447  1509  1651  1846  2028  2133  2154  2126  2083  2037  1991  1939  1869  1767  1622  1451  1300  1176  1000  717  403  181  43  -110  -304  -481  -602  -642  -589  -500  -451  -481  -594  -750  -877  -947  -977  -988  -1001  -1011  -1005  -987  -937  -792  -536  -272  -117  -81  -102  -149  -226  -330  -421  -461  -455  -449  -479  -538  -579  -577  -552  -535  -547  -597  -668  -726  -747  -719  -626  -491  -377  -332  -394  -587  -854  -1066  -1144  -1113  -1025  -907  -744  -523  -301  -160  -122  -158  -253  -376  -471  -506  -492  -456  -430  -425  -426  -426  -434  -459  -508  -582  -669  -749  -808  -839  -849  -858  -913  -1069  -1305  -1369  -764  871  3377  6124  8214  8741  7305  4387  1032  -1777  -3462  -3947  -3609  -2994  -2461  -2021  -1565  -1119  -779  -579  -483  -426  -347  -191  47  284  423  459  452  442  433  418  410  439  541  725  927  1059  1114  1167  1268  1385  1464  1528  1652  1848  2049  2212  2350  2465  2536  2548  2471  2284  2051  1890  1845  1869  1894  1859  1718  1504  1322  1219  1104  834  368  -180  -637  -888  -965  -983  -1007  -1034  -1049  -1055  -1062  -1074  -1082  -1053  -959  -833  -744  -714  -700  -659  -603  -575  -586  -610  -614  -576  -486  -376  -299  -282  -321  -402  -496  -569  -639  -760  -958  -1171  -1306  -1335  -1281  -1166  -1009  -843  -721  -684  -729  -788  -785  -723  -678  -696  -730  -708  -607  -434  -234  -71  20  57  64  52  -4  -134  -296  -383  -336  -221  -149  -158  -208  -250  -276  -311  -366  -427  -471  -490  -496  -518  -573  -641  -683  -671  -623  -619  -754  -1007  -1118  -661  631  2642  4900  6645  7098  6055  3993  1522  -803  -2410  -3033  -2905  -2389  -1736  -1169  -846  -732  -698  -671  -643  -609  -571  -553  -574  -619  -649  -620  -504  -335  -161  46  325  600  761  796  777  769  800  872  975  1102  1234  1354  1447  1493  1505  1533  1642  1856  2118  2331  2461  2546  2606  2618  2567  2478  2381  2267  2084  1802  1452  1114  858  675  480  209  -83  -279  -341  -329  -295  -244  -186  -138  -121  -148  -227  -345  -473  -576  -639  -674  -689  -668  -594  -486  -411  -439  -601  -836  -1024  -1100  -1066  -947  -795  -672  -602  -568  -551  -535  -511  -486  -473  -470  -473  -483  -503  -546  -636  -783  -908  -911  -789  -621  -499  -487  -561  -646  -706  -744  -770  -802  -862  -938  -986  -991  -983  -995  -1044  -1113  -1171  -1202  -1220  -1257  -1333  -1425  -1494  -1528  -1529  -1475  -1337  -1139  -1008  -1152  -1627  -2146  -2241  -1464  405  3035  5584  7090  6820  4759  1738  -1201  -3288  -4142  -3935  -3235  -2556  -2113  -1873  -1707  -1534  -1374  -1254  -1167  -1104  -1062  -1028  -972  -858  -690  -521  -400  -344  -342  -368  -385  -323  -124  161  405  551  632  684  716  729  726  717  722  770  878  1045  1270  1572  1941  2276  2448  2420  2248  2025  1830  1682  1532  1330  1068  793  572  425  322  220  79  -105  -313  -544  -766  -881  -863  -819  -850  -942  -1027  -1073  -1090  -1107  -1139  -1161  -1147  -1089  -991  -869  -755  -672  -620  -585  -563  -573  -616  -670  -710  -726  -695  -594  -441  -294  -187  -114  -83  -144  -336  -598  -791  -853  -822  -744  -642  -537  -458  -430  -478  -599  -746  -851  -888  -880  -838  -750  -603  -429  -296  -238  -240  -272  -314  -354  -384  -406  -427  -450  -451  -404  -309  -211  -154  -145  -159  -177  -188  -191  -189  -181  -181  -223  -336  -486  -592  -613  -567  -499  -455  -471  -559  -676  -747  -728  -631  -365  331  1602  3358  5314  6758  6846  5414  3019  427  -1617  -2608  -2595  -2067  -1473  -1076  -954  -975  -937  -734  -392  -56  151  248  309  359  379  363  339  339  401  554  785  1001  1112  1114  1069  1031  1012  1007  1032  1116  1256  1414  1560  1694  1833  2008  2226  2472  2734  2983  3143  3135  2993  2847  2766  2711  2619  2469  2285  2091  1874  1618  1351  1133  989  887  781  669  597  568  509  361  181  99  145  222  238  168  47  -60  -117  -137  -141  -127  -82  1  98  170  203  209  207  210  228  255  274  270  238  195  163  152  153  159  167  175  170  125  31  -78  -152  -159  -92  27  136  156  39  -195  -442  -591  -610  -514  -337  -148  -35  -45  -189  -426  -675  -868  -982  -1024  -1015  -973  -900  -782  -640  -520  -433  -362  -321  -341  -438  -608  -799  -935  -995  -1013  -1000  -913  -719  -480  -310  -259  -316  -464  -652  -794  -851  -838  -770  -644  -485  -356  -299  -298  -310  -293  -223  -117  -12  65  109  124  122  91  1  -144  -303  -427  -489  -503  -500  -499  -500  -490  -455  -405  -366  -351  -359  -384  -425  -507  -675  -924  -1201  -1387  -1225  -435  1060  3111  5358  7110  7574  6436  4049  1126  -1516  -3135  -3423  -2765  -1862  -1192  -889  -829  -777  -638  -504  -427  -380  -350  -339  -335  -318  -276  -218  -169  -163  -197  -205  -143  -45  51  145  241  320  362  370  362  350  349  382  482  671  923  1146  1268  1288  1238  1132  1002  898  853  849  862  880  883  833  692  476  261  103  -21  -154  -309  -489  -688  -872  -998  -1067  -1135  -1235  -1344  -1433  -1497  -1541  -1572  -1588  -1591  -1592  -1571  -1491  -1360  -1213  -1074  -973  -937  -964  -1028  -1101  -1167  -1218  -1237  -1217  -1177  -1134  -1084  -1024  -964  -921  -898  -890  -887  -890  -916  -980  -1059  -1092  -1042  -950  -904  -945  -1034  -1103  -1125  -1130  -1148  -1183  -1220  -1248  -1272  -1305  -1353  -1382  -1321  -1103  -747  -390  -172  -104  -111  -148  -216  -313  -403  -454  -467  -463  -454  -435  -400  -352  -296  -244  -217  -219  -232  -232  -216  -198  -181  -147  -72  46  160  205  176  131  113  119  127  106  33  -75  -171  -231  -264  -275  -252  -171  -24  149  278  333  339  330  312  273  219  174  156  164  189  225  278  353  429  478  493  466  360  146  -112  -286  -297  -161  34  176  194  80  -122  -324  -455  -528  -574  -578  -498  -384  -435  -745  -1003  -701  508  2666  5322  7568  8477  7617  5306  2406  -193  -1927  -2595  -2392  -1842  -1387  -1116  -909  -683  -470  -321  -222  -125  -12  95  160  175  164  163  204  301  416  494  525  536  549  575  617  659  696  745  816  912  1039  1179  1304  1416  1539  1683  1830  1940  2004  2070  2186  2329  2420  2420  2369  2324  2306  2282  2196  2022  1757  1390  959  592  401  369  407  442  414  264  1  -270  -453  -535  -551  -536  -503  -445  -360  -272  -211  -189  -192  -218  -267  -311  -304  -247  -192  -176  -206  -274  -375  -495  -597  -639  -594  -461  -281  -124  -33  -1  -19  -103  -242  -379  -458  -475  -457  -425  -376  -311  -248  -219  -228  -250  -282  -353  -460  -544  -548  -447  -267  -93  -1  -5  -88  -224  -383  -535  -649  -705  -688  -605  -499  -421  -398  -424  -501  -648  -831  -956  -951  -829  -687  -634  -671  -712  -711  -675  -621  -561  -511  -493  -512  -545  -564  -566  -562  -556  -541  -514  -484  -459  -437  -415  -400  -406  -426  -433  -392  -289  -172  -100  -66  -43  -33  -52  -130  -285  -471  -606  -654  -649  -643  -665  -704  -717  -690  -682  -728  -786  -805  -771  -704  -676  -757  -951  -1184  -1273  -878  300  2267  4622  6594  7332  6429  4177  1344  -1186  -2722  -3102  -2804  -2392  -2001  -1602  -1285  -1090  -956  -840  -739  -659  -601  -553  -503  -441  -353  -231  -87  44  125  151  159  188  261  379  520  654  760  854  975  1129  1268  1346  1374  1412  1526  1758  2092  2427  2640  2690  2645  2581  2521  2477  2459  2435  2350  2193  2021  1886  1766  1619  1422  1185  928  652  392  219  134  49  -93  -252  -358  -409  -447  -492  -541  -585  -601  -565  -494  -432  -401  -390  -388  -384  -378  -381  -422  -518  -618  -642  -596  -557  -565  -597  -621  -632  -635  -634  -618  -574  -514  -468  -447  -440  -428  -394  -340  -306  -374  -607  -931  -1171  -1244  -1184  -1044  -859  -686  -579  -543  -535  -550  -666  -961  -1347  -1618  -1640  -1439  -1144  -901  -760  -702  -717  -776  -822  -825  -817  -845  -893  -880  -779  -653  -564  -524  -518  -538  -585  -644  -683  -691  -686  -700  -757  -840  -909  -937  -905  -785  -562  -263  27  211  263  211  73  -112  -268  -343  -357  -350  -344  -335  -313  -304  -339  -397  -469  -591  -752  -872  -897  -837  -737  -644  -578  -553  -598  -743  -986  -1294  -1579  -1634  -1183  -54  1721  3901  5992  7246  6999  5204  2472  -333  -2449  -3416  -3302  -2613  -1830  -1197  -823  -693  -681  -651  -552  -427  -334  -280  -236  -182  -115  -45  7  32  42  64  120  193  249  282  306  333  376  442  533  643  761  877  999  1173  1441  1749  1982  2092  2140  2196  2270  2327  2353  2371  2386  2362  2261  2096  1932  1799  1639  1390  1076  794  626  571  540  421  178  -108  -322  -419  -443  -450  -451  -443  -449  -493  -578  -697  -822  -909  -932  -903  -852  -786  -673  -516  -364  -257  -201  -168  -115  -40  27  73  99  107  69  -69  -317  -575  -735  -789  -783  -720  -582  -403  -266  -214  -214  -221  -203  -144  -65  -9  12  20  31  17  -86  -308  -569  -750  -810  -789  -730  -660  -596  -535  -476  -431  -392  -330  -249  -178  -131  -105  -112  -157  -235  -340  -463  -588  -691  -750  -746  -675  -555  -441  -377  -363  -368  -352  -271  -107  114  317  420  403  302  156  0  -134  -237  -353  -510  -676  -796  -851  -852  -796  -675  -525  -423  -421  -521  -676  -810  -856  -802  -710  -661  -706  -830  -893  -588  452  2322  4653  6700  7509  6523  4135  1262  -1241  -2717  -3020  -2616  -2048  -1572  -1219  -957  -780  -696  -680  -673  -635  -568  -488  -390  -280  -182  -96  0  111  218  296  335  352  376  413  440  442  441  484  602  771  929  1062  1206  1358  1473  1555  1675  1890  2152  2357  2467  2524  2561  2587  2595  2548  2380  2084  1759  1537  1460  1461  1401  1153  735  328  71  -79  -225  -377  -494  -562  -595  -593  -553  -495  -458  -482  -588  -736  -855  -918  -945  -951  -937  -904  -859  -815  -787  -781  -788  -793  -779  -731  -663  -614  -613  -665  -747  -826  -880  -907  -906  -872  -812  -768  -768  -808  -860  -889  -881  -853  -825  -811  -806  -784  -761  -799  -930  -1094  -1204  -1220  -1168  -1105  -1063  -1041  -1017  -970  -920  -911  -955  -1004  -978  -834  -628  -480  -454  -524  -631  -717  -766  -803  -859  -918  -915  -793  -551  -262  -41  37  -25  -171  -328  -442  -509  -553  -579  -564  -501  -410  -320  -265  -265  -335  -469  -632  -762  -824  -832  -812  -781  -744  -729  -778  -882  -984  -1086  -1161  -943  -34  1722  4087  6419  7771  7410  5395  2455  -505  -2692  -3632  -3446  -2684  -1842  -1200  -859  -742  -709  -683  -645  -571  -431  -244  -70  67  182  270  323  345  347  341  328  315  322  373  476  616  766  915  1076  1238  1358  1436  1534  1692  1877  2036  2172  2325  2494  2633  2715  2758  2781  2789  2757  2639  2408  2123  1887  1739  1635  1518  1368  1188  961  679  387  167  60  39  48  16  -115  -337  -573  -750  -830  -809  -725  -643  -609  -627  -693  -808  -937  -1019  -1018  -934  -805  -694  -643  -638  -646  -652  -653  -652  -648  -631  -581  -479  -348  -251  -243  -350  -550  -760  -883  -885  -774  -596  -434  -350  -349  -409  -506  -609  -695  -767  -843  -901  -886  -795  -697  -651  -649  -650  -620  -566  -549  -597  -653  -668  -656  -650  -664  -673  -626  -502  -339  -208  -141  -106  -66  -22  0  -7  -31  -63  -100  -120  -114  -106  -117  -147  -202  -276  -361  -459  -559  -650  -729  -761  -720  -653  -629  -666  -732  -772  -767  -677  -304  645  2270  4332  6226  7113  6441  4360  1532  -1129  -2770  -3184  -2850  -2314  -1860  -1570  -1374  -1129  -794  -490  -328  -286  -288  -280  -232  -138  -27  55  82  92  165  313  460  540  551  522  500  530  628  749  842  922  1037  1213  1450  1724  1959  2093  2144  2178  2229  2284  2319  2331  2325  2292  2218  2108  1978  1833  1670  1493  1298  1073  809  508  213  -11  -151  -260  -391  -543  -670  -749  -796  -836  -873  -902  -927  -956  -991  -1039  -1116  -1212  -1266  -1241  -1157  -1036  -899  -800  -775  -800  -832  -852  -873  -903  -925  -907  -837  -761  -730  -738  -747  -746  -771  -858  -994  -1117  -1174  -1157  -1069  -939  -816  -741  -723  -735  -746  -741  -735  -743  -746  -715  -661  -620  -602  -598  -560  -430  -236  -81  -14  -13  -52  -107  -148  -165  -163  -158  -164  -173  -178  -200  -263  -356  -438  -507  -602  -720  -806  -833  -830  -837  -881  -931  -901  -805  -743  -655  -292  595  2149  4193  6032  6755  5869  3613  745  -1831  -3396  -3777  -3357  -2673  -2104  -1754  -1500  -1213  -906  -682  -581  -557  -550  -525  -481  -428  -369  -302  -239  -202  -196  -202  -176  -85  53  173  227  228  215  228  292  403  564  799  1076  1308  1473  1598  1682  1746  1862  2051  2247  2350  2272  1960  1515  1156  1001  976  967  912  788  608  414  233  57  -106  -242  -378  -550  -711  -787  -775  -746  -795  -962  -1172  -1314  -1357  -1348  -1327  -1293  -1235  -1166  -1103  -1048  -1003  -972  -939  -866  -731  -570  -463  -464  -567  -704  -800  -850  -893  -940  -974  -990  -996  -997  -982  -938  -876  -826  -805  -804  -813  -832  -868  -911  -940  -949  -949  -951  -954  -942  -896  -826  -783  -768  -712  -593  -490  -467  -516  -587  -633  -651  -686  -765  -851  -903  -928  -949  -975  -1011  -1064  -1133  -1203  -1253  -1272  -1260  -1199  -1091  -982  -924  -931  -1017  -1189  -1384  -1540  -1560  -1153  -42  1751  3944  5941  6866  6137  3950  1114  -1412  -2953  -3411  -3182  -2739  -2330  -2009  -1754  -1541  -1370  -1233  -1091  -915  -741  -631  -594  -596  -610  -628  -636  -607  -509  -348  -174  -24  109  263  441  584  651  668  700  799  965  1127  1226  1316  1500  1774  2023  2174  2246  2276  2297  2333  2378  2418  2436  2407  2334  2261  2214  2178  2126  2030  1897  1765  1645  1516  1361  1198  1069  997  964  917  803  626  476  463  597  793  975  1112  1200  1240  1247  1239  1235  1248  1283  1314  1292  1177  941  583  148]
