reading_id,reading_time,wire_id,result_classification,heart_rate,heart_rate_alert,firmware_version,device_app_version,hardware_version,waveform_samples
64ff37a0-6885-11ed-8080-808080808080,Sun Nov 20 03:42:45 UTC 2022,a101e3f91939,NSR,92,NONE,20001.171.50,2.10.0,Charge 5,[3945  4318  4648  4852  4915  4913  4904  4887  4846  4784  4718  4648  4575  4518  4466  4377  4191  3891  3560  3303  3104  2873  2557  2178  1821  1552  1357  1184  999  810  619  385  91  -231  -597  -1021  -1404  -1607  -1601  -1472  -1341  -1247  -1148  -1048  -989  -972  -978  -987  -987  -988  -1016  -1128  -1336  -1520  -1541  -1389  -1192  -1105  -1154  -1242  -1297  -1327  -1366  -1414  -1438  -1419  -1378  -1348  -1344  -1353  -1356  -1356  -1369  -1391  -1402  -1404  -1403  -1402  -1402  -1397  -1384  -1365  -1324  -1233  -1094  -946  -830  -767  -736  -710  -693  -722  -818  -962  -1099  -1180  -1214  -1254  -1349  -1525  -1738  -1882  -1905  -1860  -1815  -1794  -1772  -1719  -1640  -1574  -1559  -1621  -1737  -1818  -1854  -1929  -1954  -1656  -829  576  2452  4430  5803  5864  4442  1979  -777  -3051  -4332  -4647  -4368  -3824  -3259  -2836  -2572  -2416  -2342  -2312  -2251  -2097  -1878  -1701  -1637  -1649  -1663  -1639  -1540  -1346  -1111  -940  -876  -875  -877  -843  -749  -584  -381  -203  -100  -66  -57  -6  127  305  435  491  533  618  774  977  1144  1217  1224  1224  1237  1228  1113  840  467  144  -17  -34  -1  -18  -137  -338  -562  -782  -1012  -1221  -1341  -1335  -1218  -1055  -940  -938  -1049  -1207  -1314  -1315  -1226  -1117  -1036  -957  -843  -728  -664  -647  -649  -657  -682  -719  -749  -789  -868  -946  -964  -909  -784  -621  -487  -415  -394  -411  -472  -571  -677  -741  -704  -547  -335  -178  -134  -193  -336  -536  -737  -882  -954  -976  -968  -919  -828  -724  -635  -570  -536  -519  -501  -496  -546  -665  -803  -893  -925  -918  -871  -775  -682  -679  -767  -854  -881  -870  -879  -951  -1090  -1275  -1340  -898  362  2363  4663  6577  7352  6541  4367  1587  -993  -2776  -3505  -3398  -2890  -2276  -1725  -1354  -1145  -990  -829  -645  -444  -276  -161  -72  4  58  80  77  64  67  115  226  367  472  520  538  552  546  519  547  725  1017  1282  1434  1490  1497  1491  1508  1572  1669  1766  1863  1981  2118  2244  2300  2215  1954  1614  1364  1246  1151  960  643  284  5  -138  -199  -253  -337  -464  -643  -817  -887  -833  -727  -640  -599  -585  -552  -504  -488  -505  -515  -498  -474  -482  -556  -690  -834  -933  -968  -950  -890  -793  -685  -610  -589  -600  -599  -561  -501  -469  -489  -538  -577  -593  -596  -592  -571  -522  -469  -453  -476  -515  -540  -514  -420  -298  -195  -121  -68  -39  -31  -26  -17  -22  -85  -239  -450  -636  -748  -796  -822  -854  -875  -852  -789  -707  -616  -530  -466  -419  -379  -359  -384  -502  -804  -1284  -1692  -1648  -851  809  3141  5529  7115  7253  5831  3313  486  -1885  -3269  -3572  -3124  -2357  -1628  -1172  -1004  -971  -950  -926  -909  -858  -724  -536  -383  -284  -175  -41  58  92  99  134  208  290  353  412  494  611  733  805  810  793  844  1037  1330  1593  1744  1802  1831  1888  1987  2098  2177  2215  2229  2195  2044  1762  1463  1262  1108  861  507  179  -20  -108  -150  -196  -259  -336  -433  -543  -644  -738  -851  -977  -1075  -1115  -1083  -967  -784  -618  -541  -541  -573  -610  -639  -635  -567  -439  -320  -274  -282  -295  -299  -296  -285  -257  -220  -194  -189  -192  -192  -183  -164  -118  -39  42  65  -13  -156  -267  -285  -221  -123  -39  13  49  73  82  82  87  113  160  225  296  355  405  474  579  686  751  770  768  731  584  285  -81  -357  -466  -460  -437  -437  -444  -447  -457  -492  -554  -631  -693  -717  -775  -952  -1172  -1221  -818  321  2250  4595  6624  7517  6771  4573  1714  -904  -2655  -3347  -3211  -2678  -2101  -1666  -1416  -1279  -1163  -1042  -920  -813  -743  -696  -613  -470  -299  -155  -76  -51  -31  36  158  290  378  408  397  372  360  376  403  446  553  754  1017  1277  1479  1593  1630  1632  1625  1603  1552  1482  1426  1401  1408  1433  1440  1373  1196  944  682  424  164  -69  -247  -364  -431  -470  -532  -687  -957  -1256  -1458  -1517  -1481  -1417  -1370  -1338  -1312  -1300  -1296  -1255  -1163  -1070  -1001  -939  -879  -838  -835  -882  -978  -1095  -1181  -1198  -1134  -1017  -892  -796  -746  -742  -775  -834  -904  -965  -992  -990  -980  -977  -989  -1029  -1104  -1206  -1310  -1381  -1404  -1374  -1287  -1165  -1054  -987  -964  -965  -973  -992  -1048  -1152  -1273  -1326  -1233  -1027  -838  -750  -742  -753  -758  -781  -851  -961  -1071  -1141  -1175  -1207  -1250  -1294  -1343  -1404  -1450  -1458  -1440  -1418  -1386  -1313  -1212  -1179  -1315  -1637  -1993  -2197  -2167  -1747  -715  977  3185  5457  6929  6835  5135  2440  -416  -2622  -3664  -3667  -3174  -2635  -2253  -1971  -1609  -1182  -885  -794  -804  -780  -656  -470  -306  -204  -141  -81  0  127  283  394  421  403  392  412  471  586  781  1026  1246  1403  1523  1655  1809  1947  2038  2094  2145  2227  2359  2527  2668  2714  2662  2558  2435  2320  2197  2011  1782  1576  1383  1179  1003  892  821  741  614  457  314  193  77  -22  -79  -98  -108  -117  -115  -98  -87  -108  -173  -255  -315  -325  -269  -142  33  204  306  310  245  165  105  75  56  35  27  52  97  132  146  145  144  145  138  98  3  -144  -313  -441  -491  -485  -460  -437  -421  -419  -423  -421  -404  -378  -358  -337  -283  -178  -45  64  117  123  113  112  125  147  157  141  112  99  111  131  138  133  132  117  59  -40  -151  -242  -309  -361  -415  -494  -588  -672  -749  -804  -776  -674  -530  -99  1018  2827  4959  6919  7887  7134  4813  1808  -896  -2604  -3150  -2877  -2340  -1905  -1588  -1295  -1028  -801  -573  -325  -122  -28  -25  -38  -38  -40  -41  -1  127  349  599  795  897  928  929  934  958  1000  1072  1199  1353  1458  1483  1464  1476  1596  1857  2210  2535  2726  2773  2752  2714  2641  2497  2308  2140  2013  1917  1851  1801  1728  1595  1386  1064  603  90  -312  -525  -597  -630  -674  -715  -737  -752  -775  -818  -882  -951  -995  -990  -934  -852  -779  -724  -686  -661  -655  -675  -695  -685  -660  -650  -652  -654  -656  -664  -680  -692  -683  -659  -629  -590  -553  -541  -567  -618  -652  -658  -692  -775  -858  -907  -933  -949  -955  -951  -953  -969  -953  -865  -764  -721  -729  -743  -730  -673  -584  -500  -451  -433  -425  -416  -419  -466  -582  -772  -981  -1123  -1168  -1142  -1049  -882  -686  -550  -516  -571  -682  -816  -946  -1050  -1089  -1027  -911  -911  -1139  -1453  -1645  -1553  -906  530  2674  5080  6925  7298  5915  3332  436  -1912  -3140  -3341  -3051  -2624  -2199  -1866  -1615  -1415  -1264  -1131  -996  -862  -729  -581  -394  -189  -36  30  38  16  -31  -92  -150  -195  -214  -192  -124  -16  124  321  613  941  1161  1204  1115  981  894  936  1150  1461  1714  1841  1897  1925  1917  1878  1843  1828  1814  1771  1655  1423  1101  772  484  212  -48  -249  -355  -403  -460  -556  -672  -778  -874  -965  -1020  -1026  -1006  -988  -980  -973  -952  -900  -822  -754  -712  -678  -644  -607  -560  -519  -509  -526  -544  -550  -545  -543  -554  -568  -557  -501  -419  -379  -432  -510  -491  -375  -237  -151  -205  -396  -594  -719  -800  -866  -903  -901  -875  -838  -781  -699  -614  -547  -497  -445  -365  -263  -163  -65  47  162  252  317  376  405  314  29  -380  -704  -804  -742  -659  -629  -644  -674  -696  -708  -718  -715  -660  -528  -368  -258  -222  -274  -482  -905  -1419  -1634  -1118  335  2587  5095  7050  7717  6739  4386  1427  -1312  -3151  -3776  -3437  -2640  -1819  -1242  -928  -764  -661  -577  -496  -394  -250  -105  -19  4  41  168  367  538  618  631  631  641  649  649  651  681  753  857  956  1035  1145  1368  1689  1982  2164  2256  2302  2317  2303  2249  2162  2063  1973  1872  1742  1618  1525  1423  1249  993  722  520  395  306  239  185  123  27  -119  -315  -544  -764  -919  -984  -985  -947  -874  -791  -737  -731  -754  -780  -796  -801  -802  -799  -781  -731  -663  -610  -569  -518  -467  -452  -462  -461  -437  -421  -454  -542  -643  -709  -730  -742  -770  -792  -768  -705  -650  -633  -642  -656  -667  -677  -685  -686  -675  -659  -654  -653  -617  -510  -320  -93  78  149  146  108  45  -55  -219  -442  -656  -782  -816  -809  -803  -809  -826  -844  -863  -890  -912  -914  -905  -908  -926  -929  -841  -644  -511  -656  -1026  -1327  -1222  -336  1592  4260  6733  7912  7158  4708  1466  -1482  -3276  -3727  -3311  -2604  -1973  -1576  -1346  -1141  -954  -853  -831  -800  -673  -443  -183  17  119  140  140  164  208  225  199  181  202  269  400  580  735  822  869  932  1034  1166  1320  1490  1670  1830  1906  1887  1840  1827  1861  1932  2016  2094  2169  2214  2157  1940  1624  1349  1146  913  591  244  -42  -240  -361  -420  -452  -496  -559  -632  -725  -842  -954  -1032  -1072  -1070  -1004  -865  -702  -587  -542  -536  -540  -552  -582  -633  -685  -717  -728  -730  -726  -709  -679  -649  -633  -633  -639  -641  -619  -559  -457  -344  -256  -225  -290  -485  -746  -939  -1005  -978  -898  -793  -696  -632  -595  -550  -474  -404  -384  -383  -353  -307  -270  -225  -156  -70  15  80  100  39  -138  -377  -551  -610  -598  -569  -540  -514  -489  -446  -371  -311  -335  -411  -489  -590  -700  -764  -773  -759  -752  -793  -921  -1055  -870  29  1789  4146  6373  7478  6814  4587  1678  -953  -2685  -3344  -3224  -2833  -2417  -1963  -1579  -1395  -1300  -1122  -874  -691  -621  -561  -416  -212  -46  30  44  39  46  78  128  188  276  402  539  662  768  839  861  843  837  935  1204  1572  1864  2002  2043  2067  2116  2192  2268  2333  2392  2429  2396  2264  2057  1832  1594  1303  1002  795  711  688  650  540  328  29  -284  -530  -684  -768  -818  -862  -907  -941  -962  -986  -1015  -1030  -1010  -939  -833  -727  -637  -564  -514  -493  -492  -508  -545  -600  -650  -653  -591  -464  -301  -211  -274  -432  -600  -742  -819  -794  -679  -535  -432  -390  -385  -405  -476  -611  -739  -742  -611  -443  -315  -241  -222  -247  -290  -319  -320  -314  -329  -385  -452  -439  -312  -169  -101  -94  -99  -103  -131  -211  -322  -431  -557  -728  -894  -975  -950  -875  -815  -787  -777  -772  -778  -809  -872  -948  -1005  -1020  -979  -886  -811  -882  -1114  -1198  -599  997  3346  5673  7080  7009  5438  2880  151  -2048  -3367  -3743  -3322  -2493  -1730  -1247  -978  -822  -740  -709  -696  -670  -601  -469  -311  -196  -145  -128  -124  -128  -133  -115  -53  43  154  283  433  587  720  819  882  919  958  1052  1236  1462  1650  1787  1903  1999  2056  2064  2042  2014  1983  1941  1882  1803  1715  1626  1507  1309  1037  778  587  417  212  -5  -167  -254  -290  -315  -381  -514  -677  -803  -868  -885  -882  -876  -878  -884  -879  -835  -749  -677  -672  -699  -703  -665  -588  -496  -430  -406  -400  -384  -354  -312  -270  -275  -357  -464  -524  -528  -501  -469  -449  -440  -431  -415  -404  -439  -561  -737  -865  -881  -796  -673  -588  -571  -604  -655  -705  -758  -801  -778  -641  -442  -292  -242  -260  -309  -363  -402  -425  -440  -431  -334  -110  168  371  454  455  380  174  -149  -455  -616  -644  -633  -652  -711  -789  -877  -964  -1020  -997  -870  -669  -470  -327  -258  -266  -363  -528  -696  -915  -1278  -1503  -1066  224  2184  4423  6300  7125  6564  4779  2286  -213  -2059  -2938  -3027  -2722  -2265  -1777  -1370  -1051  -738  -449  -268  -215  -245  -318  -406  -437  -348  -202  -91  23  183  318  374  379  386  422  498  633  825  1007  1117  1172  1240  1369  1554  1731  1832  1853  1841  1837  1868  1959  2113  2271  2362  2385  2375  2301  2098  1785  1491  1323  1265  1224  1128  969  811  727  693  536  74  -604  -1161  -1394  -1385  -1284  -1152  -1000  -866  -796  -789  -811  -832  -844  -850  -851  -838  -789  -692  -582  -533  -593  -728  -832  -816  -692  -563  -497  -483  -487  -488  -484  -484  -506  -549  -582  -567  -478  -322  -152  -34  1  -36  -128  -241  -365  -505  -610  -615  -550  -489  -463  -468  -476  -460  -427  -402  -406  -442  -491  -522  -531  -529  -528  -529  -527  -513  -480  -433  -385  -355  -350  -359  -361  -322  -209  -46  92  156  143  74  -19  -108  -189  -254  -291  -320  -400  -585  -838  -1043  -1124  -1062  -869  -631  -483  -475  -539  -599  -656  -746  -864  -988  -1112  -1148  -784  362  2328  4661  6627  7449  6655  4460  1668  -867  -2600  -3333  -3229  -2698  -2121  -1706  -1489  -1363  -1191  -947  -720  -581  -521  -491  -439  -350  -245  -171  -155  -157  -115  5  196  383  504  560  576  568  562  590  679  826  997  1179  1369  1535  1643  1702  1746  1809  1899  1989  2053  2101  2156  2205  2199  2116  1975  1790  1579  1400  1299  1226  1099  913  709  470  200  -34  -203  -336  -458  -587  -721  -824  -861  -836  -801  -799  -821  -815  -756  -683  -642  -630  -622  -601  -560  -497  -421  -357  -324  -318  -320  -323  -326  -331  -331  -315  -295  -300  -342  -389  -402  -371  -322  -293  -309  -360  -430  -504  -556  -581  -582  -546  -449  -319  -237  -257  -363  -471  -510  -487  -449  -419  -408  -431  -484  -542  -593  -641  -683  -687  -625  -527  -456  -436  -447  -465  -485  -489  -441  -320  -158  -20  51  34  -68  -189  -245  -229  -201  -192  -201  -229  -290  -376  -453  -503  -543  -596  -662  -716  -720  -669  -624  -630  -657  -712  -834  -1042  -1312  -1406  -940  278  2193  4493  6460  7256  6515  4503  1849  -667  -2348  -2998  -2951  -2599  -2171  -1785  -1459  -1165  -905  -686  -520  -410  -344  -310  -297  -286  -255  -183  -63  66  149  179  206  262  344  420  459  474  536  697  921  1106  1200  1222  1216  1221  1289  1475  1766  2055  2237  2295  2267  2193  2081  1930  1756  1597  1503  1495  1529  1528  1427  1178  810  448  188  33  -76  -196  -326  -425  -485  -541  -622  -729  -856  -977  -1061  -1086  -1039  -920  -774  -663  -608  -596  -619  -664  -722  -782  -819  -821  -794  -758  -726  -698  -681  -677  -678  -676  -675  -672  -651  -587  -491  -416  -399  -429  -471  -506  -558  -668  -822  -951  -1004  -958  -808  -616  -478  -428  -438  -492  -595  -718  -800  -806  -733  -609  -476  -354  -251  -176  -124  -81  -70  -123  -228  -351  -458  -521  -535  -526  -527  -551  -581  -594  -600  -617  -611  -539  -425  -340  -313  -317  -328  -358  -441  -585  -696  -719  -761  -789  -403  845  3031  5582  7425  7687  6164  3295  62  -2432  -3640  -3689  -3032  -2175  -1496  -1119  -966  -879  -740  -552  -409  -364  -368  -350  -294  -221  -151  -92  -36  31  119  239  398  562  666  674  594  476  396  442  660  977  1238  1383  1471  1553  1632  1729  1889  2101  2279  2352  2340  2298  2229  2113  1951  1759  1571  1431  1344  1256  1123  944  755  576  365  95  -173  -359  -449  -472  -473  -488  -542  -640  -751  -826  -849  -843  -823  -794  -756  -715  -685  -675  -688  -724  -770  -797  -752  -598  -390  -210  -115  -168  -347  -521  -613  -635  -626  -621  -626  -629  -630  -640  -669  -708  -734  -744  -756  -786  -819  -830  -825  -821  -814  -803  -796  -787  -737  -605  -414  -257  -177  -147  -132  -108  -61  -22  -49  -157  -296  -394  -428  -449  -507  -573  -610  -629  -659  -705  -740  -725  -649  -560  -522  -540  -583  -635  -687  -727  -761  -806  -862  -901  -955  -1119  -1338  -1330  -759  584  2656  5020  6924  7592  6585  4108  1029  -1589  -3104  -3461  -3045  -2391  -1883  -1605  -1418  -1191  -940  -740  -617  -549  -509  -496  -501  -498  -467  -401  -285  -137  -7  87  165  203  181  133  112  142  225  334  453  596  767  959  1153  1310  1410  1496  1639  1859  2077  2189  2146  1988  1842  1783  1749  1679  1571  1421  1266  1151  1061  958  813  583  257  -86  -338  -473  -550  -609  -642  -650  -674  -765  -926  -1065  -1122  -1141  -1136  -1069  -958  -857  -790  -750  -731  -726  -725  -728  -757  -823  -898  -930  -906  -877  -874  -876  -864  -855  -872  -916  -950  -916  -811  -703  -634  -592  -551  -503  -448  -412  -423  -475  -543  -598  -616  -620  -642  -670  -677  -665  -644  -612  -560  -482  -391  -317  -260  -194  -129  -93  -96  -131  -176  -208  -215  -209  -204  -220  -269  -334  -378  -395  -419  -475  -544  -618  -712  -801  -821  -719  -519  -385  -481  -818  -1228  -1322  -634  1063  3544  6091  7765  7880  6379  3786  853  -1642  -3120  -3534  -3207  -2515  -1840  -1383  -1044  -744  -552  -485  -468  -425  -345  -264  -210  -178  -160  -144  -108  -26  97  224  319  372  394  412  457  541  636  704  750  830  1003  1270  1547  1750  1876  1956  2008  2046  2102  2197  2293  2334  2306  2212  2059  1881  1707  1529  1345  1198  1126  1104  1047  879  638  436  307  125  -242  -721  -1065  -1155  -1065  -923  -817  -776  -782  -808  -833  -839  -825  -803  -782  -766  -751  -729  -696  -664  -649  -664  -697  -721  -726  -721  -715  -709  -696  -667  -610  -524  -430  -371  -362  -379  -398  -412  -422  -427  -461  -583  -769  -907  -923  -853  -784  -748  -700  -634  -596  -597  -615  -637  -652  -660  -674  -686  -675  -634  -572  -519  -506  -512  -493  -439  -371  -314  -281  -255  -206  -139  -91  -77  -80  -82  -92  -142  -254  -404  -536  -605  -614  -588  -553  -520  -491  -475  -518  -661  -850  -975  -1006  -1037  -1163  -1320  -1385  -1295  -891  96  1785  3983  6137  7447  7243  5454  2702  -121  -2279  -3341  -3384  -2869  -2221  -1674  -1342  -1191  -1089  -978  -879  -798  -697  -533  -322  -146  -51  -10  18  56  106  166  232  285  313  335  387  479  584  677  742  780  835  962  1144  1303  1417  1546  1745  2013  2309  2519  2515  2330  2138  2033  1981  1935  1871  1767  1612  1445  1301  1139  914  686  557  535  524  396  94  -288  -582  -710  -739  -761  -812  -876  -922  -930  -899  -835  -751  -672  -626  -616  -623  -627  -616  -579  -516  -447  -394  -365  -350  -336  -325  -330  -367  -435  -520  -601  -666  -693  -669  -627  -608  -621  -659  -708  -747  -766  -771  -771  -778  -774  -719  -628  -562  -554  -590  -628  -630  -594  -550  -528  -526  -527  -523  -539  -600  -679  -712  -662  -565  -486  -449  -421  -370  -278  -141  4  98  116  67  -46  -206  -367  -480  -514  -461  -362  -281  -256  -285  -341  -371  -347  -300  -264  -243  -227  -226  -272  -384  -491  -483  -397  -408  -596  -758  -455  626  2434  4567  6312  6913  6043  4007  1524  -671  -2085  -2617  -2557  -2284  -2000  -1723  -1417  -1085  -782  -570  -468  -437  -417  -388  -359  -303  -179  -13  115  195  275  372  452  492  505  515  525  542  586  672  800  954  1120  1301  1477  1612  1724  1861  2000  2085  2120  2158  2226  2284  2292  2274  2269  2264  2194  2000  1693  1350  1057  871  782  700  511  185  -161  -378  -436  -416  -396  -410  -460  -523  -566  -585  -612  -682  -796  -906  -951  -914  -834  -764  -721  -697  -695  -715  -740  -755  -759  -758  -748  -705  -618  -515  -445  -421  -411  -392  -375  -389  -429  -465  -479  -483  -501  -548  -608  -650  -673  -704  -760  -823  -872  -896  -871  -784  -659  -534  -436  -386  -393  -449  -526  -583  -603  -591  -546  -461  -358  -285  -262  -277  -313  -357  -387  -379  -330  -258  -197  -157  -121  -76  -38  -31  -44  -60  -83  -116  -155  -201  -243  -283  -341  -403  -462  -529  -591  -638  -688  -753  -823  -876  -890  -866  -823  -778  -740  -686  -604  -538  -402  99  1205  2959  5115  6940  7527  6458  4003  957  -1682  -3221  -3561  -3050  -2211  -1481  -1040  -860  -821  -792  -708  -588  -483  -416  -390  -383  -362  -307  -214  -97  4  69  116  170  230  294  384  510  638  723  755  767  800  887  1027  1188  1353  1551  1794  2014  2142  2180  2177  2175  2182  2174  2136  2074  2011  1969  1947  1882  1690  1373  1034  767  594  491  404  285  131  -35  -239  -512  -811  -1032  -1125  -1135  -1128  -1143  -1174  -1200  -1213  -1219  -1220  -1216  -1193  -1133  -1030  -909  -814  -769  -764  -792  -861  -953  -1022  -1024  -942  -801  -661  -576  -559  -580  -620  -690  -797  -899  -948  -945  -925  -912  -910  -918  -938  -954  -926  -851  -778  -745  -741  -744  -743  -740  -736  -732  -725  -717  -727  -776  -850  -903  -907  -871  -820  -768  -712  -651  -580  -494  -420  -376  -344  -313  -290  -266  -238  -213  -186  -147  -112  -115  -159  -209  -240  -250  -253  -267  -311  -384  -465  -530  -565  -573  -571  -570  -569  -560  -537  -510  -494  -480  -468  -510  -686  -1012  -1275  -1056  -50  1769  4224  6785  8516  8613  6970  4121  928  -1689  -3138  -3412  -2987  -2408  -1918  -1528  -1233  -1007  -809  -654  -563  -519  -467  -344  -158  34  210  374  504  572  576  538  485  448  465  562  725  905  1051  1134  1158  1171  1221  1309  1391  1456  1554  1709  1909  2123  2302  2400  2422  2392  2324  2241  2178  2138  2098  2034  1925  1739  1472  1175  918  712  507  260  -13  -258  -421  -507  -568  -653  -761  -858  -921  -948  -952  -946  -944  -952  -956  -925  -842  -749  -684  -640  -608  -589  -605  -672  -756  -824  -884  -929  -912  -810  -668  -565  -535  -543  -542  -500  -422  -346  -330  -398  -496  -554  -568  -596  -687  -818  -918  -961  -978  -983  -971  -933  -863  -772  -686  -614  -533  -437  -351  -303  -302  -343  -408  -466  -487  -476  -463  -478  -524  -582  -635  -687  -747  -803  -836  -847  -847  -835  -804  -762  -731  -719  -718  -716  -705  -695  -748  -960  -1323  -1665  -1710  -1073  489  2767  5191  6954  7290  6024  3665  985  -1314  -2780  -3354  -3276  -2824  -2256  -1736  -1280  -935  -780  -762  -767  -736  -670  -583  -461  -281  -75  78  137  127  107  119  160  198  221  242  272  317  396  516  670  845  1008  1130  1230  1346  1489  1666  1878  2089  2261  2397  2487  2494  2433  2382  2384  2379  2238  1887  1434  1084  892  760  618  484  381  296  207  96  -42  -187  -301  -392  -500  -631  -744  -825  -887  -926  -941  -931  -854  -741  -729  -831  -899  -861  -756  -644  -574  -547  -521  -477  -460  -513  -606  -678  -711  -716  -706  -683  -643  -588  -531  -492  -479  -483  -484  -462  -405  -325  -254  -202  -160  -131  -149  -232  -364  -524  -684  -810  -873  -871  -829  -772  -719  -684  -674  -682  -708  -753  -807  -853  -881  -885  -855  -794  -740  -776  -936  -1128  -1238  -1146  -624  470  2020  3704  5023  5452  4738  3009  691  -1542  -2993  -3385  -2946  -2150  -1499  -1236  -1231  -1241  -1145  -957  -744  -580  -503  -500  -530  -543  -470  -263  10  209  274  244  166  88  88  227  469  708  882  997  1091  1216  1387  1543  1637  1690  1741  1791  1823  1847  1910  2055  2258  2447  2575  2639  2650  2599  2436  2136  1749  1352  994  716  530  400  271  110  -68  -235  -371  -468  -519  -545  -570  -592  -604  -618  -670  -789  -952  -1076  -1121  -1120  -1114  -1107  -1081  -1011  -887  -712  -526  -389  -320  -306  -336  -397  -470  -526  -546  -555  -576  -597  -600  -596  -615  -691  -820  -934  -942  -810  -609  -460  -407  -410  -430  -467  -514  -539  -507  -421  -320  -228  -139  -70  -77  -163  -268  -341  -374  -383  -412  -502  -634  -740  -782  -782  -774  -770  -770  -769  -750  -696  -617  -546  -481  -391  -325  -481  -967  -1488  -1486  -600  1145  3413  5580  6897  6826  5320  2828  55  -2254  -3524  -3673  -3109  -2323  -1669  -1326  -1236  -1218  -1164  -1070  -958  -837  -699  -556  -439  -364  -320  -295  -276  -250  -200  -119  -15  86  162  248  408  611  758  810  815  823  856  923  1031  1169  1319  1472  1626  1756  1834  1869  1908  1970  2003  1958  1865  1763  1643  1497  1320  1088  814  570  391  235  70  -88  -217  -334  -492  -708  -939  -1168  -1392  -1565  -1650  -1672  -1668  -1617  -1470  -1232  -996  -848  -793  -799  -846  -932  -1052  -1173  -1247  -1269  -1255  -1205  -1106  -977  -869  -802  -760  -729  -717  -718  -694  -636  -585  -582  -637  -726  -811  -868  -895  -901  -893  -869  -828  -783  -756  -758  -763  -701  -505  -226  -18  31  -35  -136  -214  -268  -314  -351  -364  -338  -277  -226  -244  -365  -606  -900  -1107  -1158  -1101  -1017  -950  -881  -761  -586  -437  -443  -674  -1044  -1304  -1102  -97  1838  4378  6742  8059  7754  5832  2967  116  -2016  -3115  -3234  -2752  -2084  -1504  -1171  -1080  -1081  -1039  -893  -643  -357  -130  10  87  100  50  -2  17  110  202  250  281  335  437  592  789  1002  1184  1287  1315  1324  1367  1465  1607  1749  1856  1961  2129  2353  2553  2683  2772  2850  2915  2967  2994  2956  2795  2487  2092  1714  1402  1158  971  806  632  461  304  168  71  48  97  150  132  40  -76  -170  -219  -230  -227  -225  -229  -240  -255  -268  -275  -270  -244  -195  -143  -113  -105  -99  -56  55  206  289  225  53  -111  -201  -237  -266  -298  -326  -358  -394  -414  -398  -349  -281  -217  -178  -176  -205  -245  -278  -291  -273  -213  -121  -31  16  8  -27  -38  -1  35  7  -69  -117  -106  -73  -40  7  81  168  241  282  293  293  297  291  223  89  -28  -57  -12  53  100  119  134  160  191  194  130  19  -74  -132  -203  -316  -426  -435  -332  -285  -427  -642  -819  -949  -836  -73  1609  4071  6713  8572  8670  6747  3626  523  -1735  -2853  -2959  -2516  -2036  -1693  -1376  -1060  -820  -639  -474  -336  -263  -257  -286  -321  -345  -317  -196  -22  107  152  149  145  149  136  84  2  -81  -149  -183  -129  70  370  634  799  927  1063  1168  1204  1193  1177  1199  1313  1562  1878  2095  2133  2037  1876  1663  1367  998  651  414  252  82  -129  -390  -700  -997  -1204  -1316  -1376  -1418  -1461  -1505  -1544  -1578  -1603  -1609  -1592  -1548  -1465  -1363  -1290  -1265  -1255  -1233  -1214  -1230  -1257  -1258  -1240  -1228  -1226  -1221  -1203  -1176  -1153  -1143  -1144  -1146  -1134  -1100  -1045  -973  -896  -844  -847  -908  -995  -1058  -1073  -1050  -1007  -959  -917  -893  -892  -908  -932  -967  -1012  -1050  -1063  -1056  -1032  -1006  -992  -996  -1007  -1005  -983  -947  -915  -893  -865  -813  -748  -702  -697  -734  -800  -878  -945  -983  -989  -970  -944  -926  -940  -1000  -1086  -1154  -1180  -1169  -1132  -1080  -1035  -1015  -1015  -1007  -982  -958  -947  -925  -869  -790  -722  -683  -675  -685  -681  -644  -577  -490  -398  -333  -303  -302  -355  -496  -690  -836  -888  -876  -846  -819  -796  -791  -824  -892  -967  -1029  -1072  -1089  -1073  -1060  -1170  -1460  -1707  -1469  -358  1677  4228  6579  7981  7873  6220  3601  780  -1583  -2983  -3305  -2888  -2216  -1642  -1290  -1105  -985  -884  -764  -599  -435  -340  -319  -325  -315  -275  -212  -141  -65  37  176  314  411  453  456  446  460  538  705  933  1146  1290  1366  1427  1531  1686  1848  1975  2083  2220  2383  2519  2597  2634  2655  2656  2583  2369  2046  1751  1581  1512  1466  1351  1109  803  567  430  297  104  -95  -223  -287  -348  -428  -509  -579  -637  -681  -710  -726  -718  -686  -647  -618  -595  -562  -515  -452  -363  -260  -181  -153  -194  -317  -490  -627  -679  -641  -522  -357  -211  -125  -96  -99  -126  -183  -277  -383  -453  -466  -444  -408  -372  -344  -326  -317  -328  -381  -462  -484  -395  -285  -275  -359  -444  -480  -483  -476  -453  -404  -341  -294  -275  -279  -298  -327  -355  -374  -385  -391  -381  -338  -265  -186  -106  -17  51  63  29  -25  -90  -151  -191  -208  -199  -173  -180  -291  -517  -761  -906  -915  -825  -705  -618  -581  -573  -582  -600  -617  -629  -667  -783  -919  -928  -782  -465  281  1716  3792  6088  7784  8011  6495  3712  555  -2027  -3411  -3571  -2957  -2083  -1340  -945  -852  -828  -716  -540  -399  -328  -287  -230  -132  13  168  271  301  289  275  287  340  424  507  564  598  642  730  842  923  967  1022  1130  1312  1581  1898  2157  2285  2317  2327  2354  2391  2411  2400  2371  2338  2292  2211  2059  1821  1561  1376  1268  1162  982  703  403  199  70  -120  -393  -637  -788  -867  -899  -903  -894  -883  -870  -859  -867  -908  -963  -982  -930  -831  -765  -776  -824  -864  -894  -918  -908  -828  -696  -581  -528  -522  -519  -487  -421  -352  -317  -341  -426  -553  -676  -750  -761  -724  -659  -596  -557  -541  -532  -530  -564  -667  -811  -927  -979  -971  -916  -846  -805  -811  -848  -882  -883  -826  -688  -493  -313  -207  -204  -313  -487  -639  -722  -745  -742  -734  -707  -606  -394  -116  115  221  214  156  79  -40  -203  -353  -437  -456  -440  -410  -394  -429  -533  -674  -795  -861  -901  -959  -1036  -1093  -1103  -1020  -833  -688  -735  -860  -685  189  1917  4247  6520  7829  7460  5440  2557  -252  -2301  -3235  -3184  -2663  -2120  -1701  -1348  -1037  -843  -781  -742  -620  -434  -285  -214  -181  -150  -108  -42  34  96  146  209  283  336  352  352  368  415  483  552  627  750  968  1273  1580  1796  1915  1991  2052  2100  2143  2207  2289  2353  2382  2401  2443  2481  2426  2220  1941  1738  1667  1642  1530  1261  904  591  362  180  5  -184  -374  -520  -589  -573  -523  -492  -475  -454  -444  -459  -494  -524  -538  -552  -573  -591  -598  -593  -570  -517  -439  -361  -305  -279  -280  -290  -283  -228  -129  -42  -30  -88  -155  -191  -199  -192  -176  -154  -134  -119  -112  -121  -161  -231  -314  -381  -392  -341  -282  -274  -315  -364  -395  -413  -429  -444  -445  -430  -407  -367  -294  -219  -202  -250  -300  -301  -262  -220  -195  -189  -200  -230  -268  -292  -302  -324  -387  -475  -542  -589  -664  -784  -901  -952  -926  -873  -834  -803  -770  -735  -694  -678  -793  -1079  -1396  -1551  -1335  -441  1309  3671  6048  7708  7942  6464  3765  764  -1769  -3359  -3863  -3579  -2968  -2247  -1550  -1124  -1032  -1058  -1024  -926  -835  -783  -737  -648  -505  -344  -222  -165  -155  -177  -228  -295  -342  -332  -249  -123  -6  78  152  250  368  474  574  712  881  1017  1100  1201  1396  1645  1829  1898  1893  1861  1812  1744  1670  1616  1584  1527  1379  1123  808  515  303  157  -14  -286  -626  -940  -1176  -1334  -1430  -1474  -1465  -1415  -1360  -1327  -1312  -1301  -1288  -1278  -1283  -1306  -1341  -1366  -1361  -1315  -1239  -1164  -1097  -1016  -901  -767  -662  -654  -750  -874  -963  -1011  -1018  -974  -900  -832  -776  -721  -671  -647  -675  -742  -809  -874  -933  -935  -876  -822  -816  -850  -888  -903  -912  -940  -973  -977  -944  -881  -801  -727  -673  -641  -627  -621  -614  -597  -556  -463  -298  -107  28  78  60  -16  -130  -231  -310  -395  -482  -539  -556  -545  -518  -487  -474  -511  -612  -739  -822  -814  -711  -567  -474  -501  -632  -778  -881  -980  -1145  -1300  -1097  -103  1843  4427  6854  8159  7734  5715  2867  93  -1955  -3051  -3342  -3076  -2475  -1802  -1275  -942  -747  -645  -587  -525  -444  -375  -336  -295  -209  -76  58  172  267  336  367  370  360  349  352  394  495  636  769  877  990  1126  1257  1362  1445  1535  1662  1831  2004  2139  2244  2369  2501  2545  2454  2266  2040  1837  1715  1664  1595  1421  1121  767  483  332  289  304  318  250  31  -294  -600  -835  -1027  -1163  -1212  -1185  -1123  -1059  -1000  -939  -881  -844  -836  -843  -848  -828  -775  -718  -717  -797  -928  -1041  -1074  -1031  -968  -922  -895  -879  -839  -737  -591  -473  -420  -414  -422  -436  -474  -537  -592  -608  -581  -544  -522  -515  -536  -595  -654  -679  -681  -691  -715  -734  -725  -701  -680  -665  -655  -631  -576  -510  -448  -367  -263  -163  -95  -80  -86  -65  -25  0  13  31  58  79  83  64  24  -32  -90  -125  -118  -66  5  58  80  85  69  11  -104  -257  -402  -487  -485  -395  -239  -77  2  -78  -310  -517  -351  505  2105  4214  6350  7781  7873  6539  4154  1378  -939  -2239  -2542  -2221  -1701  -1240  -893  -634  -460  -365  -294  -191  -40  137  300  409  466  487  480  458  438  427  423  443  523  681  903  1145  1352  1477  1521  1521  1511  1515  1575  1753  2059  2391  2638  2787  2885  2952  2975  2953  2903  2830  2751  2699  2687  2683  2636  2493  2253  1993  1782  1619  1484  1355  1171  864  470  107  -148  -277  -300  -289  -328  -445  -577  -655  -682  -689  -693  -698  -701  -685  -624  -501  -351  -247  -222  -242  -261  -261  -234  -184  -131  -104  -114  -149  -195  -263  -358  -436  -419  -302  -171  -98  -83  -85  -81  -88  -151  -297  -476  -598  -636  -624  -598  -578  -601  -698  -831  -925  -947  -921  -873  -801  -690  -550  -418  -339  -319  -326  -326  -309  -289  -311  -409  -553  -673  -737  -776  -825  -900  -978  -1007  -966  -899  -857  -851  -861  -876  -893  -917  -929  -917  -925  -987  -1078  -1208  -1325  -1105  -146  1640  3884  5885  6885  6413  4560  1932  -694  -2672  -3682  -3796  -3359  -2772  -2285  -1921  -1634  -1422  -1292  -1230  -1190  -1122  -1003  -855  -722  -636  -601  -598  -611  -618  -567  -405  -161  50  156  179  178  187  206  220  228  261  366  535  695  806  911  1069  1287  1520  1696  1782  1794  1758  1683  1591  1522  1480  1394  1159  762  347  77  -28  -65  -145  -340  -623  -871  -1003  -1059  -1115  -1188  -1248  -1286  -1323  -1364  -1391  -1394  -1384  -1386  -1432  -1519  -1603  -1645  -1647  -1625  -1588  -1528  -1435  -1318  -1206  -1119  -1057  -1005  -936  -828  -699  -626  -682  -840  -989  -1046  -1018  -970  -967  -1025  -1108  -1161  -1171  -1159  -1120  -1029  -902  -787  -714  -696  -733  -787  -817  -802  -742  -661  -596  -546  -483  -404  -337  -304  -310  -328  -308  -253  -211  -202  -215  -260  -357  -487  -594  -642  -644  -640  -660  -702  -764  -847  -929  -982  -1007  -1020  -1032  -1035  -993  -874  -736  -720  -882  -1099  -1071  -400  1174  3514  5993  7712  7906  6319  3432  270  -2171  -3383  -3441  -2835  -2136  -1670  -1436  -1266  -1034  -743  -479  -307  -219  -187  -199  -227  -244  -246  -246  -248  -252  -239  -182  -69  79  220  319  375  408  445  517  653  868  1168  1514  1818  1990  2031  2011  2001  2048  2172  2324  2401  2373  2287  2180  2077  2017  2003  1975  1855  1629  1360  1118  892  634  366  175  67  -44  -187  -312  -408  -538  -750  -1008  -1234  -1380  -1448  -1465  -1456  -1420  -1343  -1212  -1032  -840  -679  -589  -588  -639  -686  -706  -707  -703  -702  -704  -705  -697  -665  -598  -503  -405  -329  -303  -344  -442  -543  -588  -564  -496  -414  -347  -311  -304  -312  -333  -369  -413  -451  -475  -481  -464  -408  -298  -175  -118  -138  -194  -263  -319  -342  -338  -329  -336  -366  -409  -439  -444  -443  -464  -522  -603  -668  -698  -701  -694  -688  -687  -696  -704  -712  -800  -1030  -1264  -1211  -571  813  2842  5166  7177  8116  7533  5510  2537  -502  -2602  -3332  -3032  -2304  -1646  -1327  -1283  -1258  -1112  -902  -729  -641  -622  -604  -534  -426  -335  -276  -207  -104  16  136  248  347  424  469  487  504  560  676  824  960  1123  1365  1628  1797  1864  1911  2008  2173  2395  2622  2782  2855  2879  2875  2843  2802  2753  2606  2236  1669  1123  789  669  653  642  564  371  66  -246  -435  -487  -495  -546  -646  -746  -815  -852  -878  -914  -961  -994  -988  -936  -863  -805  -775  -761  -753  -759  -797  -858  -906  -919  -908  -897  -900  -904  -876  -794  -688  -613  -580  -555  -536  -545  -580  -633  -705  -778  -832  -867  -906  -954  -998  -1021  -1015  -956  -815  -632  -495  -442  -439  -447  -438  -376  -239  -64  70  131  137  103  39  -30  -81  -116  -164  -219  -247  -239  -215  -209  -271  -437  -660  -824  -875  -857  -826  -817  -853  -951  -1099  -1218  -1274  -1398  -1639  -1697  -1108  436  2905  5829  8323  9374  8419  5750  2316  -849  -2964  -3713  -3445  -2837  -2308  -1898  -1527  -1164  -827  -556  -370  -253  -183  -150  -141  -134  -118  -108  -108  -97  -68  -42  -32  -20  41  214  496  791  986  1061  1067  1058  1064  1104  1190  1344  1581  1856  2085  2232  2327  2390  2424  2436  2431  2416  2407  2372  2224  1914  1546  1276  1142  1056  922  695  415  169  -13  -176  -350  -541  -730  -872  -947  -980  -992  -970  -908  -840  -793  -770  -769  -783  -799  -792  -753  -693  -634  -594  -579  -581  -593  -597  -579  -558  -555  -556  -537  -494  -462  -482  -544  -593  -612  -646  -739  -857  -889  -757  -526  -338  -260  -257  -276  -306  -350  -399  -394  -267  -59  96  120  54  -3  1  46  86  118  130  42  -232  -625  -936  -1064  -1075  -1054  -1001  -880  -723  -623  -623  -660  -663  -669  -821  -1126  -1299  -1171  -1000  -1010  -979  -448  917  3102  5606  7593  8218  7031  4422  1371  -1279  -2961  -3423  -2995  -2266  -1594  -1154  -1024  -1059  -1058  -969  -829  -685  -577  -508  -466  -438  -385  -287  -186  -128  -111  -102  -60  44  191  329  429  468  454  456  525  655  834  1029  1171  1249  1346  1551  1847  2106  2252  2315  2351  2380  2398  2388  2309  2116  1789  1375  989  736  612  520  364  148  -39  -141  -167  -169  -221  -385  -640  -888  -1049  -1108  -1097  -1066  -1059  -1121  -1263  -1436  -1573  -1639  -1620  -1484  -1227  -930  -680  -508  -408  -366  -352  -350  -377  -456  -566  -645  -634  -521  -360  -244  -235  -328  -470  -587  -641  -647  -622  -552  -413  -219  -45  29  -1  -77  -138  -171  -197  -221  -243  -278  -342  -443  -575  -702  -772  -757  -642  -427  -179  -6  44  1  -108  -274  -466  -628  -721  -754  -758  -750  -717  -650  -611  -728  -1035  -1305  -1173  -438  915  2815  4917  6586  7188  6346  4210  1482  -970  -2479  -2847  -2480  -2040  -1860  -1771  -1476  -993  -574  -352  -279  -261  -250  -218  -150  -65  -2  24  21  3  10  98  302  561  751  820  818  823  892  1042  1224  1373  1480  1570  1663  1781  1916  2019  2074  2110  2147  2191  2268  2401  2556  2656  2613  2357  1928  1491  1163  912  678  483  370  315  243  83  -189  -500  -733  -868  -972  -1089  -1233  -1405  -1569  -1671  -1698  -1684  -1654  -1608  -1548  -1503  -1478  -1431  -1368  -1361  -1421  -1486  -1514  -1519  -1517  -1493  -1414  -1278  -1111  -950  -843  -828  -891  -980  -1052  -1093  -1109  -1119  -1132  -1142  -1136  -1094  -1021  -946  -885  -835  -795  -762  -735  -719  -719  -730  -741  -751  -786  -878  -1002  -1085  -1093  -1055  -1014  -992  -989  -1006  -1038  -1066  -1067  -1050  -1039  -1044  -1055  -1055  -1055  -1055  -1010  -951  -1036  -1234  -1181  -491  996  3131  5360  6868  6986  5546  3026  297  -1873  -3069  -3273  -2890  -2388  -1976  -1681  -1448  -1226  -1012  -817  -657  -539  -469  -452  -470  -490  -473  -387  -214  6  190  288  326  347  371  405  463  558  687  829  969  1108  1250  1389  1526  1679  1850  2021  2187  2383  2596  2758  2843  2870  2814  2621  2329  2059  1880  1776  1709  1640  1520  1315  1043  743  444  178  -17  -127  -170  -191  -253  -419  -680  -934  -1092  -1159  -1172  -1136  -1033  -857  -654  -501  -434  -425  -433  -450  -494  -567  -640  -685  -697  -666  -562  -376  -183  -101  -180  -363  -535  -620  -615  -546  -449  -371  -338  -363  -449  -567  -662  -724  -778  -813  -787  -703  -612  -544  -498  -471  -472  -504  -562  -624  -666  -676  -640  -539  -381  -219  -117  -108  -171  -234  -245  -228  -225  -242  -273  -324  -428  -582  -734  -850  -957  -1067  -1143  -1144  -1074  -974  -901  -873  -869  -863  -847  -832  -848  -923  -1039  -1136  -1200  -1307  -1459  -1432  -939  198  2012  4299  6525  7886  7712  5966  3187  124  -2395  -3732  -3843  -3173  -2255  -1516  -1156  -1082  -1027  -845  -622  -469  -366  -245  -102  12  80  124  164  200  224  235  248  285  355  445  525  565  579  631  780  1006  1225  1382  1470  1507  1522  1544  1590  1684  1859  2086  2287  2433  2542  2609  2627  2613  2576  2500  2346  2093  1774  1454  1164  906  655  377  92  -140  -307  -433  -528  -591  -630  -658  -680  -700  -724  -748  -764  -778  -794  -806  -814  -815  -803  -767  -713  -654  -592  -531  -484  -455  -434  -422  -420  -426  -431  -415  -360  -276  -219  -260  -437  -680  -859  -921  -915  -885  -830  -747  -678  -683  -733  -734  -664  -590  -560  -560  -563  -554  -529  -500  -485  -490  -505  -512  -500  -455  -374  -280  -207  -169  -168  -224  -347  -475  -533  -553  -604  -657  -669  -661  -662  -679  -698  -710  -725  -770  -862  -983  -1084  -1134  -1144  -1131  -1101  -1080  -1119  -1208  -1132  -517  926  3205  5881  8044  8761  7679  5153  1998  -858  -2712  -3344  -3075  -2472  -1925  -1549  -1321  -1176  -1059  -954  -847  -706  -530  -350  -206  -127  -97  -63  9  118  229  307  340  353  365  377  384  411  500  636  761  868  1010  1215  1452  1669  1854  2033  2214  2366  2454  2477  2453  2393  2309  2229  2182  2165  2139  2079  1965  1752  1423  1040  711  479  316  189  87  -21  -184  -379  -519  -565  -557  -542  -537  -556  -623  -751  -904  -1022  -1086  -1129  -1171  -1189  -1162  -1102  -1048  -1021  -1016  -1022  -1025  -1011  -967  -908  -866  -854  -842  -774  -611  -402  -250  -200  -224  -289  -378  -489  -641  -804  -896  -878  -783  -689  -660  -663  -632  -572  -532  -520  -510  -480  -427  -385  -400  -467  -534  -575  -598  -612  -616  -603  -563  -504  -441  -363  -267  -179  -116  -76  -55  -49  -51  -54  -56  -58  -53  -34  -7  6  -1  -22  -43  -65  -95  -159  -279  -423  -534  -591  -589  -548  -515  -518  -552  -591  -622  -649  -681  -710  -725  -717  -693  -694  -779  -951  -1072  -838  59  1718  3994  6429  8196  8484  7043  4333  1218  -1418  -2962  -3332  -2956  -2338  -1805  -1492  -1329  -1180  -991  -776  -567  -407  -330  -332  -388  -462  -516  -513  -436  -300  -159  -47  59  204  376  513  586  626  669  722  803  940  1126  1320  1501  1664  1797  1888  1941  1988  2060  2153  2236  2279  2274  2239  2182  2097  1989  1884  1788  1667  1470  1177  837  546  347  178  -53  -333  -562  -697  -781  -860  -937  -996  -1026  -1036  -1044  -1071  -1118  -1170  -1209  -1228  -1225  -1212  -1204  -1199  -1186  -1166  -1145  -1111  -1052  -960  -846  -740  -656  -592  -555  -544  -545  -549  -560  -583  -615  -640  -641  -615  -568  -518  -482  -464  -460  -469  -505  -578  -659  -686  -632  -529  -431  -371  -349  -344  -348  -384  -474  -591  -674  -702  -697  -679  -654  -621  -576  -539  -521  -507  -510  -554  -608  -631  -636  -648  -659  -637  -550  -416  -284  -187  -138  -131  -145  -164  -189  -244  -343  -454  -504  -453  -347  -260  -223  -214  -215  -231  -283  -386  -524  -660  -783  -889  -960  -987  -972  -906  -807  -792  -982  -1309  -1482  -1143  -25  1895  4328  6717  8295  8359  6760  3970  755  -2040  -3686  -3985  -3367  -2416  -1567  -1058  -861  -790  -714  -609  -503  -418  -356  -316  -286  -256  -218  -171  -117  -43  80  241  388  490  549  580  613  683  777  859  947  1097  1308  1520  1689  1815  1905  1960  1996  2039  2105  2192  2284  2357  2392  2384  2338  2265  2184  2094  1955  1746  1503  1247  961  681  457  262  51  -156  -338  -502  -643  -744  -807  -855  -918  -990  -1043  -1065  -1065  -1046  -992  -910  -834  -795  -789  -793  -792  -784  -783  -800  -833  -875  -916  -936  -910  -834  -733  -658  -638  -648  -640  -609  -603  -637  -655  -619  -566  -540  -534  -527  -519  -534  -587  -658  -705  -690  -623  -552  -504  -470  -435  -409  -406  -417  -427  -430  -422  -412  -408  -409  -405  -395  -386  -388  -401  -434  -501  -584  -623  -581  -485  -388  -315  -261  -224  -205  -192  -167  -121  -54  18  58  47  -1  -79  -209  -404  -614  -750  -781  -762  -763  -809  -872  -904  -887  -830  -732  -614  -563  -680  -954  -1216  -1360  -1408  -1284  -890  -155  1114  3019  5275  7262  8168  7402  5141  2234  -422  -2201  -2880  -2773  -2399  -2024  -1670  -1346  -1070  -779  -445  -165  -24  7  8  17  21  1  -30  -27  54  220  405  548  638  690  725  772  832  880  912  950  999  1010  959  935  1070  1384  1769  2111  2396  2638  2805  2875  2872  2823  2725  2565  2356  2138  1953  1823  1727  1615  1469  1305  1117  884  618  350  94  -151  -367  -519  -614  -700  -807  -918  -1010  -1083  -1135  -1167  -1186  -1171  -1087  -940  -787  -694  -685  -725  -753  -737  -690  -644  -611  -581  -547  -519  -508  -509  -507  -499  -497  -530  -597  -656  -682  -678  -661  -646  -645  -651  -650  -637  -616  -594  -567  -544  -544  -573  -617  -655  -678  -695  -719  -762  -815  -845  -832  -787  -726  -668  -627  -606  -600  -599  -598  -595  -592  -591  -590  -589  -592  -603  -621  -632  -615  -557  -482  -424  -375  -296  -197  -135  -137  -179  -219  -229  -221  -226  -271  -385  -567  -752  -863  -894  -890  -882  -865  -838  -820  -814  -796  -769  -752  -727  -704  -742  -892  -1146  -1301  -941  302  2431  5005  7300  8497  8012  5930  2957  -24  -2252  -3295  -3274  -2711  -2071  -1559  -1231  -1033  -839  -593  -345  -164  -56  0  15  6  3  24  67  128  191  246  303  358  408  459  507  527  526  577  759  1049  1332  1537  1665  1723  1725  1720  1777  1931  2151  2375  2564  2695  2756  2774  2779  2760  2684  2541  2375  2225  2061  1802  1407  970  646  486  392  263  89  -73  -182  -251  -347  -523  -750  -944  -1039  -1028  -954  -876  -826  -799  -786  -787  -798  -816  -836  -849  -830  -739  -573  -389  -251  -170  -137  -145  -180  -214  -245  -290  -355  -420  -460  -470  -458  -426  -385  -358  -364  -404  -454  -472  -437  -358  -265  -195  -163  -157  -159  -170  -200  -252  -313  -372  -407  -375  -283  -201  -165  -160  -168  -196  -245  -274  -253  -229  -238  -216  -128  -41  0]
