reading_id,reading_time,wire_id,result_classification,heart_rate,heart_rate_alert,firmware_version,device_app_version,hardware_version,waveform_samples
cdfa4440-6a1d-11ed-8080-808080808080,Tue Nov 22 04:26:16 UTC 2022,a101e3f91939,UNCLASSIFIABLE,101,NONE,20001.171.50,2.10.0,Charge 5,[175  867  1507  2025  2359  2506  2525  2488  2419  2338  2306  2401  2586  2663  2551  2408  2310  2264  2493  3277  4656  6390  7905  8489  7808  6130  4093  2320  1217  877  1107  1619  2169  2622  2996  3346  3644  3878  4065  4196  4257  4262  4238  4208  4186  4190  4238  4345  4527  4773  5012  5166  5229  5252  5293  5389  5533  5656  5703  5712  5774  5926  6117  6249  6274  6249  6240  6245  6242  6217  6160  6071  5955  5805  5653  5558  5540  5569  5582  5446  5012  4352  3783  3524  3498  3503  3405  3197  2935  2668  2435  2278  2209  2196  2180  2125  2032  1925  1801  1626  1413  1222  1076  955  859  795  740  663  548  419  325  276  267  299  350  378  359  291  197  114  52  -14  -134  -345  -629  -917  -1167  -1361  -1473  -1503  -1498  -1504  -1547  -1631  -1727  -1800  -1862  -1975  -2192  -2518  -2882  -3121  -3116  -2952  -2791  -2638  -2346  -1681  -415  1387  3191  4194  3819  2106  -376  -2831  -4559  -5302  -5279  -4878  -4438  -4160  -4056  -4020  -3950  -3827  -3721  -3732  -3866  -4023  -4123  -4157  -4127  -3986  -3701  -3363  -3113  -2975  -2892  -2843  -2829  -2833  -2810  -2713  -2551  -2409  -2362  -2385  -2409  -2384  -2254  -1991  -1683  -1452  -1311  -1195  -1054  -872  -727  -754  -947  -1142  -1235  -1256  -1274  -1350  -1531  -1807  -2092  -2289  -2376  -2415  -2476  -2567  -2653  -2737  -2869  -3062  -3249  -3374  -3430  -3417  -3324  -3181  -3054  -2971  -2911  -2870  -2854  -2832  -2776  -2704  -2640  -2592  -2551  -2510  -2489  -2511  -2570  -2642  -2667  -2574  -2352  -2077  -1841  -1709  -1689  -1747  -1841  -1929  -1991  -2037  -2074  -2091  -2081  -2068  -2107  -2230  -2397  -2507  -2501  -2437  -2394  -2375  -2348  -2276  -2136  -1944  -1760  -1657  -1704  -1933  -2269  -2585  -2763  -2563  -1703  -128  1940  4053  5590  5955  4917  2782  231  -1989  -3332  -3613  -3082  -2201  -1334  -723  -453  -367  -244  -49  107  166  161  141  132  153  219  308  380  427  471  542  657  790  886  931  982  1114  1322  1526  1670  1778  1913  2128  2391  2600  2699  2726  2740  2768  2819  2878  2906  2872  2780  2660  2517  2327  2104  1928  1851  1850  1869  1871  1826  1705  1462  1054  540  111  -99  -142  -146  -199  -320  -468  -581  -632  -635  -623  -612  -604  -597  -605  -658  -766  -895  -990  -1028  -1030  -1021  -1014  -1013  -1020  -1024  -997  -908  -770  -644  -581  -572  -564  -510  -390  -236  -108  -25  24  51  65  90  129  142  48  -206  -554  -841  -976  -994  -969  -943  -922  -902  -884  -874  -884  -948  -1062  -1145  -1119  -884  -228  1035  2879  4993  6770  7437  6480  4120  1212  -1325  -2795  -2888  -2004  -928  -109  347  432  321  245  262  323  384  440  529  686  898  1094  1214  1247  1236  1240  1272  1306  1330  1369  1491  1754  2084  2332  2444  2477  2493  2534  2628  2777  2948  3098  3195  3246  3284  3326  3359  3365  3343  3303  3249  3175  3072  2943  2819  2735  2670  2550  2320  1992  1640  1347  1141  1008  939  923  907  826  645  413  213  52  -111  -288  -465  -619  -717  -750  -746  -737  -739  -757  -784  -814  -852  -903  -962  -1019  -1068  -1114  -1177  -1270  -1376  -1470  -1530  -1545  -1525  -1483  -1424  -1360  -1315  -1298  -1299  -1314  -1349  -1402  -1465  -1527  -1573  -1603  -1619  -1621  -1622  -1658  -1750  -1848  -1875  -1862  -1902  -1986  -2035  -1993  -1845  -1640  -1477  -1424  -1516  -1744  -1991  -2046  -1609  -310  1904  4464  6466  7074  5888  3309  291  -2269  -3776  -4082  -3514  -2568  -1701  -1221  -1116  -1161  -1194  -1187  -1169  -1160  -1152  -1121  -1032  -857  -623  -415  -302  -279  -292  -298  -286  -268  -257  -234  -147  42  306  544  674  709  749  875  1067  1231  1308  1325  1326  1330  1326  1301  1261  1231  1208  1145  1002  805  620  462  281  50  -206  -445  -635  -789  -953  -1158  -1401  -1649  -1855  -1987  -2041  -2033  -1994  -1950  -1893  -1804  -1706  -1639  -1589  -1517  -1424  -1350  -1307  -1287  -1280  -1276  -1268  -1264  -1297  -1395  -1529  -1625  -1641  -1598  -1542  -1502  -1475  -1439  -1360  -1226  -1084  -954  -808  -667  -581  -532  -480  -425  -394  -391  -400  -406  -413  -435  -485  -558  -631  -659  -627  -581  -570  -588  -615  -654  -709  -763  -788  -784  -778  -783  -790  -767  -665  -491  -370  -456  -769  -1147  -1323  -949  347  2619  5310  7440  8104  6933  4330  1300  -1170  -2566  -2861  -2450  -1828  -1279  -938  -826  -810  -717  -462  -99  213  366  389  372  363  353  316  259  239  300  406  526  657  749  759  760  820  893  914  915  1027  1367  1887  2363  2611  2640  2570  2500  2452  2410  2374  2359  2364  2378  2391  2375  2294  2135  1925  1714  1549  1435  1322  1160  932  608  193  -203  -476  -606  -641  -641  -656  -692  -693  -600  -447  -325  -270  -253  -246  -253  -281  -334  -398  -452  -470  -413  -240  44  333  486  476  385  277  124  -100  -303  -372  -319  -220  -111  18  165  279  327  337  358  404  456  488  500  502  484  392  189  -48  -165  -124  -52  -54  -109  -187  -319  -491  -618  -664  -664  -655  -645  -626  -603  -593  -599  -620  -740  -1057  -1463  -1704  -1602  -944  558  2867  5349  7101  7375  5904  3211  311  -1937  -3079  -3139  -2606  -2038  -1702  -1512  -1276  -982  -753  -644  -607  -585  -557  -511  -423  -298  -179  -91  -31  -8  -27  -67  -85  -44  63  228  411  571  704  827  944  1055  1166  1280  1385  1463  1497  1492  1492  1540  1648  1771  1843  1854  1826  1737  1540  1279  1055  900  793  726  656  484  147  -276  -641  -877  -1006  -1060  -1057  -1016  -962  -924  -925  -970  -1051  -1147  -1237  -1301  -1326  -1314  -1275  -1208  -1105  -966  -818  -710  -663  -652  -648  -656  -711  -843  -1011  -1122  -1108  -964  -765  -617  -554  -538  -538  -560  -613  -667  -686  -674  -662  -673  -706  -731  -700  -595  -469  -396  -398  -443  -483  -501  -537  -637  -773  -872  -914  -948  -1000  -1045  -1064  -1065  -1066  -1079  -1111  -1153  -1198  -1252  -1313  -1372  -1453  -1496  -1207  -245  1515  3869  6126  7278  6639  4361  1284  -1573  -3399  -3913  -3510  -2744  -1880  -1128  -690  -537  -512  -526  -547  -546  -489  -359  -188  -35  46  45  -24  -126  -199  -172  3  293  574  748  807  805  792  790  807  851  939  1056  1167  1270  1380  1494  1592  1662  1710  1758  1816  1871  1893  1811  1566  1235  995  911  877  751  490  149  -180  -428  -581  -673  -727  -758  -802  -910  -1080  -1260  -1401  -1474  -1466  -1387  -1277  -1189  -1137  -1106  -1083  -1058  -1032  -1012  -1016  -1051  -1093  -1077  -977  -863  -806  -827  -920  -1050  -1168  -1254  -1284  -1203  -985  -694  -456  -347  -380  -559  -855  -1181  -1438  -1561  -1515  -1302  -1020  -818  -751  -765  -808  -874  -971  -1092  -1207  -1276  -1284  -1248  -1196  -1151  -1124  -1115  -1126  -1161  -1222  -1285  -1324  -1332  -1329  -1345  -1393  -1466  -1566  -1675  -1642  -1224  -208  1511  3763  5954  7184  6739  4687  1837  -841  -2623  -3222  -2899  -2179  -1479  -987  -709  -591  -571  -556  -441  -200  73  260  333  349  380  470  607  726  779  778  773  818  934  1077  1191  1283  1395  1527  1636  1689  1689  1686  1740  1869  2057  2283  2492  2615  2623  2549  2467  2432  2439  2450  2422  2332  2216  2146  2125  2048  1800  1396  1001  758  660  599  482  271  -6  -254  -389  -422  -417  -410  -407  -399  -373  -313  -216  -96  20  108  148  131  62  -29  -98  -120  -102  -51  6  21  -37  -137  -216  -244  -238  -223  -209  -198  -191  -177  -134  -12  218  490  674  701  601  439  284  179  113  19  -161  -384  -545  -613  -635  -642  -644  -645  -646  -643  -627  -599  -559  -486  -378  -342  -482  -750  -971  -877  -182  1260  3325  5493  6907  6839  5220  2661  5  -1963  -2783  -2641  -2134  -1702  -1435  -1267  -1156  -1071  -948  -762  -577  -488  -518  -607  -683  -713  -689  -599  -447  -266  -105  0  55  100  162  237  320  410  488  531  547  572  641  763  920  1089  1247  1381  1484  1553  1579  1550  1464  1337  1212  1127  1082  1043  977  871  679  311  -199  -638  -860  -937  -1004  -1091  -1157  -1181  -1191  -1218  -1274  -1345  -1414  -1472  -1516  -1534  -1522  -1496  -1476  -1464  -1459  -1467  -1497  -1542  -1584  -1603  -1570  -1448  -1248  -1029  -838  -723  -744  -881  -1018  -1063  -1010  -903  -786  -677  -577  -485  -408  -361  -349  -360  -382  -427  -508  -590  -609  -562  -508  -488  -488  -476  -435  -387  -374  -408  -475  -581  -730  -916  -1148  -1356  -1362  -1004  -192  1109  2822  4641  5983  6205  5014  2696  35  -2023  -2912  -2827  -2420  -2108  -1890  -1635  -1271  -878  -604  -480  -435  -408  -377  -339  -276  -153  26  211  340  400  423  439  452  454  443  437  475  598  795  1009  1190  1328  1420  1476  1517  1554  1595  1647  1705  1751  1775  1784  1787  1790  1780  1728  1607  1428  1235  1052  872  662  400  130  -60  -162  -267  -456  -683  -842  -917  -977  -1054  -1121  -1166  -1209  -1257  -1309  -1368  -1394  -1330  -1181  -999  -842  -749  -724  -730  -743  -771  -818  -860  -879  -880  -876  -875  -879  -887  -892  -883  -850  -802  -767  -772  -827  -916  -1007  -1088  -1156  -1198  -1207  -1194  -1173  -1155  -1141  -1133  -1136  -1161  -1219  -1294  -1346  -1348  -1305  -1239  -1161  -1052  -949  -1005  -1295  -1696  -2004  -1971  -1322  131  2338  4872  7018  7936  7026  4488  1283  -1517  -3195  -3586  -3084  -2312  -1719  -1345  -1014  -706  -519  -448  -401  -308  -161  4  134  195  185  148  139  177  243  320  404  501  619  742  842  901  937  994  1098  1248  1407  1519  1590  1687  1833  1971  2048  2067  2061  2057  2063  2069  2072  2072  2062  2025  1957  1876  1780  1598  1232  740  330  116  14  -72  -177  -337  -570  -809  -967  -1044  -1087  -1092  -1023  -889  -746  -630  -540  -462  -398  -360  -364  -404  -435  -425  -395  -376  -365  -344  -315  -291  -283  -283  -279  -256  -201  -117  -27  29  40  15  -31  -85  -129  -152  -157  -166  -207  -288  -391  -492  -594  -700  -795  -857  -887  -898  -898  -890  -879  -891  -964  -1076  -1150  -1226  -1426  -1665  -1631  -942  657  2993  5412  7051  7205  5715  3100  177  -2298  -3710  -3868  -3158  -2177  -1381  -955  -820  -792  -755  -700  -642  -558  -424  -269  -166  -141  -152  -133  -45  82  195  273  331  374  401  417  430  440  446  467  555  755  1033  1284  1436  1496  1522  1568  1642  1717  1748  1736  1735  1771  1788  1719  1572  1426  1338  1286  1190  985  678  347  74  -116  -250  -349  -424  -508  -634  -770  -859  -887  -878  -836  -749  -637  -555  -529  -543  -561  -554  -512  -469  -451  -444  -409  -338  -264  -222  -213  -222  -233  -239  -245  -264  -295  -312  -275  -174  -46  67  176  299  420  501  500  385  183  -7  -113  -140  -131  -119  -112  -116  -140  -187  -249  -321  -407  -494  -552  -566  -554  -555  -598  -657  -667  -656  -725  -868  -881  -421  780  2768  5229  7340  8040  6832  4136  921  -1707  -2942  -2836  -2096  -1324  -764  -459  -339  -290  -245  -199  -179  -212  -289  -352  -301  -87  194  356  326  213  142  133  153  186  257  401  622  855  1013  1075  1095  1136  1249  1442  1656  1812  1883  1898  1894  1893  1906  1935  1972  1983  1929  1815  1690  1564  1416  1266  1150  1036  848  574  288  84  -2  -23  -72  -227  -487  -771  -1003  -1175  -1304  -1378  -1370  -1258  -1054  -835  -680  -605  -582  -580  -577  -568  -568  -614  -730  -885  -1012  -1085  -1120  -1130  -1098  -1007  -885  -799  -788  -837  -906  -955  -984  -1019  -1074  -1120  -1125  -1088  -1036  -1003  -995  -1001  -1009  -1007  -979  -918  -853  -827  -841  -868  -903  -946  -988  -1015  -1030  -1052  -1115  -1237  -1394  -1527  -1598  -1632  -1671  -1724  -1774  -1824  -1884  -1948  -1999  -2030  -2032  -2054  -2152  -2226  -2022  -1232  364  2664  5082  6689  6675  4848  1832  -1271  -3487  -4380  -4174  -3476  -2766  -2222  -1881  -1730  -1686  -1646  -1571  -1488  -1436  -1415  -1400  -1366  -1298  -1204  -1111  -1041  -978  -895  -802  -719  -627  -490  -328  -196  -119  -77  -42  15  153  419  737  961  1053  1093  1138  1178  1194  1193  1183  1165  1138  1112  1100  1102  1098  1067  1008  939  852  703  492  268  82  -36  -87  -124  -204  -322  -420  -462  -460  -445  -431  -419  -399  -366  -325  -289  -265  -254  -255  -257  -246  -219  -194  -179  -141  -40  104  231  287  255  177  115  89  82  75  66  56  47  48  62  81  83  60  24  -10  -45  -95  -156  -196  -187  -139  -95  -97  -131  -134  -77  18  143  287  412  479  484  447  396  360  344  327  279  176  42  -66  -118  -121  -95  -64  -45  -57  -135  -276  -415  -488  -488  -435  -358  -302  -312  -428  -690  -988  -943  -129  1655  4288  7061  8767  8545  6444  3233  21  -2228  -3140  -2998  -2392  -1818  -1464  -1214  -904  -537  -230  -67  -31  -48  -73  -105  -153  -203  -230  -196  -60  167  415  602  695  713  706  709  734  791  894  1019  1111  1171  1280  1497  1765  1957  2047  2116  2182  2184  2117  2052  2023  2008  1974  1913  1839  1748  1604  1404  1193  999  823  666  506  305  49  -227  -464  -635  -753  -828  -879  -948  -1064  -1198  -1300  -1343  -1307  -1188  -1034  -921  -871  -851  -847  -867  -896  -909  -900  -883  -875  -893  -930  -952  -933  -892  -855  -830  -817  -812  -814  -827  -849  -860  -830  -770  -725  -726  -767  -818  -862  -901  -939  -968  -984  -975  -912  -782  -631  -523  -474  -460  -460  -460  -460  -466  -478  -499  -530  -551  -549  -541  -546  -561  -568  -560  -554  -565  -589  -608  -621  -646  -699  -788  -921  -1074  -1198  -1262  -1245  -1147  -1054  -1040  -990  -624  356  2084  4312  6368  7407  6863  4810  1913  -914  -2821  -3415  -3011  -2263  -1624  -1242  -1053  -893  -647  -360  -164  -97  -75  -28  21  26  26  82  190  318  440  539  627  714  778  803  823  894  1048  1253  1444  1580  1659  1733  1863  2041  2201  2331  2462  2570  2602  2561  2493  2423  2353  2287  2230  2172  2095  1963  1713  1347  983  727  577  456  336  247  195  130  0  -178  -354  -532  -720  -864  -920  -922  -913  -908  -918  -948  -989  -1022  -1039  -1048  -1047  -1015  -925  -799  -697  -647  -632  -629  -633  -640  -647  -656  -678  -726  -795  -871  -950  -1017  -1015  -906  -757  -676  -680  -713  -752  -811  -887  -946  -969  -966  -952  -930  -900  -872  -849  -818  -773  -729  -695  -669  -647  -646  -681  -736  -777  -800  -835  -903  -997  -1091  -1168  -1223  -1254  -1263  -1258  -1243  -1222  -1201  -1183  -1178  -1187  -1181  -1140  -1116  -1216  -1461  -1744  -1860  -1445  -130  2049  4548  6508  7062  5857  3326  357  -2122  -3493  -3780  -3423  -2822  -2313  -2044  -1869  -1690  -1534  -1373  -1173  -982  -859  -781  -682  -521  -312  -111  29  122  206  283  349  417  475  513  567  687  890  1141  1373  1532  1616  1697  1873  2154  2425  2577  2616  2619  2651  2716  2777  2808  2814  2810  2802  2779  2719  2581  2319  1958  1614  1371  1187  994  769  523  284  81  -65  -150  -188  -207  -235  -273  -291  -278  -250  -221  -189  -165  -171  -211  -253  -255  -214  -168  -140  -125  -124  -163  -268  -409  -515  -551  -541  -518  -497  -469  -416  -333  -266  -296  -449  -649  -792  -847  -835  -769  -657  -538  -464  -443  -446  -451  -456  -473  -510  -551  -577  -585  -576  -543  -504  -468  -413  -332  -247  -187  -154  -102  24  199  313  291  156  -20  -184  -315  -401  -433  -431  -438  -466  -490  -489  -469  -458  -469  -485  -481  -472  -516  -676  -942  -1231  -1484  -1675  -1679  -1263  -240  1467  3750  6088  7632  7711  6197  3549  682  -1556  -2813  -3118  -2761  -2202  -1723  -1355  -1084  -890  -717  -533  -353  -218  -154  -149  -160  -141  -77  3  54  61  60  76  113  180  287  444  656  889  1069  1149  1159  1180  1272  1423  1561  1638  1667  1690  1738  1799  1843  1851  1842  1840  1856  1861  1818  1727  1610  1493  1388  1249  1008  700  437  249  90  -74  -272  -534  -811  -1000  -1070  -1083  -1089  -1105  -1131  -1148  -1131  -1078  -1019  -986  -993  -1027  -1070  -1103  -1112  -1093  -1057  -1014  -960  -887  -813  -761  -723  -693  -684  -710  -759  -800  -814  -805  -786  -762  -735  -708  -676  -644  -644  -704  -806  -902  -939  -912  -877  -871  -877  -872  -851  -839  -871  -952  -1046  -1116  -1156  -1160  -1067  -814  -477  -229  -143  -158  -209  -279  -369  -487  -640  -791  -886  -920  -924  -928  -944  -971  -1011  -1074  -1148  -1198  -1213  -1211  -1208  -1215  -1244  -1322  -1441  -1552  -1643  -1590  -983  540  2902  5579  7633  8021  6419  3517  378  -2093  -3366  -3502  -2999  -2349  -1859  -1591  -1429  -1316  -1271  -1257  -1195  -1052  -881  -758  -675  -579  -468  -384  -347  -342  -332  -277  -153  54  347  632  776  801  845  970  1128  1260  1344  1404  1465  1557  1752  2087  2459  2704  2765  2697  2562  2372  2160  2017  2006  2073  2098  2003  1792  1516  1256  1054  890  704  456  182  -27  -145  -224  -326  -445  -521  -519  -483  -479  -531  -596  -630  -638  -649  -677  -711  -730  -737  -742  -741  -701  -608  -506  -440  -409  -401  -404  -383  -318  -238  -184  -161  -154  -156  -166  -205  -300  -426  -501  -470  -361  -247  -189  -194  -239  -293  -347  -413  -480  -507  -463  -377  -308  -280  -297  -361  -469  -595  -705  -764  -759  -708  -624  -503  -373  -285  -259  -266  -278  -280  -261  -204  -114  -25  32  49  31  -11  -70  -134  -192  -229  -251  -282  -329  -380  -427  -474  -519  -549  -555  -535  -498  -464  -430  -386  -406  -596  -918  -1187  -1158  -560  772  2729  4894  6656  7371  6644  4562  1727  -971  -2805  -3491  -3235  -2543  -1851  -1370  -1122  -995  -864  -710  -586  -519  -489  -451  -354  -190  -25  71  93  72  28  -12  11  167  433  694  855  913  910  888  892  954  1075  1223  1358  1471  1602  1793  2001  2138  2181  2180  2183  2196  2205  2179  2085  1935  1788  1686  1615  1513  1310  993  648  372  179  12  -196  -463  -714  -873  -941  -969  -1010  -1102  -1230  -1336  -1388  -1395  -1343  -1203  -1001  -823  -731  -718  -739  -763  -780  -821  -904  -982  -995  -933  -837  -759  -705  -648  -582  -531  -510  -507  -506  -506  -515  -512  -454  -350  -270  -271  -338  -415  -473  -529  -581  -606  -608  -600  -589  -576  -569  -570  -564  -547  -535  -530  -511  -452  -365  -299  -306  -415  -596  -765  -856  -876  -861  -823  -747  -595  -353  -86  98  163  131  39  -64  -129  -145  -135  -125  -137  -195  -304  -429  -529  -595  -658  -753  -872  -956  -980  -970  -963  -971  -980  -978  -964  -936  -949  -1097  -1301  -1270  -710  603  2674  5072  7075  7905  7050  4745  1817  -901  -2767  -3503  -3389  -2875  -2228  -1634  -1214  -952  -771  -612  -473  -389  -352  -310  -241  -168  -104  -31  59  130  155  156  175  233  331  465  618  748  836  908  984  1059  1140  1274  1497  1757  1944  2019  2050  2113  2215  2300  2332  2321  2294  2266  2236  2188  2113  2015  1901  1797  1711  1578  1304  905  496  155  -90  -245  -354  -462  -564  -637  -705  -820  -966  -1063  -1063  -999  -934  -905  -913  -938  -971  -1018  -1074  -1114  -1103  -1002  -816  -620  -499  -465  -482  -530  -607  -688  -739  -753  -752  -754  -757  -748  -740  -759  -805  -872  -963  -1054  -1126  -1158  -1088  -923  -780  -742  -775  -800  -777  -741  -754  -815  -862  -863  -855  -876  -894  -838  -685  -495  -358  -303  -300  -310  -320  -323  -315  -282  -226  -194  -220  -274  -316  -341  -360  -385  -426  -481  -526  -554  -585  -638  -712  -789  -836  -814  -711  -615  -673  -903  -1173  -1323  -1280  -1120  -928  -595  123  1357  3006  4764  6020  6084  4818  2678  292  -1673  -2710  -2815  -2363  -1709  -1104  -749  -672  -704  -707  -691  -692  -695  -647  -543  -453  -408  -352  -231  -76  33  86  142  249  402  567  704  780  801  815  863  936  1004  1068  1161  1322  1559  1825  2044  2182  2253  2278  2251  2187  2141  2114  2066  2000  1944  1894  1834  1730  1520  1169  759  450  295  206  86  -93  -325  -599  -885  -1118  -1245  -1280  -1264  -1220  -1168  -1131  -1116  -1112  -1119  -1155  -1228  -1284  -1230  -1056  -859  -734  -695  -716  -772  -844  -906  -943  -945  -904  -838  -778  -746  -745  -756  -751  -725  -683  -633  -583  -547  -538  -557  -573  -561  -532  -497  -448  -390  -344  -319  -303  -296  -296  -284  -258  -246  -283  -371  -480  -566  -609  -613  -598  -581  -569  -565  -570  -591  -642  -721  -796  -839  -880  -987  -1129  -1136  -983  -885  -942  -939  -525  600  2481  4683  6432  7013  6079  3836  1004  -1460  -2852  -3127  -2736  -2172  -1746  -1532  -1441  -1374  -1288  -1194  -1062  -814  -449  -104  84  103  38  -21  -46  -56  -66  -53  36  241  502  701  817  914  1017  1116  1247  1467  1735  1937  2028  2055  2060  2057  2055  2063  2081  2112  2157  2193  2198  2189  2189  2179  2097  1898  1603  1278  1000  791  604  403  211  72  -7  -58  -121  -244  -466  -746  -984  -1133  -1221  -1282  -1324  -1345  -1356  -1365  -1363  -1315  -1191  -1008  -831  -724  -707  -747  -792  -824  -852  -891  -947  -1011  -1061  -1084  -1090  -1095  -1102  -1090  -1041  -972  -924  -915  -926  -926  -887  -806  -712  -648  -615  -575  -512  -455  -430  -428  -424  -395  -345  -293  -257  -254  -290  -339  -370  -383  -395  -418  -454  -488  -507  -526  -566  -624  -669  -682  -678  -683  -709  -756  -816  -892  -997  -1125  -1237  -1368  -1475  -1144  86  2196  4745  7033  8185  7564  5332  2391  -339  -2229  -2941  -2760  -2288  -1807  -1383  -1096  -961  -924  -919  -876  -749  -566  -392  -241  -92  15  15  -53  -77  -24  45  113  226  384  527  621  684  744  801  838  853  875  953  1147  1458  1780  1999  2121  2225  2340  2429  2457  2435  2383  2300  2197  2093  1977  1800  1506  1078  620  290  128  59  6  -74  -202  -391  -656  -929  -1086  -1122  -1124  -1121  -1105  -1096  -1121  -1176  -1233  -1274  -1304  -1333  -1365  -1392  -1381  -1283  -1069  -793  -574  -480  -491  -560  -642  -701  -726  -736  -756  -808  -877  -931  -966  -989  -981  -909  -775  -640  -567  -561  -583  -603  -609  -607  -607  -606  -593  -568  -530  -475  -412  -363  -346  -359  -377  -377  -355  -330  -328  -364  -463  -663  -922  -1105  -1107  -928  -676  -491  -434  -478  -589  -723  -807  -839  -932  -1187  -1517  -1508  -570  1524  4380  7169  8843  8579  6412  3239  182  -1941  -2823  -2740  -2273  -1831  -1482  -1156  -861  -644  -479  -313  -150  -34  15  18  5  -14  -24  31  214  486  719  840  877  873  851  823  795  784  833  993  1240  1467  1594  1636  1652  1697  1818  2043  2331  2575  2709  2757  2770  2788  2836  2906  2943  2847  2544  2109  1721  1483  1368  1272  1067  683  186  -245  -482  -554  -562  -553  -519  -456  -390  -381  -481  -647  -785  -851  -859  -842  -829  -823  -817  -812  -811  -809  -805  -789  -750  -676  -566  -436  -307  -202  -142  -126  -127  -123  -117  -139  -229  -385  -519  -554  -517  -479  -464  -457  -442  -418  -394  -380  -379  -384  -390  -386  -350  -260  -136  -31  13  -10  -112  -287  -486  -637  -712  -751  -806  -872  -915  -916  -882  -845  -836  -847  -858  -871  -892  -916  -936  -995  -1173  -1522  -1974  -2198  -1662  -16  2608  5566  7849  8524  7264  4591  1502  -1157  -2887  -3537  -3369  -2800  -2124  -1530  -1133  -908  -767  -672  -620  -592  -557  -489  -367  -207  -111  -151  -249  -283  -215  -56  157  383  574  702  784  858  933  1002  1078  1175  1302  1453  1593  1677  1710  1747  1838  1975  2106  2197  2237  2201  2078  1922  1813  1769  1747  1703  1617  1477  1262  961  613  261  -111  -503  -816  -970  -999  -988  -973  -955  -942  -962  -1034  -1132  -1209  -1250  -1256  -1224  -1176  -1130  -1088  -1067  -1076  -1095  -1109  -1122  -1135  -1143  -1135  -1107  -1076  -1054  -1043  -1037  -1030  -1020  -996  -933  -821  -709  -665  -693  -774  -915  -1076  -1184  -1202  -1149  -1070  -1003  -956  -929  -917  -903  -886  -877  -878  -882  -879  -856  -809  -725  -587  -415  -305  -339  -506  -717  -873  -950  -991  -1018  -1032  -1076  -1196  -1362  -1485  -1525  -1516  -1496  -1473  -1436  -1391  -1360  -1350  -1356  -1418  -1587  -1844  -2123  -2268  -1886  -615  1480  4013  6358  7641  7217  5210  2384  -371  -2354  -3279  -3374  -3090  -2740  -2379  -1950  -1508  -1187  -1009  -905  -839  -810  -803  -776  -692  -567  -468  -433  -454  -515  -589  -642  -654  -610  -471  -226  70  341  545  679  763  828  887  947  1034  1166  1321  1456  1562  1646  1699  1721  1738  1768  1805  1829  1810  1706  1512  1290  1112  954  728  439  208  85  -39  -306  -695  -1054  -1273  -1356  -1366  -1356  -1338  -1284  -1187  -1095  -1058  -1058  -1046  -1011  -971  -943  -924  -894  -836  -743  -633  -551  -517  -508  -503  -497  -489  -469  -423  -337  -211  -57  90  185  199  139  32  -82  -169  -221  -240  -229  -202  -173  -152  -141  -139  -140  -136  -116  -87  -86  -142  -218  -274  -323  -371  -402  -418  -418  -393  -336  -257  -187  -142  -111  -104  -130  -167  -191  -192  -149  -45  97  213  262  246  181  98  38  15  17  31  41  2  -128  -315  -464  -522  -519  -504  -515  -578  -704  -855  -956  -959  -869  -737  -638  -617  -693  -865  -1068  -1194  -1250  -1243  -826  460  2670  5381  7776  8823  7876  5266  2070  -713  -2493  -3086  -2843  -2343  -1887  -1519  -1232  -995  -761  -509  -275  -111  -28  8  32  49  58  59  54  50  62  103  173  268  403  577  746  870  957  1052  1171  1281  1351  1374  1367  1373  1468  1699  2002  2260  2412  2471  2477  2468  2474  2503  2536  2530  2449  2296  2079  1790  1462  1164  896  624  353  116  -64  -216  -401  -621  -806  -923  -998  -1041  -1050  -1035  -1013  -999  -995  -995  -990  -978  -946  -882  -798  -729  -688  -660  -636  -634  -672  -723  -748  -714  -600  -447  -329  -273  -251  -240  -237  -239  -250  -267  -293  -329  -363  -369  -357  -360  -384  -407  -411  -398  -379  -370  -397  -479  -589  -668  -695  -698  -695  -671  -597  -480  -360  -292  -336  -472  -584  -597  -539  -469  -426  -398  -341  -249  -167  -137  -156  -204  -246  -256  -236  -202  -173  -168  -216  -368  -623  -873  -986  -944  -824  -687  -551  -458  -470  -594  -749  -833  -814  -696  -537  -492  -648  -812  -575  401  2162  4445  6681  8037  7763  5746  2655  -450  -2627  -3402  -2978  -2094  -1388  -998  -819  -723  -600  -448  -329  -268  -249  -252  -260  -266  -269  -245  -142  65  316  505  585  589  567  542  511  497  592  884  1299  1636  1798  1837  1822  1792  1791  1873  2032  2180  2252  2262  2269  2328  2443  2541  2543  2458  2362  2283  2166  1938  1607  1256  946  679  463  311  196  63  -135  -395  -649  -827  -927  -986  -1020  -1025  -995  -940  -902  -917  -959  -984  -980  -958  -934  -907  -872  -837  -814  -796  -782  -775  -773  -771  -768  -765  -765  -769  -776  -774  -736  -657  -585  -572  -602  -636  -666  -702  -752  -826  -913  -975  -1001  -1004  -1004  -1015  -1036  -1047  -1025  -989  -989  -1030  -1061  -1036  -955  -849  -759  -709  -693  -688  -679  -668  -661  -649  -614  -556  -499  -465  -453  -458  -486  -553  -653  -753  -814  -829  -824  -825  -847  -882  -915  -945  -981  -1023  -1052  -1045  -995  -920  -843  -801  -864  -1067  -1369  -1640  -1614  -952  509  2597  4881  6759  7509  6713  4602  1818  -876  -2764  -3505  -3271  -2461  -1534  -896  -650  -609  -589  -547  -509  -488  -471  -433  -366  -295  -245  -208  -160  -83  21  134  246  397  607  813  930  951  934  940  1003  1127  1283  1455  1653  1874  2085  2277  2463  2607  2641  2574  2480  2411  2366  2334  2307  2279  2218  2075  1834  1535  1225  936  667  395  149  -13  -96  -152  -205  -267  -363  -502  -674  -885  -1119  -1298  -1366  -1348  -1299  -1247  -1189  -1110  -1027  -988  -1011  -1062  -1097  -1103  -1100  -1093  -1057  -970  -854  -759  -709  -695  -693  -693  -696  -717  -765  -825  -869  -888  -891  -885  -869  -841  -802  -756  -717  -702  -714  -739  -757  -768  -783  -805  -823  -830  -826  -803  -747  -668  -600  -551  -513  -492  -492  -497  -475  -402  -299  -218  -188  -196  -223  -264  -327  -435  -584  -747  -894  -1007  -1062  -1049  -993  -942  -922  -925  -941  -960  -951  -855  -668  -548  -661  -948  -1231  -1295  -735  822  3213  5777  7676  8073  6635  3918  897  -1597  -3014  -3293  -2912  -2398  -1961  -1566  -1161  -799  -551  -381  -228  -112  -66  -53  -40  -36  -38  -5  98  244  353  388  378  371  401  487  628  812  1024  1220  1345  1397  1423  1475  1569  1708  1918  2196  2456  2611  2676  2722  2783  2846  2880  2846  2709  2489  2245  2016  1804  1592  1354  1087  838  648  467  200  -150  -463  -640  -711  -760  -820  -880  -936  -987  -1043  -1118  -1200  -1251  -1264  -1263  -1267  -1276  -1275  -1243  -1180  -1118  -1083  -1073  -1089  -1120  -1143  -1160  -1190  -1226  -1218  -1121  -980  -896  -908  -956  -965  -928  -904  -933  -975  -956  -853  -741  -736  -845  -977  -1059  -1093  -1108  -1129  -1164  -1187  -1143  -1002  -792  -586  -462  -446  -510  -595  -650  -668  -682  -722  -796  -880  -937  -949  -919  -861  -799  -734  -645  -556  -530  -600  -732  -864  -964  -1033  -1107  -1278  -1562  -1651  -1002  720  3275  5903  7667  7798  6130  3360  535  -1625  -2773  -2970  -2707  -2362  -1942  -1461  -1086  -915  -863  -810  -712  -588  -469  -379  -315  -270  -244  -238  -246  -234  -164  -47  81  224  390  569  726  818  835  809  770  748  805  1016  1355  1695  1930  2043  2071  2065  2068  2107  2180  2243  2267  2274  2269  2158  1833  1373  1001  824  752  657  490  292  135  37  -31  -105  -193  -294  -405  -517  -624  -729  -832  -912  -949  -953  -955  -967  -989  -1019  -1053  -1076  -1027  -840  -541  -263  -121  -127  -227  -343  -419  -446  -447  -441  -432  -415  -384  -355  -354  -388  -434  -484  -534  -576  -581  -497  -300  -57  118  192  204  180  120  40  -22  -61  -112  -193  -290  -400  -516  -603  -630  -607  -589  -624  -709  -793  -840  -864  -905  -966  -1019  -1052  -1059  -1015  -945  -1001  -1277  -1511  -1171  107  2280  4884  7049  7825  6809  4413  1548  -910  -2459  -3020  -2931  -2630  -2256  -1823  -1447  -1208  -1072  -977  -884  -794  -731  -688  -609  -444  -239  -90  -31  -29  -44  -59  -64  -31  82  299  554  734  797  793  775  781  856  1027  1281  1569  1819  1970  2023  2023  2009  2000  2021  2094  2199  2291  2333  2292  2110  1764  1310  865  547  389  309  193  -11  -277  -527  -690  -753  -762  -760  -765  -811  -933  -1099  -1227  -1288  -1310  -1296  -1231  -1133  -1040  -977  -950  -950  -962  -972  -964  -944  -935  -933  -917  -889  -862  -842  -825  -805  -796  -807  -810  -780  -755  -765  -781  -772  -727  -647  -566  -516  -491  -482  -501  -556  -644  -751  -856  -936  -952  -887  -779  -697  -673  -699  -757  -824  -871  -896  -921  -958  -1003  -1074  -1182  -1232  -1146  -1043  -1070  -1153  -1014  -342  1139  3433  5897  7474  7371  5544  2709  -114  -2116  -3014  -3070  -2715  -2234  -1776  -1410  -1130  -911  -737  -598  -489  -414  -375  -356  -318  -243  -126  25  189  324  407  454  504  577  649  686  687  682  731  896  1156  1409  1582  1700  1815  1942  2060  2139  2176  2190  2198  2210  2223  2226  2213  2184  2138  2058  1924  1742  1555  1405  1264  1035  657  196  -189  -390  -431  -405  -376  -378  -447  -620  -863  -1073  -1178  -1188  -1149  -1100  -1053  -998  -924  -839  -763  -706  -668  -632  -584  -536  -515  -517  -532  -579  -650  -703  -720  -702  -668  -643  -631  -628  -628  -630  -645  -694  -760  -753  -590  -313  -88  -32  -113  -229  -326  -430  -594  -798  -953  -1020  -1033  -1025  -1019  -1025  -1040  -1044  -1022  -967  -888  -806  -753  -774  -892  -1066  -1217  -1277  -1304  -1477  -1781  -1873  -1404  -213  1721  4124  6351  7607  7259  5265  2310  -639  -2764  -3623  -3373  -2624  -1923  -1495  -1317  -1255  -1198  -1119  -1006  -835  -626  -455  -363  -314  -264  -216  -177  -129  -47  64  175  252  295  330  388  488  608  686  701  698  750  904  1134  1362  1527  1628  1709  1814  1937  2041  2093  2102  2100  2105  2110  2090  1994  1771  1437  1059  684  356  109  -72  -209  -297  -366  -491  -712  -965  -1146  -1234  -1271  -1263  -1195  -1094  -1017  -987  -988  -1011  -1065  -1141  -1182  -1157  -1112  -1098  -1108  -1119  -1124  -1124  -1126  -1136  -1155  -1162  -1117  -1011  -895  -827  -815  -828  -850  -885  -933  -971  -982  -965  -907  -807  -714  -670  -667  -682  -701  -706  -656  -518  -340  -226  -210  -238  -260  -266  -265  -268  -285  -315  -341  -358  -378  -416  -473  -533  -583  -633  -670  -675  -646  -604  -588  -660  -862  -1162  -1411  -1293  -442  1286  3645  6071  7820  8175  6829  4199  1196  -1347  -2922  -3357  -2921  -2158  -1489  -1047  -780  -592  -433  -317  -257  -226  -195  -151  -84  19  156  304  453  589  677  704  689  653  617  631  740  932  1131  1286  1404  1508  1607  1725  1877  2034  2162  2280  2414  2540  2613  2621  2596  2577  2561  2504  2377  2221  2113  2050  1920  1626  1238  912  676  449  223  55  -53  -157  -281  -408  -506  -549  -550  -542  -548  -583  -643  -701  -729  -718  -668  -601  -554  -537  -539  -550  -569  -593  -609  -609  -590  -563  -544  -546  -572  -613  -657  -714  -796  -877  -888  -799  -682  -626  -650  -712  -768  -803  -812  -771  -659  -509  -397  -343  -308  -289  -323  -421  -536  -628  -701  -774  -858  -947  -1011  -1004  -913  -801  -756  -783  -827  -857  -880  -898  -907  -915  -934  -963  -1009  -1166  -1495  -1831  -1885  -1449  -391  1285  3361  5378  6699  6752  5386  2966  207  -2099  -3380  -3589  -3154  -2513  -1914  -1504  -1299  -1201  -1138  -1087  -1024  -927  -788  -605  -413  -271  -202  -184  -189  -196  -187  -147  -81  -15  28  57  136  343  662  958  1125  1174  1170  1155  1156  1198  1295  1425  1543  1617  1653  1669  1677  1697  1749  1826  1883  1872  1764  1577  1347  1093  834  589  342  66  -226  -490  -693  -831  -914  -952  -961  -956  -949  -944  -942  -941  -942  -947  -950  -935  -873  -767  -659  -592  -584  -652  -794  -946  -1011  -947  -805  -683  -614  -563  -507  -448  -394  -355  -333  -326  -329  -333  -329  -316  -298  -282  -271  -257  -231  -190  -142  -104  -84  -71  -60  -51  -48  -76  -172  -355  -567  -697  -683  -561  -410  -299  -254  -253  -257  -248  -250  -294  -364  -436  -505  -567  -642  -765  -890  -862  -489  400  1850  3673  5442  6550  6490  5229  3188  971  -842  -1895  -2179  -1970  -1587  -1206  -920  -758  -637  -460  -234  -51  34  54  74  113  156  200  270  385  536  720  934  1135  1259  1286  1255  1199  1116  1016  947  966  1103  1318  1526  1685  1825  1977  2124  2221  2267  2306  2374  2444  2445  2368  2252  2098  1886  1637  1387  1164  978  804  632  487  367  229  29  -226  -475  -638  -725  -813  -925  -1017  -1090  -1195  -1329  -1429  -1465  -1470  -1475  -1475  -1438  -1342  -1195  -1041  -939  -911  -917  -920  -936  -984  -1039  -1073  -1084  -1084  -1088  -1105  -1126  -1108  -997  -803  -646  -638  -737  -828  -861  -848  -827  -831  -867  -916  -951  -973  -1042  -1224  -1461  -1632  -1698  -1706  -1698  -1663  -1555  -1369  -1185  -1084  -1081  -1155  -1273  -1401  -1509  -1621  -1845  -2196  -2303  -1652  -153  1840  3861  5414  6003  5418  3841  1609  -782  -2620  -3445  -3397  -2940  -2463  -2147  -1963  -1757  -1469  -1164  -914  -746  -662  -652  -699  -771  -818  -774  -586  -284  5  187  267  310  356  398  438  508  613  720  813  923  1061  1201  1330  1456  1569  1670  1805  2004  2208  2334  2375  2369  2320  2202  2036  1883  1755  1601  1378  1086  774  523  359  214  35  -162  -372  -619  -866  -1034  -1107  -1125  -1101  -1014  -869  -725  -645  -628  -636  -650  -661  -656  -620  -561  -522  -533  -580  -621  -636  -635  -633  -633  -628  -616  -612  -631  -662  -682  -669  -606  -493  -375  -301  -275  -269  -272  -298  -347  -398  -431  -455  -496  -550  -588  -595  -589  -586  -583  -580  -594  -649  -734  -808  -845  -854  -858  -869  -883  -899  -928  -977  -1047  -1081  -1012  -930  -977  -1049  -827  46  1778  4161  6513  7947  7784  5964  3143  261  -1877  -2861  -2894  -2498  -1957  -1381  -936  -693  -584  -532  -491  -433  -344  -246  -199  -208  -164  -24  117  186  197  191  193  213  251  298  353  413  486  598  766  963  1123  1222  1309  1456  1668  1864  1968  1989  1980  1972  1966  1948  1914  1884  1858  1787  1634  1426  1252  1164  1113  983  687  264  -111  -315  -406  -536  -761  -1002  -1160  -1210  -1193  -1182  -1229  -1313  -1362  -1337  -1264  -1184  -1112  -1058  -1039  -1040  -1042  -1068  -1128  -1166  -1125  -998  -814  -619  -469  -410  -433  -504  -605  -734  -869  -969  -1015  -1035  -1055  -1077  -1087  -1058  -947  -732  -480  -313  -277  -310  -337  -336  -324  -323  -343  -389  -460  -539  -617  -695  -765  -804  -809  -797  -790  -803  -832  -859  -863  -823  -747  -722  -849  -1084  -1246  -1078  -270  1334  3498  5662  7086  7140  5749  3377  766  -1303  -2375  -2491  -2069  -1580  -1213  -957  -788  -662  -538  -418  -305  -188  -79  -15  -8  -19  22  170  411  645  783  823  816  801  788  785  820  937  1156  1427  1649  1773  1826  1849  1872  1946  2117  2360  2588  2733  2810  2878  2949  2987  2969  2906  2799  2636  2409  2123  1808  1527  1337  1213  1057  807  522  295  127  -28  -165  -251  -303  -355  -405  -442  -474  -484  -450  -400  -380  -399  -434  -460  -469  -470  -464  -441  -390  -324  -271  -251  -271  -319  -374  -411  -422  -412  -383  -344  -307  -280  -263  -250  -234  -220  -225  -259  -306  -340  -351  -351  -352  -355  -358  -358  -361  -373  -387  -387  -386  -418  -476  -497  -418  -254  -128  -133  -210  -260  -267  -273  -331  -491  -748  -1006  -1163  -1194  -1128  -993  -837  -733  -732  -832  -977  -1094  -1152  -1179  -1220  -1312  -1444  -1544  -1578  -1576  -1490  -1118  -189  1435  3588  5763  7186  7136  5486  2833  33  -2202  -3460  -3773  -3517  -3005  -2361  -1778  -1466  -1404  -1415  -1383  -1288  -1171  -1071  -1006  -979  -976  -977  -967  -946  -913  -859  -787  -724  -678  -625  -540  -410  -218  8  181  253  261  272  340  491  727  1016  1271  1416  1465  1483  1512  1550  1579  1599  1626  1660  1675  1639  1524  1328  1110  911  691  412  112  -164  -409  -627  -797  -909  -972  -1001  -1001  -988  -976  -980  -1001  -1026  -1039  -1043  -1045  -1045  -1041  -1040  -1055  -1098  -1150  -1174  -1149  -1048  -835  -555  -336  -253  -271  -333  -419  -517  -595  -624  -599  -534  -455  -389  -343  -328  -353  -399  -444  -482  -491  -451  -376  -302  -266  -274  -306  -338  -369  -398  -418  -425  -425  -424  -423  -416  -396  -353  -282  -197  -119  -75  -98  -193  -313  -396  -423  -413  -365  -266  -142  -59  -52  -106  -197  -310  -427  -515  -543  -526  -519  -571  -679  -809  -931  -1019  -1048  -1018  -928  -785  -646  -589  -635  -738  -852  -1025  -1336  -1685  -1821  -1625  -1069  -1  1727  4001  6296  7771  7710  5954  3030  -55  -2361  -3445  -3400  -2718  -1958  -1408  -1121  -1030  -1008  -962  -859  -702  -519  -337  -168  -48  -13  -38  -44  27  154  271  350  401  453  530  640  750  819  856  940  1136  1396  1600  1685  1690  1695  1741  1812  1881  1976  2157  2419  2666  2800  2786  2646  2428  2190  1965  1762  1590  1452  1310  1113  844  539  264  58  -82  -169  -216  -240  -257  -292  -348  -407  -456  -517  -631  -792  -926  -975  -959  -925  -907  -901  -891  -876  -869  -869  -866  -854  -826  -762  -642  -484  -354  -294  -293  -330  -404  -511  -628  -710  -728  -695  -651  -630  -638  -653  -656  -652  -657  -662  -639  -601  -596  -635  -678  -702  -711  -706  -677  -611  -529  -467  -440  -453  -516  -605  -641  -563  -411  -279  -222  -227  -262  -322  -414  -524  -605  -630  -620  -611  -614  -615  -599  -566  -512  -438  -372  -323  -272  -220  -166  -88  15  97  127  135  155  175  167  141  125  126  126  83  -26  -183  -338  -461  -543  -579  -580  -568  -556  -532  -481  -425  -412  -450  -501  -529  -526  -531  -612  -820  -1154  -1398  -1105  101  2276  5045  7581  8918  8454  6265  3165  239  -1820  -2780  -2742  -2182  -1602  -1164  -841  -642  -563  -543  -522  -466  -368  -264  -206  -208  -221  -145  88  407  641  716  694  655  635  646  693  763  848  978  1179  1398  1564  1680  1774  1846  1910  2003  2132  2280  2429  2555  2642  2707  2763  2777  2716  2607  2520  2469  2362  2101  1731  1388  1119  892  706  557  392  168  -90  -334  -539  -699  -801  -842  -839  -816  -786  -771  -798  -871  -962  -1030  -1050  -1014  -918  -792  -691  -640  -628  -650  -713  -797  -859  -880  -880  -891  -935  -997  -1021  -960  -820  -668  -584  -570  -575  -574  -569  -544  -477  -385  -317  -297  -309  -327  -341  -348  -350  -347  -345  -357  -398  -471  -548  -585  -575  -549  -534  -538  -577  -675  -825  -967  -1029  -972  -810  -615  -471  -404  -386  -385  -390  -412  -475  -594  -754  -896  -964  -904  -685  -373  -123  -33  -103  -301  -547  -732  -803  -761  -606  -364  -110  88  210  256  206  35  -219  -472  -665  -780  -823  -825  -812  -787  -743  -685  -638  -624  -636  -652  -648  -621  -596  -597  -626  -666  -711  -797  -985  -1319  -1694  -1729  -953  815  3332  6028  8040  8492  7098  4381  1252  -1404  -2913  -3133  -2594  -2009  -1739  -1726  -1741  -1641  -1403  -1080  -774  -561  -445  -405  -418  -445  -437  -370  -257  -109  44  146  176  168  161  183  258  391  554  699  805  913  1072  1283  1500  1672  1795  1903  2016  2126  2206  2248  2280  2331  2395  2432  2424  2394  2340  2201  1953  1670  1443  1291  1159  995  779  501  187  -90  -294  -472  -654  -797  -860  -852  -809  -766  -733  -702  -675  -654  -623  -579  -557  -593  -684  -785  -854  -883  -869  -780  -604  -404  -273  -230  -233  -250  -278  -311  -342  -404  -544  -738  -894  -950  -901  -766  -601  -483  -442  -445  -455  -464  -478  -498  -511  -511  -504  -506  -533  -587  -656  -719  -759  -772  -771  -770  -768  -750  -699  -627  -568  -541  -533  -524  -500  -465  -431  -411  -417  -462  -546  -630  -654  -608  -529  -451  -394  -370  -373  -377  -376  -400  -471  -563  -622  -632  -618  -612  -632  -688  -775  -870  -945  -1005  -1077  -1176  -1261  -1261  -1166  -1041  -933  -845  -786  -848  -1079  -1231  -820  523  2785  5420  7459  7960  6581  3843  786  -1622  -2835  -2953  -2585  -2208  -1929  -1726  -1538  -1284  -970  -678  -471  -372  -358  -379  -393  -356  -238  -74  63  154  238  328  365  313  232  222  323  500  680  834  993  1198  1442  1666  1835  1969  2100  2238  2377  2504  2600  2644  2618  2511  2363  2233  2131  2046  1988  1962  1944  1905  1820  1681  1492  1260  980  659  340  88  -98  -289  -498  -675  -784  -830  -837  -808  -738  -644  -574  -566  -631  -748  -861  -913  -889  -813  -706  -569  -411  -290  -289  -418  -606  -778  -891  -931  -889  -761  -592  -466  -429  -471  -569  -685  -769  -810  -824  -819  -773  -681  -591  -565  -617  -719  -793  -773  -680  -596  -560  -555  -558  -559  -559  -556  -551  -543  -529  -503  -468  -440  -428  -437  -469  -524  -593  -659  -688  -672  -643  -632  -655  -721  -829  -946  -1025  -1049  -1043  -1027  -1010  -994  -994  -1015  -1058  -1153  -1332  -1516  -1549  -1287  -568  674  2348  4252  5899  6602  5969  4125  1626  -718  -2232  -2745  -2558  -2104  -1727  -1563  -1539  -1538  -1487  -1309  -974  -599  -354  -277  -265  -219  -133  -49  32  150  297  418  475  477  454  419  374  348  426  692  1102  1481  1712  1823  1878  1889  1850  1796  1809  1966  2264  2581  2777  2795  2661  2445  2252  2152  2127  2112  2052  1900  1617  1248  920  713  569  383  124  -133  -323  -464  -610  -775  -941  -1100  -1273  -1426  -1469  -1376  -1198  -967  -734  -611  -660  -808  -928  -969  -964  -955  -953  -947  -921  -866  -792  -718  -668  -650  -656  -670  -694  -733  -774  -812  -874  -969  -1061  -1096  -1058  -989  -929  -882  -845  -822  -809  -803  -796  -779  -755  -741  -764  -830  -892  -866  -736  -583  -491  -469  -484  -513  -551  -597  -652  -706  -738  -749  -755  -766  -778  -787  -802  -837  -903  -984  -1041  -1057  -1050  -1038  -1032  -1049  -1108  -1197  -1256  -1222  -1140  -1179  -1349  -1256  -401  1395  3906  6493  8174  8107  6211  3202  103  -2209  -3292  -3277  -2720  -2140  -1752  -1551  -1416  -1231  -978  -731  -582  -545  -559  -549  -469  -323  -171  -72  -31  -17  -14  -23  -37  -11  101  304  529  696  784  838  908  978  1004  1006  1060  1223  1495  1826  2136  2346  2434  2436  2413  2400  2387  2343  2278  2208  2108  1936  1677  1372  1088  843  623  415  205  -13  -230  -466  -744  -1015  -1189  -1250  -1253  -1251  -1262  -1282  -1301  -1311  -1307  -1299  -1300  -1305  -1299  -1286  -1278  -1275  -1239  -1120  -925  -739  -644  -649  -724  -842  -971  -1068  -1116  -1124  -1107  -1078  -1045  -1015  -995  -987  -984  -987  -1020  -1104  -1207  -1252  -1201  -1108  -1060  -1081  -1122  -1142  -1125  -1054  -911  -719  -544  -448  -460  -559  -683  -781  -846  -904  -958  -985  -988  -1009  -1088  -1203  -1287  -1302  -1262  -1205  -1165  -1144  -1114  -1071  -1062  -1162  -1412  -1740  -1987  -2046  -1931  -1585  -784  679  2805  5244  7294  8177  7392  5043  1911  -1005  -2941  -3618  -3327  -2588  -1818  -1305  -1127  -1122  -1110  -1040  -941  -830  -702  -559  -418  -285  -171  -96  -58  -24  46  142  211  230  227  240  299  410  568  760  954  1127  1286  1465  1698  1971  2219  2373  2437  2468  2498  2527  2551  2558  2536  2495  2459  2445  2446  2422  2336  2178  1955  1658  1337  1081  879  656  417  217  76  -14  -63  -100  -152  -209  -254  -279  -264  -203  -125  -68  -43  -31  -22  -17  -22  -24  -15  0]
