reading_id,reading_time,wire_id,result_classification,heart_rate,heart_rate_alert,firmware_version,device_app_version,hardware_version,waveform_samples
256f9030-6097-11ed-8080-808080808080,Thu Nov 10 01:29:40 UTC 2022,a101e3f91939,UNCLASSIFIABLE,90,NONE,20001.171.50,2.10.0,Charge 5,[-5362  -5378  -5374  -5317  -5152  -4789  -4124  -3134  -1902  -602  560  1505  2335  3197  4164  5232  6369  7560  8774  9969  11131  12137  12772  13010  13061  13126  13268  13458  13674  13944  14242  14500  14738  15014  15275  15424  15451  15411  15352  15345  15513  15942  16507  16930  17084  17080  17082  17171  17330  17477  17558  17573  17515  17361  17149  16946  16766  16602  16464  16294  16002  15612  15207  14823  14490  14272  14183  14170  14166  14083  13793  13200  12339  11414  10678  10220  9951  9769  9639  9564  9540  9533  9506  9471  9440  9388  9288  9149  9035  8983  8874  8456  7588  6364  4994  3718  2687  1812  991  317  -153  -491  -709  -783  -738  -630  -512  -460  -629  -1146  -1846  -2350  -2505  -2473  -2469  -2592  -2797  -2962  -2998  -2874  -2652  -2634  -3190  -4289  -5434  -5998  -5420  -3528  -855  1725  3437  3614  1959  -1100  -4692  -7958  -10124  -10770  -10251  -9371  -8735  -8534  -8604  -8653  -8578  -8479  -8436  -8436  -8443  -8429  -8390  -8354  -8362  -8454  -8655  -8911  -9090  -9092  -8914  -8651  -8419  -8259  -8155  -8097  -8027  -7762  -7128  -6276  -5607  -5270  -5015  -4560  -3892  -3261  -2904  -2815  -2799  -2675  -2412  -2140  -1976  -1874  -1695  -1392  -1027  -657  -281  100  412  574  610  601  586  525  356  85  -182  -349  -406  -401  -383  -384  -421  -472  -432  -174  216  467  505  490  519  568  613  693  883  1156  1370  1469  1566  1766  2013  2149  2136  2070  2029  2006  1973  1932  1911  1915  1921  1925  1969  2088  2279  2500  2679  2770  2816  2902  3058  3228  3333  3325  3172  2896  2604  2393  2240  2070  1869  1679  1554  1513  1543  1631  1756  1886  2042  2335  2817  3334  3674  3764  3648  3513  3718  4637  6482  9176  12283  15078  16688  16423  14266  10955  7600  5223  4357  4857  6110  7415  8363  8967  9415  9862  10380  10944  11466  11837  12009  12050  12044  11980  11775  11377  10835  10285  9868  9641  9571  9581  9604  9609  9625  9761  10138  10752  11463  12119  12605  12858  12927  12960  13100  13397  13772  14097  14321  14465  14585  14778  15104  15478  15756  15862  15790  15551  15082  14089  12099  8904  4897  764  -2961  -6074  -8734  -11154  -13327  -15202  -16856  -18459  -20073  -21601  -23038  -24502  -26116  -27974  -29977  -31776  -32768  -32768  -32768  -32768  -32768  -32768  -32768  -32768  -32768  -32768  -32768  -32768  -32768  -32768  -32768  -32768  -31736  -30466  -29196  -27829  -26343  -24899  -23703  -22766  -21920  -21024  -19992  -18767  -17454  -16277  -15348  -14651  -14110  -13597  -12995  -12279  -11562  -11020  -10651  -10214  -9510  -8618  -7822  -7475  -7741  -8114  -7604  -5647  -2397  1399  4428  5464  4300  1738  -1136  -3466  -4731  -4832  -4139  -3108  -1931  -770  93  558  770  856  857  836  860  919  987  1105  1326  1633  1926  2137  2270  2362  2443  2537  2678  2892  3127  3291  3371  3437  3532  3642  3750  3917  4227  4680  5185  5639  5950  6084  6075  5985  5877  5805  5784  5783  5773  5742  5699  5641  5545  5395  5209  5035  4921  4888  4903  4878  4728  4454  4178  4019  3962  3930  3891  3846  3793  3752  3738  3717  3627  3474  3383  3454  3629  3849  4177  4652  5164  5549  5735  5775  5768  5783  5833  5903  5992  6109  6248  6390  6487  6488  6412  6334  6284  6251  6222  6179  6098  5994  5913  5881  5882  5888  5884  5868  5855  5857  5876  5919  5967  5902  5604  5174  4822  4742  5308  6877  9360  12200  14494  15218  13840  10809  7199  4075  2249  1888  2374  3060  3669  4059  4226  4327  4470  4634  4747  4785  4790  4819  4862  4890  4925  5024  5194  5360  5451  5471  5466  5459  5438  5382  5309  5267  5280  5328  5386  5458  5551  5644  5700  5695  5639  5572  5527  5502  5456  5314  5010  4588  4191  3888  3642  3417  3227  3108  3065  3041  2928  2650  2229  1775  1390  1132  1013  989  993  982  948  897  837  733  521  213  -61  -185  -191  -177  -175  -180  -232  -391  -626  -840  -1001  -1169  -1389  -1611  -1732  -1714  -1622  -1543  -1507  -1498  -1494  -1502  -1554  -1648  -1732  -1779  -1824  -1930  -2121  -2341  -2512  -2613  -2679  -2732  -2763  -2773  -2790  -2852  -2954  -3061  -3130  -3157  -3259  -3554  -3965  -4290  -4268  -3514  -1738  846  3465  5172  5186  3279  70  -3359  -6102  -7638  -7934  -7447  -6720  -6066  -5619  -5395  -5304  -5223  -5065  -4807  -4529  -4343  -4278  -4283  -4293  -4262  -4176  -4067  -3994  -3974  -3971  -3969  -3982  -4008  -3988  -3852  -3633  -3465  -3408  -3396  -3349  -3267  -3208  -3208  -3233  -3225  -3142  -2974  -2772  -2630  -2597  -2670  -2820  -2996  -3145  -3275  -3417  -3555  -3652  -3714  -3763  -3796  -3801  -3783  -3758  -3739  -3731  -3725  -3705  -3655  -3582  -3515  -3476  -3466  -3471  -3479  -3485  -3483  -3457  -3386  -3288  -3212  -3191  -3226  -3300  -3361  -3361  -3320  -3279  -3256  -3243  -3227  -3206  -3191  -3192  -3207  -3203  -3156  -3100  -3073  -3069  -3068  -3056  -3034  -3007  -2988  -2991  -3042  -3160  -3325  -3483  -3603  -3671  -3674  -3627  -3572  -3537  -3527  -3559  -3646  -3771  -3897  -4013  -4122  -4171  -3954  -3144  -1500  938  3764  6194  7281  6405  3720  108  -3280  -5473  -6067  -5420  -4305  -3336  -2691  -2208  -1791  -1507  -1352  -1207  -998  -744  -524  -390  -318  -251  -166  -70  10  57  101  218  466  837  1244  1563  1743  1829  1919  2087  2331  2589  2790  2893  2900  2841  2761  2702  2683  2698  2743  2806  2865  2904  2915  2900  2871  2843  2810  2733  2567  2332  2122  2006  1976  1968  1916  1851  1868  1956  2016  2017  1998  1992  2000  2010  2016  2018  2021  2048  2122  2231  2323  2370  2388  2398  2399  2351  2213  2022  1870  1797  1785  1813  1875  1966  2059  2119  2137  2131  2121  2106  2076  2018  1948  1894  1851  1785  1691  1600  1539  1528  1569  1631  1655  1610  1519  1427  1348  1277  1240  1290  1423  1422  984  234  -137  546  2461  5237  8080  9979  10170  8568  5687  2315  -672  -2559  -3136  -2773  -2052  -1425  -1089  -928  -707  -378  -49  207  386  501  581  643  684  717  773  847  901  920  925  941  967  993  1029  1102  1223  1354  1443  1503  1603  1764  1947  2110  2216  2221  2148  2060  1958  1814  1646  1500  1399  1340  1304  1249  1132  957  766  573  379  226  140  91  40  -15  -54  -70  -76  -84  -100  -130  -192  -289  -398  -468  -446  -326  -178  -77  -46  -59  -84  -113  -155  -202  -241  -294  -405  -559  -686  -743  -752  -746  -732  -706  -666  -627  -600  -584  -570  -554  -541  -547  -586  -658  -744  -822  -887  -948  -994  -999  -963  -928  -943  -1025  -1139  -1227  -1279  -1322  -1351  -1362  -1417  -1571  -1779  -1852  -1454  -229  1891  4590  7230  8862  8667  6614  3378  -92  -2819  -4219  -4436  -4015  -3385  -2698  -2057  -1641  -1490  -1440  -1343  -1188  -1013  -823  -620  -438  -277  -123  -2  57  70  81  161  373  708  1079  1375  1534  1581  1586  1596  1630  1687  1765  1886  2068  2254  2347  2328  2259  2202  2160  2072  1846  1463  1045  758  651  651  656  605  469  255  23  -169  -330  -488  -635  -747  -806  -820  -819  -818  -809  -771  -700  -634  -612  -630  -664  -694  -701  -660  -563  -418  -270  -173  -144  -189  -315  -481  -607  -660  -684  -728  -794  -847  -872  -885  -887  -860  -799  -732  -685  -662  -655  -659  -685  -747  -846  -958  -1067  -1188  -1328  -1447  -1545  -1677  -1829  -1914  -1878  -1746  -1592  -1489  -1450  -1476  -1640  -2008  -2434  -2516  -1899  -532  1499  3999  6381  7758  7511  5641  2694  -429  -2801  -3949  -4114  -3892  -3617  -3293  -2911  -2475  -2001  -1608  -1392  -1321  -1322  -1343  -1353  -1312  -1187  -1003  -812  -612  -386  -176  -44  8  44  132  278  442  602  756  883  975  1043  1093  1140  1195  1249  1298  1359  1427  1480  1504  1493  1456  1411  1362  1274  1114  897  682  498  318  95  -144  -315  -407  -496  -619  -737  -816  -857  -872  -878  -900  -940  -974  -985  -973  -940  -882  -800  -703  -619  -569  -556  -558  -562  -572  -592  -611  -601  -549  -491  -468  -490  -521  -505  -433  -354  -305  -294  -305  -311  -290  -245  -189  -147  -125  -101  -57  -1  25  -6  -63  -106  -133  -153  -172  -210  -275  -351  -413  -446  -453  -441  -408  -357  -300  -250  -223  -236  -303  -448  -641  -765  -779  -841  -1020  -1025  -385  1221  3814  6848  9113  9492  7781  4632  1119  -1733  -3354  -3765  -3436  -2820  -2178  -1735  -1533  -1378  -1141  -875  -650  -480  -374  -335  -337  -332  -282  -177  -54  48  119  181  268  390  518  628  711  774  857  1005  1199  1361  1446  1478  1512  1585  1674  1739  1766  1764  1721  1618  1497  1433  1428  1421  1363  1217  967  688  499  433  427  431  425  378  240  -6  -292  -512  -627  -679  -730  -800  -863  -899  -905  -890  -872  -865  -864  -849  -813  -774  -764  -789  -813  -817  -833  -884  -925  -912  -868  -846  -879  -963  -1045  -1084  -1079  -1034  -986  -994  -1048  -1096  -1113  -1102  -1093  -1136  -1242  -1357  -1406  -1368  -1292  -1222  -1159  -1108  -1089  -1111  -1167  -1241  -1322  -1382  -1381  -1330  -1281  -1250  -1233  -1237  -1250  -1251  -1233  -1207  -1194  -1197  -1205  -1209  -1211  -1214  -1220  -1217  -1188  -1126  -1050  -1003  -1003  -1022  -1039  -1067  -1130  -1210  -1268  -1285  -1275  -1260  -1272  -1345  -1481  -1627  -1711  -1707  -1625  -1490  -1340  -1221  -1157  -1132  -1115  -1082  -1019  -934  -858  -804  -763  -739  -751  -806  -885  -955  -1003  -1042  -1088  -1152  -1221  -1266  -1291  -1329  -1399  -1477  -1528  -1545  -1536  -1499  -1438  -1405  -1502  -1833  -2299  -2411  -1523  677  3850  6957  8692  8237  5743  2247  -956  -3087  -4085  -4268  -4032  -3673  -3267  -2791  -2270  -1776  -1409  -1235  -1211  -1246  -1288  -1302  -1209  -926  -488  -48  278  498  707  984  1309  1597  1796  1914  2023  2230  2553  2884  3122  3279  3439  3681  3983  4242  4401  4491  4568  4649  4709  4729  4717  4684  4635  4580  4540  4520  4489  4390  4212  4002  3801  3630  3512  3439  3397  3386  3401  3408  3366  3272  3170  3071  2945  2828  2772  2752  2737  2720  2708  2713  2715  2685  2629  2555  2448  2335  2269  2243  2198  2101  1968  1811  1625  1446  1337  1312  1305  1224  1013  732  524  450  450  456  444  423  391  350  313  289  257  192  124  122  212  330  413  468  521  577  649  775  962  1143  1253  1297  1343  1457  1624  1768  1835  1797  1626  1364  1151  1104  1262  1571  1888  2072  2096  1997  1822  1641  1531  1508  1551  1626  1682  1677  1598  1416  1161  962  908  969  1065  1131  1140  1103  1042  971  894  824  766  704  649  631  660  741  847  937  992  1013  1000  952  871  779  709  663  630  603  574  532  473  393  289  174  79  26  3  -26  -101  -231  -376  -471  -496  -489  -494  -535  -630  -827  -1145  -1585  -2052  -2042  -914  1429  4493  7329  8732  7976  5303  1680  -1756  -4234  -5491  -5619  -4981  -4137  -3527  -3217  -3082  -3038  -3047  -3082  -3098  -3044  -2925  -2816  -2771  -2789  -2853  -2939  -3011  -3033  -2993  -2909  -2818  -2745  -2702  -2703  -2754  -2834  -2891  -2858  -2705  -2491  -2320  -2218  -2135  -2028  -1894  -1769  -1719  -1785  -1917  -2029  -2109  -2206  -2335  -2468  -2586  -2682  -2778  -2936  -3191  -3501  -3787  -3980  -4063  -4079  -4104  -4206  -4386  -4586  -4742  -4829  -4861  -4860  -4805  -4660  -4469  -4339  -4311  -4332  -4353  -4361  -4357  -4335  -4289  -4223  -4156  -4117  -4113  -4123  -4102  -4017  -3882  -3764  -3709  -3701  -3709  -3717  -3728  -3738  -3728  -3698  -3686  -3730  -3814  -3881  -3904  -3899  -3892  -3898  -3923  -3950  -3944  -3886  -3802  -3739  -3708  -3680  -3636  -3580  -3525  -3482  -3452  -3428  -3430  -3468  -3496  -3471  -3419  -3389  -3387  -3394  -3382  -3327  -3228  -3118  -3043  -3020  -3029  -3040  -3031  -3005  -2972  -2926  -2856  -2769  -2677  -2601  -2568  -2580  -2596  -2586  -2538  -2422  -2242  -2062  -1932  -1836  -1740  -1657  -1606  -1589  -1617  -1672  -1697  -1654  -1536  -1388  -1283  -1245  -1248  -1271  -1316  -1367  -1354  -1191  -881  -538  -280  -144  -120  -139  -68  171  487  726  832  868  936  1102  1332  1524  1602  1565  1453  1298  1118  931  785  750  863  1061  1234  1341  1416  1494  1563  1567  1439  1188  882  526  249  495  1671  3852  6846  9939  11867  11670  9354  5728  1951  -892  -2205  -2159  -1409  -514  187  565  776  1076  1481  1796  1929  1974  2049  2167  2278  2370  2473  2599  2737  2873  2995  3105  3203  3272  3291  3266  3257  3315  3425  3542  3671  3863  4141  4442  4650  4722  4709  4689  4718  4817  4944  5020  5003  4916  4815  4757  4747  4721  4588  4322  4017  3807  3707  3626  3499  3328  3134  2940  2796  2732  2712  2675  2602  2520  2463  2445  2464  2520  2592  2646  2664  2649  2605  2545  2494  2465  2461  2486  2535  2589  2639  2687  2747  2817  2883  2932  2949  2888  2700  2425  2182  2051  2021  2046  2086  2113  2123  2126  2119  2089  2033  1952  1854  1756  1678  1611  1523  1414  1335  1313  1328  1344  1342  1314  1252  1144  1000  870  785  734  694  652  593  517  447  404  404  445  499  555  616  650  616  522  394  262  164  121  125  183  311  468  571  579  526  462  403  345  288  245  234  257  309  369  414  446  458  446  433  432  429  421  409  397  385  370  343  277  157  22  -63  -83  -72  -81  -153  -289  -444  -570  -656  -722  -807  -933  -1141  -1446  -1633  -1219  187  2552  5358  7771  8862  8042  5528  2123  -1242  -3685  -4711  -4500  -3664  -2851  -2427  -2349  -2362  -2266  -2018  -1717  -1490  -1357  -1242  -1103  -972  -869  -771  -660  -557  -491  -461  -445  -430  -418  -400  -341  -210  -34  133  277  415  553  686  820  993  1217  1445  1634  1748  1750  1660  1550  1460  1390  1335  1286  1211  1048  785  498  258  69  -78  -203  -360  -563  -765  -932  -1066  -1184  -1301  -1415  -1501  -1544  -1550  -1541  -1523  -1482  -1401  -1290  -1183  -1111  -1077  -1061  -1048  -1029  -1015  -1038  -1145  -1338  -1541  -1660  -1655  -1522  -1298  -1073  -929  -874  -874  -903  -957  -1038  -1132  -1222  -1304  -1390  -1484  -1575  -1648  -1714  -1805  -1916  -1966  -1895  -1755  -1628  -1550  -1540  -1612  -1751  -1894  -1962  -1935  -1829  -1646  -1428  -1272  -1227  -1265  -1345  -1429  -1487  -1506  -1478  -1387  -1249  -1105  -973  -866  -820  -872  -1016  -1202  -1366  -1460  -1491  -1507  -1545  -1587  -1588  -1553  -1528  -1531  -1564  -1630  -1708  -1762  -1787  -1808  -1855  -1948  -2084  -2219  -2233  -1835  -622  1591  4546  7474  9295  9186  7057  3541  -260  -3177  -4571  -4606  -3879  -3038  -2536  -2364  -2209  -1887  -1437  -996  -674  -475  -358  -301  -291  -304  -314  -287  -195  -58  79  223  398  585  753  920  1113  1302  1420  1453  1434  1401  1396  1498  1763  2116  2397  2527  2550  2521  2463  2386  2284  2145  1991  1853  1739  1654  1585  1474  1275  1043  871  751  573  289  -12  -235  -372  -481  -614  -770  -924  -1093  -1283  -1445  -1530  -1530  -1458  -1324  -1143  -945  -784  -728  -808  -957  -1071  -1109  -1099  -1078  -1066  -1090  -1185  -1374  -1605  -1776  -1820  -1714  -1461  -1151  -929  -849  -855  -881  -911  -979  -1108  -1257  -1353  -1368  -1328  -1279  -1237  -1193  -1152  -1134  -1148  -1185  -1203  -1156  -1053  -937  -828  -725  -635  -593  -615  -684  -799  -984  -1205  -1371  -1433  -1400  -1277  -1085  -905  -830  -884  -1012  -1144  -1273  -1437  -1631  -1753  -1750  -1588  -970  513  2894  5650  7905  8772  7774  5161  1811  -1262  -3362  -4304  -4323  -3813  -3143  -2540  -2016  -1535  -1155  -880  -629  -398  -243  -159  -84  8  99  182  284  401  495  551  584  600  608  649  762  922  1072  1214  1409  1659  1878  1999  2049  2095  2191  2330  2449  2506  2519  2516  2502  2461  2383  2279  2157  2009  1823  1596  1360  1185  1093  1020  869  605  284  -6  -214  -333  -386  -402  -409  -441  -508  -566  -556  -483  -401  -351  -329  -310  -282  -269  -317  -466  -678  -844  -893  -826  -684  -533  -437  -406  -403  -400  -397  -412  -457  -526  -595  -636  -614  -517  -402  -337  -308  -243  -88  111  258  307  283  215  131  59  2  -43  -65  -74  -121  -251  -431  -582  -666  -710  -747  -761  -707  -585  -468  -427  -469  -553  -664  -854  -1136  -1300  -914  392  2634  5375  7813  9067  8604  6512  3370  18  -2621  -3967  -4093  -3515  -2807  -2327  -2129  -2076  -1974  -1681  -1243  -861  -649  -562  -524  -500  -477  -434  -350  -234  -128  -57  -15  16  63  126  187  231  276  350  461  596  724  827  941  1137  1413  1652  1756  1747  1706  1676  1655  1622  1566  1489  1380  1198  943  693  513  381  235  40  -212  -522  -848  -1097  -1211  -1225  -1205  -1183  -1176  -1210  -1311  -1450  -1551  -1581  -1570  -1552  -1522  -1442  -1293  -1124  -1006  -958  -957  -969  -964  -936  -903  -876  -845  -813  -793  -816  -913  -1068  -1211  -1288  -1299  -1267  -1206  -1137  -1085  -1041  -971  -882  -812  -758  -682  -586  -542  -626  -841  -1087  -1242  -1286  -1277  -1260  -1249  -1242  -1250  -1293  -1376  -1450  -1454  -1372  -1294  -1353  -1512  -1640  -1622  -1185  -42  1859  4350  6850  8437  8411  6733  3945  776  -2025  -3777  -4288  -3916  -3061  -2015  -1126  -646  -526  -543  -539  -467  -339  -179  -13  118  182  201  246  357  500  619  710  789  842  861  863  889  979  1136  1344  1614  1920  2168  2314  2416  2531  2653  2754  2794  2754  2671  2602  2542  2418  2156  1785  1425  1169  1026  941  864  789  723  654  550  395  193  -24  -237  -449  -643  -788  -877  -924  -947  -961  -963  -917  -786  -604  -460  -386  -321  -201  -45  73  121  127  121  111  84  15  -103  -225  -274  -236  -164  -91  -24  24  42  27  -20  -84  -134  -154  -155  -141  -111  -71  -44  -41  -59  -84  -99  -105  -117  -145  -170  -160  -120  -96  -118  -173  -221  -251  -283  -333  -387  -424  -450  -496  -578  -671  -741  -779  -792  -773  -691  -562  -558  -856  -1363  -1680  -1219  501  3415  6716  9141  9623  7908  4663  1027  -1962  -3748  -4414  -4367  -3914  -3301  -2683  -2080  -1609  -1384  -1318  -1267  -1149  -959  -758  -585  -430  -301  -225  -194  -171  -146  -130  -112  -38  140  401  665  872  1023  1137  1235  1354  1511  1668  1776  1830  1879  1962  2069  2166  2226  2241  2217  2165  2090  1994  1855  1663  1458  1278  1116  951  783  616  461  335  239  144  25  -132  -330  -525  -664  -749  -815  -872  -920  -964  -1003  -1033  -1042  -978  -792  -541  -356  -287  -277  -267  -245  -226  -218  -215  -216  -225  -244  -233  -139  17  135  153  99  28  -23  -43  -43  -37  -15  52  148  198  142  -1  -164  -294  -369  -366  -270  -97  90  212  214  102  -66  -215  -303  -343  -361  -373  -383  -402  -452  -527  -595  -645  -695  -730  -690  -537  -323  -157  -91  -85  -95  -115  -181  -328  -529  -703  -800  -826  -810  -778  -745  -711  -667  -615  -584  -594  -632  -668  -693  -718  -739  -748  -750  -754  -762  -771  -782  -804  -840  -858  -820  -734  -655  -619  -617  -624  -638  -688  -802  -947  -1043  -1053  -1012  -964  -925  -894  -879  -885  -909  -939  -964  -973  -956  -911  -858  -826  -848  -938  -1061  -1157  -1209  -1246  -1287  -1320  -1328  -1304  -1242  -1125  -979  -875  -858  -914  -999  -1057  -1043  -941  -791  -658  -568  -518  -514  -558  -654  -788  -899  -914  -786  -527  -224  13  147  212  254  278  261  186  76  -21  -82  -99  -75  -29  12  36  41  26  -17  -82  -133  -148  -141  -195  -426  -838  -1238  -1334  -806  614  2916  5701  8336  10096  10251  8466  5251  1664  -1283  -2902  -3116  -2478  -1667  -1090  -816  -707  -609  -487  -362  -244  -122  18  187  365  513  596  617  609  605  621  696  870  1101  1276  1336  1310  1239  1161  1106  1088  1109  1183  1323  1494  1651  1795  1940  2069  2188  2328  2476  2572  2580  2501  2367  2226  2108  1998  1862  1691  1498  1280  1063  901  804  745  708  686  631  468  196  -74  -229  -258  -229  -200  -183  -164  -141  -133  -157  -198  -234  -271  -351  -493  -664  -823  -946  -1008  -968  -807  -590  -433  -381  -390  -406  -378  -246  5  275  426  403  254  87  1  3  45  81  65  -11  -110  -215  -322  -404  -436  -411  -330  -216  -118  -68  -58  -66  -93  -166  -298  -444  -523  -504  -450  -443  -504  -591  -650  -663  -659  -689  -799  -963  -1071  -1049  -945  -835  -748  -699  -701  -754  -837  -919  -979  -1006  -996  -957  -920  -930  -994  -1064  -1089  -1060  -1012  -966  -911  -852  -824  -847  -904  -962  -1005  -1033  -1050  -1057  -1040  -975  -872  -775  -721  -706  -708  -718  -744  -788  -821  -774  -579  -271  3  126  115  61  20  -21  -115  -263  -411  -508  -543  -532  -512  -500  -499  -518  -580  -693  -841  -1005  -1145  -1215  -1222  -1229  -1290  -1423  -1686  -2019  -1982  -987  1233  4418  7697  9814  9840  7762  4362  708  -2269  -4020  -4531  -4215  -3546  -2893  -2448  -2154  -1892  -1657  -1492  -1394  -1307  -1189  -1052  -927  -830  -750  -672  -583  -489  -411  -336  -233  -122  -48  0  90  257  455  615  721  828  1001  1237  1492  1764  2041  2249  2369  2463  2581  2711  2816  2855  2807  2687  2544  2430  2360  2305  2231  2103  1900  1661  1459  1324  1223  1115  1006  914  810  656  473  326  256  249  267  281  286  285  270  230  161  84  50  84  140  161  138  102  93  140  277  484  658  732  752  771  779  769  764  770  763  695  526  275  31  -111  -138  -101  -48  4  56  84  67  34  15  -3  -58  -161  -273  -350  -373  -326  -189  0  132  107  -97  -388  -605  -687  -690  -671  -663  -676  -695  -690  -645  -567  -489  -440  -426  -458  -553  -691  -811  -857  -803  -647  -449  -312  -285  -334  -397  -442  -463  -466  -463  -461  -464  -469  -475  -492  -533  -586  -624  -642  -649  -652  -640  -589  -490  -371  -270  -203  -160  -114  -48  19  61  74  76  75  69  47  0  -79  -212  -403  -611  -766  -844  -852  -800  -718  -672  -724  -880  -1066  -1165  -1151  -1191  -1413  -1612  -1308  -66  2234  5246  8142  9866  9653  7457  3968  249  -2693  -4248  -4478  -3976  -3306  -2756  -2394  -2104  -1754  -1346  -979  -741  -645  -642  -675  -701  -677  -571  -414  -295  -256  -253  -225  -145  -18  118  216  267  306  383  526  742  1020  1303  1523  1667  1757  1827  1911  2040  2207  2356  2421  2393  2325  2269  2202  2060  1837  1607  1422  1250  1054  847  643  452  298  184  57  -135  -374  -581  -726  -835  -934  -1037  -1176  -1357  -1533  -1654  -1692  -1651  -1574  -1493  -1405  -1295  -1183  -1098  -1023  -926  -822  -760  -748  -751  -741  -719  -689  -662  -650  -663  -700  -746  -780  -796  -806  -809  -766  -642  -472  -348  -305  -306  -314  -329  -370  -436  -496  -533  -560  -583  -594  -597  -605  -624  -645  -652  -642  -623  -617  -630  -648  -660  -662  -647  -607  -553  -511  -491  -487  -493  -514  -558  -615  -658  -675  -677  -675  -654  -588  -486  -426  -458  -527  -558  -543  -515  -495  -475  -433  -366  -302  -266  -257  -259  -270  -292  -323  -350  -365  -370  -361  -310  -203  -83  -10  14  17  8  -7  10  111  270  393  435  429  412  393  373  352  334  321  314  308  302  301  290  245  170  63  -84  -247  -370  -424  -429  -408  -367  -320  -357  -608  -1075  -1542  -1652  -974  850  3753  7042  9616  10470  9181  6138  2383  -917  -3058  -3922  -3826  -3300  -2754  -2341  -2072  -1862  -1589  -1227  -872  -621  -483  -409  -344  -258  -157  -64  2  45  70  85  113  175  264  346  408  480  596  748  896  1028  1151  1251  1323  1412  1581  1812  2001  2096  2135  2171  2209  2226  2207  2169  2136  2093  1997  1826  1593  1320  1055  843  654  430  201  53  0  -37  -143  -322  -502  -625  -717  -826  -943  -1023  -1049  -1042  -1019  -976  -908  -847  -824  -813  -759  -659  -555  -467  -389  -321  -272  -248  -240  -243  -261  -299  -335  -318  -233  -120  -36  -4  -21  -91  -212  -337  -405  -400  -356  -309  -277  -264  -263  -278  -330  -430  -527  -537  -460  -379  -348  -356  -375  -389  -396  -397  -383  -346  -302  -290  -337  -413  -455  -431  -363  -298  -258  -240  -237  -258  -318  -392  -412  -318  -135  40  129  115  19  -104  -191  -221  -221  -214  -195  -151  -102  -80  -77  -65  -33  10  54  81  85  79  87  132  213  300  366  398  395  366  319  254  177  105  14  -150  -372  -555  -636  -642  -626  -616  -612  -616  -637  -680  -726  -752  -787  -942  -1311  -1823  -2151  -1834  -560  1702  4667  7576  9361  9272  7274  3918  220  -2657  -4101  -4303  -3882  -3345  -2866  -2460  -2112  -1821  -1627  -1488  -1280  -987  -741  -633  -633  -667  -670  -571  -331  -34  173  251  254  242  232  229  234  265  349  488  643  784  924  1069  1198  1328  1514  1754  1972  2118  2200  2239  2236  2201  2161  2116  2027  1864  1664  1498  1378  1210  880  443  105  -25  -35  -78  -257  -534  -777  -930  -1030  -1103  -1135  -1121  -1043  -895  -745  -656  -630  -653  -694  -720  -752  -799  -826  -804  -732  -638  -550  -473  -412  -375  -375  -434  -570  -736  -847  -873  -847  -807  -764  -735  -741  -775  -796  -775  -721  -668  -642  -646  -672  -709  -743  -769  -790  -810  -830  -842  -823  -749  -624  -503  -437  -423  -431  -438  -443  -451  -465  -470  -457  -441  -444  -468  -484  -462  -420  -410  -427  -385  -237  -48  80  137  183  254  333  390  381  277  132  35  12  26  25  -30  -146  -270  -340  -353  -367  -400  -402  -355  -325  -422  -695  -1042  -1290  -1371  -1325  -1122  -568  579  2456  4907  7302  8768  8684  6905  3847  452  -2217  -3557  -3678  -3152  -2585  -2308  -2228  -2039  -1611  -1079  -620  -313  -146  -80  -80  -125  -187  -214  -170  -53  109  277  410  489  521  526  520  509  494  500  581  799  1155  1539  1814  1971  2099  2237  2376  2506  2616  2686  2720  2721  2662  2504  2285  2104  2000  1926  1810  1596  1301  1011  799  635  421  154  -65  -186  -255  -331  -415  -472  -513  -614  -831  -1109  -1320  -1396  -1371  -1304  -1219  -1125  -1040  -966  -899  -853  -838  -840  -845  -848  -848  -839  -817  -789  -767  -757  -764  -786  -806  -814  -815  -810  -798  -780  -763  -755  -756  -756  -736  -692  -660  -689  -769  -846  -894  -926  -951  -972  -1000  -1048  -1107  -1146  -1158  -1164  -1187  -1228  -1271  -1309  -1337  -1341  -1290  -1153  -938  -724  -598  -558  -538  -488  -422  -413  -504  -639  -753  -833  -860  -821  -763  -737  -747  -771  -788  -794  -793  -789  -779  -772  -789  -844  -928  -997  -1016  -1052  -1239  -1581  -1829  -1550  -407  1616  4249  6936  8795  9011  7401  4449  1026  -1877  -3557  -3979  -3645  -3094  -2641  -2334  -2035  -1654  -1276  -1019  -889  -808  -712  -604  -525  -477  -423  -349  -280  -236  -209  -152  -26  142  302  447  614  808  990  1138  1264  1383  1527  1735  2005  2280  2523  2712  2819  2844  2842  2881  2996  3139  3218  3212  3169  3089  2903  2582  2217  1941  1801  1732  1637  1450  1172  874  652  541  506  488  428  285  77  -132  -277  -339  -347  -336  -335  -363  -428  -496  -525  -503  -426  -297  -157  -44  44  102  114  99  87  93  115  139  160  171  171  173  176  177  175  176  180  182  169  128  70  20  -5  1  35  71  111  176  242  251  175  56  -40  -103  -150  -169  -140  -99  -89  -110  -124  -113  -112  -148  -177  -109  75  289  432  480  463  408  335  257  176  74  -68  -252  -427  -536  -577  -580  -546  -456  -343  -303  -396  -577  -754  -857  -875  -879  -959  -1123  -1217  -863  407  2746  5718  8383  9640  8845  6261  2778  -634  -3226  -4595  -4780  -4205  -3384  -2662  -2158  -1833  -1605  -1402  -1187  -981  -838  -772  -743  -704  -627  -521  -429  -382  -375  -383  -379  -359  -341  -335  -334  -330  -321  -298  -230  -76  171  441  660  865  1116  1380  1585  1713  1796  1854  1875  1849  1795  1742  1675  1548  1348  1102  835  573  345  152  -38  -244  -433  -564  -629  -668  -740  -859  -985  -1083  -1150  -1199  -1248  -1311  -1379  -1410  -1371  -1291  -1225  -1187  -1171  -1164  -1162  -1161  -1165  -1165  -1131  -1042  -924  -842  -835  -884  -929  -904  -803  -688  -623  -605  -594  -566  -532  -502  -469  -437  -408  -377  -357  -375  -442  -552  -663  -712  -695  -647  -586  -535  -513  -514  -527  -556  -610  -669  -701  -703  -696  -693  -690  -674  -636  -584  -542  -527  -554  -636  -745  -825  -852  -848  -840  -843  -854  -849  -788  -638  -431  -256  -180  -176  -160  -67  87  236  321  306  163  -72  -318  -504  -608  -643  -641  -626  -609  -599  -607  -663  -785  -938  -1042  -1045  -953  -850  -874  -1089  -1380  -1425  -744  1048  3839  6903  9201  9752  8124  4877  1230  -1755  -3504  -3947  -3573  -3064  -2750  -2568  -2320  -1903  -1420  -1057  -894  -867  -884  -897  -899  -904  -924  -943  -901  -726  -440  -168  -18  -2  -59  -129  -189  -234  -232  -98  229  673  1047  1241  1295  1300  1322  1399  1521  1653  1774  1874  1931  1945  1942  1932  1879  1714  1422  1114  910  772  566  273  20  -104  -151  -215  -338  -488  -614  -708  -819  -970  -1126  -1254  -1357  -1438  -1493  -1529  -1551  -1553  -1536  -1521  -1528  -1558  -1583  -1561  -1463  -1312  -1167  -1065  -1016  -1018  -1058  -1112  -1151  -1151  -1100  -1008  -917  -862  -842  -841  -857  -897  -953  -997  -1013  -987  -899  -746  -552  -368  -247  -198  -193  -215  -266  -334  -379  -385  -371  -367  -378  -371  -291  -125  57  172  200  176  130  81  43  25  26  44  76  113  136  131  93  41  4  -11  -18  -27  -35  -48  -81  -130  -170  -187  -188  -176  -149  -115  -90  -84  -92  -99  -81  -22  58  122  158  201  272  346  389  402  400  371  284  136  -51  -263  -488  -689  -818  -865  -860  -820  -737  -622  -513  -478  -607  -891  -1171  -1348  -1395  -1079  24  2184  5174  8140  9878  9540  7209  3783  390  -2137  -3491  -3833  -3589  -3155  -2723  -2363  -2096  -1843  -1498  -1075  -710  -498  -410  -360  -312  -274  -252  -238  -223  -206  -204  -222  -234  -157  76  395  631  724  757  810  891  985  1128  1378  1678  1901  2017  2114  2242  2368  2464  2529  2565  2580  2598  2647  2723  2772  2727  2557  2277  1961  1695  1530  1448  1404  1365  1334  1320  1297  1217  1078  933  840  806  806  837  927  1061  1173  1233  1288  1385  1516  1639  1713  1739  1750  1775  1815  1873  1973  2128  2298  2429  2508  2546  2559  2560  2557  2553  2547  2545  2568  2633  2720  2781  2805  2826  2867  2893  2862  2817  2831  2891  2932  2932  2908  2871  2808  2702  2558  2416  2328  2331  2421  2546  2632  2636  2572  2488  2427  2389  2362  2335  2308  2291  2315  2405  2525  2607  2640  2654  2658  2634  2567  2484  2433  2433  2458  2480  2492  2506  2526  2543  2534  2483  2398  2286  2115  1876  1637  1464  1340  1243  1187  1157  1110  1050  1006  969  897  780  654  544  382  59  -386  -594  -40  1574  4141  7166  9761  10880  9931  7161  3448  -121  -2648  -3787  -3865  -3479  -2980  -2516  -2197  -2012  -1881  -1788  -1741  -1722  -1715  -1716  -1721  -1721  -1702  -1658  -1613  -1613  -1680  -1790  -1901  -1969  -1988  -1982  -1974  -1972  -1977  -1989  -1998  -1963  -1843  -1657  -1486  -1386  -1345  -1320  -1281  -1223  -1155  -1092  -1058  -1099  -1261  -1538  -1867  -2198  -2511  -2776  -2979  -3156  -3353  -3587  -3873  -4237  -4648  -5005  -5234  -5326  -5325  -5305  -5352  -5524  -5782  -6014  -6160  -6248  -6340  -6480  -6642  -6740  -6715  -6586  -6456  -6427  -6488  -6547  -6550  -6504  -6447  -6406  -6378  -6357  -6350  -6358  -6378  -6400  -6415  -6425  -6427  -6410  -6363  -6307  -6289  -6358  -6524  -6711  -6797  -6757  -6634  -6459  -6296  -6191  -6117  -6060  -6043  -6078  -6129  -6130  -6054  -5945  -5856  -5807  -5794  -5800  -5802  -5785  -5759  -5741  -5719  -5665  -5592  -5508  -5384  -5240  -5122  -5041  -4993  -4978  -4965  -4911  -4813  -4686  -4515  -4273  -4006  -3819  -3750  -3756  -3787  -3794  -3748  -3665  -3587  -3517  -3423  -3305  -3200  -3124  -3067  -3029  -3011  -3018  -3051  -3096  -3094  -2959  -2701  -2520  -2575  -2754  -2780  -2284  -893  1416  4182  6665  8083  7939  6284  3612  626  -1941  -3529  -3959  -3508  -2698  -1941  -1405  -1095  -877  -588  -238  39  198  305  433  641  940  1248  1459  1558  1600  1624  1651  1710  1830  2042  2349  2658  2846  2910  2976  3150  3408  3652  3868  4131  4450  4728  4903  5005  5078  5175  5335  5538  5706  5789  5779  5678  5496  5277  5070  4889  4713  4539  4375  4208  4011  3771  3516  3294  3143  3073  3060  3069  3080  3090  3099  3107  3110  3102  3077  3042  3002  2959  2948  3002  3098  3179  3238  3315  3414  3508  3588  3658  3716  3767  3808  3807  3732  3607  3487  3397  3324  3244  3141  3029  2943  2897  2878  2871  2853  2760  2531  2236  2049  2068  2231  2430  2587  2668  2683  2669  2646  2611  2558  2502  2460  2432  2403  2372  2349  2356  2414  2513  2603  2644  2630  2561  2434  2270  2122  2039  2017  2019  2021  2021  2031  2052  2058  2019  1942  1851  1749  1642  1554  1483  1405  1300  1116  876  835  1341  2591  4575  7037  9368  10725  10436  8438  5344  2100  -418  -1718  -1931  -1598  -1127  -641  -218  37  136  204  353  591  811  926  947  933  910  876  840  838  898  996  1074  1106  1112  1120  1145  1179  1218  1268  1337  1427  1533  1649  1786  1975  2214  2437  2602  2746  2897  3019  3078  3091  3093  3083  3018  2856  2619  2377  2178  2004  1795  1509  1187  915  731  615  536  467  361  187  -24  -211  -353  -467  -557  -623  -670  -700  -698  -633  -472  -275  -166  -152  -140  -106  -83  -79  -85  -90  -87  -81  -82  -105  -147  -187  -217  -242  -267  -308  -395  -540  -708  -831  -868  -836  -782  -732  -700  -686  -687  -713  -777  -862  -926  -952  -956  -955  -949  -935  -927  -941  -973  -1010  -1022  -956  -792  -594  -458  -414  -437  -516  -650  -801  -925  -1021  -1096  -1138  -1133  -1101  -1092  -1130  -1210  -1317  -1431  -1522  -1594  -1665  -1726  -1752  -1733  -1696  -1725  -1907  -2159  -2182  -1635  -252  2032  4818  7228  8307  7510  5027  1661  -1598  -3944  -5066  -5173  -4685  -3990  -3344  -2810  -2366  -2024  -1801  -1680  -1630  -1617  -1617  -1622  -1626  -1594  -1484  -1298  -1113  -996  -937  -895  -862  -845  -831  -795  -712  -542  -297  -69  71  156  243  334  399  443  499  573  645  716  822  975  1134  1241  1270  1191  967  649  377  231  169  87  -96  -357  -588  -741  -865  -1006  -1149  -1250  -1293  -1301  -1312  -1370  -1509  -1711  -1905  -2035  -2094  -2091  -2032  -1919  -1766  -1616  -1523  -1499  -1507  -1510  -1490  -1449  -1401  -1355  -1320  -1306  -1319  -1353  -1376  -1352  -1243  -1039  -823  -733  -801  -935  -1045  -1101  -1113  -1101  -1080  -1060  -1047  -1045  -1062  -1089  -1111  -1119  -1120  -1118  -1112  -1096  -1073  -1056  -1035  -964  -820  -659  -580  -624  -731  -819  -863  -876  -868  -848  -819  -782  -730  -656  -554  -432  -316  -241  -208  -191  -176  -169  -183  -211  -232  -236  -244  -292  -408  -566  -699  -775  -820  -863  -910  -968  -1043  -1123  -1201  -1280  -1341  -1312  -1121  -872  -809  -1000  -1211  -971  271  2680  5691  8259  9299  8213  5372  1856  -1273  -3363  -4270  -4305  -3878  -3275  -2686  -2182  -1768  -1487  -1341  -1244  -1098  -888  -697  -613  -626  -672  -707  -706  -661  -566  -430  -308  -244  -218  -199  -161  -76  72  266  468  646  770  842  897  991  1192  1540  1937  2215  2324  2335  2318  2284  2224  2154  2089  1987  1779  1490  1239  1090  1000  894  743  564  397  286  234  202  141  9  -214  -485  -709  -827  -855  -848  -841  -847  -856  -845  -802  -743  -680  -613  -550  -512  -510  -529  -554  -565  -529  -417  -254  -117  -56  -68  -120  -168  -172  -127  -64  -22  -2  23  67  102  93  48  8  -9  -27  -69  -130  -182  -210  -219  -219  -221  -236  -275  -325  -352  -336  -307  -289  -257  -166  -7  153  233  207  95  -64  -213  -302  -326  -310  -286  -261  -232  -199  -180  -194  -238  -277  -279  -255  -234  -225  -217  -193  -146  -97  -72  -88  -138  -193  -240  -295  -359  -414  -430  -368  -220  -26  153  268  301  245  92  -110  -267  -333  -336  -319  -308  -311  -320  -327  -327  -300  -242  -172  -118  -100  -111  -123  -143  -201  -282  -344  -376  -382  -364  -337  -318  -312  -317  -340  -407  -535  -655  -657  -537  -404  -331  -310  -310  -304  -279  -231  -167  -109  -64  -17  27  48  51  52  57  64  66  65  63  59  55  55  48  8  -92  -230  -344  -401  -415  -414  -414  -423  -451  -517  -628  -792  -1021  -1305  -1580  -1654  -1158  260  2645  5556  8156  9546  9130  6947  3742  507  -2023  -3491  -3922  -3657  -3093  -2483  -1948  -1560  -1322  -1169  -1040  -903  -772  -691  -676  -700  -727  -733  -713  -668  -585  -475  -375  -300  -219  -81  135  380  554  619  626  643  704  802  926  1096  1326  1570  1751  1838  1866  1908  2024  2188  2306  2315  2220  2087  1995  1967  1962  1931  1862  1776  1686  1569  1393  1188  1028  919  772  522  232  23  -62  -74  -72  -84  -109  -125  -125  -116  -114  -123  -139  -151  -154  -154  -155  -153  -140  -120  -109  -100  -53  35  109  135  136  151  195  236  241  224  233  288  348  346  259  132  23  -34  -34  14  83  137  160  150  90  -30  -182  -321  -422  -470  -444  -343  -217  -142  -132  -161  -214  -262  -290  -319  -371  -434  -476  -469  -405  -306  -229  -241  -380  -601  -794  -882  -861  -759  -629  -536  -503  -504  -516  -537  -573  -616  -629  -588  -505  -415  -333  -267  -243  -313  -497  -728  -906  -995  -1009  -921  -682  -354  -102  -45  -168  -359  -500  -560  -567  -518  -362  -105  150  294  297  212  116  48  -29  -165  -331  -453  -497  -492  -473  -460  -461  -476  -497  -523  -560  -601  -616  -589  -567  -679  -1042  -1660  -2252  -2213  -1051  1210  4182  7240  9451  9919  8399  5390  1769  -1507  -3661  -4482  -4340  -3725  -3019  -2449  -2020  -1688  -1480  -1395  -1367  -1340  -1297  -1237  -1162  -1076  -967  -808  -607  -411  -269  -200  -186  -193  -196  -188  -179  -177  -179  -164  -88  90  347  605  833  1073  1324  1516  1609  1637  1659  1704  1765  1818  1829  1779  1661  1491  1325  1209  1131  1047  911  678  358  38  -195  -311  -323  -281  -280  -395  -595  -772  -866  -896  -910  -935  -969  -986  -972  -947  -932  -917  -872  -776  -647  -549  -520  -540  -569  -588  -597  -581  -507  -374  -255  -236  -306  -385  -427  -437  -424  -366  -241  -83  40  97  95  54  -13  -96  -169  -215  -247  -294  -356  -393  -359  -271  -202  -202  -254  -290  -267  -208  -152  -110  -85  -76  -84  -121  -194  -288  -375  -428  -450  -462  -470  -480  -506  -528  -519  -493  -478  -476  -465  -421  -345  -270  -220  -192  -172  -148  -103  -45  13  83  196  357  502  544  479  366  235  90  -46  -151  -212  -245  -286  -363  -483  -624  -740  -797  -807  -788  -746  -708  -785  -1108  -1591  -1791  -1212  311  2640  5443  8067  9609  9421  7489  4368  938  -1886  -3522  -3952  -3595  -2930  -2297  -1842  -1538  -1299  -1074  -874  -741  -685  -654  -595  -499  -401  -319  -250  -204  -193  -200  -184  -116  -6  111  228  377  592  843  1044  1142  1166  1172  1199  1279  1424  1607  1803  1999  2169  2279  2325  2332  2331  2332  2330  2311  2245  2097  1842  1519  1208  944  720  551  436  331  195  30  -151  -346  -519  -620  -662  -697  -746  -788  -808  -810  -808  -813  -828  -844  -846  -829  -795  -762  -737  -715  -677  -615  -541  -489  -469  -466  -464  -457  -437  -399  -366  -382  -451  -496  -460  -389  -342  -315  -308  -354  -475  -655  -810  -822  -697  -564  -501  -489  -489  -493  -522  -588  -652  -657  -603  -535  -483  -449  -418  -382  -367  -389  -402  -361  -277  -178  -69  37  115  146  115  11  -137  -264  -329  -354  -363  -354  -334  -330  -360  -429  -525  -619  -684  -712  -717  -717  -711  -689  -669  -732  -947  -1177  -1119  -504  844  2927  5426  7709  8948  8522  6437  3261  -93  -2617  -3754  -3708  -3105  -2559  -2351  -2313  -2189  -1932  -1584  -1215  -938  -789  -692  -562  -398  -267  -208  -199  -207  -218  -229  -243  -269  -316  -380  -426  -397  -246  9  291  524  699  877  1087  1268  1362  1384  1382  1400  1464  1569  1678  1756  1787  1740  1562  1261  935  656  416  205  45  -55  -116  -177  -265  -366  -466  -602  -803  -1025  -1189  -1265  -1280  -1274  -1267  -1264  -1258  -1250  -1251  -1275  -1314  -1343  -1353  -1354  -1360  -1372  -1366  -1300  -1143  -916  -697  -561  -506  -481  -465  -456  -446  -429  -418  -422  -445  -488  -547  -609  -644  -631  -577  -506  -444  -409  -399  -389  -347  -270  -194  -133  -58  33  113  158  171  170  168  172  175  147  54  -92  -246  -366  -458  -555  -662  -738  -753  -715  -656  -607  -586  -619  -743  -920  -987  -823  -554  -436  -480  -265  731  2668  5163  7370  8368  7641  5322  2145  -925  -3084  -3955  -3783  -3171  -2597  -2245  -2065  -1911  -1717  -1514  -1312  -1104  -912  -775  -710  -699  -685  -625  -534  -464  -437  -425  -381  -274  -133  -27  14  22  35  90  245  537  894  1176  1337  1430  1492  1538  1615  1786  2016  2187  2230  2162  2032  1893  1783  1702  1627  1526  1397  1259  1090  818  433  50  -191  -282  -309  -326  -331  -335  -391  -547  -777  -989  -1110  -1142  -1130  -1109  -1091  -1078  -1070  -1067  -1071  -1079  -1070  -998  -823  -574  -359  -257  -266  -348  -465  -569  -629  -665  -707  -734  -695  -597  -509  -477  -500  -553  -600  -616  -597  -552  -511  -484  -457  -427  -412  -420  -452  -496  -533  -551  -555  -552  -543  -534  -549  -624  -760  -901  -980  -981  -921  -840  -785  -794  -870  -971  -1030  -1014  -980  -1041  -1181  -1131  -420  1369  4136  7056  9031  9236  7436  4174  605  -2149  -3558  -3762  -3298  -2735  -2410  -2301  -2160  -1851  -1453  -1108  -878  -719  -567  -416  -310  -265  -247  -221  -168  -71  50  146  190  208  236  288  366  454  530  600  690  827  1017  1269  1613  2002  2287  2402  2413  2398  2390  2388  2383  2369  2350  2337  2327  2288  2179  1985  1739  1496  1302  1204  1200  1223  1155  914  567  287  152  86  -15  -164  -296  -368  -392  -397  -398  -402  -411  -422  -404  -306  -114  94  223  257  247  230  215  199  181  150  101  60  93  255  512  753  898  917  811  632  465  359  312  298  292  288  312  391  512  624  706  785  898  1028  1121  1156  1151  1096  965  792  658  589  552  513  450  375  320  296  287  272  243  201  164  172  236  241  52  -279  -534  -351  717  2881  5825  8767  10668  10604  8389  4804  1095  -1661  -2929  -2892  -2248  -1584  -1063  -670  -411  -252  -140  -61  -16  22  77  149  238  340  432  492  534  584  653  750  886  1037  1144  1188  1205  1223  1252  1321  1471  1679  1869  1989  2045  2072  2115  2210  2355  2519  2667  2766  2807  2803  2728  2542  2289  2085  1961  1829  1624  1395  1234  1147  1081  996  844  577  240  -44  -213  -302  -358  -406  -453  -492  -502  -492  -489  -508  -532  -519  -448  -352  -288  -291  -345  -402  -433  -445  -450  -452  -449  -447  -447  -452  -456  -446  -422  -397  -385  -387  -416  -488  -596  -699  -761  -787  -807  -840  -880  -910  -912  -894  -879  -877  -879  -891  -939  -1024  -1102  -1143  -1194  -1331  -1482  -1471  -1287  -1116  -1080  -1132  -1184  -1214  -1259  -1351  -1477  -1574  -1573  -1485  -1388  -1330  -1316  -1340  -1399  -1488  -1595  -1693  -1754  -1776  -1778  -1773  -1767  -1763  -1765  -1762  -1742  -1706  -1675  -1675  -1713  -1770  -1820  -1860  -1892  -1914  -1927  -1949  -1990  -2040  -2073  -2075  -2051  -2021  -1992  -1970  -1972  -2008  -2061  -2109  -2140  -2152  -2151  -2154  -2192  -2280  -2387  -2461  -2489  -2492  -2483  -2470  -2469  -2492  -2532  -2551  -2542  -2553  -2585  -2575  -2527  -2509  -2532  -2553  -2557  -2559  -2577  -2621  -2680  -2743  -2794  -2818  -2812  -2786  -2736  -2666  -2602  -2570  -2564  -2566  -2555  -2519  -2467  -2430  -2426  -2454  -2486  -2481  -2394  -2229  -2062  -1984  -1999  -2042  -2068  -2077  -2072  -2033  -1939  -1799  -1648  -1528  -1469  -1485  -1571  -1686  -1770  -1800  -1803  -1805  -1806  -1799  -1780  -1758  -1739  -1723  -1703  -1678  -1652  -1620  -1587  -1609  -1773  -2110  -2411  -2165  -872  1536  4578  7386  8987  8714  6640  3519  241  -2438  -3944  -4190  -3656  -2944  -2388  -2052  -1885  -1811  -1730  -1553  -1283  -1026  -873  -817  -796  -772  -738  -677  -556  -358  -98  188  446  621  717  773  826  885  942  995  1068  1197  1369  1522  1622  1712  1869  2105  2355  2563  2723  2871  3025  3154  3224  3261  3310  3361  3362  3295  3185  3025  2774  2442  2132  1952  1907  1934  1973  1993  1975  1886  1706  1494  1349  1301  1307  1334  1373  1417  1456  1491  1539  1621  1726  1813  1844  1804  1712  1652  1679  1742  1755  1714  1683  1699  1719  1699  1657  1632  1639  1663  1685  1702  1711  1707  1692  1674  1658  1619  1516  1343  1152  1012  947  933  930  909  852  743  588  437  369  424  581  792  998  1120  1077  830  465  159  8  -34  -38  -34  -26  -19  -27  -64  -118  -157  -173  -176  -171  -143  -77  6  71  96  84  36  -45  -136  -203  -239  -260  -267  -257  -246  -269  -356  -492  -615  -688  -721  -735  -738  -734  -728  -712  -648  -491  -285  -137  -91  -101  -115  -112  -94  -74  -69  -87  -114  -138  -162  -195  -218  -191  -118  -53  -55  -157  -347  -555  -725  -854  -952  -1006  -1001  -960  -921  -898  -876  -860  -906  -1103  -1461  -1847  -2092  -2003  -1253  450  3067  6152  8890  10229  9422  6665  2982  -480  -2894  -3958  -3991  -3545  -2951  -2355  -1851  -1461  -1199  -1068  -1027  -1015  -949  -751  -466  -239  -135  -91  -48  -6  21  41  64  87  95  87  74  91  209  472  798  1027  1099  1083  1056  1053  1090  1178  1309  1469  1626  1751  1844  1930  2014  2068  2067  2004  1898  1780  1666  1543  1382  1153  856  556  347  241  175  96  -15  -158  -321  -476  -599  -692  -773  -844  -906  -963  -1015  -1051  -1063  -1045  -980  -851  -691  -565  -463  -322  -148  -46  -87  -220  -312  -288  -208  -148  -104  -38  62  152  174  152  136  121  118  162  244  320  367  388  397  413  451  508  556  558  521  495  501  518  517  480  401  296  205  145]
