reading_id,reading_time,wire_id,result_classification,heart_rate,heart_rate_alert,firmware_version,device_app_version,hardware_version,waveform_samples
9d5651c0-6a19-11ed-8080-808080808080,Tue Nov 22 03:56:16 UTC 2022,a101e3f91939,UNCLASSIFIABLE,115,NONE,20001.171.50,2.10.0,Charge 5,[3725  3831  3894  3909  3901  3900  3926  3975  4033  4104  4210  4341  4441  4484  4504  4523  4525  4504  4470  4433  4392  4340  4259  4113  3876  3579  3306  3115  2998  2917  2792  2501  2010  1443  974  688  531  392  220  54  -62  -123  -142  -144  -144  -134  -96  -30  32  81  129  163  136  12  -190  -406  -578  -690  -742  -747  -734  -731  -749  -752  -709  -649  -595  -495  -309  -97  45  105  129  122  57  -57  -184  -291  -331  -286  -205  -147  -125  -136  -194  -317  -477  -612  -687  -679  -562  -368  -182  -78  -105  -349  -904  -1599  -1841  -1083  623  2705  4374  4808  3671  1527  -708  -2484  -3550  -3833  -3605  -3196  -2646  -1993  -1436  -1099  -948  -860  -707  -495  -335  -276  -270  -270  -281  -336  -437  -550  -659  -795  -954  -1076  -1122  -1091  -991  -856  -751  -690  -604  -416  -162  29  96  71  -5  -106  -191  -224  -216  -223  -272  -342  -412  -478  -559  -707  -924  -1121  -1219  -1254  -1367  -1671  -2095  -2439  -2617  -2696  -2747  -2803  -2861  -2859  -2735  -2546  -2410  -2374  -2383  -2350  -2220  -2029  -1874  -1794  -1744  -1667  -1556  -1456  -1422  -1451  -1476  -1419  -1240  -1001  -776  -543  -274  -18  181  331  456  579  696  786  834  829  791  754  734  729  752  834  968  1093  1157  1161  1136  1110  1071  977  837  724  661  589  442  262  244  459  694  749  654  638  1046  2124  3749  5362  6166  5558  3563  870  -1598  -3151  -3560  -3086  -2219  -1324  -550  67  507  763  871  889  842  731  582  471  455  532  645  732  781  812  842  887  952  1007  1026  1034  1082  1184  1281  1313  1292  1273  1283  1328  1416  1527  1622  1684  1703  1688  1648  1540  1318  1029  768  544  264  -109  -495  -799  -1001  -1152  -1333  -1598  -1919  -2230  -2498  -2723  -2882  -2954  -2959  -2941  -2913  -2852  -2750  -2646  -2587  -2572  -2558  -2510  -2453  -2435  -2465  -2502  -2516  -2511  -2505  -2521  -2578  -2661  -2729  -2756  -2738  -2658  -2496  -2292  -2139  -2080  -2082  -2098  -2114  -2120  -2096  -2014  -1888  -1767  -1688  -1655  -1651  -1655  -1655  -1650  -1650  -1676  -1724  -1770  -1795  -1806  -1813  -1825  -1837  -1814  -1680  -1412  -1142  -1034  -1127  -1422  -1835  -2045  -1613  -336  1569  3549  4788  4466  2451  -445  -3179  -4991  -5460  -4763  -3628  -2684  -2147  -1945  -1864  -1690  -1349  -935  -613  -462  -415  -356  -262  -187  -145  -107  -54  17  107  198  273  325  359  386  431  523  649  770  895  1058  1252  1440  1602  1718  1758  1711  1609  1506  1442  1422  1424  1436  1452  1452  1390  1224  965  673  399  157  -61  -255  -394  -467  -500  -504  -490  -496  -551  -657  -805  -966  -1086  -1128  -1060  -851  -556  -317  -215  -212  -233  -239  -217  -173  -120  -74  -48  -59  -110  -179  -229  -246  -245  -236  -227  -226  -245  -271  -264  -216  -160  -122  -102  -100  -145  -262  -424  -572  -686  -782  -867  -920  -918  -862  -785  -725  -694  -687  -720  -829  -1006  -1190  -1294  -1289  -1278  -1341  -1298  -864  80  1446  2919  3894  3745  2333  101  -2260  -4023  -4661  -4276  -3438  -2605  -1998  -1666  -1491  -1352  -1229  -1131  -1032  -900  -751  -627  -538  -455  -346  -211  -69  56  152  216  259  306  385  524  708  857  932  987  1087  1266  1497  1692  1792  1833  1888  1968  2039  2099  2179  2260  2245  2061  1784  1570  1462  1387  1303  1228  1160  1060  909  700  433  153  -56  -169  -229  -281  -310  -294  -258  -238  -236  -242  -253  -271  -297  -319  -309  -233  -91  60  163  213  236  236  198  101  -50  -205  -313  -375  -400  -363  -249  -74  148  377  541  617  652  687  729  780  843  904  951  978  977  910  729  459  238  168  202  245  263  266  256  218  145  74  86  171  172  -10  -173  64  948  2448  4197  5427  5374  3893  1510  -934  -2633  -3156  -2652  -1692  -847  -366  -146  22  245  510  747  891  944  955  964  981  994  980  940  937  1045  1241  1422  1533  1592  1626  1652  1678  1719  1814  1967  2127  2242  2305  2345  2395  2470  2570  2702  2869  3036  3152  3199  3184  3111  2976  2778  2497  2124  1731  1415  1181  977  778  589  397  214  85  26  10  14  33  59  83  101  111  110  96  67  35  30  53  80  104  116  97  50  -13  -72  -96  -81  -57  -45  -43  -45  -48  -53  -56  -45  -2  61  118  156  184  218  265  326  393  447  459  394  235  26  -139  -216  -226  -212  -202  -217  -269  -342  -398  -426  -448  -489  -536  -564  -573  -570  -596  -707  -753  -391  524  1858  3334  4427  4482  3247  1124  -1162  -2974  -3895  -3876  -3297  -2602  -1988  -1514  -1171  -872  -583  -374  -304  -355  -455  -534  -550  -493  -396  -308  -246  -199  -157  -109  -17  154  365  536  626  649  632  608  647  841  1192  1557  1784  1857  1852  1830  1811  1806  1817  1826  1788  1670  1506  1375  1315  1301  1273  1177  994  711  323  -83  -365  -475  -483  -476  -505  -576  -663  -732  -766  -774  -770  -765  -760  -751  -733  -703  -659  -585  -453  -290  -170  -125  -121  -129  -144  -183  -255  -351  -442  -498  -531  -580  -645  -679  -637  -532  -405  -273  -148  -50  19  79  127  147  123  50  -47  -127  -162  -165  -175  -222  -295  -364  -427  -510  -609  -692  -735  -746  -747  -745  -746  -782  -941  -1266  -1546  -1401  -598  815  2483  3759  3951  2717  366  -2325  -4553  -5724  -5674  -4808  -3731  -2755  -1962  -1460  -1269  -1240  -1227  -1193  -1146  -1102  -1065  -1030  -998  -978  -975  -979  -971  -937  -880  -816  -757  -708  -681  -683  -685  -613  -397  -56  303  598  825  1018  1191  1344  1480  1600  1688  1725  1714  1656  1542  1392  1247  1072  785  424  132  -45  -168  -296  -482  -768  -1103  -1361  -1482  -1518  -1542  -1579  -1601  -1573  -1508  -1434  -1369  -1326  -1308  -1304  -1306  -1307  -1308  -1308  -1306  -1305  -1308  -1298  -1236  -1095  -886  -673  -533  -478  -469  -498  -579  -704  -843  -956  -1018  -1034  -1000  -894  -723  -543  -409  -338  -319  -334  -364  -384  -382  -362  -325  -277  -260  -307  -388  -455  -505  -565  -654  -748  -799  -792  -747  -681  -634  -693  -892  -1177  -1410  -1338  -717  490  2076  3651  4664  4532  3082  793  -1555  -3291  -4019  -3783  -3050  -2334  -1842  -1468  -1054  -641  -378  -271  -171  -5  131  163  167  215  298  382  409  381  384  460  572  676  747  777  788  811  869  977  1158  1451  1876  2362  2741  2920  2963  2960  2946  2917  2850  2727  2586  2482  2401  2284  2111  1909  1708  1491  1221  928  702  570  466  322  126  -81  -250  -362  -433  -485  -523  -543  -547  -546  -545  -542  -534  -517  -490  -454  -426  -423  -442  -465  -488  -522  -581  -648  -678  -651  -617  -629  -684  -738  -747  -717  -682  -651  -619  -592  -566  -521  -435  -301  -148  -50  -59  -134  -211  -272  -326  -389  -486  -609  -707  -757  -770  -752  -675  -528  -347  -196  -127  -183  -344  -483  -516  -551  -720  -920  -781  46  1574  3368  4603  4501  2968  618  -1743  -3469  -4241  -4156  -3561  -2760  -1940  -1249  -804  -584  -478  -415  -385  -378  -375  -356  -305  -220  -118  -24  49  111  164  212  266  329  391  460  552  657  736  765  778  881  1156  1543  1872  2032  2057  2032  2005  1979  1951  1936  1942  1961  1974  1968  1936  1873  1777  1655  1507  1320  1085  841  642  497  379  276  191  134  111  113  129  153  173  183  177  151  103  40  -21  -57  -38  50  177  266  253  127  -52  -188  -234  -191  -67  92  207  240  219  187  168  165  170  192  249  340  432  509  585  654  680  654  608  565  532  496  419  282  136  47  23  29  29  25  40  80  137  210  290  376  444  385  97  -285  -423  14  1151  2720  4164  4876  4424  2828  570  -1730  -3500  -4345  -4219  -3373  -2236  -1247  -615  -292  -148  -84  -61  -58  -53  -35  -12  10  30  37  26  15  20  42  81  132  188  246  312  403  513  618  746  937  1147  1294  1381  1476  1608  1733  1814  1855  1879  1887  1869  1818  1720  1556  1336  1094  865  671  490  249  -83  -445  -745  -941  -1054  -1147  -1277  -1435  -1552  -1596  -1590  -1563  -1535  -1514  -1491  -1454  -1401  -1345  -1319  -1336  -1369  -1391  -1402  -1408  -1395  -1351  -1286  -1237  -1218  -1218  -1228  -1254  -1306  -1377  -1432  -1435  -1389  -1332  -1283  -1219  -1099  -901  -671  -487  -349  -209  -86  -23  0  11  -12  -128  -349  -537  -506  -307  -168  -186  -295  -418  -519  -602  -670  -691  -639  -504  -344  -314  -503  -775  -818  -301  901  2555  4077  4697  3923  1966  -424  -2522  -3839  -4111  -3522  -2607  -1769  -1157  -782  -557  -371  -188  -40  48  104  178  281  370  412  418  418  431  470  555  699  863  989  1075  1170  1287  1387  1447  1487  1538  1619  1722  1844  2027  2290  2551  2701  2710  2614  2470  2326  2198  2080  1979  1883  1756  1593  1418  1237  1025  750  419  101  -128  -253  -306  -332  -364  -440  -598  -837  -1061  -1140  -1072  -969  -908  -882  -857  -825  -809  -830  -878  -930  -976  -981  -887  -728  -609  -564  -568  -603  -641  -653  -637  -609  -588  -581  -576  -561  -532  -489  -434  -382  -347  -328  -326  -370  -492  -657  -778  -815  -799  -772  -757  -756  -762  -764  -749  -719  -674  -609  -537  -467  -371  -264  -245  -386  -641  -823  -617  213  1592  3130  4214  4218  2938  739  -1683  -3586  -4438  -4197  -3284  -2216  -1354  -817  -535  -412  -380  -380  -365  -301  -178  -31  77  119  119  120  152  221  338  523  742  932  1084  1213  1301  1348  1391  1455  1541  1675  1877  2098  2260  2349  2408  2475  2563  2654  2695  2642  2505  2334  2155  1956  1755  1608  1532  1479  1381  1210  965  654  335  104  -2  -42  -95  -202  -355  -517  -646  -718  -742  -737  -688  -551  -320  -95  -31  -151  -333  -471  -546  -593  -644  -693  -716  -703  -680  -680  -718  -776  -819  -828  -820  -813  -792  -738  -664  -625  -672  -798  -940  -1027  -1050  -1040  -1028  -1029  -1062  -1132  -1213  -1266  -1280  -1272  -1264  -1275  -1327  -1419  -1523  -1601  -1639  -1648  -1661  -1720  -1855  -2101  -2383  -2410  -1879  -743  786  2270  3033  2542  870  -1395  -3529  -4959  -5430  -5076  -4333  -3561  -2831  -2146  -1595  -1258  -1106  -1030  -959  -896  -854  -811  -745  -653  -549  -445  -323  -142  90  307  459  545  577  596  686  909  1197  1405  1496  1551  1623  1707  1816  1981  2183  2374  2524  2625  2676  2680  2642  2555  2418  2243  2047  1818  1531  1192  873  660  561  495  370  166  -43  -184  -263  -320  -363  -387  -397  -408  -429  -453  -478  -511  -544  -544  -482  -368  -229  -68  107  240  261  142  -66  -275  -432  -538  -571  -517  -416  -332  -283  -259  -245  -239  -236  -229  -202  -150  -97  -87  -136  -212  -282  -333  -386  -463  -548  -620  -675  -711  -706  -650  -567  -506  -515  -587  -673  -728  -716  -657  -689  -859  -906  -506  457  1890  3366  4172  3759  2121  -241  -2588  -4230  -4764  -4290  -3262  -2101  -1147  -616  -423  -350  -305  -291  -304  -335  -385  -436  -430  -323  -145  14  104  145  186  271  423  623  816  968  1081  1166  1228  1282  1373  1564  1887  2296  2663  2873  2923  2875  2775  2660  2572  2535  2542  2568  2572  2512  2400  2259  2043  1689  1240  827  553  401  277  132  -14  -160  -327  -497  -621  -665  -608  -431  -193  -24  -14  -154  -357  -504  -534  -447  -282  -111  -12  -16  -107  -240  -352  -401  -358  -208  1  167  243  263  269  252  169  7  -173  -291  -323  -284  -190  -81  -13  3  -6  -40  -114  -237  -380  -491  -541  -550  -543  -523  -478  -418  -378  -377  -402  -410  -376  -376  -519  -728  -695  -125  1037  2531  3798  4151  3184  1108  -1403  -3574  -4751  -4688  -3722  -2477  -1450  -875  -710  -720  -681  -490  -152  211  442  498  452  384  332  300  281  271  269  289  346  441  543  622  690  792  950  1155  1353  1475  1530  1612  1787  2017  2196  2278  2312  2382  2500  2565  2499  2360  2248  2181  2109  1953  1678  1345  1055  850  720  641  562  390  58  -342  -624  -715  -687  -620  -556  -515  -493  -477  -471  -483  -500  -504  -497  -495  -511  -540  -554  -531  -484  -445  -432  -437  -449  -463  -477  -466  -383  -207  -4  124  148  104  44  0  -30  -58  -60  -16  48  65  -38  -276  -548  -724  -777  -766  -745  -726  -695  -630  -549  -501  -527  -627  -786  -954  -1061  -1097  -1089  -1007  -746  -134  930  2291  3442  3686  2646  597  -1773  -3703  -4631  -4507  -3754  -2862  -2083  -1442  -896  -448  -133  43  118  143  153  155  158  189  253  329  414  509  590  641  677  715  752  789  856  1000  1219  1449  1641  1804  1961  2105  2212  2264  2275  2282  2303  2318  2284  2193  2110  2077  2026  1894  1725  1582  1464  1312  1079  824  662  624  608  437  10  -540  -947  -1101  -1107  -1085  -1077  -1074  -1067  -1045  -1010  -982  -972  -984  -1023  -1059  -1085  -1128  -1172  -1166  -1091  -976  -876  -827  -831  -883  -980  -1109  -1245  -1348  -1375  -1294  -1146  -1041  -1027  -1069  -1128  -1187  -1232  -1260  -1277  -1293  -1301  -1300  -1303  -1333  -1402  -1494  -1576  -1642  -1700  -1736  -1734  -1696  -1645  -1590  -1493  -1324  -1187  -1281  -1662  -2077  -2054  -1243  274  2033  3358  3531  2242  -97  -2661  -4635  -5450  -5045  -3944  -2839  -2103  -1731  -1557  -1394  -1151  -893  -713  -596  -479  -344  -222  -152  -141  -162  -166  -91  94  336  532  636  672  682  692  702  704  707  765  933  1179  1387  1515  1637  1837  2096  2333  2500  2580  2553  2413  2189  1936  1709  1516  1313  1095  903  764  657  553  435  281  57  -266  -650  -958  -1072  -1004  -855  -716  -608  -524  -495  -548  -655  -737  -723  -632  -551  -526  -531  -529  -505  -459  -401  -345  -305  -284  -280  -289  -293  -255  -154  -38  3  -44  -114  -153  -162  -158  -151  -147  -153  -189  -266  -364  -442  -485  -513  -545  -566  -541  -463  -380  -323  -313  -426  -653  -842  -951  -996  -838  -344  508  1684  2889  3526  3082  1491  -779  -2986  -4450  -4791  -4127  -2983  -1876  -1077  -614  -346  -142  1  81  145  214  265  284  286  286  288  299  340  428  566  725  851  932  1007  1123  1292  1500  1703  1842  1921  2000  2096  2180  2244  2300  2350  2393  2431  2463  2482  2490  2485  2458  2397  2294  2141  1923  1658  1388  1110  812  553  401  295  122  -109  -294  -377  -394  -405  -432  -452  -449  -440  -440  -444  -447  -434  -410  -394  -397  -414  -436  -454  -466  -467  -439  -360  -246  -146  -82  -53  -69  -124  -191  -250  -300  -339  -362  -353  -291  -181  -67  0  6  -58  -208  -422  -613  -711  -725  -703  -677  -676  -753  -927  -1081  -1079  -1027  -1131  -1297  -1140  -366  1023  2639  3719  3569  2066  -326  -2825  -4631  -5234  -4671  -3469  -2223  -1314  -867  -752  -731  -663  -506  -281  -70  48  77  64  47  36  45  105  251  467  681  848  974  1069  1127  1161  1198  1255  1339  1449  1587  1753  1938  2116  2269  2392  2477  2522  2540  2539  2516  2469  2406  2328  2201  1968  1624  1265  1003  863  802  760  676  511  272  -4  -288  -545  -731  -832  -869  -871  -860  -843  -821  -799  -791  -795  -778  -705  -599  -536  -543  -581  -611  -621  -615  -604  -587  -564  -558  -594  -647  -672  -640  -542  -393  -221  -65  31  44  -28  -177  -369  -549  -657  -667  -618  -575  -568  -582  -601  -630  -670  -673  -600  -557  -723  -1121  -1562  -1694  -1154  122  1753  3074  3426  2465  457  -1895  -3956  -5265  -5524  -4863  -3718  -2378  -1111  -307  -49  -39  -36  -7  24  75  165  292  423  521  575  602  605  590  572  567  588  646  744  855  926  970  1107  1445  1908  2282  2452  2482  2468  2453  2434  2392  2330  2277  2260  2278  2316  2337  2299  2196  2070  1945  1752  1415  995  640  406  249  90  -133  -391  -574  -642  -649  -648  -635  -579  -495  -432  -413  -417  -431  -463  -522  -578  -583  -541  -489  -448  -423  -413  -413  -418  -419  -405  -376  -345  -335  -360  -422  -488  -522  -526  -525  -530  -539  -542  -542  -552  -589  -659  -736  -791  -814  -821  -821  -814  -801  -806  -883  -1035  -1171  -1316  -1635  -2038  -2112  -1499  -107  1814  3582  4256  3264  875  -2069  -4604  -5934  -5876  -4942  -3780  -2813  -2179  -1762  -1448  -1261  -1204  -1198  -1182  -1157  -1112  -998  -799  -587  -458  -440  -477  -462  -268  149  658  1042  1201  1199  1154  1145  1198  1307  1446  1591  1711  1786  1848  1952  2110  2272  2379  2434  2475  2482  2377  2132  1803  1491  1268  1132  1049  1002  943  810  614  411  194  -50  -284  -456  -552  -579  -559  -520  -474  -427  -391  -379  -400  -465  -553  -624  -663  -674  -674  -684  -725  -787  -829  -823  -789  -750  -685  -558  -388  -221  -59  94  173  140  44  -28  -50  -54  -90  -202  -388  -579  -706  -764  -787  -795  -796  -797  -817  -843  -799  -676  -644  -786  -952  -1063  -1118  -937  -251  1065  2768  4134  4319  2931  336  -2518  -4640  -5473  -5120  -4181  -3195  -2255  -1366  -771  -577  -560  -495  -346  -190  -90  -50  -32  1  51  85  86  69  48  24  6  53  251  594  935  1136  1190  1171  1151  1186  1338  1609  1895  2093  2192  2241  2275  2308  2330  2300  2184  2019  1875  1750  1586  1357  1088  823  592  402  245  103  -78  -340  -612  -786  -866  -940  -1040  -1125  -1167  -1174  -1148  -1080  -990  -935  -946  -987  -1005  -969  -869  -745  -657  -608  -559  -484  -389  -300  -246  -232  -238  -245  -227  -146  6  184  331  431  475  438  298  98  -79  -214  -318  -384  -412  -434  -478  -538  -590  -624  -647  -654  -607  -471  -289  -238  -498  -975  -1266  -896  468  2621  4618  5391  4451  2087  -844  -3385  -4831  -4996  -4279  -3213  -2159  -1378  -956  -734  -510  -258  -81  -20  3  78  202  299  321  292  272  318  436  578  703  810  910  1007  1097  1182  1261  1324  1382  1468  1608  1791  1983  2158  2299  2403  2463  2460  2380  2239  2084  1972  1930  1936  1958  1976  1958  1830  1526  1101  718  477  344  216  15  -229  -426  -537  -574  -535  -430  -315  -245  -232  -265  -330  -417  -512  -596  -645  -634  -550  -410  -254  -117  -29  -19  -94  -213  -314  -365  -379  -378  -370  -351  -317  -280  -278  -344  -453  -539  -571  -569  -557  -554  -576  -638  -723  -796  -849  -890  -915  -913  -888  -868  -911  -1035  -1252  -1662  -2189  -2335  -1669  -236  1665  3491  4394  3783  1816  -825  -3370  -5081  -5520  -4914  -3814  -2553  -1421  -765  -603  -658  -712  -709  -668  -625  -593  -565  -523  -456  -343  -179  -8  140  278  398  475  517  560  635  759  912  1058  1195  1336  1462  1553  1662  1862  2146  2413  2567  2592  2518  2380  2237  2146  2100  2040  1937  1803  1642  1454  1262  1098  922  668  362  105  -52  -139  -193  -241  -294  -345  -394  -442  -480  -498  -501  -495  -475  -421  -326  -221  -149  -145  -235  -415  -617  -744  -756  -675  -561  -474  -435  -427  -427  -433  -455  -493  -502  -423  -267  -125  -59  -63  -121  -234  -393  -561  -695  -761  -750  -700  -671  -681  -682  -647  -600  -575  -657  -925  -1298  -1605  -1706  -1441  -630  759  2424  3709  3946  2883  804  -1636  -3682  -4769  -4797  -4113  -3169  -2282  -1627  -1223  -997  -876  -785  -682  -574  -472  -369  -264  -166  -79  -9  30  57  126  262  421  528  570  602  673  813  1028  1269  1443  1517  1541  1586  1687  1840  1993  2088  2122  2149  2197  2217  2162  2053  1927  1781  1636  1537  1473  1360  1136  828  526  296  137  -1  -172  -361  -492  -499  -413  -334  -342  -445  -581  -667  -679  -621  -487  -316  -189  -142  -142  -164  -205  -259  -309  -352  -387  -407  -411  -408  -406  -407  -414  -414  -373  -252  -78  69  147  163  140  97  42  -23  -103  -225  -389  -536  -610  -622  -613  -604  -593  -581  -567  -534  -475  -466  -673  -1157  -1701  -1891  -1279  299  2374  4027  4483  3430  1148  -1508  -3642  -4791  -4871  -4083  -2978  -2148  -1760  -1579  -1349  -1032  -755  -595  -503  -396  -257  -142  -84  -54  -16  19  13  -44  -111  -126  -31  184  431  586  638  698  854  1069  1253  1408  1611  1861  2065  2158  2152  2079  1970  1865  1803  1810  1879  1939  1898  1711  1417  1109  846  628  455  340  262  128  -123  -422  -632  -718  -756  -803  -846  -828  -733  -645  -653  -732  -798  -820  -813  -796  -766  -701  -622  -596  -634  -674  -680  -668  -656  -641  -601  -519  -420  -353  -332  -337  -350  -361  -362  -320  -205  -49  66  106  99  73  39  3  -32  -73  -126  -177  -208  -229  -277  -370  -490  -609  -727  -850  -958  -1054  -1207  -1334  -1033  45  1757  3531  4602  4317  2617  163  -2167  -3790  -4472  -4288  -3621  -2875  -2111  -1260  -486  -9  174  207  198  189  180  170  163  173  217  289  368  478  673  928  1135  1246  1305  1349  1381  1398  1421  1489  1606  1730  1839  1994  2263  2594  2853  2967  2971  2923  2845  2743  2641  2582  2572  2569  2501  2310  2008  1666  1333  1049  869  769  654  483  314  210  167  146  128  116  89  3  -147  -305  -412  -452  -427  -318  -120  101  247  291  284  268  245  204  146  89  53  45  65  107  158  198  219  229  242  274  343  461  601  697  726  718  711  720  723  658  459  161  -95  -215  -226  -210  -213  -245  -297  -360  -424  -473  -476  -420  -372  -433  -545  -423  287  1742  3637  5191  5542  4297  1815  -1010  -3265  -4366  -4260  -3424  -2452  -1669  -1166  -919  -830  -800  -780  -747  -695  -631  -570  -499  -371  -172  36  178  238  250  244  232  221  222  254  322  435  600  781  911  964  965  949  950  1016  1200  1481  1741  1870  1855  1754  1638  1539  1410  1194  927  704  545  384  168  -100  -386  -650  -860  -997  -1066  -1115  -1193  -1296  -1384  -1450  -1527  -1623  -1723  -1816  -1895  -1934  -1912  -1839  -1745  -1647  -1538  -1419  -1292  -1144  -997  -938  -1019  -1170  -1258  -1217  -1104  -1010  -964  -936  -909  -906  -954  -1045  -1124  -1145  -1113  -1052  -965  -846  -723  -633  -593  -594  -625  -678  -739  -779  -771  -733  -712  -728  -746  -752  -796  -919  -1070  -1163  -1153  -1051  -901  -764  -721  -897  -1271  -1481  -1084  122  2032  4102  5363  4971  2877  -121  -2955  -4758  -5136  -4367  -3174  -2180  -1608  -1357  -1219  -1074  -923  -799  -689  -553  -394  -274  -229  -238  -265  -286  -290  -268  -207  -113  -29  0  -28  -80  -85  24  259  546  798  974  1080  1145  1196  1243  1308  1423  1569  1686  1745  1754  1711  1603  1455  1321  1219  1086  846  542  308  175  35  -204  -545  -919  -1212  -1351  -1358  -1291  -1200  -1115  -1064  -1066  -1110  -1150  -1133  -1036  -900  -792  -738  -719  -714  -714  -724  -760  -841  -959  -1058  -1067  -975  -828  -687  -597  -567  -577  -594  -597  -572  -531  -492  -461  -438  -416  -375  -317  -263  -226  -209  -192  -144  -56  56  171  255  287  274  220  102  -80  -264  -369  -389  -368  -343  -328  -322  -323  -333  -339  -330  -352  -464  -687  -1010  -1235  -938  140  1877  3917  5695  6465  5717  3604  808  -1909  -3898  -4744  -4477  -3509  -2290  -1153  -350  23  91  50  16  18  42  67  84  112  172  270  391  516  628  730  841  961  1062  1115  1134  1177  1300  1498  1691  1814  1875  1922  1996  2125  2321  2546  2721  2799  2794  2739  2650  2553  2476  2401  2268  2025  1700  1420  1273  1212  1117  924  653  389  189  26  -155  -359  -533  -600  -529  -382  -261  -212  -221  -271  -366  -499  -626  -700  -721  -719  -705  -664  -590  -503  -437  -415  -432  -461  -479  -486  -495  -516  -545  -565  -557  -530  -518  -534  -534  -469  -362  -280  -254  -261  -269  -262  -247  -243  -250  -248  -211  -123  0  83  19  -250  -628  -899  -934  -761  -511  -328  -265  -305  -427  -600  -771  -905  -979  -960  -911  -973  -1088  -917  -92  1493  3511  5216  5761  4658  2198  -670  -3017  -4322  -4474  -3823  -2932  -2162  -1613  -1272  -1084  -975  -869  -715  -499  -256  -59  37  47  22  5  0  -11  -30  -22  46  186  372  573  768  930  1047  1150  1264  1370  1461  1560  1695  1875  2085  2287  2438  2510  2504  2438  2346  2256  2157  2032  1889  1732  1548  1343  1142  917  636  332  75  -110  -257  -389  -488  -541  -561  -566  -563  -554  -546  -537  -525  -508  -502  -524  -570  -593  -579  -576  -581  -546  -481  -430  -404  -397  -404  -410  -403  -386  -367  -353  -349  -375  -449  -551  -627  -657  -653  -622  -552  -451  -351  -277  -220  -168  -111  -57  -21  -11  -17  -30  -43  -50  -60  -94  -167  -268  -372  -460  -526  -573  -610  -636  -636  -595  -530  -512  -623  -867  -1174  -1359  -1084  -94  1571  3595  5325  5898  4848  2454  -495  -3116  -4684  -4974  -4430  -3597  -2728  -2032  -1601  -1287  -989  -764  -635  -537  -428  -331  -276  -259  -253  -236  -212  -207  -232  -241  -155  58  328  539  656  722  788  872  963  1061  1204  1425  1673  1870  2002  2094  2152  2178  2190  2200  2204  2180  2102  1950  1716  1415  1121  907  741  550  337  165  59  -40  -223  -515  -849  -1110  -1224  -1181  -1004  -774  -609  -554  -572  -625  -692  -749  -774  -759  -720  -689  -684  -697  -715  -736  -758  -771  -755  -701  -637  -586  -539  -481  -405  -325  -282  -317  -402  -457  -445  -390  -331  -290  -258  -217  -158  -91  -39  -19  -40  -109  -201  -269  -301  -316  -332  -356  -392  -427  -449  -467  -489  -510  -511  -464  -353  -200  -81  -91  -296  -650  -900  -644  433  2242  4210  5565  5653  4288  1960  -544  -2592  -3774  -4008  -3565  -2830  -2066  -1400  -909  -611  -445  -341  -265  -201  -137  -59  31  123  205  275  329  362  382  410  472  575  692  785  844  897  979  1115  1312  1572  1863  2108  2252  2323  2391  2502  2656  2806  2875  2806  2601  2330  2104  1997  1972  1916  1736  1450  1145  861  595  344  128  -37  -178  -328  -466  -564  -635  -710  -790  -847  -879  -904  -929  -938  -915  -865  -823  -809  -791  -748  -712  -706  -715  -723  -726  -726  -717  -692  -661  -639  -621  -601  -575  -546  -528  -527  -536  -547  -557  -560  -537  -467  -372  -314  -333  -414  -512  -604  -690  -763  -810  -836  -852  -860  -867  -895  -965  -1043  -1065  -1028  -968  -870  -754  -771  -1041  -1418  -1518  -963  393  2266  3877  4370  3407  1340  -1122  -3272  -4536  -4752  -4259  -3471  -2625  -1923  -1492  -1287  -1175  -1074  -1000  -969  -946  -892  -800  -695  -606  -540  -492  -438  -363  -272  -182  -94  16  197  433  631  736  785  832  912  1059  1288  1563  1820  2014  2129  2175  2181  2176  2169  2150  2111  2044  1942  1813  1670  1477  1186  849  580  402  252  92  -75  -231  -374  -519  -669  -816  -966  -1081  -1075  -958  -842  -817  -881  -979  -1054  -1085  -1077  -1014  -877  -692  -542  -502  -553  -610  -628  -624  -619  -612  -591  -563  -539  -529  -531  -527  -495  -426  -341  -255  -164  -66  15  67  89  82  42  -30  -115  -196  -281  -383  -490  -576  -623  -633  -630  -638  -662  -661  -551  -330  -189  -295  -572  -877  -1058  -844  -29  1344  3022  4503  5072  4222  2109  -529  -2846  -4169  -4208  -3298  -2192  -1392  -937  -699  -570  -480  -405  -331  -247  -156  -80  -41  -31  12  159  399  639  807  898  945  985  1043  1124  1218  1302  1364  1409  1458  1538  1660  1796  1920  2054  2245  2481  2689  2812  2848  2827  2791  2759  2706  2588  2382  2108  1804  1491  1189  930  729  559  364  134  -86  -252  -343  -369  -371  -393  -457  -555  -655  -716  -716  -653  -551  -453  -386  -345  -309  -268  -246  -271  -342  -425  -491  -538  -555  -479  -263  6  154  120  13  -60  -112  -157  -148  -72  8  51  65  72  81  92  100  78  -6  -159  -334  -465  -527  -541  -532  -500  -442  -385  -380  -443  -554  -679  -762  -772  -756  -809  -1007  -1218  -983  154  2151  4292  5488  4835  2236  -1327  -4478  -6347  -6763  -6113  -5090  -4183  -3459  -2842  -2342  -1951  -1593  -1270  -1051  -949  -913  -900  -878  -836  -754  -610  -436  -307  -241  -167  -1  240  440  551  659  830  1039  1232  1366  1441  1496  1580  1702  1845  1975  2062  2098  2105  2109  2117  2118  2099  2039  1915  1755  1625  1531  1390  1142  825  544  355  217  58  -116  -258  -356  -442  -537  -623  -690  -738  -739  -669  -551  -422  -315  -259  -249  -257  -267  -275  -283  -292  -298  -294  -280  -258  -233  -212  -196  -181  -167  -163  -184  -243  -318  -360  -343  -289  -239  -219  -226  -241  -255  -274  -307  -369  -459  -549  -601  -616  -628  -658  -686  -679  -626  -555  -516  -567  -766  -1095  -1389  -1379  -805  439  2172  3878  4835  4489  2832  444  -1896  -3563  -4198  -3869  -3018  -2119  -1472  -1160  -1046  -950  -809  -648  -502  -386  -293  -214  -171  -181  -213  -224  -209  -160  -3  344  790  1120  1237  1219  1162  1125  1128  1157  1189  1229  1316  1498  1766  2036  2230  2324  2341  2321  2279  2203  2080  1931  1811  1744  1690  1581  1381  1096  782  519  336  185  12  -179  -358  -490  -564  -622  -719  -844  -903  -823  -648  -492  -419  -405  -411  -423  -447  -485  -525  -552  -563  -564  -548  -499  -420  -343  -299  -289  -298  -314  -330  -341  -349  -349  -343  -340  -342  -343  -341  -335  -330  -333  -343  -354  -371  -407  -455  -490  -499  -491  -485  -502  -554  -624  -681  -750  -908  -1166  -1386  -1276  -533  854  2523  3905  4343  3437  1448  -913  -2963  -4216  -4478  -3915  -2948  -2001  -1289  -839  -597  -486  -432  -383  -330  -273  -212  -139  -43  60  133  164  181  207  236  264  339  519  777  1007  1140  1195  1228  1278  1365  1477  1590  1697  1803  1921  2060  2199  2300  2342  2332  2274  2148  1951  1743  1590  1490  1380  1213  980  696  417  187  -25  -241  -407  -489  -510  -504  -499  -529  -618  -738  -825  -861  -881  -913  -955  -997  -1031  -1048  -1021  -922  -765  -607  -477  -382  -339  -371  -462  -565  -641  -677  -686  -676  -637  -556  -453  -369  -330  -323  -327  -335  -358  -406  -502  -666  -855  -971  -968  -898  -832  -798  -786  -796  -848  -939  -997  -999  -1084  -1350  -1640  -1610  -908  596  2535  4073  4373  3137  823  -1697  -3623  -4446  -4201  -3427  -2638  -2054  -1659  -1298  -921  -621  -417  -265  -166  -133  -133  -131  -104  -55  3  77  179  292  378  412  396  348  306  321  427  625  875  1117  1314  1494  1721  1979  2170  2253  2273  2282  2298  2308  2276  2169  2014  1881  1800  1742  1670  1555  1350  1038  677  342  57  -165  -316  -414  -515  -657  -852  -1065  -1209  -1239  -1189  -1111  -1035  -979  -934  -886  -842  -817  -811  -792  -733  -653  -599  -587  -597  -604  -606  -605  -608  -614  -621  -626  -648  -707  -792  -860  -870  -800  -646  -436  -219  -44  68  125  149  155  129  49  -75  -202  -291  -332  -348  -370  -427  -540  -701  -828  -812  -670  -518  -427  -474  -701  -1009  -1327  -1563  -1334  -296  1433  3421  5021  5474  4387  2084  -638  -2925  -4150  -4172  -3379  -2357  -1544  -1084  -895  -834  -814  -793  -729  -581  -341  -39  269  505  612  594  484  338  228  206  298  498  731  889  940  948  1013  1197  1462  1704  1886  2050  2198  2279  2285  2267  2266  2281  2300  2323  2351  2363  2314  2151  1857  1534  1323  1234  1154  1017  841  654  467  274  46  -214  -434  -545  -568  -569  -592  -653  -738  -805  -834  -844  -850  -836  -761  -603  -421  -300  -266  -287  -336  -391  -433  -462  -498  -544  -580  -596  -592  -570  -529  -474  -427  -397  -372  -348  -300  -179  10  172  210  115  -66  -264  -408  -474  -492  -502  -528  -566  -596  -622  -661  -704  -723  -722  -738  -812  -936  -1036  -1102  -1224  -1390  -1454  -1241  -523  869  2745  4501  5377  4824  2835  32  -2652  -4375  -4758  -4123  -3141  -2240  -1566  -1170  -973  -825  -668  -538  -463  -411  -335  -226  -119  -37  13  38  48  79  169  308  436  515  553  586  638  713  818  975  1197  1473  1745  1932  2015  2041  2055  2069  2070  2052  2014  1942  1843  1755  1696  1633  1523  1378  1251  1134  947  654  314  1  -275  -529  -742  -876  -924  -899  -818  -702  -587  -514  -493  -509  -551  -602  -633  -627  -597  -576  -591  -629  -668  -695  -703  -705  -747  -867  -1032  -1153  -1183  -1141  -1069  -1001  -938  -858  -772  -718  -701  -696  -686  -663  -637  -622  -619  -619  -623  -649  -716  -807  -875  -903  -904  -897  -889  -878  -854  -814  -776  -765  -798  -873  -1015  -1246  -1449  -1436  -1271  -1227  -1378  -1510  -1266  -273  1503  3472  4676  4402  2655  145  -2196  -3727  -4248  -3940  -3242  -2552  -2017  -1649  -1444  -1335  -1222  -1079  -942  -819  -674  -503  -347  -236  -159  -79  27  147  251  343  431  504  553  593  662  782  934  1078  1173  1201  1189  1205  1341  1639  2023  2361  2588  2718  2770  2763  2717  2650  2568  2465  2344  2217  2062  1816  1445  1015  649  400  250  169  111  38  -54  -144  -205  -230  -252  -309  -388  -449  -484  -521  -570  -607  -599  -532  -431  -351  -316  -293  -248  -159  -19  129  194  108  -86  -280  -407  -497  -581  -616  -520  -276  9  197  253  243  220  202  197  208  229  236  214  162  81  -31  -159  -273  -361  -424  -454  -452  -427  -398  -344  -226  -113  -163  -449  -906  -1231  -905  340  2238  4132  5217  4914  3219  670  -1897  -3689  -4283  -3831  -2900  -2030  -1487  -1272  -1210  -1097  -839  -516  -278  -162  -87  -5  63  101  125  147  157  163  222  377  573  709  768  827  942  1096  1244  1358  1448  1539  1646  1758  1859  1941  2025  2165  2365  2550  2644  2633  2541  2410  2286  2162  1974  1696  1381  1103  893  745  654  614  582  462  184  -209  -585  -834  -933  -920  -855  -790  -744  -707  -673  -646  -634  -636  -640  -630  -600  -558  -522  -509  -534  -606  -700  -769  -797  -802  -798  -780  -737  -676  -622  -573  -483  -309  -99  38  59  6  -76  -187  -331  -478  -578  -641  -732  -874  -1036  -1172  -1244  -1234  -1157  -1036  -890  -749  -654  -636  -695  -776  -824  -925  -1156  -1296  -949  87  1687  3344  4253  3808  2086  -285  -2550  -4067  -4520  -4135  -3396  -2609  -1954  -1573  -1427  -1348  -1237  -1106  -1004  -951  -908  -802  -593  -321  -94  16  34  20  0  -36  -90  -112  -54  74  257  494  758  990  1159  1293  1429  1578  1718  1809  1848  1887  1983  2121  2226  2258  2235  2196  2179  2177  2104  1840  1355  813  439  287  226  101  -134  -410  -624  -731  -748  -709  -655  -630  -647  -687  -721  -736  -738  -725  -691  -645  -609  -592  -590  -612  -674  -767  -863  -944  -969  -882  -711  -549  -428  -309  -186  -94  -51  -48  -71  -100  -114  -119  -126  -142  -175  -231  -331  -468  -574  -594  -547  -489  -465  -479  -519  -584  -657  -707  -735  -752  -723  -569  -279  3  100  -49  -422  -835  -872  -179  1212  2874  4117  4263  3082  980  -1331  -3202  -4150  -4087  -3377  -2479  -1718  -1281  -1147  -1140  -1103  -983  -802  -619  -462  -303  -138  -21  17  13  0  -15  -35  -48  -10  119  319  518  667  752  770  758  810  1020  1356  1657  1806  1826  1798  1782  1793  1816  1840  1870  1906  1924  1886  1757  1567  1386  1232  1076  919  792  694  583  398  113  -234  -565  -790  -878  -867  -802  -712  -623  -558  -534  -552  -589  -624  -654  -681  -670  -587  -462  -372  -359  -412  -489  -553  -600  -642  -665  -642  -568  -491  -465  -469  -442  -381  -310  -248  -208  -190  -182  -176  -170  -150  -101  -24  54  101  97  21  -153  -397  -611  -722  -748  -738  -706  -625  -467  -252  -49  43  -48  -298  -606  -883  -956  -502  703  2475  4221  5167  4670  2692  -31  -2504  -4057  -4487  -4017  -3179  -2417  -1846  -1450  -1226  -1111  -977  -748  -440  -131  87  194  255  322  379  395  377  361  361  370  380  411  497  646  828  1005  1154  1268  1358  1455  1589  1758  1935  2099  2247  2374  2478  2558  2614  2643  2647  2625  2551  2376  2077  1707  1359  1089  879  686  474  221  -63  -318  -481  -555  -600  -655  -720  -795  -880  -956  -1008  -1048  -1083  -1063  -936  -745  -601  -557  -579  -629  -691  -750  -777  -762  -721  -671  -614  -560  -520  -497  -484  -473  -455  -423  -379  -329  -286  -261  -262  -285  -316  -337  -336  -314  -283  -257  -247  -248  -254  -258  -247  -207  -147  -103  -120  -223  -383  -520  -584  -592  -584  -578  -572  -557  -534  -505  -481  -522  -723  -1072  -1377  -1384  -887  223  1793  3411  4614  4939  4089  2239  -67  -2210  -3641  -4118  -3813  -3103  -2334  -1703  -1239  -899  -674  -567  -520  -465  -390  -311  -187  32  289  466  521  497  440  376  330  318  347  420  525  647  806  1018  1239  1409  1535  1665  1824  2015  2241  2496  2729  2877  2927  2896  2776  2567  2333  2169  2101  2082  2041  1901  1614  1231  877  636  478  323  135  -63  -224  -310  -329  -317  -315  -347  -403  -455  -484  -496  -501  -503  -486  -435  -364  -309  -290  -296  -306  -304  -290  -273  -271  -295  -331  -354  -361  -360  -352  -320  -252  -169  -114  -99  -103  -110  -121  -141  -162  -165  -149  -125  -108  -96  -87  -89  -128  -225  -364  -504  -606  -632  -563  -438  -332  -285  -286  -302  -310  -280  -193  -73  24  71  78  51  -21  -137  -274  -422  -584  -751  -894  -982  -991  -922  -784  -588  -366  -205  -231  -500  -898  -1206  -1350  -1421  -1415  -1186  -531  749  2559  4384  5539  5363  3589  758  -2099  -4126  -4922  -4578  -3614  -2682  -2103  -1759  -1431  -1071  -770  -585  -476  -381  -286  -226  -236  -288  -322  -302  -221  -107  -13  53  133  245  359  450  511  537  552  603  722  887  1055  1203  1328  1446  1597  1783  1950  2057  2107  2109  2080  2043  1992  1879  1672  1429  1261  1192  1127  969  724  489  323  165  -54  -308  -530  -691  -777  -774  -717  -666  -647  -644  -638  -630  -657  -754  -865  -872  -759  -628  -553  -525  -516  -516  -528  -562  -610  -650  -668  -652  -581  -460  -340  -290  -342  -477  -626  -725  -759  -750  -715  -663  -614  -591  -598  -622  -644  -661  -688  -730  -759  -750  -711  -692  -744  -867  -1003  -1073  -1034  -920  -806  -732  -698  -687  -688  -696  -701  -682  -617  -518  -424  -342  -246  -169  -190  -301  -404  -440  -445  -496  -635  -816  -940  -968  -926  -866  -823  -808  -825  -879  -974  -1072  -1099  -1038  -999  -1074  -1137  -869  9  1559  3510  5218  5869  4995  2838  92  -2524  -4332  -4938  -4564  -3715  -2722  -1854  -1342  -1126  -943  -656  -337  -92  69  202  328  432  489  501  491  481  488  529  603  680  748  833  959  1119  1293  1451  1554  1607  1669  1798  2015  2279  2494  2604  2654  2720  2818  2902  2932  2912  2853  2721  2478  2166  1895  1724  1606  1439  1175  870  619  434  249  24  -202  -374  -470  -505  -499  -477  -465  -499  -610  -768  -901  -963  -940  -833  -697  -623  -640  -681  -692  -688  -693  -691  -652  -564  -438  -325  -284  -312  -353  -369  -368  -375  -409  -466  -515  -531  -531  -572  -714  -948  -1174  -1291  -1249  -1042  -741  -469  -300  -228  -222  -272  -383  -522  -613  -620  -558  -452  -342  -273  -248  -249  -268  -308  -359  -402  -426  -434  -428  -426  -474  -608  -777  -887  -923  -946  -986  -1019  -1015  -947  -837  -771  -770  -796  -913  -1033  -718  371  2179  4298  5962  6306  4960  2359  -595  -3053  -4406  -4508  -3784  -2828  -1995  -1405  -1055  -846  -679  -542  -441  -349  -257  -176  -96  -4  84  139  157  156  155  170  208  274  380  552  784  997  1110  1141  1180  1301  1523  1789  2013  2158  2253  2333  2429  2552  2677  2771  2815  2787  2659  2439  2167  1881  1609  1380  1188  1015  858  711  504  137  -349  -758  -946  -940  -831  -698  -604  -580  -639  -788  -989  -1155  -1223  -1190  -1093  -971  -869  -833  -890  -1009  -1122  -1182  -1173  -1085  -929  -767  -662  -625  -652  -746  -877  -983  -1029  -1023  -993  -973  -974  -985  -990  -985  -978  -965  -929  -873  -817  -786  -770  -733  -649  -526  -407  -346  -353  -381  -393  -396  -416  -476  -581  -705  -810  -872  -896  -902  -900  -882  -841  -793  -764  -760  -773  -798  -848  -959  -1090  -1001  -383  852  2512  4194  5284  5161  3689  1324  -1214  -3214  -4182  -4123  -3498  -2756  -2067  -1495  -1077  -760  -490  -287  -168  -106  -63  -28  -13  -19  -21  29  179  402  599  694  699  675  663  686  770  956  1257  1595  1847  1980  2040  2073  2118  2226  2399  2585  2753  2913  3049  3120  3116  3069  3009  2916  2723  2409  2056  1757  1523  1319  1139  994  842  623  349  78  -157  -336  -438  -475  -476  -457  -435  -423  -423  -425  -407  -348  -256  -180  -149  -121  -37  68  129  141  134  117  63  -37  -148  -220  -246  -247  -218  -135  -7  108  168  175  156  140  156  230  347  459  534  565  555  522  478  416  340  262  182  105  56  42  47  49  35  2  -42  -81  -90  -54  16  76  61  -81  -347  -541  -297  640  2216  3998  5250  5309  4064  1970  -336  -2278  -3418  -3652  -3222  -2463  -1650  -1005  -617  -415  -291  -198  -124  -61  -4  41  68  86  145  282  458  582  628  641  654  676  721  809  934  1061  1168  1258  1342  1435  1566  1742  1922  2044  2092  2111  2153  2241  2359  2464  2525  2549  2556  2530  2411  2162  1835  1532  1304  1125  941  720  450  142  -172  -442  -621  -730  -833  -957  -1074  -1143  -1163  -1160  -1153  -1140  -1122  -1107  -1096  -1089  -1085  -1083  -1081  -1082  -1091  -1110  -1132  -1144  -1141  -1130  -1123  -1120  -1112  -1091  -1062  -1051  -1070  -1089  -1063  -982  -871  -778  -738  -741  -755  -765  -784  -829  -893  -954  -1023  -1125  -1257  -1376  -1430  -1422  -1401  -1404  -1423  -1439  -1454  -1470  -1465  -1419  -1374  -1408  -1575  -1869  -2131  -2045  -1345  8  1768  3342  3947  3108  1054  -1517  -3892  -5415  -5750  -5223  -4373  -3494  -2792  -2410  -2281  -2223  -2104  -1889  -1632  -1430  -1314  -1229  -1139  -1067  -1037  -1039  -1052  -1054  -1005  -869  -677  -515  -429  -385  -307  -126  148  423  619  741  835  955  1138  1366  1570  1684  1716  1747  1848  1996  2106  2134  2088  1959  1712  1349  932  537  214  -8  -152  -289  -466  -659  -813  -920  -1027  -1166  -1301  -1362  -1324  -1234  -1163  -1144  -1166  -1228  -1330  -1441  -1517  -1542  -1518  -1439  -1316  -1197  -1114  -1055  -988  -883  -724  -537  -381  -285  -237  -219  -223  -243  -268  -290  -293  -270  -227  -139  2  134  210  260  310  343  351  345  333  301  257  222  203  180  141  89  35  -2  -20  -26  -53  -133  -242  -350  -503  -654  -511  202  1505  3222  4924  5817  5223  3160  305  -2428  -4181  -4493  -3660  -2465  -1498  -951  -754  -672  -474  -129  200  385  435  433  430  434  447  494  577  663  728  775  803  806  800  807  824  842  882  1008  1294  1715  2135  2430  2582  2656  2712  2763  2801  2827  2852  2870  2844  2722  2503  2275  2134  2084  2048  1951  1780  1570  1335  1048  687  317  57  -60  -132  -235  -348  -418  -436  -429  -423  -430  -451  -481  -526  -587  -621  -588  -515  -456  -429  -424  -424  -415  -390  -365  -360  -381  -418  -456  -491  -523  -527  -466  -318  -124  29  101  118  121  135  173  218  244  240  217  184  122  2  -173  -361  -496  -551  -553  -547  -565  -607  -651  -676  -683  -684  -684  -690  -725  -832  -1006  -1147  -1161  -1085  -982  -787  -231  971  2720  4424  5265  4639  2625  -7  -2349  -3804  -4218  -3858  -3201  -2605  -2152  -1784  -1480  -1264  -1123  -1016  -923  -842  -772  -689  -559  -402  -296  -279  -303  -311  -302  -315  -356  -347  -191  102  417  646  768  831  899  1000  1118  1237  1347  1430  1469  1481  1509  1586  1697  1786  1832  1851  1839  1773  1642  1444  1182  852  490  193  15  -101  -229  -394  -592  -809  -1012  -1167  -1264  -1338  -1429  -1518  -1526  -1425  -1267  -1112  -968  -822  -688  -605  -600  -664  -763  -845  -880  -874  -844  -791  -709  -599  -475  -360  -279  -234  -212  -199  -197  -211  -246  -293  -341  -375  -396  -411  -421  -425  -428  -432  -427  -392  -310  -175  -10  128  203  227  225  195  126  34  -37  -71  -87  -122  -188  -262  -313  -335  -339  -335  -318  -284  -247  -219  -196  -258  -550  -1021  -1332  -1049  143  2216  4610  6382  6671  5177  2365  -750  -3167  -4355  -4310  -3454  -2379  -1502  -962  -710  -619  -595  -593  -582  -510  -342  -124  44  122  140  139  131  113  91  120  286  613  980  1234  1344  1387  1420  1441  1443  1438  1449  1542  1812  2242  2649  2881  2961  2982  2964  2884  2760  2641  2524  2357  2124  1881  1694  1556  1395  1159  889  660  494  352  173  -55  -287  -466  -568  -608  -624  -637  -645  -648  -656  -681  -717  -743  -749  -742  -736  -730  -714  -687  -660  -642  -635  -642  -675  -748  -830  -840  -734  -589  -532  -589  -671  -723  -764  -812  -853  -876  -885  -904  -947  -988  -998  -989  -971  -919  -798  -622  -472  -405  -401  -407  -375  -291  -187  -119  -112  -146  -184  -208  -232  -284  -383  -510  -608  -648  -648  -638  -631  -618  -591  -571  -595  -667  -739  -772  -783  -821  -892  -860  -428  649  2248  3823  4795  4885  3956  2027  -363  -2318  -3321  -3529  -3302  -2804  -2173  -1661  -1398  -1273  -1124  -931  -768  -682  -631  -565  -487  -433  -417  -423  -434  -429  -354  -172  66  252  332  338  320  302  282  260  251  318  547  939  1341  1591  1682  1711  1736  1748  1689  1492  1136  681]
