reading_id,reading_time,wire_id,result_classification,heart_rate,heart_rate_alert,firmware_version,device_app_version,hardware_version,waveform_samples
db1aeab0-ce60-11ed-8080-808080808080,Wed Mar 29 18:38:10 UTC 2023,0129e4747e39,NSR,81,NONE,20001.188.58,2.13.0,Charge 5,[2611  3200  3581  3708  3635  3386  2955  2417  1911  1478  1059  665  393  243  49  -328  -798  -1144  -1286  -1333  -1452  -1715  -2056  -2420  -2693  -2625  -2094  -1234  -356  163  88  -553  -1520  -2484  -3137  -3323  -3104  -2697  -2367  -2272  -2337  -2405  -2420  -2420  -2471  -2658  -3009  -3415  -3719  -3869  -3909  -3901  -3891  -3904  -3952  -4031  -4124  -4195  -4206  -4185  -4253  -4457  -4608  -4564  -4409  -4122  -3480  -2372  -977  254  747  58  -1724  -3810  -5239  -5615  -5189  -4531  -4156  -4186  -4390  -4541  -4597  -4623  -4659  -4699  -4734  -4766  -4795  -4825  -4858  -4891  -4910  -4876  -4733  -4488  -4239  -4096  -4063  -4057  -4029  -3977  -3911  -3844  -3773  -3657  -3448  -3190  -3012  -2975  -3009  -3042  -3076  -3137  -3151  -2873  -2046  -765  442  1117  1278  1252  1343  1717  2339  2972  3389  3570  3644  3714  3800  3879  3926  3943  3951  3966  3987  4007  4024  4040  4052  4062  4075  4094  4112  4122  4138  4190  4274  4360  4427  4468  4495  4524  4535  4490  4416  4382  4413  4479  4537  4564  4569  4562  4539  4488  4385  4221  4027  3865  3766  3724  3702  3655  3570  3485  3436  3426  3431  3438  3444  3446  3425  3352  3190  2950  2728  2611  2554  2416  2123  1752  1414  1164  1009  946  967  1055  1149  1138  932  609  336  121  -148  -459  -674  -722  -644  -525  -434  -393  -380  -377  -384  -413  -475  -584  -743  -925  -1097  -1265  -1447  -1622  -1746  -1809  -1824  -1798  -1751  -1743  -1860  -2146  -2497  -2737  -2811  -2798  -2770  -2746  -2718  -2680  -2643  -2624  -2598  -2554  -2595  -2737  -2716  -2238  -1199  237  1595  2354  2220  1141  -552  -2154  -3134  -3467  -3354  -3066  -2876  -2854  -2897  -2917  -2894  -2840  -2782  -2739  -2723  -2722  -2696  -2611  -2494  -2427  -2463  -2572  -2686  -2748  -2752  -2720  -2611  -2350  -1980  -1672  -1521  -1480  -1476  -1476  -1470  -1465  -1450  -1353  -1095  -725  -394  -169  1  168  318  423  479  513  565  655  767  893  1070  1318  1567  1717  1743  1695  1626  1561  1496  1440  1421  1444  1497  1586  1710  1853  1984  2068  2093  2067  2002  1911  1809  1714  1649  1628  1624  1551  1326  984  658  420  281  236  238  228  194  158  118  45  -83  -266  -476  -657  -752  -770  -755  -737  -730  -753  -821  -911  -975  -999  -1016  -1052  -1076  -1037  -949  -876  -839  -791  -697  -578  -481  -444  -523  -769  -1105  -1364  -1465  -1448  -1340  -1142  -889  -663  -534  -542  -730  -1083  -1462  -1690  -1689  -1483  -1185  -953  -860  -863  -891  -906  -897  -871  -842  -812  -769  -702  -619  -534  -468  -419  -366  -325  -348  -441  -563  -685  -818  -960  -1061  -1088  -1043  -943  -820  -706  -621  -611  -695  -800  -860  -884  -865  -769  -639  -533  -439  -272  217  1287  2789  4153  4833  4544  3300  1607  232  -439  -485  -166  175  317  273  148  16  -76  -106  -81  -42  -14  11  50  115  212  319  396  429  438  437  412  347  265  230  284  399  510  583  636  696  753  800  856  928  993  1035  1064  1119  1221  1343  1440  1506  1568  1635  1685  1706  1708  1709  1712  1701  1643  1517  1364  1263  1238  1239  1220  1148  997  759  506  356  359  465  599  727  837  929  973  879  570  141  -185  -312  -320  -305  -300  -295  -267  -200  -106  -13  47  63  45  5  -52  -104  -126  -111  -75  -37  -4  30  61  77  86  94  100  95  74  44  28  31  19  -35  -117  -183  -208  -206  -216  -253  -315  -384  -431  -432  -373  -267  -160  -91  -60  -58  -103  -201  -324  -426  -475  -460  -382  -270  -195  -240  -447  -737  -946  -973  -832  -623  -460  -394  -391  -404  -413  -420  -424  -409  -339  -187  15  198  320  347  238  29  -179  -346  -479  -573  -635  -697  -773  -809  -693  -349  119  468  530  303  -55  -295  -239  89  660  1608  2886  4059  4709  4600  3659  2287  1110  328  -175  -473  -648  -800  -922  -964  -930  -818  -642  -484  -408  -412  -477  -603  -788  -988  -1139  -1212  -1196  -1085  -907  -726  -607  -565  -563  -570  -584  -625  -707  -809  -872  -832  -699  -560  -473  -438  -435  -445  -457  -451  -407  -327  -246  -198  -190  -215  -275  -356  -445  -538  -601  -570  -448  -329  -318  -493  -828  -1166  -1356  -1395  -1366  -1328  -1314  -1379  -1571  -1828  -2000  -2019  -1938  -1808  -1613  -1380  -1205  -1145  -1177  -1259  -1333  -1362  -1378  -1409  -1434  -1412  -1309  -1139  -971  -868  -838  -843  -831  -770  -663  -551  -465  -413  -379  -334  -242  -65  185  432  599  648  567  378  149  -64  -281  -524  -766  -974  -1148  -1296  -1406  -1466  -1470  -1416  -1319  -1205  -1067  -875  -647  -458  -364  -349  -359  -336  -256  -147  -70  -46  -38  -9  43  106  177  250  300  343  473  767  1144  1425  1548  1578  1547  1443  1287  1149  1065  1013  953  876  806  744  658  550  473  469  533  619  674  686  686  700  714  666  490  263  213  468  966  1662  2605  3778  4976  5813  6014  5561  4506  3134  2025  1435  1226  1299  1442  1378  1129  882  723  647  643  720  887  1085  1215  1250  1240  1238  1248  1256  1300  1429  1604  1727  1767  1778  1812  1870  1917  1935  1935  1931  1929  1928  1934  1955  1989  2026  2053  2066  2074  2088  2116  2149  2178  2190  2181  2155  2118  2064  2004  1965  1954  1917  1785  1563  1346  1205  1135  1115  1125  1125  1087  1007  874  687  493  338  199  37  -128  -264  -373  -475  -586  -682  -735  -766  -790  -774  -730  -721  -747  -746  -678  -571  -481  -445  -488  -633  -847  -1031  -1119  -1129  -1099  -1043  -975  -928  -915  -928  -952  -969  -970  -968  -995  -1071  -1168  -1230  -1245  -1240  -1232  -1219  -1192  -1177  -1221  -1328  -1443  -1531  -1608  -1695  -1780  -1830  -1800  -1657  -1449  -1321  -1358  -1476  -1544  -1531  -1490  -1476  -1477  -1449  -1404  -1371  -1346  -1318  -1292  -1275  -1258  -1226  -1189  -1178  -1222  -1307  -1392  -1451  -1496  -1544  -1584  -1596  -1556  -1432  -1199  -908  -678  -578  -575  -612  -660  -715  -794  -914  -1074  -1235  -1336  -1340  -1262  -1144  -1018  -904  -829  -812  -867  -1003  -1185  -1326  -1372  -1331  -1243  -1148  -864  -24  1414  3047  4380  4865  4080  2268  265  -1153  -1680  -1462  -911  -481  -393  -534  -705  -834  -926  -987  -1008  -996  -975  -955  -908  -812  -675  -550  -490  -487  -480  -422  -324  -232  -174  -152  -161  -202  -268  -336  -378  -368  -301  -198  -69  90  255  369  414  422  423  422  415  401  386  370  351  354  420  574  768  907  930  836  663  481  350  253  120  -68  -262  -425  -546  -584  -510  -367  -241  -182  -170  -152  -87  38  175  227  160  20  -126  -237  -297  -312  -267  -129  87  307  436  395  191  -53  -212  -262  -258  -247  -230  -180  -85  18  82  95  79  51  9  -64  -157  -218  -216  -162  -79  -5  18  -22  -76  -67  22  113  96  -16  -91  -81  -72  -116  -176  -203  -191  -168  -157  -160  -153  -109  -19  90  160  151  101  42  -42  -82  6  149  227  242  265  338  439  497  471  397  330  292  276  274  276  267  250  262  353  511  661  748  773  749  671  553  451  408  408  407  389  379  392  409  410  403  385  320  179  -3  -155  -251  -321  -337  -256  -154  -118  -66  180  732  1622  2780  3888  4495  4347  3433  1981  547  -334  -608  -551  -367  -121  66  86  17  -29  -40  -42  -55  -91  -127  -134  -116  -100  -107  -117  -105  -72  -31  11  54  98  134  158  169  144  76  34  81  177  250  284  308  354  441  557  667  718  682  580  472  422  436  455  455  478  537  584  580  529  468  418  374  330  292  264  244  229  199  126  13  -91  -152  -174  -173  -155  -132  -124  -152  -215  -285  -334  -356  -356  -339  -315  -297  -285  -255  -179  -58  67  166  235  274  269  196  57  -89  -189  -247  -276  -274  -249  -226  -218  -216  -191  -122  -45  -13  -19  -16  -12  -43  -88  -99  -63  -7  32  39  15  -28  -88  -159  -225  -290  -376  -466  -524  -550  -555  -517  -399  -217  -41  62  80  43  -15  -79  -127  -161  -186  -159  -68  37  122  155  104  -12  -155  -282  -355  -372  -368  -374  -392  -393  -339  -215  -52  80  139  145  153  203  283  341  339  269  163  54  -62  -186  -284  -341  -366  -361  -333  -308  -302  -315  -334  -353  -387  -438  -471  -473  -505  -574  -622  -609  -389  205  1111  2168  3196  3865  3887  3169  1841  415  -572  -1002  -987  -734  -545  -557  -657  -722  -735  -712  -643  -526  -396  -322  -349  -442  -509  -503  -448  -382  -310  -238  -206  -263  -411  -589  -732  -820  -849  -784  -604  -394  -295  -326  -395  -439  -458  -458  -442  -418  -403  -389  -333  -218  -118  -98  -123  -135  -132  -126  -123  -126  -138  -154  -176  -257  -440  -644  -763  -814  -849  -871  -870  -859  -872  -947  -1095  -1265  -1391  -1445  -1443  -1411  -1383  -1386  -1423  -1469  -1500  -1519  -1541  -1559  -1543  -1469  -1367  -1290  -1261  -1264  -1285  -1325  -1370  -1394  -1392  -1380  -1368  -1360  -1353  -1348  -1347  -1357  -1379  -1402  -1399  -1360  -1314  -1284  -1264  -1258  -1303  -1425  -1585  -1699  -1735  -1730  -1728  -1741  -1764  -1821  -1950  -2117  -2240  -2280  -2263  -2235  -2221  -2225  -2252  -2301  -2360  -2414  -2457  -2501  -2556  -2616  -2668  -2680  -2626  -2544  -2502  -2497  -2417  -2137  -1664  -1131  -617  -133  273  555  723  817  880  973  1173  1513  1903  2189  2320  2371  2394  2385  2357  2345  2355  2370  2374  2341  2248  2115  1999  1937  1918  1918  1950  2067  2285  2485  2487  2282  2038  1866  1753  1711  1839  2136  2378  2407  2398  2686  3478  4736  6042  6691  6207  4771  3075  1771  1111  1021  1221  1402  1474  1518  1598  1697  1793  1905  2039  2154  2222  2263  2303  2339  2341  2269  2108  1917  1783  1742  1790  1921  2090  2205  2215  2144  2063  2016  1986  1956  1957  2005  2089  2179  2222  2196  2157  2145  2143  2132  2110  2087  2088  2118  2161  2200  2227  2237  2204  2084  1871  1645  1496  1432  1390  1295  1090  791  497  315  254  262  309  385  451  439  311  74  -217  -466  -595  -591  -483  -317  -149  -22  46  55  5  -96  -232  -383  -528  -673  -806  -819  -668  -469  -330  -280  -311  -386  -475  -560  -631  -684  -705  -679  -618  -545  -468  -404  -367  -358  -383  -452  -551  -653  -757  -862  -936  -960  -948  -915  -874  -828  -769  -699  -652  -672  -777  -921  -1023  -1054  -1054  -1068  -1111  -1160  -1191  -1199  -1195  -1190  -1191  -1204  -1248  -1331  -1433  -1515  -1554  -1549  -1509  -1455  -1410  -1373  -1336  -1306  -1306  -1356  -1427  -1463  -1466  -1481  -1530  -1609  -1704  -1789  -1840  -1838  -1750  -1573  -1411  -1410  -1566  -1730  -1809  -1815  -1788  -1750  -1722  -1722  -1763  -1833  -1898  -1951  -2028  -2147  -2261  -2320  -2206  -1710  -756  489  1693  2494  2730  2363  1412  207  -831  -1583  -1988  -2025  -1973  -2002  -1949  -1777  -1640  -1595  -1592  -1593  -1594  -1603  -1622  -1654  -1698  -1733  -1745  -1734  -1710  -1686  -1664  -1643  -1646  -1680  -1717  -1726  -1702  -1652  -1591  -1538  -1501  -1462  -1387  -1271  -1117  -934  -759  -621  -491  -322  -113  103  299  446  532  573  592  606  625  651  679  692  666  587  474  372  307  269  245  230  220  208  194  182  167  146  116  68  14  -12  13  91  192  279  326  326  292  244  205  187  209  298  476  728  975  1115  1126  1069  994  926  895  904  920  942  1012  1121  1166  1075  908  799  815  912  1018  1092  1138  1182  1236  1283  1281  1185  984  741  557  506  607  826  1105  1355  1479  1482  1451  1432  1420  1416  1422  1421  1376  1258  1089  934  840  799  799  836  883  911  907  875  833  796  754  696  633  572  496  420  398  459  570  667  719  732  722  700  671  634  593  552  505  442  367  284  202  135  78  13  -58  -119  -163  -194  -215  -227  -237  -258  -277  -250  -197  -214  -280  -263  -154  -25  176  687  1751  3245  4616  5227  4657  2976  916  -605  -1179  -949  -359  37  -37  -378  -636  -715  -715  -703  -656  -549  -436  -389  -375  -337  -325  -415  -597  -794  -940  -1023  -1066  -1100  -1151  -1217  -1274  -1292  -1242  -1132  -1011  -901  -783  -638  -466  -290  -169  -130  -139  -167  -196  -223  -270  -336  -383  -389  -358  -302  -231  -160  -122  -180  -378  -650  -852  -924  -912  -858  -759  -625  -512  -461  -459  -483  -550  -674  -805  -888  -926  -935  -919  -881  -831  -779  -732  -698  -683  -665  -600  -473  -325  -214  -169  -190  -249  -269  -154  127  467  696  736  606  368  130  -9  -42  -7  66  150  197  192  185  276  533  875  1116  1143  978  734  528  404  366  409  503  618  718  780  845  947  1039  1081  1091  1112  1171  1247  1264  1171  1015  880  798  754  715  660  627  655  718  770  794  801  812  853  938  1048  1122  1104  989  833  715  674  720  855  1031  1167  1228  1240  1232  1222  1226  1235  1215  1122  955  775  638  553  509  486  441  338  200  93  44  41  62  28  -166  -489  -730  -702  -353  311  1264  2391  3405  3902  3537  2276  601  -797  -1576  -1777  -1606  -1348  -1183  -1076  -936  -803  -775  -838  -867  -781  -646  -555  -526  -531  -530  -490  -399  -284  -200  -168  -162  -171  -224  -347  -512  -641  -661  -556  -398  -278  -222  -207  -201  -178  -132  -87  -65  -54  -31  -1  13  18  31  55  79  91  95  103  117  109  28  -130  -302  -429  -527  -616  -675  -695  -693  -687  -690  -717  -788  -902  -1024  -1109  -1148  -1163  -1174  -1187  -1199  -1214  -1229  -1237  -1239  -1239  -1238  -1226  -1191  -1139  -1098  -1079  -1071  -1066  -1063  -1069  -1085  -1104  -1117  -1130  -1163  -1211  -1215  -1111  -924  -748  -651  -627  -638  -660  -685  -702  -690  -636  -562  -504  -471  -445  -429  -431  -435  -424  -406  -400  -428  -503  -604  -688  -722  -694  -601  -463  -337  -267  -232  -184  -120  -82  -98  -144  -182  -218  -284  -376  -448  -473  -450  -384  -297  -220  -154  -77  27  169  324  441  500  523  537  533  468  306  95  -56  -93  -53  -7  17  29  36  34  27  38  89  156  200  225  262  272  147  -130  -433  -577  -357  396  1642  3065  4215  4705  4338  3167  1659  475  -102  -214  -95  18  -15  -107  -88  29  124  161  181  217  268  325  366  334  211  70  -12  -39  -35  13  137  303  427  474  476  455  390  276  171  142  170  188  163  132  180  348  573  758  858  898  916  905  839  739  655  592  537  517  562  625  623  517  353  223  167  161  184  219  239  237  232  228  202  127  22  -56  -88  -87  -72  -41  -9  -26  -120  -279  -480  -674  -792  -813  -795  -815  -933  -1132  -1325  -1439  -1453  -1365  -1193  -1007  -883  -846  -864  -903  -954  -1022  -1102  -1157  -1177  -1193  -1232  -1306  -1433  -1610  -1770  -1856  -1876  -1881  -1895  -1893  -1840  -1761  -1723  -1747  -1761  -1681  -1514  -1324  -1121  -857  -555  -321  -186  -84  32  174  364  586  757  833  844  833  822  820  840  896  978  1053  1098  1118  1127  1128  1123  1123  1139  1151  1118  1013  858  717  654  684  769  857  923  971  986  914  734  514  359  322  410  599  759  731  522  233  -21  -19  468  1498  2939  4402  5355  5425  4516  2917  1285  159  -355  -429  -331  -277  -275  -248  -201  -176  -177  -186  -177  -128  -41  67  190  304  354  304  191  71  -32  -115  -161  -151  -73  50  168  233  246  242  247  248  214  167  191  337  535  684  749  758  763  798  832  785  644  489  380  318  293  298  328  366  404  450  496  516  472  335  143  -17  -101  -115  -82  -42  -25  -32  -52  -86  -144  -219  -282  -321  -346  -359  -366  -373  -384  -394  -398  -394  -383  -360  -314  -247  -182  -139  -130  -155  -219  -307  -379  -411  -415  -407  -402  -420  -457  -482  -459  -391  -343  -377  -481  -631  -823  -1019  -1135  -1098  -887  -595  -386  -354  -478  -673  -849  -960  -1001  -970  -879  -793  -797  -893  -990  -1003  -903  -726  -560  -475  -476  -535  -612  -671  -699  -691  -615  -438  -206  -33  8  -63  -196  -330  -412  -435  -428  -430  -476  -596  -758  -874  -889  -812  -694  -574  -456  -349  -279  -226  -185  -223  -353  -484  -522  -317  347  1541  3027  4288  4774  4228  2809  1115  -136  -646  -582  -279  -31  57  30  -64  -201  -339  -408  -375  -298  -250  -239  -242  -233  -192  -126  -73  -50  -43  -33  -9  21  47  64  74  75  70  66  66  67  72  99  169  266  344  382  401  420  438  451  469  498  531  547  520  444  362  310  300  316  320  276  162  -11  -190  -326  -447  -582  -698  -762  -797  -846  -909  -940  -874  -688  -454  -286  -231  -266  -361  -479  -580  -631  -625  -580  -533  -515  -530  -543  -521  -469  -421  -398  -387  -341  -227  -86  -26  -108  -270  -396  -435  -410  -343  -249  -164  -127  -147  -205  -283  -358  -405  -417  -410  -400  -396  -389  -368  -324  -264  -209  -172  -153  -150  -160  -183  -210  -228  -239  -266  -324  -397  -458  -492  -488  -421  -275  -98  41  130  208  332  529  751  904  944  891  775  627  491  400  351  319  289  266  256  267  321  417  514  562  555  509  411  245  93  67  88  -5  -115  122  975  2382  3940  5039  5217  4398  2908  1364  265  -287  -408  -290  -198  -243  -297  -293  -325  -428  -536  -598  -617  -618  -600  -540  -432  -314  -234  -208  -253  -392  -587  -740  -791  -753  -645  -470  -260  -60  98  193  195  103  -4  -12  109  287  443  543  593  604  562  455  323  229  200  229  305  395  458  481  479  458  409  349  305  284  260  212  131  21  -87  -151  -155  -119  -83  -61  -37  -10  2  -7  -39  -82  -132  -186  -228  -249  -261  -270  -273  -267  -250  -226  -194  -147  -95  -60  -48  -48  -50  -55  -72  -104  -147  -188  -215  -216  -188  -146  -136  -183  -243  -273  -279  -295  -341  -405  -455  -481  -498  -529  -572  -605  -611  -597  -584  -577  -561  -529  -517  -557  -621  -655  -623  -517  -379  -299  -326  -436  -561  -633  -637  -605  -547  -445  -323  -232  -186  -163  -156  -171  -198  -225  -253  -274  -288  -316  -382  -475  -547  -577  -582  -577  -553  -488  -394  -314  -277  -289  -352  -461  -624  -864  -1111  -1117  -669  176  1245  2404  3448  4138  4275  3680  2412  932  -230  -844  -926  -680  -454  -421  -509  -638  -751  -803  -797  -767  -741  -727  -706  -661  -574  -452  -333  -237  -126  25  178  262  253  191  119  49  -6  -29  -15  19  55  88  141  248  416  578  639  592  523  490  490  499  502  488  452  406  378  375  384  389  385  378  373  366  347  316  276  232  185  130  58  -13  -56  -68  -80  -123  -187  -235  -251  -248  -253  -286  -352  -436  -510  -539  -511  -459  -434  -449  -468  -452  -398  -323  -230  -104  37  105  21  -176  -392  -550  -603  -539  -399  -260  -193  -220  -316  -435  -542  -602  -605  -572  -535  -504  -464  -433  -460  -563  -682  -720  -666  -597  -565  -562  -567  -575  -592  -618  -658  -730  -826  -897  -898  -856  -824  -824  -837  -840  -838  -854  -889  -932  -974  -996  -971  -881  -756  -668  -652  -669  -679  -681  -695  -738  -803  -847  -828  -776  -771  -826  -889  -935  -999  -1131  -1343  -1606  -1812  -1818  -1640  -1436  -1290  -1224  -1333  -1630  -1853  -1712  -1098  -38  1303  2685  3842  4409  4109  2985  1451  172  -426  -402  -57  302  547  683  678  563  458  421  431  457  478  484  476  449  390  311  246  213  204  206  204  200  239  384  628  871  1033  1112  1141  1151  1170  1213  1271  1330  1387  1460  1579  1730  1850  1915  1965  2052  2185  2311  2364  2330  2258  2206  2185  2164  2093  1938  1738  1587  1512  1453  1348  1197  1037  911  827  763  706  663  639  631  625  613  596  571  536  500  476  456  415  346  273  232  238  278  328  364  379  373  351  321  288  254  234  233  234  201  105  -39  -172  -245  -252  -205  -117  -15  68  123  160  170  107  -65  -290  -453  -511  -506  -480  -450  -423  -398  -362  -317  -289  -298  -334  -362  -367  -362  -337  -285  -254  -287  -370  -468  -566  -676  -799  -880  -879  -811  -695  -540  -356  -147  65  233  313  281  113  -156  -414  -556  -579  -556  -555  -594  -667  -775  -899  -997  -1047  -1064  -1072  -1051  -941  -725  -549  -629  -954  -1307  -1495  -1318  -598  557  1858  3007  3664  3563  2658  1236  -100  -877  -1076  -926  -741  -770  -934  -1014  -1003  -1001  -1040  -1077  -1018  -821  -580  -422  -377  -390  -412  -433  -468  -520  -550  -518  -431  -310  -185  -100  -55  -6  57  87  61  33  57  111  153  190  255  362  494  626  739  813  848  877  930  985  992  937  842  732  638  584  557  524  427  220  -37  -205  -243  -220  -206  -223  -259  -305  -369  -435  -455  -394  -283  -203  -201  -244  -283  -304  -338  -420  -542  -649  -710  -727  -696  -631  -570  -524  -483  -446  -422  -415  -419  -424  -424  -416  -403  -390  -378  -369  -362  -361  -384  -443  -518  -542  -455  -278  -112  -27  -12  -27  -63  -133  -240  -357  -446  -479  -464  -433  -399  -342  -259  -183  -143  -138  -150  -164  -176  -200  -243  -286  -311  -316  -318  -319  -313  -294  -261  -214  -147  -41  100  234  310  331  330  322  294  229  147  92  80  81  61  15  -11  28  110  175  200  179  90  -73  -288  -527  -738  -785  -623  -470  -473  -419  13  957  2302  3661  4554  4669  3920  2546  1072  -83  -767  -1033  -1087  -1037  -867  -703  -666  -651  -554  -425  -333  -292  -286  -290  -282  -255  -224  -207  -212  -235  -259  -270  -252  -198  -126  -72  -47  -35  -19  16  96  209  284  270  196  106  20  -37  -45  7  127  305  491  620  680  702  718  756  836  910  879  719  531  441  481  587  678  727  723  615  357  24  -224  -320  -324  -309  -293  -252  -168  -64  13  26  -36  -147  -272  -389  -480  -533  -554  -562  -561  -529  -445  -332  -244  -206  -187  -151  -97  -67  -110  -224  -321  -329  -287  -264  -268  -269  -235  -153  -49  27  50  22  -37  -109  -173  -209  -218  -216  -222  -234  -243  -256  -285  -311  -315  -300  -278  -260  -253  -253  -251  -241  -223  -211  -233  -309  -416  -491  -509  -498  -490  -496  -504  -504  -500  -504  -513  -503  -433  -273  -47  144  159  -9  -173  -183  -109  -91  -161  -244  -274  -273  -325  -487  -705  -852  -884  -842  -762  -670  -582  -493  -401  -331  -315  -364  -458  -589  -793  -962  -728  159  1583  3163  4339  4589  3789  2268  641  -509  -1013  -1077  -910  -636  -381  -199  -100  -92  -132  -166  -179  -182  -186  -191  -189  -160  -85  21  131  248  370  452  472  457  443  453  498  563  619  651  654  644  657  720  819  917  993  1044  1081  1111  1139  1170  1218  1277  1349  1469  1645  1831  1974  2060  2112  2136  2045  1692  1091  504  181  104  92  31  -27  34  208  360  416  409  390  365  306  207  95  -7  -105  -190  -239  -250  -237  -185  -60  116  262  339  385  419  434  428  414  402  396  399  414  438  449  396  255  80  -77  -198  -242  -239  -259  -277  -278  -313  -373  -408  -409  -400  -398  -406  -421  -444  -480  -510  -503  -454  -399  -385  -442  -560  -689  -782  -836  -863  -876  -892  -919  -965  -1037  -1119  -1180  -1219  -1247  -1271  -1291  -1308  -1320  -1325  -1326  -1324  -1314  -1298  -1290  -1304  -1328  -1328  -1267  -1126  -934  -756  -645  -598  -583  -593  -647  -747  -834  -828  -738  -640  -581  -563  -594  -669  -776  -883  -957  -994  -1023  -1083  -1191  -1329  -1448  -1446  -1202  -743  -154  644  1730  2978  4157  4935  4905  3859  2043  105  -1276  -1737  -1359  -632  -83  70  -79  -302  -406  -299  50  521  850  836  473  -36  -411  -558  -573  -520  -355  -66  229  394  424  409  424  498  610  707  753  762  761  758  750  746  758  784  782  714  616  549  527  530  536  536  537  567  653  768  852  880  876  862  826  745  629  507  377  226  88  7  -12  5  43  90  120  106  40  -47  -113  -157  -212  -293  -379  -436  -456  -455  -440  -400  -333  -239  -116  -9  0  -81  -156  -171  -154  -144  -151  -168  -188  -215  -252  -286  -296  -257  -137  47  218  315  340  309  219  77  -61  -149  -202  -263  -324  -362  -406  -480  -555  -602  -614  -596  -561  -522  -483  -436  -379  -329  -304  -299  -324  -376  -422  -442  -452  -482  -531  -556  -532  -513  -539  -553  -492  -375  -265  -196  -169  -159  -149  -139  -136  -141  -143  -131  -87  -5  73  78  5  -70  -100  -99  -98  -111  -135  -154  -163  -165  -164  -170  -209  -289  -368  -408  -422  -460  -533  -582  -595  -620  -639  -607  -393  288  1519  2963  4107  4508  3951  2556  837  -502  -1111  -1127  -816  -447  -279  -339  -420  -413  -377  -371  -398  -429  -427  -377  -294  -208  -161  -176  -237  -304  -352  -380  -380  -304  -107  163  382  488  538  622  761  894  941  876  776  749  789  814  777  686  612  634  711  759  767  783  879  1076  1301  1448  1449  1280  953  543  204  77  140  267  390  480  500  434  292  125  -21  -176  -396  -644  -820  -895  -906  -873  -781  -631  -456  -280  -114  26  147  275  394  451  436  376  283  184  121  101  107  131  182  262  356  445  512  548  544  480  375  290  260  268  287  309  329  311  188  -60  -341  -524  -571  -524  -442  -376  -359  -389  -435  -438  -376  -324  -350  -433  -522  -581  -604  -619  -658  -711  -716  -625  -484  -379  -334  -314  -302  -323  -390  -473  -541  -592  -586  -518  -512  -626  -799  -960  -990  -821  -551  -320  -207  -221  -308  -377  -387  -380  -390  -402  -397  -384  -387  -436  -533  -634  -681  -673  -663  -694  -752  -821  -941  -1126  -1227  -1100  -896  -795  -598  56  1262  2721  3885  4197  3386  1743  19  -1154  -1560  -1256  -570  38  313  195  -217  -613  -754  -660  -448  -206  0  113  140  171  251  344  405  409  307  48  -293  -530  -535  -347  -117  6  12  -20  -42  -47  -26  30  105  160  187  206  232  260  298  355  413  443  439  430  465  566  690  800  906  991  989  853  616  376  219  173  208  247  237  193  159  150  158  171  176  166  134  90  54  32  21  23  44  77  87  51  12  22  61  90  107  124  150  177  193  201  204  202  206  234  290  347  362  315  234  169  136  122  119  123  128  120  103  93  107  137  174  211  228  211  172  133  106  103  144  233  343  419  426  368  275  183  118  91  118  205  318  401  429  416  377  326  281  237  159  40  -77  -160  -218  -267  -299  -296  -247  -163  -76  -21  -11  -47  -121  -216  -310  -364  -368  -344  -322  -309  -298  -276  -243  -198  -133  -56  -3  -28  -172  -419  -688  -886  -972  -1031  -1203  -1522  -1764  -1565  -739  640  2266  3630  4311  4139  3147  1655  207  -802  -1262  -1244  -939  -595  -430  -516  -725  -890  -971  -998  -976  -887  -737  -567  -423  -336  -308  -311  -307  -268  -198  -124  -67  -44  -88  -232  -432  -576  -569  -404  -168  13  103  179  289  345  266  118  5  -58  -96  -114  -121  -124  -126  -102  -25  98  235  373  518  662  778  827  796  720  647  586  513  429  367  326  267  162  30  -84  -153  -185  -207  -216  -198  -168  -150  -155  -184  -233  -290  -344  -392  -441  -513  -622  -749  -840  -876  -881  -883  -884  -860  -764  -561  -324  -210  -257  -352  -403  -407  -406  -444  -531  -618  -644  -582  -447  -305  -214  -180  -169  -164  -178  -234  -322  -395  -412  -373  -329  -326  -369  -444  -529  -598  -654  -717  -793  -864  -912  -934  -930  -884  -768  -602  -461  -397  -389  -398  -407  -424  -453  -470  -449  -391  -308  -200  -69  73  204  298  359  414  463  491  502  499  470  417  387  434  554  692  797  831  732  444  56  -227  -319  -284  -205  -118  -47  -24  -92  -257  -391  -299  63  569  1178  1948  2847  3742  4413  4526  3801  2360  794  -333  -851  -860  -630  -424  -289  -155  -5  138  250  311  319  292  236  145  49  -9  -29  -33  -36  -41  -45  -54  -87  -157  -238  -297  -327  -331  -272  -106  117  282  341  338  311  254  144  8  -86  -88  19  226  469  665  803  933  1091  1219  1207  1043  840  691  614  586  583  587  600  629  658  658  630  601  587  578  558  509  422  319  238  187  150  91  -16  -129  -178  -134  -12  123  201  215  198  170  138  106  77  37  -27  -113  -221  -351  -478  -565  -612  -640  -660  -672  -675  -657  -607  -538  -483  -460  -469  -505  -550  -582  -604  -640  -687  -715  -694  -619  -495  -341  -206  -131  -124  -177  -293  -467  -649  -764  -792  -779  -779  -813  -869  -915  -941  -955  -959  -921  -811  -655  -529  -465  -448  -472  -543  -640  -717  -755  -752  -679  -507  -280  -79  69  153  112  -60  -260  -384  -426  -429  -418  -385  -339  -313  -334  -403  -505  -610  -671  -642  -501  -299  -144  -121  -274  -577  -862  -920  -737  -468  -208  124  677  1540  2665  3754  4364  4202  3188  1606  94  -875  -1242  -1107  -644  -157  49  -59  -245  -331  -329  -288  -210  -106  -11  52  86  96  100  118  160  207  221  178  105  46  18  11  11  26  75  157  235  293  345  381  372  314  240  192  186  203  209  198  194  202  205  197  210  289  421  536  591  611  623  632  633  626  611  581  520  431  332  231  145  92  66  53  50  34  -47  -203  -368  -490  -556  -564  -517  -442  -386  -360  -335  -293  -242  -210  -221  -271  -328  -359  -344  -265  -122  29  122  131  82  5  -80  -162  -229  -268  -255  -161  2  164  256  300  366  469  563  611  620  592  507  359  193  84  46  32  -11  -106  -224  -301  -323  -339  -367  -358  -286  -181  -77  0  38  41  17  -26  -87  -148  -184  -179  -148  -129  -153  -212  -274  -299  -265  -170  -33  99  154  69  -137  -374  -550  -641  -646  -561  -415  -293  -267  -332  -435  -538  -621  -674  -699  -707  -715  -748  -860  -1056  -1208  -1177  -946  -594  -223  184  762  1577  2557  3410  3706  3255  2244  1041  20  -538  -581  -339  -97  68  186  214  166  124  89  36  -1  13  71  108  82  21  -21  -35  -35  -30  -8  36  70  45  -30  -99  -129  -126  -106  -76  -37  11  50  49  -10  -111  -186  -152  6  218  392  485  513  509  465  349  186  55  -10  -40  -54  -57  -71  -128  -238  -370  -479  -535  -526  -454  -342  -214  -77  37  81  61  -11  -173  -393  -545  -552  -445  -331  -307  -357  -396  -406  -415  -429  -442  -449  -431  -361  -251  -161  -145  -188  -233  -253  -266  -288  -298  -259  -169  -72  -15  -3  -19  -59  -124  -212  -321  -432  -514  -538  -516  -494  -497  -522  -555  -597  -644  -669  -635  -530  -382  -253  -186  -180  -205  -236  -255  -248  -211  -158  -112  -85  -79  -103  -152  -217  -319  -473  -596  -551  -330  -83  72  154  218  251  239  236  262  272  263  261  264  246  181  72  -19  -21  44  104  106  8  -163  -315  -398  -425  -423  -414  -431  -495  -590  -662  -664  -600  -498  -277  238  1113  2297  3673  4895  5374  4645  2830  669  -1021  -1743  -1409  -490  236  406  244  61  -32  -53  -51  -54  -62  -75  -90  -103  -111  -113  -96  -36  86  251  397  482  507  488  439  353  220  85  23  39  84  129  169  219  300  402  487  545  598  656  705  732  731  708  678  653  630  604  577  563  580  621  639  604  557  552  591  632  639  598  510  400  301  225  154  70  -17  -83  -124  -158  -181  -185  -177  -173  -180  -190  -199  -215  -244  -271  -279  -264  -242  -232  -265  -363  -495  -594  -628  -611  -574  -535  -493  -446  -399  -362  -342  -326  -286  -238  -226  -246  -264  -276  -293  -313  -321  -301  -266  -235  -223  -240  -291  -363  -421  -445  -450  -456  -456  -413  -294  -131  -41  -92  -194  -247  -252  -239  -231  -248  -286  -326  -370  -440  -546  -651  -704  -705  -699  -729  -793  -828  -779  -682  -603  -568  -549  -512  -452  -378  -293  -210  -156  -140  -154  -189  -234  -269  -291  -310  -358  -467  -608  -711  -750  -743  -695  -583  -423  -295  -297  -419  -483  -316  68  581  1202  1968  2839  3604  3862  3234  1782  93  -1170  -1644  -1374  -822  -440  -304  -315  -413  -565  -755  -911  -905  -735  -534  -397  -325  -297  -311  -366  -443  -516  -545  -466  -247  37  248  330  335  324  313  290  241  177  132  124  145  187  250  332  415  485  550  636  738  826  884  903  880  833  780  700  561  390  273  245  275  330  382  412  431  443  422  327  167  8  -96  -142  -150  -144  -135  -123  -107  -100  -115  -152  -181  -161  -70  77  205  209  91  -45  -129  -163  -169  -142  -53  96  263  392  454  455  423  386  355  334  315  286  248  220  219  227  212  169  122  94  76  58  69  131  213  281  328  361  392  422  434  420  404  410  434  455  466  471  442  328  120  -101  -241  -277  -260  -235  -200  -135  -46  43  148  305  457  523  545  585  603  526  323  35  -220  -345  -357  -335  -325  -326  -312  -261  -190  -149  -164  -244  -399  -573  -689  -740  -759  -756  -694  -523  -282  -98  -34  -86  -249  -489  -735  -881  -893  -887  -849  -605  -129  579  1636  2979  4236  4878  4351  2531  202  -1474  -1935  -1386  -431  307  504  290  29  -102  -163  -211  -260  -311  -348  -363  -351  -308  -239  -171  -104  -11  105  201  258  303  376  474  566  631  648  604  539  503  518  589  700  798  828  780  717  727  809  860  826  788  830  906  919  836  710  632  649  744  841  851  731  511  282  139  102  107  83  4  -110  -234  -354  -448  -485  -479  -486  -531  -586  -622  -644  -656  -668  -730  -893  -1131  -1341  -1457  -1483  -1401  -1161  -802  -471  -282  -253  -357  -533  -687  -761  -764  -723  -661  -595  -548  -533  -546  -565  -578  -585  -599  -634  -661  -650  -638  -678  -737  -738  -650  -517  -417  -378  -379  -411  -487  -591  -669  -691  -671  -639  -632  -654  -671  -681  -723  -812  -912  -950  -883  -772  -707  -723  -809  -918  -993  -1023  -1022  -969  -825  -614  -425  -309  -261  -274  -343  -447  -566  -689  -821  -970  -1138  -1300  -1412  -1460  -1444  -1356  -1203  -1021  -854  -724  -601  -441  -280  -200  -235  -365  -575  -872  -1222  -1472  -1423  -1009  -322  513  1380  2196  2871  3179  2865  1919  677  -339  -779  -690  -402  -297  -534  -897  -1075  -983  -699  -359  -125  -65  -140  -283  -422  -478  -396  -184  60  228  303  348  417  528  662  785  873  930  964  981  978  947  898  890  967  1093  1188  1230  1245  1259  1269  1263  1242  1228  1237  1258  1268  1254  1212  1161  1124  1102  1094  1096  1076  1026  974  937  906  860  762  585  379  234  181  181  178  139  76  35  43  82  117  137  160  194  215  186  91  -4  1  117  238  288  280  255  226  152  -6  -215  -396  -507  -530  -456  -312  -141  24  160  250  307  347  365  331  220  54  -106  -217  -269  -278  -274  -275  -280  -287  -296  -314  -349  -404  -473  -554  -657  -770  -856  -898  -903  -860  -738  -550  -358  -220  -147  -116  -113  -159  -288  -466  -594  -594  -462  -269  -109  -25  3  4  3  19  57  81  40  -57  -156  -225  -283  -346  -408  -443  -444  -437  -454  -489  -516  -533  -567  -620  -594  -335  99  406  413  289  345  837  1844  3153  4311  4834  4428  3168  1574  302  -328  -411  -207  -24  -88  -330  -511  -586  -658  -745  -788  -717  -503  -230  -20  104  168  188  185  183  184  181  179  209  305  445  555  586  559  508  439  339  236  205  293  448  574  633  669  732  814  870  886  884  895  934  991  1062  1157  1235  1236  1149  1004  839  666  477  303  195  152  139  131  111  70  13  -34  -51  -55  -70  -85  -83  -67  -63  -93  -136  -141  -104  -114  -249  -452  -590  -613  -565  -515  -481  -421  -304  -155  -39  4  -17  -75  -166  -308  -477  -599  -640  -634  -610  -576  -531  -488  -458  -421  -354  -281  -245  -239  -216  -164  -118  -132  -214  -308  -359  -367  -363  -373  -403  -443  -488  -528  -559  -595  -655  -720  -735  -659  -521  -396  -334  -342  -417  -552  -710  -840  -911  -932  -927  -892  -810  -704  -613  -531  -442  -378  -361  -349  -290  -192  -127  -146  -219  -295  -363  -467  -645  -847  -959  -909  -724  -485  -286  -184  -172  -212  -279  -359  -431  -445  -338  -153  -93  -320  -700  -855  -494  434  1805  3249  4205  4261  3336  1715  59  -1025  -1417  -1302  -922  -529  -324  -330  -397  -415  -401  -393  -390  -371  -325  -281  -272  -279  -261  -226  -195  -162  -107  -28  52  104  117  112  113  129  158  198  255  320  377  433  490  516  501  483  530  687  906  1073  1095  949  712  517  427  411  414  399  364  349  388  462  525  565  590  604  585  491  298  69  -72  -77  -21  4  -21  -76  -156  -250  -318  -334  -313  -300  -322  -360  -393  -429  -461  -438  -320  -149  -24  15  16  59  193  378  511  526  436  309  218  185  186  199  221  252  286  309  289  194  41  -87  -131  -104  -55  -17  0  -2  -14  -30  -49  -73  -91  -99  -101  -100  -93  -75  -49  -33  -41  -74  -110  -129  -137  -144  -144  -128  -107  -123  -236  -459  -692  -780  -695  -542  -414  -369  -430  -542  -625  -644  -599  -507  -371  -182  20  160  212  210  168  76  -33  -102  -119  -119  -133  -169  -208  -227  -217  -177  -123  -76  -51  -68  -163  -351  -564  -666  -606  -465  -317  -155  114  700  1737  3058  4237  4794  4368  2990  1248  -150  -894  -1035  -816  -563  -453  -456  -489  -526  -573  -626  -648  -610  -542  -466  -360  -223  -108  -47  -22  -6  8  7  -32  -105  -162  -152  -55  93  220  282  298  293  254  153  17  -87  -118  -73  56  283  557  767  853  848  816  798  797  795  783  771  749  671  506  298  145  88  88  110  137  163  171  142  63  -71  -223  -327  -392  -513  -741  -992  -1146  -1171  -1119  -1052  -997  -923  -789  -625  -516  -508  -592  -710  -793  -797  -724  -608  -495  -406  -328  -240  -155  -103  -96  -106  -100  -82  -80  -95  -93  -56  -17  -53  -196  -370  -459  -415  -268  -67  155  348  461  484  405  208  -59  -276  -354  -311  -233  -193  -195  -193  -162  -110  -60  -26  -13  -11  -11  -21  -45  -84  -153  -266  -387  -437  -402  -373  -407  -421  -307  -100  75  174  239  307  356  348  260  120  -11  -93  -124  -116  -97  -123  -208  -302  -366  -403  -425  -445  -477  -516  -542  -543  -532  -532  -565  -592  -534  -398  -238  38  590  1486  2681  3890  4667  4655  3723  2128  464  -728  -1191  -981  -397  197  515  515  367  209  89  27  24  54  94  149  235  339  428  485  513  517  500  467  441  444  469  477  458  434  421  419  433  477  575  718  834  880  899  928  941  909  853  846  929  1054  1157  1228  1284  1321  1327  1296  1217  1085  924  795  731  692  611  471  319  204  142  119  107  69  0  -73  -141  -227  -325  -396  -422  -423  -411  -393  -389  -430  -514  -557  -494  -389  -317  -262  -203  -182  -226  -305  -375  -441  -522  -603  -647  -652  -644  -640  -629  -607  -594  -610  -645  -681  -718  -763  -807  -825  -817  -823  -856  -880  -878  -870  -881  -926  -995  -1080  -1191  -1306  -1345  -1253  -1080  -931  -856  -836  -838  -841  -841  -854  -896  -958  -1007  -1010  -952  -837  -683  -526  -405  -321  -249  -165  -64  14  8  -66  -137  -180  -204  -210  -201  -184  -173  -172  -177  -186  -206  -228  -238  -232  -218  -208  -208  -225  -304  -467  -638  -718  -633  -253  499  1539  2688  3687  4243  4128  3239  1812  394  -553  -858  -631  -235  -38  -120  -300  -399  -344  -158  52  179  196  133  17  -116  -206  -178  -30  140  230  217  146  68  11  -5  22  79  134  161  150  97  19  -50  -81  -30  150  430  674  769  707  556  403  307  276  293  358  476  618  722  759  747  703  645  580  494  360  192  56  -7  -37  -115  -291  -517  -685  -737  -696  -614  -535  -462  -393  -346  -333  -343  -351  -331  -259  -153  -63  -25  -63  -172  -287  -329  -285  -213  -210  -306  -422  -487  -508  -505  -454  -317  -135  -9  9  -41  -109  -174  -227  -260  -281  -309  -353  -414  -494  -584  -660  -701  -696  -635  -507  -347  -228  -187  -235  -384  -592  -759  -834  -858  -883  -930  -985  -1018  -977  -830  -625  -469  -406  -401  -411  -417  -410  -381  -327  -257  -211  -236  -357  -527  -657  -701  -664  -553  -411  -308  -288  -342  -434  -515  -549  -538  -508  -464  -370  -235  -187  -311  -457  -327  253  1210  2384  3600  4495  4705  4154  2978  1551  392  -251  -416  -226  77  282  368  392  364  267  115  -37  -145  -202  -214  -157  -4  198  348  402  401  385  364  353  380  457  558  633  664  663  632  575  548  619  758  858  888  906  963  1058  1146  1193  1204  1194  1149  1062  956  868  809  759  696  614  536  505  540  609  663  686  692  683  628  504  350  240  186  137  67  3  -35  -56  -63  -64  -76  -111  -161  -196  -204  -201  -210  -249  -303  -343  -351  -334  -309  -297  -306  -318  -312  -289  -265  -249  -235  -216  -194  -179  -182  -212  -272  -347  -411  -472  -576  -740  -916  -1033  -1078  -1101  -1139  -1189  -1215  -1199  -1170  -1146  -1089  -949  -760  -618  -569  -592  -648  -697  -721  -732  -757  -801  -833  -783  -597  -340  -153  -87  -75  -38  34  107  166  212  245  257  238  171  66  -41  -122  -168  -190  -204  -213  -225  -250  -283  -309  -320  -328  -347  -370  -351  -237  -79  -66  -258  -501  -641  -456  307  1526  2786  3741  4123  3730  2583  1066  -228  -957  -1141  -926  -577  -402  -464  -601  -683  -681  -569  -322  -1  237  272  145  -7  -101  -134  -127  -100  -70  -49  -42  -44  -51  -66  -84  -81  -16  145  392  646  802  811  699  544  426  372  364  389  440  509  572  601  598  584  573  561  554  585  699  887  1067  1165  1141  979  713  431  207  61  -27  -87  -132  -157  -163  -159  -154  -153  -156  -158  -158  -154  -149  -148  -154  -160  -156  -142  -153  -225  -334  -419  -449  -446  -445  -458  -480  -509  -537  -550  -539  -499  -442  -394  -371  -361  -345  -320  -308  -334  -415  -542  -673  -757  -784  -773  -739  -676  -571  -447  -357  -328  -332  -336  -331  -332  -358  -414  -484  -551  -621  -685  -706  -659  -566  -467  -385  -327  -289  -264  -245  -218  -179  -152  -158  -185  -211  -227  -237  -244  -242  -226  -199  -182  -202  -257  -334  -404  -425  -390  -333  -285  -274  -306  -357  -413  -480  -550  -599  -608  -631  -786  -1072  -1294  -1213  -625  544  2128  3683  4655  4696  3806  2299  752  -287  -689  -691  -584  -524  -513  -488  -441  -394  -327  -216  -70  66  148  163  135  106  94  79  50  15  -8  -10  -1  -5  -14  -13  -5  0  0  -1  2  21  98  274  507  679  743  736  701  653  623  654  747  852  923  962  1002  1057  1091  1060  962  811  622  443  327  283  284  300  314  317  289  211  89  -33  -94  -66  32  186  357  474  522  568  667  783  829  765  648  553  503  497  524  544  529  499  482  478  474  473  510  640  864  1089  1185  1107  938  787  690  623  587  610  705  826  893  876  808  739  697  690  715  767  840  919  977  1009  1029  1048  1055  1025  943  810  663  563  540  582  664  759  830  853  832  804  810  869  962  1051  1089  1059  1005  987  1020  1071  1099  1084  1035  972  911  867  847  835  790  672  488  306  196  164  173  205  280  426  570  508  188  -100  -109  126  566  1302  2303  3342  4133  4337  3646  2171  548  -627  -1172  -1120  -673  -218  -13  -12  -77  -150  -212  -246  -250  -242  -245  -266  -295  -307  -271  -160  -11  99  154  186  205  167  29  -182  -355  -388  -311  -240  -248  -309  -317  -202  -27  99  166  212  240  242  231  231  229  140  -109  -448  -689  -709  -526  -263  -77  -57  -197  -416  -608  -732  -821  -890  -921  -928  -940  -962  -991  -1017  -1036  -1073  -1154  -1287  -1463  -1650  -1775  -1792  -1750  -1740  -1804  -1905  -1985  -2021  -2041  -2077  -2157  -2264  -2326  -2303  -2248  -2261  -2395  -2606  -2795  -2911  -2950  -2916  -2823  -2661  -2391  -1979  -1447]
