reading_id,reading_time,wire_id,result_classification,heart_rate,heart_rate_alert,firmware_version,device_app_version,hardware_version,waveform_samples
cba533f0-e36f-11ed-8080-808080808080,Tue Apr 25 13:48:01 UTC 2023,0129e4747e39,NSR,71,NONE,20001.188.58,2.13.0,Charge 5,[-1712  -1729  -1780  -1878  -1989  -2064  -2093  -2088  -2034  -1898  -1705  -1543  -1476  -1488  -1535  -1579  -1605  -1620  -1622  -1585  -1476  -1325  -1210  -1166  -1165  -1175  -1179  -1170  -1149  -1125  -1112  -1120  -1143  -1173  -1206  -1237  -1271  -1306  -1333  -1342  -1336  -1316  -1269  -1190  -1088  -981  -890  -827  -804  -811  -830  -867  -924  -973  -996  -997  -986  -966  -943  -919  -868  -738  -528  -321  -212  -213  -277  -352  -386  -363  -320  -290  -264  -231  -194  -166  -144  -124  -125  -169  -242  -301  -331  -333  -286  -166  -25  29  -47  -176  -245  -220  -149  -97  -119  -235  -370  -428  -346  -105  236  715  1464  2390  3224  3762  3775  3096  1985  931  205  -123  -97  133  392  503  371  104  -113  -216  -243  -239  -192  -60  138  325  466  567  626  629  576  499  444  430  438  453  477  502  506  465  391  323  287  275  273  286  325  403  525  661  754  784  780  770  752  724  703  718  786  908  1049  1137  1148  1122  1101  1092  1089  1101  1139  1204  1271  1301  1266  1170  1052  953  873  777  657  531  378  186  8  -99  -144  -145  -107  -63  -65  -146  -262  -332  -353  -381  -426  -460  -474  -482  -504  -543  -580  -587  -567  -546  -515  -445  -365  -318  -293  -269  -246  -228  -211  -188  -159  -135  -128  -146  -186  -234  -282  -329  -337  -265  -145  -50  -9  0  -3  -7  -6  0  6  11  12  8  2  0  -8  -30  -54  -54  -22  23  56  39  -38  -137  -203  -202  -107  50  180  229  210  149  75  23  0  -7  -10  0  36  90  126  132  131  157  215  268  294  317  351  380  390  381  359  332  309  286  252  216  194  196  238  319  395  419  358  222  94  34  15  22  38  -6  -123  -197  -3  607  1529  2534  3405  3933  3977  3486  2572  1535  683  190  97  270  463  533  506  426  297  132  -23  -127  -156  -127  -98  -107  -121  -70  73  232  307  315  322  341  342  313  266  227  210  210  214  216  221  238  264  258  183  64  -29  -63  -45  8  85  162  220  242  227  202  183  165  139  117  139  258  482  727  885  929  887  774  625  503  443  425  415  399  381  356  306  205  61  -79  -179  -241  -292  -367  -501  -687  -863  -981  -1060  -1126  -1130  -1015  -812  -627  -554  -605  -708  -786  -812  -819  -865  -982  -1117  -1159  -1062  -929  -880  -895  -895  -868  -836  -803  -767  -712  -619  -501  -398  -332  -301  -295  -302  -315  -330  -342  -345  -341  -351  -383  -431  -468  -455  -397  -344  -299  -245  -195  -154  -115  -85  -87  -123  -172  -212  -240  -273  -313  -342  -345  -322  -286  -249  -216  -202  -220  -275  -340  -389  -447  -530  -540  -416  -241  -114  -60  -53  -62  -67  -67  -67  -73  -87  -103  -116  -124  -136  -156  -176  -193  -210  -226  -259  -340  -459  -560  -618  -634  -609  -539  -427  -304  -205  -147  -149  -276  -535  -760  -787  -630  -303  247  1027  1982  2944  3628  3791  3317  2275  1046  105  -327  -319  -69  203  362  379  284  132  -24  -153  -232  -268  -282  -279  -242  -175  -115  -95  -104  -113  -103  -76  -50  -40  -44  -56  -62  -31  61  188  282  315  314  309  308  310  315  331  363  412  469  515  538  539  532  532  558  624  720  814  869  880  859  830  830  872  925  959  976  987  995  989  943  845  721  624  581  580  578  537  433  268  85  -66  -179  -266  -332  -366  -370  -369  -403  -505  -643  -744  -771  -751  -723  -710  -709  -708  -706  -700  -683  -648  -598  -547  -514  -499  -481  -452  -423  -411  -418  -434  -447  -458  -476  -502  -529  -546  -534  -479  -403  -338  -282  -220  -157  -105  -66  -51  -97  -240  -436  -578  -599  -519  -407  -331  -310  -312  -299  -253  -181  -116  -88  -92  -122  -183  -256  -309  -326  -312  -282  -245  -208  -181  -164  -148  -110  -38  44  102  109  57  -35  -128  -192  -213  -188  -137  -71  15  110  180  206  175  79  -48  -141  -168  -157  -163  -218  -299  -355  -370  -371  -381  -392  -381  -331  -264  -249  -333  -463  -560  -593  -560  -480  -397  -341  -315  -270  -74  377  1117  2060  2995  3730  4041  3640  2583  1351  359  -239  -372  -172  14  38  -18  -109  -204  -254  -263  -254  -233  -207  -190  -190  -204  -214  -174  -42  152  319  392  382  332  268  206  164  147  137  126  117  120  140  174  193  180  159  155  154  139  130  175  304  470  592  642  643  628  628  657  710  770  818  842  851  854  861  880  920  979  1046  1105  1147  1163  1123  986  777  591  488  428  324  122  -124  -296  -351  -343  -330  -325  -327  -351  -417  -513  -595  -627  -606  -558  -524  -534  -583  -634  -648  -627  -593  -559  -529  -499  -472  -459  -463  -474  -489  -502  -504  -488  -459  -441  -447  -472  -504  -526  -526  -515  -503  -470  -391  -273  -159  -96  -97  -154  -244  -334  -405  -455  -480  -479  -462  -451  -451  -453  -457  -472  -488  -501  -509  -516  -521  -523  -521  -516  -503  -486  -473  -472  -485  -502  -521  -547  -573  -591  -609  -622  -610  -584  -566  -562  -561  -555  -543  -534  -543  -563  -560  -500  -399  -301  -243  -223  -206  -167  -111  -65  -56  -94  -171  -270  -362  -423  -443  -425  -397  -379  -370  -369  -381  -399  -402  -368  -303  -252  -227  -199  -220  -348  -489  -485  -234  316  1095  1983  2939  3816  4301  4113  3200  1924  845  219  15  120  270  235  120  88  116  138  145  139  111  63  25  25  53  81  92  85  69  54  34  7  -15  12  134  313  462  542  570  568  538  487  459  483  524  541  533  519  510  503  471  396  317  311  411  583  784  974  1116  1189  1204  1196  1187  1175  1142  1070  963  851  760  702  688  722  780  805  783  751  713  609  385  103  -102  -176  -170  -154  -170  -245  -362  -465  -512  -516  -516  -540  -583  -615  -623  -622  -618  -596  -567  -558  -589  -641  -648  -563  -434  -347  -316  -301  -279  -268  -298  -361  -399  -375  -332  -322  -350  -406  -463  -489  -474  -439  -411  -398  -391  -378  -364  -353  -345  -331  -298  -248  -205  -185  -179  -182  -211  -282  -366  -417  -414  -374  -329  -308  -333  -415  -526  -611  -650  -652  -611  -508  -372  -272  -229  -209  -187  -177  -197  -230  -253  -276  -331  -421  -519  -610  -706  -775  -738  -570  -353  -190  -104  -62  -39  -31  -43  -76  -139  -246  -354  -387  -335  -271  -241  -235  -232  -235  -284  -410  -578  -707  -755  -731  -651  -551  -479  -442  -399  -339  -341  -468  -622  -637  -439  -42  534  1271  2126  2950  3408  3213  2394  1257  269  -248  -382  -335  -191  -68  -74  -149  -192  -190  -167  -142  -129  -125  -120  -103  -80  -62  -49  -28  3  32  44  37  24  19  32  75  162  290  415  470  426  315  194  101  54  58  117  216  322  418  519  620  687  711  714  720  728  722  697  676  691  757  848  912  943  985  1076  1197  1287  1319  1307  1264  1194  1101  993  876  749  613  479  359  250  143  31  -73  -147  -183  -200  -220  -257  -314  -384  -447  -475  -463  -441  -435  -451  -480  -504  -511  -512  -516  -519  -509  -465  -391  -328  -317  -356  -410  -461  -506  -539  -559  -572  -565  -494  -337  -149  -23  5  -27  -74  -114  -158  -228  -303  -330  -292  -205  -91  10  69  80  35  -69  -215  -354  -440  -466  -463  -454  -440  -412  -370  -333  -317  -317  -322  -316  -291  -253  -213  -175  -147  -145  -187  -257  -294  -278  -266  -287  -320  -341  -338  -303  -235  -132  -11  82  122  95  0  -136  -254  -323  -364  -411  -481  -568  -672  -774  -818  -770  -665  -554  -447  -343  -271  -251  -280  -334  -385  -438  -535  -681  -802  -733  -272  606  1698  2744  3453  3575  3049  2021  861  -30  -517  -626  -448  -179  26  127  129  74  -11  -112  -188  -218  -224  -231  -253  -290  -329  -353  -348  -302  -226  -153  -118  -124  -145  -140  -84  0  62  95  121  169  250  323  322  251  176  135  123  122  133  169  225  280  304  305  364  535  741  881  921  894  849  822  828  869  930  976  994  989  974  956  934  903  856  780  684  603  559  535  482  358  189  48  -36  -101  -187  -303  -418  -500  -548  -591  -638  -670  -667  -627  -573  -533  -500  -439  -354  -294  -284  -307  -334  -343  -342  -350  -365  -377  -384  -386  -386  -385  -380  -364  -340  -332  -359  -407  -448  -462  -437  -364  -267  -196  -170  -167  -170  -188  -236  -308  -373  -404  -367  -243  -96  -20  -27  -62  -95  -141  -225  -342  -446  -486  -445  -345  -237  -169  -148  -152  -157  -155  -151  -158  -193  -271  -377  -463  -494  -473  -409  -329  -273  -254  -255  -258  -259  -261  -267  -274  -269  -240  -196  -154  -124  -105  -95  -93  -102  -123  -152  -181  -207  -236  -274  -309  -322  -313  -297  -309  -372  -467  -554  -616  -662  -690  -687  -637  -582  -645  -821  -889  -683  -145  754  1836  2812  3558  3946  3753  2947  1808  735  -33  -403  -363  -115  68  89  -14  -161  -260  -273  -221  -149  -95  -59  -30  -28  -72  -134  -175  -178  -156  -121  -80  -40  -16  -8  -9  -12  -17  -30  -48  -55  -40  -8  22  51  94  160  254  368  477  541  555  548  541  536  532  535  562  629  725  815  882  925  944  950  957  971  972  945  903  871  855  833  785  710  639  609  608  582  474  294  117  10  -25  -31  -52  -113  -204  -301  -374  -400  -380  -348  -330  -319  -302  -290  -295  -308  -316  -315  -310  -304  -301  -313  -351  -406  -450  -468  -468  -465  -462  -449  -412  -344  -254  -168  -114  -98  -106  -123  -143  -157  -154  -130  -96  -71  -59  -53  -53  -80  -165  -290  -394  -433  -396  -294  -171  -84  -53  -57  -64  -66  -75  -103  -146  -199  -277  -372  -451  -495  -510  -513  -504  -467  -386  -287  -218  -197  -203  -203  -180  -141  -104  -83  -86  -123  -207  -315  -402  -459  -507  -558  -598  -606  -572  -503  -412  -321  -245  -168  -90  -39  -38  -62  -64  -43  -58  -128  -199  -235  -250  -262  -273  -296  -356  -462  -587  -692  -750  -750  -694  -597  -487  -389  -312  -269  -275  -314  -353  -411  -533  -688  -800  -793  -522  166  1232  2401  3355  3857  3731  2929  1728  652  -2  -282  -286  -164  -131  -195  -212  -163  -127  -146  -196  -228  -227  -218  -223  -236  -240  -227  -199  -161  -118  -81  -50  -25  -2  21  31  16  -7  -19  -22  -24  -25  -5  44  105  144  157  166  193  244  299  353  415  483  541  583  616  649  684  729  790  868  949  1007  1031  1031  1026  1025  1030  1022  977  907  850  827  826  819  773  672  517  337  185  82  5  -78  -170  -245  -282  -288  -283  -282  -289  -302  -332  -389  -462  -535  -611  -681  -689  -595  -443  -328  -289  -295  -316  -343  -367  -370  -334  -272  -212  -166  -145  -157  -209  -280  -331  -338  -303  -250  -199  -161  -148  -171  -216  -265  -299  -308  -304  -304  -299  -281  -265  -265  -276  -279  -270  -273  -311  -353  -335  -262  -198  -179  -184  -169  -104  -4  67  46  -88  -280  -427  -485  -490  -481  -446  -361  -245  -159  -127  -126  -141  -182  -254  -329  -379  -403  -400  -374  -344  -323  -308  -295  -282  -275  -272  -258  -226  -165  -65  33  75  58  16  -24  -51  -71  -101  -138  -162  -173  -189  -233  -305  -383  -452  -512  -554  -568  -547  -491  -413  -329  -253  -194  -170  -241  -389  -494  -515  -419  -57  613  1482  2381  3051  3256  2895  2025  962  100  -422  -627  -537  -306  -153  -119  -118  -113  -109  -110  -116  -122  -108  -62  12  90  149  185  193  149  30  -124  -234  -268  -250  -202  -123  -27  48  84  95  107  122  126  126  141  169  196  215  233  248  254  258  273  309  356  406  457  515  593  699  827  972  1123  1230  1276  1277  1223  1088  909  779  737  744  754  749  736  725  708  656  552  410  270  156  36  -111  -250  -342  -400  -447  -481  -497  -511  -532  -559  -582  -595  -598  -584  -536  -460  -384  -338  -325  -325  -312  -277  -239  -213  -198  -192  -201  -223  -247  -263  -272  -282  -290  -283  -252  -205  -165  -148  -150  -158  -148  -101  -22  43  41  -51  -189  -291  -327  -324  -303  -264  -215  -180  -182  -223  -281  -327  -349  -349  -333  -314  -303  -300  -301  -302  -302  -305  -311  -317  -326  -354  -413  -469  -458  -375  -284  -237  -222  -200  -143  -63  6  49  64  51  2  -84  -188  -271  -327  -366  -393  -429  -495  -561  -583  -547  -458  -332  -200  -96  -39  -26  -34  -43  -45  -35  -12  3  -5  -45  -118  -211  -292  -345  -376  -396  -415  -439  -451  -436  -416  -411  -417  -434  -472  -516  -532  -486  -387  -318  -325  -379  -418  -290  162  938  1910  2870  3542  3681  3181  2176  1064  259  -97  -109  7  58  12  -43  -64  -91  -160  -254  -337  -390  -408  -381  -309  -219  -161  -146  -144  -117  -63  -22  -24  -54  -81  -87  -67  -11  97  235  335  366  342  283  205  143  138  189  257  320  376  420  458  502  543  561  552  540  560  619  697  771  823  852  879  914  933  913  867  821  785  778  815  867  875  829  777  737  653  469  202  -62  -235  -296  -285  -240  -181  -135  -127  -162  -226  -297  -366  -427  -479  -538  -604  -651  -658  -629  -585  -545  -513  -472  -408  -335  -292  -316  -421  -568  -694  -766  -789  -754  -646  -498  -378  -322  -310  -315  -322  -327  -326  -306  -258  -193  -146  -129  -140  -169  -206  -228  -218  -179  -140  -122  -120  -151  -227  -300  -321  -311  -300  -290  -276  -258  -242  -243  -262  -281  -282  -271  -263  -266  -274  -280  -294  -327  -363  -379  -365  -314  -244  -189  -167  -164  -167  -168  -169  -172  -178  -192  -213  -232  -246  -261  -275  -278  -273  -273  -301  -375  -469  -523  -506  -446  -375  -292  -201  -134  -107  -102  -98  -97  -101  -107  -114  -135  -177  -226  -267  -301  -335  -369  -394  -411  -431  -456  -480  -495  -481  -441  -393  -362  -385  -431  -442  -470  -587  -705  -669  -424  38  736  1638  2592  3342  3634  3332  2490  1416  565  157  82  132  125  -25  -228  -352  -381  -341  -265  -200  -164  -128  -65  11  65  83  80  74  63  38  -13  -72  -83  -12  105  219  295  320  318  314  314  307  282  245  213  210  247  307  377  462  554  623  653  646  619  596  603  639  678  699  700  694  720  811  951  1079  1151  1174  1169  1154  1139  1122  1081  1001  897  795  696  597  510  439  369  286  199  126  61  -20  -118  -212  -276  -308  -332  -370  -421  -467  -488  -494  -515  -577  -665  -736  -765  -760  -734  -691  -633  -569  -518  -491  -478  -468  -455  -434  -410  -397  -407  -434  -467  -501  -531  -548  -542  -512  -479  -465  -467  -465  -451  -432  -423  -421  -421  -420  -420  -425  -436  -452  -470  -490  -507  -507  -483  -458  -454  -465  -477  -473  -422  -307  -158  -38  7  -27  -139  -293  -419  -459  -429  -388  -361  -331  -268  -175  -93  -47  -30  -28  -36  -62  -127  -225  -320  -394  -468  -548  -611  -641  -634  -563  -394  -180  -26  34  63  121  206  278  309  289  216  110  9  -66  -124  -173  -218  -253  -291  -350  -422  -479  -505  -505  -496  -492  -499  -511  -504  -485  -491  -514  -520  -557  -674  -776  -730  -486  -38  616  1455  2397  3298  3884  3749  2712  1203  -87  -814  -910  -472  97  428  522  479  306  23  -273  -469  -532  -518  -474  -396  -273  -134  -32  20  44  53  52  48  45  53  84  130  168  184  186  177  159  133  110  95  94  126  208  314  389  425  470  551  642  706  730  719  692  669  655  655  688  772  884  979  1046  1099  1131  1121  1077  1055  1090  1145  1154  1086  947  765  587  463  404  372  328  260  182  109  58  40  44  21  -79  -253  -427  -536  -567  -545  -494  -426  -351  -294  -272  -287  -338  -408  -465  -494  -500  -494  -474  -438  -386  -328  -283  -254  -235  -224  -214  -210  -239  -269  -245  -177  -114  -83  -84  -93  -75  -22  42  99  136  122  52  -30  -106  -183  -256  -311  -342  -357  -365  -363  -331  -263  -183  -126  -105  -114  -145  -195  -252  -294  -310  -296  -250  -179  -105  -59  -65  -128  -224  -328  -419  -475  -484  -460  -428  -402  -377  -319  -202  -65  9  -36  -201  -411  -569  -644  -674  -693  -709  -705  -637  -473  -272  -137  -94  -80  -43  -5  -19  -93  -193  -277  -330  -361  -384  -401  -405  -404  -411  -435  -470  -494  -501  -497  -503  -539  -605  -668  -699  -704  -702  -690  -646  -609  -685  -860  -897  -664  -319  -6  383  1024  1935  2933  3684  3811  3102  1791  503  -271  -487  -352  -143  -74  -127  -159  -142  -147  -209  -293  -339  -314  -233  -132  -41  22  62  84  77  31  -48  -138  -204  -225  -194  -122  -60  -39  -27  4  51  101  160  246  354  450  513  525  476  389  337  382  496  592  624  618  618  656  729  802  844  856  858  863  876  900  929  948  952  956  974  1011  1050  1074  1080  1065  996  822  563  320  166  101  92  104  113  95  37  -42  -104  -138  -163  -184  -194  -207  -263  -387  -530  -620  -640  -626  -608  -593  -577  -556  -533  -512  -488  -460  -437  -416  -389  -366  -358  -359  -358  -355  -359  -387  -437  -462  -422  -350  -290  -245  -215  -204  -207  -207  -162  -62  51  122  123  74  17  -34  -93  -160  -221  -276  -317  -329  -329  -345  -364  -352  -307  -254  -219  -210  -225  -256  -287  -302  -303  -305  -318  -339  -356  -363  -366  -368  -363  -338  -290  -244  -217  -204  -208  -266  -400  -541  -582  -523  -451  -423  -422  -409  -366  -309  -267  -246  -234  -226  -233  -269  -321  -360  -373  -372  -368  -362  -352  -341  -329  -318  -322  -355  -410  -461  -489  -502  -512  -522  -528  -529  -528  -530  -545  -565  -559  -545  -567  -543  -348  102  878  1889  2831  3419  3462  2861  1784  688  -66  -410  -386  -161  -2  -13  -110  -220  -318  -380  -397  -371  -298  -195  -102  -42  -21  -39  -89  -144  -178  -183  -172  -145  -84  14  121  187  186  140  106  105  122  145  164  172  171  164  156  152  163  215  317  432  511  552  588  636  696  776  866  930  952  952  957  985  1036  1087  1108  1092  1052  1014  988  974  967  962  948  916  850  720  510  274  106  47  64  96  109  90  34  -66  -187  -275  -298  -275  -249  -252  -293  -361  -432  -486  -512  -517  -514  -510  -506  -499  -490  -488  -494  -501  -497  -480  -451  -426  -425  -438  -435  -381  -257  -99  13  44  18  -24  -70  -127  -193  -236  -236  -207  -194  -234  -299  -324  -298  -257  -230  -236  -259  -268  -267  -273  -291  -318  -344  -362  -378  -395  -400  -377  -330  -282  -254  -251  -262  -277  -293  -318  -356  -401  -432  -444  -446  -445  -431  -391  -337  -297  -290  -310  -340  -362  -365  -348  -310  -257  -194  -130  -83  -56  -38  -23  -13  1  33  69  55  -63  -267  -469  -602  -656  -646  -590  -523  -484  -480  -490  -497  -500  -504  -512  -539  -622  -779  -937  -980  -816  -384  281  1112  2051  2896  3370  3378  2860  1830  711  -17  -318  -368  -286  -189  -173  -214  -230  -221  -220  -232  -241  -229  -198  -168  -151  -145  -146  -151  -155  -146  -114  -73  -46  -37  -22  18  73  113  133  165  233  321  378  374  330  300  310  334  341  337  340  349  353  354  378  457  581  717  842  934  976  986  995  1001  991  966  939  917  908  911  918  922  925  929  931  919  887  840  774  643  422  181  12  -75  -128  -176  -219  -256  -308  -386  -469  -531  -568  -595  -629  -665  -685  -672  -616  -535  -466  -422  -396  -376  -367  -378  -403  -438  -499  -595  -689  -708  -632  -505  -376  -272  -198  -132  -37  94  211  235  126  -57  -213  -305  -357  -381  -378  -350  -308  -259  -210  -177  -167  -147  -95  -35  -11  -48  -116  -165  -175  -169  -164  -163  -165  -166  -163  -151  -135  -122  -115  -111  -109  -114  -135  -172  -202  -215  -225  -252  -292  -323  -310  -244  -152  -75  -42  -67  -124  -168  -186  -205  -252  -310  -335  -315  -281  -263  -263  -259  -238  -210  -190  -180  -165  -134  -111  -109  -120  -136  -150  -155  -151  -142  -139  -156  -207  -280  -353  -422  -489  -536  -556  -557  -534  -478  -398  -320  -243  -171  -161  -287  -534  -766  -876  -862  -706  -340  257  1026  1896  2790  3474  3628  3109  2093  991  142  -327  -410  -246  -71  4  -7  -63  -82  -33  35  83  102  97  81  61  39  12  -17  -46  -67  -78  -82  -83  -83  -77  -65  -42  -7  32  74  129  194  247  270  267  256  250  248  240  220  214  272  401  540  626  637  598  567  599  695  815  907  945  939  926  940  976  996  986  964  939  916  890  841  774  715  671  629  583  518  410  267  127  16  -62  -106  -124  -153  -242  -380  -499  -552  -552  -543  -560  -616  -679  -720  -741  -758  -768  -760  -724  -662  -594  -535  -472  -396  -334  -329  -392  -494  -582  -628  -643  -644  -617  -545  -446  -368  -336  -338  -359  -397  -433  -442  -427  -403  -366  -305  -222  -137  -79  -63  -83  -133  -214  -305  -375  -411  -411  -362  -257  -130  -43  -45  -154  -349  -546  -663  -687  -654  -595  -513  -427  -369  -349  -344  -339  -341  -365  -415  -480  -541  -584  -599  -599  -603  -625  -679  -758  -834  -873  -871  -859  -857  -857  -830  -774  -724  -705  -706  -700  -650  -537  -397  -306  -316  -440  -638  -827  -935  -968  -967  -946  -881  -764  -645  -581  -575  -584  -584  -608  -722  -962  -1246  -1435  -1447  -1288  -1049  -898  -902  -948  -919  -726  -252  497  1370  2185  2659  2536  1829  770  -232  -770  -766  -390  144  535  625  588  574  542  451  337  248  196  166  160  193  274  390  513  645  776  864  889  886  901  967  1080  1189  1248  1256  1247  1254  1294  1353  1404  1433  1427  1348  1173  957  816  829  999  1238  1407  1416  1271  1057  886  803  775  770  789  848  963  1115  1271  1415  1558  1701  1819  1882  1879  1836  1791  1756  1694  1551  1338  1140  1024  978  978  993  968  878  765  668  584  520  510  554  606  621  573  453  277  108  15  16  71  128  155  148  132  116  73  -27  -186  -357  -477  -528  -542  -558  -595  -626  -575  -377  -83  170  298  306  236  93  -145  -443  -686  -816  -859  -855  -809  -707  -542  -337  -149  -35  -2  -10  -34  -84  -166  -249  -289  -297  -317  -351  -353  -280  -127  27  73  -20  -157  -223  -211  -181  -160  -153  -181  -272  -411  -533  -588  -575  -509  -409  -309  -249  -220  -164  -38  101  136  14  -186  -360  -452  -469  -454  -452  -498  -605  -746  -868  -938  -959  -962  -966  -966  -941  -871  -777  -709  -687  -688  -692  -696  -721  -794  -922  -1076  -1209  -1305  -1376  -1439  -1483  -1494  -1490  -1506  -1543  -1569  -1540  -1455  -1351  -1209  -988  -754  -614  -606  -776  -1087  -1268  -1167  -900  -392  586  1991  3624  5247  6316  6142  4609  2420  527  -443  -365  318  816  707  289  4  -80  -84  -63  -49  -56  -78  -108  -139  -165  -176  -151  -94  -28  37  114  203  304  399  450  428  305  50  -283  -532  -603  -545  -453  -390  -361  -331  -235  -12  290  542  691  772  813  826  829  828  820  805  789  773  759  768  846  1015  1223  1353  1288  968  499  120  -35  -24  46  102  88  -40  -313  -657  -908  -992  -977  -944  -923  -919  -937  -988  -1066  -1161  -1285  -1457  -1646  -1782  -1852  -1903  -1962  -2013  -2040  -2024  -1938  -1779  -1582  -1386  -1210  -1068  -974  -938  -943  -955  -949  -929  -911  -899  -881  -836  -755  -650  -552  -477  -418  -370  -323  -272  -235  -269  -447  -722  -930  -970  -871  -725  -609  -522  -419  -285  -148  -54  -28  -77  -202  -371  -530  -679  -835  -979  -1054  -985  -734  -391  -142  -72  -127  -229  -327  -391  -408  -389  -371  -385  -440  -521  -606  -667  -682  -658  -620  -594  -584  -582  -579  -585  -615  -662  -671  -594  -458  -323  -208  -113  -51  -23  -12  -1  17  45  66  61  35  27  64  128  180  199  189  153  102  55  29  24  25  19  -16  -128  -346  -552  -578  -468  -392  -376  -330  -122  360  1117  1993  2716  3039  2876  2278  1395  517  -29  -140  22  262  488  605  545  407  323  313  340  379  420  458  481  489  486  480  471  454  432  417  418  426  420  389  381  443  536  607  658  703  747  808  901  999  1056  1043  963  854  774  745  755  793  866  984  1145  1311  1430  1482  1486  1476  1477  1496  1530  1568  1603  1622  1623  1613  1599  1579  1544  1504  1481  1487  1508  1486  1337  1077  844  722  664  602  518  425  350  322  337  339  294  229  181  156  133  43  -159  -372  -407  -251  -80  -6  -3  -12  -16  -36  -87  -144  -170  -155  -112  -73  -56  -53  -52  -49  -43  -32  -16  1  18  29  35  34  26  19  16  16  9  -9  -34  -51  -56  -69  -104  -144  -155  -127  -88  -67  -66  -73  -82  -99  -129  -164  -200  -245  -288  -304  -285  -249  -245  -293  -347  -367  -363  -364  -383  -414  -434  -413  -338  -239  -158  -115  -102  -104  -125  -181  -257  -318  -342  -330  -290  -242  -208  -170  -83  66  230  336  328  233  138  97  93  93  79  62  61  75  90  95  91  84  78  71  58  31  -6  -14  49  152  188  51  -190  -220  195  971  1906  2794  3382  3493  3127  2369  1394  495  -47  -130  91  289  218  -86  -408  -580  -568  -416  -216  -74  -35  -78  -179  -325  -508  -690  -815  -874  -897  -908  -920  -948  -991  -1034  -1058  -1044  -990  -921  -870  -825  -745  -629  -537  -514  -541  -574  -595  -598  -564  -477  -359  -265  -221  -206  -187  -118  26  199  318  344  300  236  188  160  155  217  393  631  794  802  690  530  365  212  89  1  -66  -137  -225  -319  -393  -447  -490  -505  -475  -425  -400  -428  -485  -530  -555  -580  -615  -649  -674  -688  -691  -692  -691  -683  -671  -668  -677  -695  -715  -731  -741  -743  -733  -705  -651  -562  -443  -326  -256  -233  -224  -212  -225  -302  -440  -576  -634  -610  -566  -547  -553  -566  -575  -569  -545  -515  -486  -453  -422  -405  -398  -397  -402  -421  -466  -525  -566  -569  -547  -531  -542  -577  -629  -686  -733  -769  -797  -813  -805  -758  -685  -628  -601  -591  -586  -584  -582  -576  -546  -471  -355  -259  -260  -349  -438  -476  -479  -477  -474  -449  -379  -264  -148  -76  -49  -36  -27  -38  -91  -181  -274  -328  -335  -320  -306  -297  -273  -213  -126  -53  -39  -82  -154  -231  -308  -376  -390  -273  -34  133  69  -154  -370  -419  -148  485  1397  2418  3264  3658  3516  2885  1957  1100  528  200  93  167  272  297  254  199  176  175  165  125  64  15  -11  -27  -43  -51  -40  -14  20  64  115  139  108  51  16  20  49  74  72  55  42  35  31  40  81  158  244  305  335  341  334  323  315  324  363  406  423  415  419  488  643  827  956  1009  1013  967  853  700  579  522  512  528  539  495  364  184  28  -79  -175  -289  -409  -487  -510  -519  -525  -479  -347  -217  -233  -397  -559  -627  -627  -612  -592  -568  -546  -534  -511  -436  -293  -157  -149  -266  -394  -455  -446  -389  -311  -221  -116  -17  42  58  55  46  30  9  -8  -18  -25  -52  -117  -191  -211  -135  -4  99  143  151  145  125  100  90  85  55  6  -19  -14  -5  -2  12  56  117  164  182  179  156  102  16  -64  -95  -72  -37  -37  -71  -106  -123  -124  -119  -116  -128  -165  -219  -275  -335  -403  -459  -471  -410  -291  -184  -141  -156  -202  -254  -295  -309  -273  -193  -108  -53  -19  32  106  157  138  53  -39  -103  -140  -164  -191  -221  -242  -255  -259  -256  -259  -281  -324  -385  -445  -494  -533  -528  -436  -258  -101  -95  -183  -197  -97  116  532  1190  2002  2826  3372  3253  2373  1110  24  -511  -462  -86  271  406  375  311  173  -115  -442  -640  -667  -581  -448  -315  -191  -88  -28  -11  -18  -31  -48  -65  -76  -82  -87  -90  -72  -14  75  163  230  276  300  305  298  288  275  263  263  285  332  385  425  456  509  600  709  798  839  842  834  828  824  834  865  912  966  1019  1054  1043  977  885  798  707  603  503  429  381  340  297  264  238  194  110  -2  -112  -215  -307  -366  -377  -368  -384  -456  -562  -648  -686  -690  -687  -702  -713  -647  -491  -333  -248  -227  -233  -242  -246  -238  -205  -148  -105  -123  -191  -263  -315  -321  -280  -222  -177  -160  -189  -262  -359  -445  -497  -509  -473  -375  -242  -132  -69  -40  -32  -41  -46  -36  -32  -67  -151  -255  -313  -287  -217  -159  -120  -83  -67  -106  -200  -315  -418  -494  -529  -523  -477  -370  -207  -59  6  -27  -152  -313  -427  -464  -458  -449  -446  -444  -432  -413  -398  -392  -387  -360  -292  -204  -141  -98  -34  53  119  132  109  73  31  -20  -91  -190  -300  -378  -399  -374  -326  -280  -239  -213  -255  -355  -422  -421  -383  -308  -167  23  151  116  -57  -300  -496  -457  -90  557  1388  2190  2679  2694  2163  1141  65  -520  -545  -294  -20  127  124  68  61  109  150  152  128  83  13  -70  -137  -173  -185  -192  -191  -152  -54  52  81  22  -48  -84  -90  -91  -95  -101  -99  -71  21  217  470  664  732  706  651  600  542  466  397  352  332  339  368  409  460  510  544  571  615  687  757  807  850  889  911  915  909  896  860  782  675  579  514  472  433  364  245  109  3  -60  -91  -106  -124  -155  -201  -253  -302  -356  -428  -509  -570  -602  -613  -614  -613  -612  -611  -608  -602  -591  -559  -482  -372  -299  -302  -344  -378  -392  -393  -391  -400  -433  -486  -535  -560  -561  -557  -572  -620  -676  -703  -693  -670  -621  -513  -367  -256  -220  -242  -301  -365  -394  -358  -274  -188  -136  -125  -160  -256  -401  -554  -662  -665  -535  -336  -189  -138  -140  -153  -160  -154  -133  -114  -128  -198  -298  -377  -418  -441  -457  -462  -446  -398  -330  -269  -220  -178  -138  -101  -70  -37  20  103  185  234  227  176  95  -22  -168  -299  -392  -457  -505  -542  -563  -558  -531  -477  -391  -283  -201  -194  -249  -303  -322  -326  -355  -429  -537  -619  -612  -492  -208  300  989  1768  2547  3126  3224  2682  1671  677  50  -232  -295  -273  -357  -555  -634  -451  -134  121  243  257  210  124  30  -40  -84  -96  -81  -62  -50  -32  -10  -2  -9  6  72  173  256  290  286  267  247  233  221  205  191  195  241  339  451  505  487  446  421  417  435  483  549  601  623  622  615  615  628  653  682  704  741  825  940  1025  1052  1041  1023  1017  1018  989  876  653  383  184  101  77  50  5  -39  -71  -100  -146  -223  -336  -451  -489  -437  -370  -340  -342  -355  -368  -379  -387  -390  -390  -388  -387  -388  -384  -358  -303  -237  -191  -172  -171  -177  -191  -209  -225  -233  -237  -232  -199  -127  -50  -24  -51  -102  -165  -223  -259  -276  -277  -265  -258  -288  -360  -442  -496  -514  -508  -480  -416  -318  -214  -138  -100  -90  -106  -152  -211  -260  -299  -352  -422  -475  -464  -399  -334  -296  -274  -258  -257  -295  -388  -507  -593  -623  -615  -591  -568  -550  -521  -464  -374  -275  -217  -234  -292  -326  -300  -246  -209  -184  -150  -128  -146  -193  -224  -221  -200  -175  -146  -127  -152  -234  -328  -370  -373  -390  -426  -463  -505  -555  -607  -674  -784  -904  -937  -800  -408  273  1195  2227  3101  3527  3439  2889  1967  961  202  -175  -197  -17  169  280  261  86  -130  -255  -281  -268  -236  -168  -74  -2  23  21  17  21  31  34  27  22  38  76  120  149  168  190  213  215  187  140  114  138  196  249  276  278  278  306  382  479  553  591  627  696  788  856  881  882  879  868  827  746  653  589  565  565  587  639  710  768  795  798  770  686  527  339  195  114  52  -17  -88  -142  -170  -179  -177  -170  -165  -178  -225  -302  -380  -448  -511  -549  -547  -531  -527  -529  -534  -543  -542  -494  -377  -256  -242  -340  -449  -502  -507  -473  -392  -285  -199  -164  -190  -275  -381  -431  -381  -275  -187  -138  -96  -45  -6  12  26  40  25  -59  -215  -378  -486  -534  -552  -562  -569  -573  -554  -488  -384  -280  -208  -172  -156  -142  -133  -145  -177  -222  -286  -365  -434  -472  -479  -472  -463  -452  -433  -409  -398  -405  -419  -423  -412  -392  -372  -355  -333  -311  -309  -342  -390  -403  -353  -258  -157  -90  -77  -115  -206  -320  -400  -400  -318  -200  -110  -84  -136  -272  -450  -587  -638  -628  -598  -564  -530  -505  -511  -596  -740  -847  -889  -881  -737  -428  -49  406  1061  1911  2744  3280  3283  2649  1619  693  167  28  126  217  156  20  -84  -137  -156  -156  -143  -126  -115  -124  -150  -176  -192  -202  -213  -218  -195  -119  -7  91  142  144  115  74  49  71  126  182  219  218  194  177  158  133  140  220  363  509  602  636  638  624  592  548  525  555  637  741  841  923  971  979  944  882  842  852  878  881  867  850  806  711  591  508  479  463  418  340  265  207  131  16  -123  -265  -391  -490  -548  -559  -540  -500  -446  -393  -345  -307  -289  -297  -325  -356  -372  -373  -363  -346  -334  -323  -301  -273  -249  -232  -219  -193  -146  -107  -104  -136  -189  -218  -185  -133  -109  -108  -116  -121  -112  -92  -71  -49  -36  -44  -81  -142  -204  -244  -259  -264  -265  -244  -179  -78  1  -10  -136  -303  -431  -502  -510  -457  -378  -313  -278  -265  -256  -241  -224  -210  -196  -190  -214  -291  -412  -529  -598  -621  -621  -601  -543  -442  -326  -240  -213  -222  -238  -265  -296  -305  -286  -252  -226  -213  -206  -199  -194  -198  -226  -292  -406  -526  -577  -547  -476  -400  -362  -398  -494  -602  -673  -699  -691  -643  -525  -371  -294  -326  -388  -385  -206  298  1200  2325  3333  3864  3600  2523  1100  -45  -582  -538  -164  196  296  152  -27  -108  -106  -77  -40  7  54  57  0  -69  -116  -153  -172  -147  -90  -42  -25  -13  37  130  211  222  174  131  125  139  136  113  88  75  54  27  57  215  460  668  770  787  761  725  683  634  592  567  557  563  610  732  902  1010  991  917  883  903  938  948  923  870  794  709  632  551  455  364  299  235  135  12  -90  -148  -173  -182  -195  -235  -304  -375  -417  -430  -434  -463  -536  -620  -663  -654  -621  -582  -545  -500  -453  -422  -413  -401  -360  -299  -251  -233  -246  -291  -360  -431  -494  -545  -556  -489  -349  -214  -167  -199  -265  -345  -413  -434  -401  -342  -293  -268  -261  -271  -293  -314  -331  -345  -362  -375  -372  -353  -327  -298  -284  -302  -335  -365  -405  -456  -489  -457  -342  -207  -156  -206  -281  -327  -351  -384  -431  -477  -505  -516  -517  -518  -524  -528  -512  -458  -360  -243  -155  -119  -121  -137  -156  -175  -195  -218  -251  -297  -355  -418  -474  -530  -579  -588  -527  -431  -364  -349  -357  -362  -374  -405  -439  -440  -412  -458  -657  -903  -979  -733  -131  754  1759  2627  3144  3194  2650  1586  463  -318  -671  -637  -415  -295  -319  -335  -299  -266  -260  -259  -230  -154  -55  -3  -32  -98  -140  -136  -103  -72  -55  -32  19  76  86  46  1  -18  -26  -36  -36  22  176  348  399  310  186  103  77  121  266  494  716  841  867  854  841  836  834  836  843  849  852  891  1013  1186  1321  1383  1417  1456  1499  1533  1542  1483  1294  991  689  490  386  308  225  163  124  71  -21  -141  -258  -333  -335  -280  -239  -256  -308  -353  -369  -364  -346  -324  -317  -354  -448  -564  -641  -642  -563  -431  -278  -117  -1  -19  -171  -351  -475  -541  -574  -594  -608  -591  -497  -307  -83  66  95  47  -6  -40  -67  -114  -191  -281  -354  -399  -416  -393  -298  -120  79  198  195  127  50  -34  -131  -221  -294  -340  -352  -334  -300  -272  -264  -267  -269  -273  -284  -323  -405  -518  -612  -632  -558  -426  -300  -220  -184  -173  -166  -162  -175  -216  -272  -313  -326  -318  -301  -285  -270  -252  -239  -248  -286  -330  -344  -322  -296  -284  -282  -283  -283  -292  -308  -315  -299  -278  -275  -297  -345  -414  -484  -539  -573  -578  -544  -467  -397  -399  -433  -353  -11  690  1735  2869  3698  3932  3451  2370  1142  261  -165  -304  -270  -169  -147  -226  -302  -320  -310  -297  -287  -277  -260  -238  -224  -228  -248  -280  -329  -387  -426  -418  -349  -238  -125  -42  0  6  4  21  59  84  68  50  74  120  147  151  146  139  132  146  217  349  480  554  584  620  669  707  726  734  738  745  773  831  904  966  1010  1043  1065  1056  999  916  840  781  728  675  627  574  500  389  218  -3  -199  -307  -323  -279  -219  -186  -192  -229  -314  -479  -683  -813  -801  -695  -588  -529  -509  -502  -497  -494  -493  -492  -494  -506  -527  -540  -539  -539  -549  -551  -518  -433  -324  -243  -206  -198  -203  -216  -235  -263  -297  -327  -350  -364  -372  -374  -355  -300  -225  -163  -119  -91  -91  -143  -255  -390  -487  -513  -495  -479  -482  -472  -405  -287  -195  -205  -298  -383  -419  -435  -469  -516  -530  -476  -372  -286  -266  -301  -350  -385  -403  -408  -405  -400  -397  -411  -453  -511  -553  -552  -506  -440  -385  -346  -302  -248  -204  -180  -165  -151  -137  -122  -113  -129  -177  -249  -325  -385  -431  -475  -531  -590  -616  -594  -533  -437  -328  -253  -225  -222  -243  -334  -530  -772  -923  -864  -557  -12  731  1627  2612  3489  3951  3780  2931  1659  503  -158  -347  -257  -83  26  18  -80  -209  -324  -407  -450  -454  -431  -394  -340  -258  -166  -118  -130  -151  -154  -183  -265  -350  -353  -236  -60  69  132  167  189  206  237  291  341  342  290  241  215  169  91  26  -3  -12  -1  63  230  475  700  831  873  864  835  812  810  850  948  1070  1156  1201  1240  1275  1282  1232  1112  944  778  649  548  459  381  319  253  153  27  -72  -119  -132  -137  -152  -187  -229  -257  -268  -284  -328  -390  -435  -452  -454  -451  -441  -414  -377  -345  -324  -304  -278  -257  -256  -284  -331  -370  -402  -449  -502  -498  -381  -186  -18  46  11  -63  -125  -155  -162  -162  -161  -154  -135  -127  -150  -195  -243  -289  -318  -321  -309  -293  -282  -273  -259  -240  -223  -214  -210  -212  -228  -268  -330  -382  -383  -326  -239  -160  -110  -87  -81  -94  -143  -222  -302  -357  -387  -388  -336  -218  -102  -85  -162  -235  -246  -206  -152  -104  -57  -14  6  -20  -110  -233  -325  -359  -357  -341  -318  -294  -278  -275  -280  -284  -277  -242  -183  -126  -95  -88  -90  -94  -105  -133  -185  -251  -302  -320  -307  -274  -239  -220  -237  -296  -378  -444  -470  -450  -369  -233  -102  -102  -321  -637  -788  -635  -172  540  1376  2255  3072  3527  3312  2387  1092  -12  -554  -517  -158  130  121  -50  -149  -155  -162  -197  -235  -246  -247  -280  -329  -350  -328  -284  -245  -219  -188  -143  -90  -45  -22  -24  -34  -40  -44  -47  -49  -39  -9  29  56  64  76  113  170  226  277  341  441  563  645  656  632  615  612  615  623  631  647  692  791  932  1060  1135  1161  1156  1127  1071  995  928  892  884  867  806  693  554  419  300  197  93  -38  -181  -277  -311  -330  -376  -440  -483  -490  -480  -473  -482  -505  -536  -574  -620  -652  -655  -628  -582  -534  -503  -489  -484  -478  -472  -467  -457  -440  -420  -401  -382  -367  -361  -350  -321  -278  -246  -244  -270  -306  -334  -347  -350  -341  -316  -274  -229  -202  -197  -207  -229  -258  -279  -282  -276  -271  -258  -242  -265  -349  -457  -530  -538  -497  -439  -372  -290  -213  -165  -145  -135  -136  -168  -239  -322  -378  -394  -393  -396  -408  -411  -395  -375  -367  -369  -373  -364  -337  -298  -267  -255  -257  -267  -278  -286  -288  -275  -243  -205  -188  -186  -157  -87  -5  71  143  189  175  74  -82  -217  -268  -242  -186  -142  -120  -112  -120  -150  -190  -212  -197  -153  -108  -115  -210  -357  -495  -614  -696  -655  -474  -282  -188  -183  -133  199  942  1925  2794  3220  3041  2358  1490  755  257  -42  -155  -107  8  64  -20  -170  -261  -280  -279  -286  -292  -281  -260  -250  -254  -261  -269  -276  -271  -224  -118  9  96  126  128  128  131  141  163  200  234  225  170  124  120  150  199  247  287  333  381  419  448  472  494  513  535  594  712  833  897  929  962  993  1025  1064  1109  1154  1184  1190  1176  1149  1114  1072  1025  969  888  779  654  529  414  296  144  -52  -244  -361  -391  -381  -373  -381  -399  -419  -443  -474  -507  -529  -536  -539  -547  -538  -486  -404  -337  -307  -299  -305  -345  -430  -504  -478  -355  -225  -151  -124  -124  -158  -243  -350  -396  -327  -181  -37  60  113  120  73  -25  -138  -218  -264  -304  -356  -406  -402  -318  -197  -93  -35  -34  -79  -142  -197  -231  -243  -239  -219  -180  -140  -135  -192  -288  -369  -410  -422  -420  -401  -358  -293  -230  -195  -191  -197  -197  -195  -203  -228  -262  -288  -298  -293  -281  -271  -274  -302  -353  -420  -490  -546  -573  -555  -477  -353  -236  -167  -140  -145  -190  -285  -400  -475  -487  -455  -386  -283  -179  -105  -69  -62  -58  -41  -14  16  42  36  0  -31  -40  -48  -104  -231  -380  -480  -515  -509  -487  -460  -431  -407  -385  -354  -308  -252  -205  -205  -273  -395  -544  -695  -802  -756  -428  178  922  1650  2277  2801  3182  3273  2918  2126  1149  311  -186  -297  -153  39  165  200  153  61  -30  -90  -113  -113  -109  -96  -61  -13  20  30  26  19  10  -4  -18  -24  -25  -32  -41  -34  0  51  89  96  72  40  39  86  143  186  234  300  361  395  397  381  361  350  368  446  595  769  898  955  967  973  965  920  871  877  939  1012  1059  1064  1036  1004  985  973  935  829  645  416  209  79  16  -26  -89  -171  -242  -280  -294  -305  -323  -348  -378  -415  -450  -466  -456  -442  -437  -433  -410  -363  -308  -259  -215  -196  -220  -268  -311  -335  -348  -359  -369  -369  -356  -348  -349  -323  -273  -244  -221  -162  -81  -18  -1  -36  -80  -96  -110  -137  -154  -146  -123  -107  -115  -145  -191  -242  -279  -290  -280  -256  -219  -173  -118  -76  -66  -78  -88  -99  -120  -152  -180  -191  -185  -173  -161  -146  -125  -110  -118  -164  -247  -345  -425  -467  -468  -436  -389  -342  -296  -247  -201  -176  -190  -235  -270  -266  -237  -213  -205  -201  -185  -165  -190  -310  -480  -551  -425  -187  -21  -19  -132  -278  -399  -462  -464  -436  -418  -419  -404  -357  -302  -259  -225  -195  -170  -152  -142  -139  -140  -146  -160  -179  -190  -172  -110  -24  37  38  -28  -143  -251  -317  -352  -391  -453  -525  -584  -619  -636  -646  -644  -611  -527  -420  -346  -339  -412  -548  -684  -724  -540  -57  700  1651  2605  3285  3486  3111  2233  1209  444  66  -19  39  98  48  -99  -230  -283  -307  -365  -453  -534  -585  -601  -578  -522  -441  -346  -254  -182  -138  -135  -177  -229  -254  -242  -203  -161  -141  -155  -212  -299  -378  -417  -401  -321  -188  -44  65  112  108  89  93  132  188  242  299  351  394  462  570  695  799  858  875  865  847  852  887  916  928  944  965  971  934  839  706  574  464  375  294  224  171  121  42  -91  -260  -392  -438  -426  -409  -410  -422  -432  -434  -431  -429  -437  -464  -502  -531  -541  -527  -487  -430  -379  -347  -332  -342  -390  -458  -499  -484  -413  -317  -239  -199  -183  -151  -76  23  92  112  104  94  85  68  37  5  -4  20  69  112  146  177  170  106  28  -23  -41  -31  -4  32  85  159  244  322  377  404  409  416  448  481  447  280  0]
