reading_id,reading_time,wire_id,result_classification,heart_rate,heart_rate_alert,firmware_version,device_app_version,hardware_version,waveform_samples
655e2ff0-5da2-11ed-8080-808080808080,Sun Nov 06 07:12:38 UTC 2022,a10163b41b39,UNREADABLE,0,NONE,20001.171.50,2.10.0,Charge 5,[958  1106  1216  1217  1101  949  828  734  626  506  420  387  428  642  1113  1766  2395  2805  2933  2852  2704  2596  2544  2519  2500  2480  2497  2690  3178  3815  4295  4401  4038  3349  2620  1898  1093  140  -1094  -2571  -3990  -5126  -5846  -6026  -5692  -5001  -4058  -2887  -1618  -586  -41  70  -50  -248  -473  -759  -1116  -1444  -1629  -1672  -1645  -1599  -1544  -1488  -1462  -1545  -1808  -2183  -2490  -2637  -2683  -2721  -2813  -2969  -3141  -3308  -3516  -3799  -4118  -4405  -4639  -4885  -5235  -5681  -6088  -6325  -6384  -6334  -6239  -6145  -6110  -6182  -6355  -6565  -6728  -6805  -6819  -6814  -6815  -6829  -6865  -6931  -7026  -7129  -7202  -7227  -7222  -7199  -7111  -6856  -6378  -5757  -5143  -4637  -4246  -3929  -3681  -3530  -3440  -3334  -3204  -3109  -3071  -3049  -2984  -2865  -2739  -2652  -2590  -2492  -2312  -2084  -1901  -1819  -1814  -1834  -1835  -1789  -1682  -1521  -1350  -1227  -1178  -1180  -1214  -1283  -1378  -1468  -1517  -1510  -1462  -1415  -1393  -1389  -1388  -1387  -1397  -1434  -1496  -1562  -1606  -1617  -1594  -1542  -1484  -1451  -1444  -1448  -1451  -1451  -1454  -1464  -1474  -1452  -1343  -1117  -828  -588  -462  -427  -429  -437  -454  -497  -558  -612  -644  -668  -675  -602  -382  -70  182  319  409  506  595  656  693  720  738  744  731  686  614  520  406  292  175  8  -170  -215  -81  78  54  -274  -876  -1619  -2387  -3062  -3465  -3452  -3013  -2213  -1091  218  1422  2302  2848  3110  3111  2839  2327  1756  1325  1037  787  546  370  293  292  327  367  399  419  430  437  450  479  526  574  590  552  440  225  -51  -277  -378  -403  -444  -536  -655  -805  -1100  -1620  -2217  -2651  -2890  -3085  -3333  -3613  -3870  -4056  -4147  -4139  -4064  -3961  -3823  -3618  -3376  -3177  -3049  -2947  -2815  -2643  -2446  -2250  -2059  -1816  -1426  -856  -205  368  782  1034  1159  1216  1246  1266  1280  1292  1311  1340  1387  1464  1564  1660  1752  1885  2074  2268  2410  2518  2660  2850  3026  3126  3154  3148  3130  3099  3059  3042  3092  3225  3402  3555  3651  3703  3731  3733  3705  3659  3618  3596  3584  3582  3588  3598  3609  3617  3621  3637  3682  3749  3804  3804  3705  3497  3242  3024  2875  2781  2727  2713  2744  2806  2862  2889  2894  2896  2907  2911  2875  2793  2712  2678  2686  2701  2713  2757  2879  3073  3272  3411  3475  3484  3444  3329  3122  2879  2681  2513  2286  1980  1707  1667  1952  2416  2823  3031  2998  2724  2263  1714  1093  334  -535  -1416  -2146  -2464  -2182  -1356  -184  1108  2244  2981  3291  3361  3370  3365  3342  3316  3304  3288  3211  3023  2747  2459  2177  1825  1393  1026  839  799  823  879  970  1076  1157  1197  1193  1121  957  754  598  504  402  239  27  -177  -350  -513  -684  -879  -1125  -1413  -1701  -1972  -2224  -2439  -2623  -2788  -2901  -2942  -2935  -2913  -2899  -2902  -2918  -2926  -2911  -2860  -2761  -2567  -2249  -1893  -1651  -1551  -1467  -1273  -955  -610  -365  -267  -270  -305  -321  -264  -93  154  370  480  493  454  389  307  230  185  175  186  213  243  261  259  247  236  232  233  239  248  247  221  176  129  92  52  -14  -109  -178  -204  -262  -376  -480  -528  -549  -577  -606  -582  -451  -209  64  265  355  371  361  352  345  344  364  420  491  512  439  300  166  71  8  -42  -102  -186  -297  -425  -547  -649  -724  -767  -788  -800  -792  -749  -677  -595  -519  -453  -396  -328  -218  -61  116  265  282  114  -120  -262  -247  -158  -208  -525  -1016  -1545  -2095  -2723  -3459  -4241  -4892  -5218  -5151  -4692  -3822  -2585  -1170  80  831  1051  981  796  540  255  22  -111  -163  -166  -129  -45  96  295  534  792  1028  1173  1192  1109  980  859  726  466  36  -411  -680  -748  -734  -739  -787  -869  -1031  -1341  -1734  -2035  -2180  -2250  -2339  -2510  -2764  -3014  -3170  -3263  -3385  -3549  -3691  -3786  -3869  -3957  -4029  -4071  -4059  -3922  -3598  -3144  -2717  -2432  -2248  -2027  -1661  -1147  -602  -164  146  396  636  886  1142  1369  1535  1676  1905  2292  2754  3097  3195  3109  2978  2870  2787  2735  2714  2706  2682  2631  2565  2522  2517  2527  2525  2484  2368  2158  1894  1633  1383  1112  768  319  -175  -585  -846  -1008  -1160  -1341  -1506  -1584  -1565  -1503  -1456  -1430  -1391  -1319  -1222  -1111  -951  -665  -276  55  216  243  219  183  145  103  40  -72  -249  -455  -619  -708  -751  -775  -762  -671  -499  -318  -188  -85  44  191  307  370  395  412  447  516  635  796  943  1029  1070  1131  1239  1347  1401  1392  1236  827  276  -139  -247  -61  248  354  -65  -1056  -2345  -3534  -4303  -4507  -4189  -3496  -2527  -1283  43  1022  1453  1525  1469  1331  1058  680  293  -63  -369  -572  -668  -718  -781  -889  -1052  -1272  -1538  -1799  -1985  -2030  -1861  -1452  -919  -480  -270  -282  -458  -723  -970  -1137  -1248  -1342  -1442  -1578  -1744  -1880  -1944  -1944  -1904  -1843  -1780  -1744  -1774  -1902  -2102  -2299  -2482  -2712  -2980  -3189  -3272  -3206  -2963  -2572  -2152  -1804  -1530  -1280  -1001  -682  -383  -159  13  167  278  340  396  482  605  801  1175  1833  2671  3367  3693  3667  3390  2979  2593  2349  2249  2221  2207  2216  2324  2576  2887  3103  3154  3063  2873  2648  2458  2331  2253  2178  2022  1701  1238  756  354  61  -113  -181  -178  -125  -15  121  221  258  259  241  184  55  -147  -373  -561  -667  -644  -405  74  643  1069  1250  1253  1175  1068  950  800  574  264  -93  -471  -833  -1105  -1245  -1287  -1278  -1200  -1005  -724  -439  -102  436  1175  1899  2408  2703  2900  3066  3203  3290  3317  3299  3259  3211  3152  3065  2920  2696  2411  2127  1890  1653  1300  792  205  -402  -910  -1008  -431  691  1711  1886  1020  -499  -2012  -2843  -2723  -1902  -754  488  1685  2672  3270  3444  3307  2959  2497  2074  1802  1645  1518  1406  1323  1248  1169  1090  996  864  723  646  713  970  1322  1580  1643  1543  1346  1097  797  381  -205  -827  -1235  -1358  -1330  -1276  -1244  -1271  -1416  -1684  -1986  -2232  -2420  -2579  -2705  -2822  -3058  -3514  -4052  -4419  -4536  -4494  -4358  -4138  -3852  -3543  -3261  -3058  -2961  -2969  -3063  -3195  -3286  -3259  -3084  -2797  -2466  -2095  -1645  -1189  -899  -881  -1116  -1484  -1828  -2055  -2167  -2189  -2101  -1858  -1518  -1238  -1103  -1083  -1105  -1086  -951  -705  -446  -246  -71  131  344  523  676  901  1271  1697  2010  2144  2154  2085  1930  1666  1315  970  741  623  528  429  334  169  -162  -635  -1124  -1525  -1785  -1900  -1886  -1730  -1430  -1085  -830  -710  -685  -707  -742  -772  -815  -934  -1166  -1437  -1635  -1736  -1783  -1811  -1833  -1854  -1877  -1870  -1756  -1438  -854  -6  1032  2044  2731  2992  2997  2940  2881  2806  2725  2689  2725  2798  2855  2883  2903  2905  2846  2709  2523  2351  2254  2252  2331  2455  2552  2492  2139  1509  824  326  71  -63  -194  -320  -440  -615  -824  -953  -873  -442  378  1290  1734  1297  18  -1671  -3207  -4099  -4150  -3575  -2762  -1941  -1115  -212  755  1601  2089  2164  1914  1432  809  150  -411  -750  -846  -792  -695  -615  -567  -545  -543  -572  -666  -856  -1119  -1362  -1496  -1492  -1350  -1064  -636  -99  481  990  1296  1386  1348  1221  984  675  386  134  -198  -754  -1512  -2230  -2655  -2767  -2711  -2588  -2429  -2276  -2211  -2273  -2408  -2532  -2610  -2661  -2711  -2767  -2807  -2789  -2642  -2283  -1673  -877  -107  401  608  659  698  803  985  1195  1365  1446  1450  1436  1448  1483  1538  1630  1764  1929  2102  2225  2222  2064  1806  1550  1372  1263  1156  989  752  488  267  131  59  3  -60  -112  -124  -115  -127  -172  -246  -338  -417  -457  -457  -417  -335  -226  -117  29  327  880  1644  2394  2909  3184  3359  3502  3602  3667  3722  3774  3803  3785  3692  3502  3197  2797  2409  2160  2077  2125  2301  2585  2879  3082  3173  3178  3078  2815  2380  1864  1417  1189  1294  1755  2376  2823  2946  2841  2655  2479  2325  2116  1769  1294  803  425  246  399  982  1789  2402  2642  2614  2412  2065  1644  1169  503  -461  -1639  -2899  -4124  -5017  -5243  -4704  -3492  -1841  -210  917  1359  1210  636  -81  -578  -713  -620  -477  -380  -367  -457  -656  -914  -1187  -1477  -1753  -1940  -2046  -2148  -2246  -2248  -2131  -1995  -1920  -1896  -1900  -1961  -2124  -2344  -2507  -2551  -2499  -2399  -2281  -2160  -2048  -1979  -1985  -2074  -2238  -2451  -2662  -2822  -2909  -2891  -2677  -2200  -1550  -960  -612  -513  -582  -766  -1009  -1240  -1446  -1642  -1807  -1909  -1948  -1962  -1991  -1946  -1565  -624  767  2158  3148  3673  3864  3890  3861  3694  3232  2523  1810  1297  1060  1093  1281  1467  1536  1455  1300  1178  1114  1077  1039  956  759  442  98  -175  -347  -417  -410  -352  -258  -143  -30  46  55  -21  -139  -224  -255  -280  -362  -511  -671  -786  -853  -891  -916  -939  -963  -977  -970  -937  -901  -874  -820  -656  -353  -10  217  253  129  -45  -162  -197  -190  -170  -137  -100  -87  -131  -236  -373  -500  -583  -612  -608  -609  -645  -760  -997  -1314  -1602  -1815  -1963  -2040  -2044  -1999  -1946  -1915  -1897  -1850  -1737  -1586  -1453  -1359  -1298  -1274  -1246  -1083  -679  -148  241  368  300  123  -88  -248  -291  -152  231  795  1323  1639  1746  1753  1732  1691  1644  1635  1672  1674  1583  1465  1404  1395  1341  1169  931  725  512  133  -570  -1680  -3029  -4170  -4666  -4401  -3595  -2567  -1541  -625  95  527  645  500  159  -233  -499  -614  -692  -794  -885  -940  -975  -1008  -1029  -990  -813  -454  65  685  1300  1792  2128  2341  2461  2523  2545  2441  2055  1358  523  -215  -728  -1026  -1215  -1406  -1638  -1897  -2164  -2416  -2647  -2876  -3123  -3356  -3528  -3643  -3733  -3790  -3785  -3685  -3472  -3191  -2945  -2813  -2794  -2837  -2894  -2940  -2957  -2909  -2736  -2403  -1959  -1516  -1138  -828  -599  -463  -366  -159  306  982  1636  2103  2385  2544  2628  2661  2594  2333  1888  1433  1105  885  729  674  749  894  1015  1065  1041  928  725  495  315  214  178  216  375  672  1013  1255  1340  1265  1031  705  416  234  133  74  35  -13  -92  -183  -250  -283  -295  -299  -288  -253  -201  -152  -120  -108  -66  165  749  1619  2446  2942  3093  3005  2684  2142  1573  1206  1081  1064  1041  1008  1012  1045  1071  1073  1056  1026  989  960  971  1078  1306  1576  1759  1818  1810  1778  1718  1626  1511  1344  1065  693  346  126  63  164  448  855  1260  1587  1824  1982  2110  2250  2402  2551  2678  2749  2713  2511  2165  1819  1610  1559  1613  1665  1559  1244  828  410  0  -376  -654  -823  -1015  -1424  -2149  -3147  -4207  -4920  -4902  -4110  -2856  -1533  -397  403  827  984  1019  990  888  714  508  330  194  76  -39  -144  -217  -252  -253  -203  -81  77  195  239  234  199  130  24  -113  -283  -471  -645  -791  -910  -979  -978  -909  -809  -729  -717  -809  -1024  -1326  -1637  -1880  -2020  -2060  -2000  -1823  -1582  -1408  -1420  -1658  -2052  -2464  -2815  -3097  -3294  -3392  -3420  -3401  -3312  -3111  -2813  -2469  -2063  -1536  -967  -555  -388  -371  -350  -241  -70  93  246  425  636  873  1125  1341  1459  1415  1152  707  270  17  -49  -37  -23  -22  -29  -44  -68  -91  -105  -135  -223  -357  -482  -571  -628  -658  -662  -647  -621  -576  -490  -336  -143  26  163  319  530  757  927  1008  1012  975  912  791  575  315  116  36  76  242  501  745  880  903  857  771  652  506  353  231  171  155  145  125  100  81  72  73  71  46  -23  -147  -316  -480  -579  -608  -613  -620  -612  -542  -379  -173  -34  -37  -173  -346  -398  -269  -88  -4  50  317  986  2005  3029  3588  3354  2380  1074  -106  -910  -1374  -1707  -2106  -2696  -3415  -3971  -4022  -3225  -1421  926  2926  4042  4370  4200  3661  2881  2161  1723  1502  1324  1122  913  689  401  66  -221  -399  -463  -390  -116  376  958  1403  1604  1627  1536  1325  1035  787  659  627  632  617  538  394  223  24  -309  -876  -1633  -2391  -2953  -3269  -3439  -3576  -3725  -3867  -3941  -3896  -3726  -3448  -3088  -2703  -2370  -2162  -2083  -2058  -2014  -1893  -1648  -1338  -1117  -1052  -1074  -1071  -947  -657  -297  -43  46  58  81  179  399  694  907  891  604  145  -299  -600  -735  -765  -791  -865  -972  -1079  -1180  -1268  -1310  -1297  -1263  -1258  -1328  -1492  -1688  -1838  -1937  -2023  -2066  -2027  -1941  -1844  -1687  -1277  -394  878  2077  2832  3153  3234  3217  3139  2971  2721  2473  2306  2203  2076  1872  1640  1479  1423  1431  1447  1427  1372  1318  1284  1254  1209  1153  1096  1047  1038  1158  1499  2033  2599  3062  3372  3472  3278  2806  2234  1796  1581  1498  1437  1354  1237  1098  982  919  930  1071  1404  1897  2380  2658  2637  2357  1986  1722  1605  1524  1418  1304  1162  943  675  445  290  193  128  92  89  126  214  344  459  519  529  480  322  51  -210  -240  94  666  1043  582  -912  -2791  -4229  -4790  -4416  -3484  -2515  -1612  -667  165  654  811  811  794  794  805  820  827  789  668  488  308  132  -67  -266  -424  -536  -611  -654  -689  -755  -847  -938  -1020  -1099  -1173  -1246  -1319  -1383  -1451  -1546  -1676  -1830  -1987  -2111  -2157  -2099  -1960  -1803  -1691  -1645  -1640  -1642  -1629  -1617  -1680  -1918  -2338  -2800  -3140  -3326  -3420  -3477  -3511  -3518  -3475  -3352  -3136  -2820  -2415  -2016  -1754  -1637  -1573  -1537  -1539  -1448  -1010  -54  1389  3002  4168  4357  3600  2454  1628  1623  2449  3519  4062  3805  3008  2079  1371  1002  827  655  429  207  37  -96  -210  -287  -323  -332  -263  76  844  1831  2582  2906  2938  2849  2721  2601  2508  2410  2244  2004  1733  1415  1033  678  462  408  510  778  1128  1367  1332  994  515  154  2  -59  -158  -301  -421  -480  -487  -474  -468  -502  -603  -749  -868  -915  -897  -849  -804  -765  -722  -695  -660  -482  -32  600  1143  1406  1415  1274  1064  857  709  628  565  466  339  250  276  471  795  1113  1321  1437  1534  1667  1852  2067  2279  2500  2768  3038  3160  2979  2468  1822  1309  974  652  282  -61  -337  -520  -601  -686  -927  -1396  -2128  -3087  -4097  -4834  -5003  -4606  -3867  -2970  -2033  -1130  -318  300  650  767  741  624  445  232  21  -151  -267  -335  -387  -442  -490  -530  -575  -623  -655  -654  -624  -584  -556  -545  -542  -536  -532  -557  -652  -826  -1031  -1197  -1259  -1113  -668  -54  417  567  381  -109  -739  -1253  -1574  -1799  -1995  -2188  -2411  -2678  -2938  -3111  -3172  -3167  -3148  -3141  -3154  -3198  -3280  -3384  -3458  -3422  -3210  -2851  -2474  -2166  -1914  -1679  -1476  -1345  -1271  -1174  -981  -718  -476  -307  -205  -142  -91  -38  12  50  64  69  110  232  432  667  884  1030  1001  705  285  108  502  1583  3055  4236  4639  4338  3686  3017  2498  2072  1584  999  479  190  101  69  26  6  88  313  607  840  954  973  941  873  752  557  303  17  -276  -552  -783  -953  -1049  -1068  -1012  -880  -707  -557  -479  -480  -524  -551  -541  -520  -508  -506  -507  -513  -526  -540  -549  -559  -593  -667  -777  -886  -940  -911  -815  -651  -350  180  888  1517  1850  1920  1884  1813  1693  1541  1424  1377  1375  1382  1358  1255  1076  899  801  752  668  604  924  2021  3646  4976  5463  5162  4484  3949  3854  4072  4239  4099  3604  2819  1892  1004  203  -605  -1477  -2368  -3015  -2915  -1788  90  2101  3648  4462  4688  4632  4445  4106  3571  2860  2054  1276  634  181  -78  -197  -253  -286  -300  -293  -271  -244  -228  -267  -414  -659  -934  -1214  -1513  -1818  -2082  -2277  -2440  -2620  -2793  -2900  -2954  -3040  -3208  -3426  -3647  -3859  -4040  -4146  -4171  -4126  -4007  -3841  -3709  -3708  -3920  -4369  -4943  -5437  -5710  -5789  -5782  -5724  -5572  -5287  -4891  -4467  -4124  -3893  -3700  -3434  -3042  -2614  -2325  -2240  -2250  -2168  -1796  -965  296  1580  2321  2249  1510  513  -296  -723  -900  -1053  -1285  -1582  -1855  -1999  -1929  -1492  -516  917  2327  3179  3359  3093  2616  2095  1614  1180  827  622  553  537  518  505  595  971  1711  2565  3135  3259  3011  2525  1988  1576  1308  1092  881  713  630  596  524  350  58  -300  -603  -744  -691  -430  45  625  1088  1292  1200  774  97  -533  -868  -935  -904  -860  -783  -630  -418  -201  -18  107  151  91  -66  -271  -427  -361  167  1187  2286  2973  3192  3208  3211  3229  3246  3254  3237  3170  3062  2963  2911  2877  2805  2691  2573  2409  2067  1504  875  372  17  -354  -886  -1539  -2129  -2485  -2543  -2292  -1705  -794  296  1273  1874  2081  2072  2016  1997  2089  2346  2681  2856  2692  2223  1634  1125  814  648  459  182  -91  -274  -409  -579  -637  -175  1008  2465  3345  3210  2394  1514  1003  930  974  696  -78  -1145  -2085  -2544  -2451  -2045  -1698  -1619  -1696  -1738  -1697  -1618  -1559  -1624  -1940  -2490  -3066  -3483  -3755  -3977  -4183  -4339  -4421  -4451  -4418  -4242  -3852  -3329  -2876  -2608  -2456  -2300  -2099  -1886  -1708  -1584  -1505  -1428  -1329  -1185  -926  -483  170  1086  2183  3151  3800  4280  4739  5094  5217  4992  4309  3304  2401  1904  1743  1713  1712  1725  1746  1764  1758  1680  1479  1187  930  799  756  692  530  272  3  -170  -225  -220  -208  -204  -205  -212  -234  -268  -261  -75  403  1086  1717  2113  2277  2313  2303  2222  1987  1606  1212  929  780  713  677  655  618  508  319  126  1  -55  -88  -121  -147  -156  -155  -150  -147  -154  -177  -215  -258  -303  -343  -360  -344  -314  -298  -307  -321  -319  -286  -214  -103  12  88  104  87  61  9  -58  -56  55  138  4  -319  -586  -620  -413  -82  99  -127  -753  -1633  -2648  -3671  -4558  -5169  -5360  -5099  -4484  -3592  -2469  -1228  -37  863  1308  1384  1293  1130  913  688  501  333  142  -57  -171  -49  409  1059  1582  1846  1950  1955  1790  1384  771  72  -578  -1073  -1378  -1535  -1621  -1714  -1845  -1986  -2099  -2174  -2210  -2216  -2205  -2185  -2160  -2171  -2311  -2658  -3114  -3416  -3290  -2629  -1701  -1011  -848  -1185  -1863  -2620  -3206  -3551  -3717  -3779  -3777  -3707  -3543  -3298  -3025  -2744  -2413  -2009  -1581  -1148  -637  -49  446  683  628  335  -42  -310  -404  -403  -387  -375  -353  -298  -177  24  260  463  632  801  966  1081  1129  1129  1111  1095  1126  1321  1870  2866  4029  4830  4964  4471  3580  2648  1995  1738  1881  2390  3054  3520  3602  3387  3086  2861  2684  2380  1854  1221  675  294  55  -69  -116  -145  -204  -303  -418  -530  -641  -750  -849  -934  -1025  -1132  -1233  -1300  -1329  -1338  -1340  -1338  -1326  -1301  -1268  -1234  -1199  -1181  -1207  -1269  -1316  -1313  -1265  -1222  -1218  -1236  -1250  -1257  -1267  -1285  -1323  -1381  -1393  -1173  -473  834  2544  4090  4939  5035  4679  4220  3910  3793  3718  3508  3105  2577  2034  1543  1127  813  615  485  382  281  144  33  114  507  1208  2031  2654  2807  2345  1257  -257  -1838  -3103  -3759  -3736  -3177  -2267  -1178  -122  737  1322  1607  1617  1378  944  480  172  49  29  55  140  302  535  888  1504  2404  3297  3820  3850  3480  2919  2455  2283  2397  2659  2910  3059  3102  3023  2781  2389  1912  1373  797  218  -398  -1047  -1582  -1899  -2075  -2244  -2458  -2708  -2988  -3271  -3498  -3652  -3771  -3892  -4008  -4102  -4171  -4228  -4267  -4249  -4115  -3849  -3514  -3186  -2862  -2438  -1810  -1049  -369  77  274  302  262  207  156  132  163  260  430  676  1032  1587  2349  3101  3565  3674  3493  3063  2466  1868  1417  1171  1096  1107  1143  1188  1234  1260  1245  1187  1079  914  722  567  488  459  444  479  715  1250  1911  2374  2495  2323  1934  1440  992  659  371  30  -355  -692  -929  -1104  -1265  -1420  -1538  -1598  -1609  -1592  -1566  -1537  -1487  -1363  -1122  -780  -404  -58  224  414  507  547  579  602  590  534  471  471  561  680  781  884  1003  1098  1114  986  665  223  -187  -526  -857  -1166  -1359  -1406  -1364  -1294  -1216  -1136  -1065  -1007  -951  -888  -830  -792  -755  -662  -496  -361  -379  -500  -507  -195  440  1225  1843  1891  1245  205  -925  -2032  -3073  -4090  -5071  -5776  -5922  -5465  -4585  -3489  -2325  -1249  -435  27  189  182  118  69  123  401  899  1402  1679  1706  1610  1470  1274  993  650  315  45  -169  -358  -540  -762  -1070  -1445  -1826  -2140  -2322  -2348  -2229  -1978  -1640  -1311  -1088  -998  -988  -1008  -1060  -1169  -1336  -1553  -1816  -2095  -2342  -2576  -2852  -3164  -3457  -3699  -3897  -4049  -4131  -4142  -4085  -3892  -3395  -2487  -1368  -470  -20  127  236  452  760  1052  1224  1271  1258  1239  1230  1230  1235  1243  1247  1224  1154  1060  988  954  928  894  858  815  755  747  1001  1694  2619  3295  3485  3281  2852  2389  2050  1818  1539  1128  648  215  -104  -317  -459  -560  -643  -722  -776  -776  -733  -687  -635  -540  -410  -314  -275  -167  250  1050  1922  2456  2564  2436  2268  2157  2106  2078  2057  2041  2020  1954  1805  1609  1471  1441  1472  1472  1332  1003  569  180  -108  -333  -501  -593  -632  -676  -761  -889  -1050  -1215  -1339  -1370  -1302  -1200  -1126  -1067  -963  -765  -475  -124  258  665  1104  1590  2089  2407  2362  2070  1810  1750  1961  2382  2735  2806  2671  2406  1913  1156  298  -447  -914  -1009  -890  -943  -1293  -1633  -1698  -1492  -1067  -469  131  545  722  729  608  328  -134  -699  -1187  -1468  -1561  -1583  -1619  -1699  -1815  -1933  -2013  -2051  -2064  -2008  -1748  -1198  -516  10  274  413  579  796  1004  1138  1164  1054  797  479  220  37  -123  -273  -345  -208  239  862  1334  1460  1241  747  120  -453  -872  -1152  -1356  -1508  -1604  -1679  -1791  -1958  -2148  -2310  -2400  -2399  -2290  -2063  -1738  -1381  -1064  -807  -592  -404  -250  -145  -88  -40  66  267  503  663  701  661  620  692  997  1500  1988  2283  2395  2432  2447  2405  2227  1879  1428  977  591  320  197  184  211  237  247  255  296  390  493  585  835  1461  2323  2955  3049  2649  2026  1505  1240  1170  1181  1240  1381  1597  1813  1944  1898  1528  799  -48  -702  -1068  -1244  -1356  -1488  -1644  -1765  -1815  -1831  -1921  -2182  -2584  -3003  -3371  -3704  -4037  -4368  -4630  -4774  -4851  -4958  -5148  -5392  -5619  -5827  -6075  -6388  -6700  -6919  -7017  -7023  -6959  -6820  -6618  -6383  -6117  -5780  -5341  -4876  -4526  -4337  -4283  -4276  -4024  -3197  -1818  -319  767  1207  1249  1385  1884  2498  2746  2377  1436  194  -918  -1639  -2023  -2144  -1922  -1198  198  2274  4655  6683  7871  8252  8186  7949  7618  7206  6757  6316  5865  5351  4767  4159  3580  3091  2743  2545  2458  2436  2447  2473  2501  2514  2474  2321  2034  1675  1335  1064  855  689  533  308  -52  -536  -1070  -1564  -1993  -2424  -2880  -3302  -3641  -3896  -4067  -4113  -4008  -3818  -3666  -3574  -3378  -2885  -2155  -1433  -829  -323  23  157  147  127  206  438  782  1112  1316  1401  1437  1462  1455  1362  1141  750  138  -647  -1376  -1809  -1949  -1963  -1953  -1926  -1882  -1841  -1800  -1710  -1497  -1151  -745  -374  -101  74  200  304  379  420  460  560  767  1055  1327  1493  1555  1573  1590  1611  1625  1628  1619  1588  1532  1472  1437  1442  1487  1555  1629  1722  1834  1936  2008  2058  2096  2123  2138  2144  2142  2118  2061  1983  1912  1856  1816  1804  1815  1821  1803  1756  1684  1605  1533  1459  1372  1277  1191  1143  1155  1225  1336  1451  1516  1476  1301  1049  837  721  671  656  678  796  1110  1597  2060  2340  2459  2513  2569  2646  2721  2766  2768  2703  2531  2265  1990  1788  1672  1604  1537  1451  1361  1290  1253  1243  1226  1171  1073  910  620  212  -163  -381  -475  -521  -531  -496  -368  -21  584  1237  1662  1801  1756  1594  1337  1047  814  676  596  533  488  474  496  561  644  687  638  493  303  142  56  41  58  76  80  79  90  124  172  208  211  167  44  -201  -585  -1033  -1406  -1643  -1792  -1899  -1961  -1989  -2019  -2053  -2069  -2095  -2234  -2568  -3009  -3367  -3554  -3620  -3620  -3528  -3263  -2820  -2358  -2063  -1959  -1939  -1922  -1878  -1779  -1603  -1360  -1088  -830  -602  -389  -194  -22  149  339  553  827  1135  1356  1430  1417  1381  1355  1380  1520  1783  2063  2233  2253  2156  1979  1764  1567  1443  1398  1396  1409  1405  1347  1213  1038  904  893  983  1079  1132  1146  1115  1010  844  675  540  451  472  755  1374  2106  2585  2680  2515  2270  2054  1871  1694  1527  1350  1122  835  533  274  94  -10  -67  -122  -227  -374  -501  -562  -562  -530  -491  -465  -466  -498  -552  -627  -732  -862  -1002  -1165  -1344  -1481  -1557  -1608  -1658  -1710  -1758  -1797  -1809  -1758  -1608  -1402  -1253  -1236  -1354  -1551  -1737  -1855  -1912  -1954  -2000  -2036  -2053  -2055  -2023  -1907  -1687  -1413  -1164  -969  -775  -529  -324  -318  -550  -915  -1206  -1274  -1261  -1482  -2112  -3151  -4394  -5355  -5598  -5114  -4199  -3128  -2044  -1048  -300  84  158  4  -369  -875  -1298  -1518  -1575  -1511  -1273  -812  -230  254  501  501  242  -270  -862  -1286  -1468  -1522  -1571  -1661  -1769  -1843  -1869  -1865  -1844  -1808  -1780  -1790  -1833  -1872  -1893  -1912  -1953  -2017  -2089  -2163  -2244  -2359  -2545  -2791  -3003  -3079  -3007  -2881  -2830  -2916  -3078  -3207  -3269  -3304  -3321  -3287  -3200  -3112  -3043  -2917  -2635  -2206  -1759  -1389  -1108  -898  -743  -612  -465  -302  -162  -46  76  207  321  400  445  471  487  492  506  566  704  930  1210  1456  1591  1607  1556  1483  1396  1286  1175  1108  1125  1240  1438  1660  1825  1920  2001  2104  2189  2204  2160  2111  2069  1995  1874  1735  1610  1509  1425  1351  1262  1135  993  897  861  845  815  768  718  677  646  621  598  575  541  497  476  588  940  1468  1971  2338  2574  2694  2724  2691  2597  2440  2242  2034  1861  1759  1710  1656  1577  1520  1545  1659  1808  1956  2119  2304  2469  2580  2624  2581  2425  2171  1853  1511  1218  1053  1012  1031  1065  1114  1190  1312  1513  1797  2079  2238  2176  1842  1224  340  -782  -2028  -3137  -3825  -3944  -3509  -2668  -1606  -495  458  1061  1294  1303  1211  1044  834  657  554  497  444  370  254  122  28  -3  5  35  76  109  89  -40  -292  -615  -966  -1317  -1602  -1757  -1799  -1803  -1846  -1968  -2127  -2238  -2279  -2316  -2425  -2609  -2793  -2913  -2973  -3021  -3098  -3214  -3356  -3516  -3668  -3784  -3855  -3896  -3920  -3937  -3953  -3962  -3948  -3894  -3801  -3687  -3568  -3409  -3128  -2710  -2220  -1718  -1257  -884  -589  -342  -137  21  154  303  497  689  800  822  814  826  870  931  999  1084  1179  1244  1248  1199  1130  1081  1064  1059  1054  1050  1048  1049  1048  1048  1055  1069  1082  1099  1137  1179  1189  1144  1047  923  806  718  656  596  509  411  343  321  321  324  340  391  503  780  1400  2369  3345  3939  4079  3879  3407  2769  2172  1779  1606  1573  1592  1613  1624  1625  1605  1554  1471  1360  1216  1068  970  935  943  991  1093  1228  1345  1409  1432  1443  1447  1437  1421  1419  1443  1467  1466  1450  1432  1416  1413  1436  1487  1555  1630  1687  1637  1411  1076  720  303  -252  -928  -1638  -2286  -2714  -2745  -2342  -1593  -581  562  1563  2170  2375  2339  2201  2022  1798  1500  1169  922  807  749  658  524  400  313  250  189  89  -102  -397  -742  -1070  -1352  -1587  -1764  -1883  -1971  -2050  -2117  -2169  -2216  -2214  -2006  -1463  -754  -241  -69  -102  -187  -259  -296  -302  -286  -264  -273  -380  -628  -969  -1274  -1452  -1533  -1597  -1672  -1734  -1769  -1784  -1795  -1815  -1848  -1885  -1894  -1806  -1556  -1178  -794  -486  -253  -84  30  126  249  394  508  554  518  376  148  -74  -206  -237  -189  -75  63  158  172  113  13  -89  -161  -186  -172  -147  -135  -158  -240  -392  -577  -730  -822  -879  -939  -1017  -1117  -1226  -1309  -1354  -1386  -1427  -1465  -1471  -1430  -1357  -1278  -1205  -1070  -751  -231  336  762  950  858  479  -49  -472  -668  -714  -709  -703  -715  -752  -784  -769  -707  -642  -579  -466  -264  12  308  570  824  1131  1469  1734  1876  1895  1776  1517  1205  953  794  693  633  638  732  870  957  955  903  850  832  888  995  1068  1069  1021  987  1117  1555  2163  2535  2334  1556  457  -696  -1759  -2699  -3566  -4332  -4755  -4595  -3859  -2720  -1365  -19  1046  1660  1868  1847  1711  1481  1184  893  655  434  197  -17  -156  -218  -244  -294  -398  -528  -620  -610  -450  -139  239  548  659  529  252  -7  -163  -239  -282  -304  -337  -442  -647  -916  -1204  -1480  -1728  -1953  -2160  -2330  -2464  -2588  -2717  -2811  -2811  -2738  -2687  -2719  -2807  -2886  -2931  -2943  -2890  -2726  -2481  -2263  -2132  -2049  -1942  -1748  -1444  -1067  -691  -385  -191  -110  -101  -107  -94  -45  37  130  202  244  262  263  257  279  380  571  774  904  945  920  843  740  594  358  167  314  952  2065  3502  4808  5418  5204  4447  3451  2490  1825  1499  1350  1266  1244  1247  1222  1177  1161  1198  1287  1413  1543  1644  1704  1732  1729  1653  1455  1180  965  948  1226  1784  2393  2771  2828  2637  2300  1924  1613  1414  1285  1141  952  762  631  575  577  635  769  987  1238  1427  1505  1504  1453  1315  1046  721  498  445  513  632  746  816  834  839  882  950  998  1013  1012  1012  1015  1008  972  936  963  1037  1069  1035  938  739  451  188  8  -194  -569  -1206  -2124  -3177  -4061  -4508  -4470  -4052  -3311  -2270  -1023  251  1292  1886  2062  2009  1847  1615  1378  1194  1026  797  510  235  8  -173  -308  -387  -421  -435  -443  -445  -450  -465  -486  -498  -493  -478  -484  -567  -778  -1101  -1424  -1621  -1677  -1661  -1624  -1583  -1572  -1656  -1875  -2152  -2366  -2502  -2642  -2853  -3138  -3441  -3683  -3843  -3958  -4049  -4104  -4110  -4031  -3813  -3472  -3140  -2943  -2880  -2877  -2855  -2736  -2484  -2171  -1893  -1639  -1347  -1000  -633  -321  -128  -34  13  29  17  -5  -15  -16  -34  -76  -92  -9  199  469  703  849  896  848  726  538  284  21  -166  -259  -302  -330  -356  -374  -345  -208  36  300  480  551  535  444  292  134  31  3  24  51  52  26  0  -13  -17  -18  2  83  259  529  857  1154  1313  1257  971  568  243  91  61  85  146  275  511  824  1100  1238  1231  1118  964  831  738  684  678  710  729  700  635  569  516  473  441  415  363  276  212  200  192  229  551  1332  2338  3101  3435  3503  3488  3454  3422  3422  3469  3534  3579  3581  3505  3308  2962  2480  1972  1625  1518  1529  1480  1298  1021  725  449  88  -555  -1575  -2831  -3977  -4634  -4608  -3983  -3039  -2010  -960  46  834  1276  1425  1424  1355  1208  983  741  541  387  267  183  127  66  -7  -72  -113  -131  -114  -16  175  399  560  619  564  391  150  -53  -162  -191  -176  -156  -184  -309  -520  -743  -921  -1062  -1191  -1339  -1541  -1800  -2072  -2310  -2487  -2610  -2703  -2805  -2945  -3113  -3250  -3316  -3331  -3323  -3299  -3258  -3208  -3136  -2983  -2692  -2268  -1769  -1281  -877  -528  -133  347  836  1206  1388  1418  1360  1241  1097  981  914  863  791  690  581  488  415  359  326  309  296  283  266  236  197  167  168  233  394  651  953  1209  1347  1366  1289  1135  944  750  537  311  138  52  32  61  145  274  400  485  524  533  528  508  471  429  411  424  443  436  382  269  126  18  -7  77  308  733  1351  2017  2497  2695  2694  2561  2298  1951  1627  1402  1278  1212  1163  1120  1082  1035  946  810  673  589  565  572  584  590  575  529  466  418  404  420  458  501  519  476  367  283  375  671  1004  1150  1014  632  82  -561  -1253  -2015  -2851  -3623  -4114  -4153  -3655  -2682  -1457  -238  784  1491  1832  1893  1811  1631  1320  897  460  87  -180  -328  -395  -436  -474  -509  -539  -572  -624  -681  -723  -764  -833  -940  -1064  -1174  -1256  -1333  -1451  -1606  -1742  -1831  -1903  -1993  -2110  -2248  -2402  -2570  -2723  -2813  -2833  -2817  -2792  -2774  -2780  -2837  -2958  -3125  -3306  -3482  -3663  -3864  -4058  -4189  -4230  -4196  -4121  -4036  -3936  -3759  -3452  -3071  -2733  -2481  -2284  -2067  -1772  -1445  -1202  -1069  -962  -807  -597  -354  -107  92  209  260  295  350  446  584  734  868  968  1036  1084  1129  1173  1203  1224  1268  1368  1530  1745  2040  2437  2867  3214  3416  3467  3397  3293  3239  3239  3236  3167  3003  2771  2536  2345  2219  2153  2110  2048  1974  1920  1895  1879  1869  1875  1891  1891  1849  1753  1601  1439  1337  1322  1352  1381  1391  1384  1363  1335  1317  1316  1328  1336  1298  1182  1018  872  764  678  617  582  556  536  553  662  880  1130  1296  1345  1330  1302  1277  1246  1195  1132  1074  1034  1025  1047  1078  1103  1091  1008  861  697  538  370  174  -61  -395  -940  -1742  -2688  -3567  -4138  -4199  -3717  -2846  -1797  -727  238  970  1400  1587  1610  1489  1247  961  709  500  312  152  38  -26  -51  -39  12  104  224  347  437  470  427  293  98  -89  -228  -316  -363  -392  -437  -507  -577  -635  -683  -729  -777  -833  -903  -1006  -1164  -1342  -1471  -1545  -1619  -1717  -1822  -1941  -2103  -2290  -2443  -2541  -2603  -2633  -2604  -2486  -2275  -2043  -1881  -1784  -1672  -1529  -1410  -1321  -1202  -1013  -767  -498  -251  -79  9  59  117  186  240  266  280  292  297  285  253  215  179  143  124  139  182  231  274  323  402  520  660  792  895  967  1009  1024  1008  961  901  857  842  843  841  825  799  775  765  783  834  903  956  970  934  848  745  673  638  617  604  630  740  939  1153  1288  1305  1219  1067  919  829  783  724  621  488  360  270  228  217  213  213  228  258  281  277  254  231  201  141  46  -59  -136  -175  -208  -261  -313  -306  -209  -45  134  279  352  356  314  257  205  150  82  22  -20  -64  -98  -101  -90  -84  -63  -13  83  214  270  174  -9  -186  -331  -504  -834  -1443  -2335  -3352  -4242  -4775  -4833  -4457  -3787  -2954  -2015  -968  116  1066  1790  2377  2997  3701  4311  4649  4747  4724  4627  4459  4253  4068  3934  3825  3690  3474  3137  2691  2243  1885  1580  1239  854  471  118  -189  -440  -650  -833  -997  -1170  -1372  -1577  -1741  -1848  -1912  -1991  -2166  -2457  -2779  -3021  -3149  -3230  -3369  -3597  -3841  -4013  -4110  -4203  -4342  -4513  -4671  -4786  -4851  -4877  -4868  -4814  -4712  -4554  -4294  -3911  -3492  -3145  -2880  -2647  -2383  -2026  -1593  -1188  -890  -726  -684  -741  -874  -1038  -1166  -1219  -1211  -1175  -1141  -1130  -1158  -1227  -1317  -1389  -1421  -1430  -1428  -1408  -1348  -1231  -1077  -922  -777  -622  -460  -321  -227  -181  -151  -78  90  357  663  914  1049  1083  1075  1072  1082  1102  1128  1156  1168  1155  1130  1108  1087  1053  1009  969  942  951  1026  1148  1278  1390  1459  1474  1445  1393  1341  1313  1318  1344  1369  1375  1350  1294  1225  1174  1177  1262  1433  1652  1867  2025  2080  1993  1757  1445  1173  993  892  845  827  817  815  827  872  1026  1404  1999  2593  2935  2934  2632  2167  1746  1484  1334  1201  1066  995  1103  1449  1890  2107  1902  1371  756  202  -385  -1216  -2327  -3520  -4517  -5051  -4981  -4378  -3407  -2160  -743  540  1392  1803  1929  1838  1512  1012  521  168  -52  -186  -269  -349  -449  -538  -555  -408  -11  653  1492  2290  2821  3022  3008  2907  2785  2663  2553  2462  2393  2354  2354  2374  2373  2318  2176  1938  1629  1287  948  635  318  -61  -482  -839  -1088  -1279  -1451  -1604  -1736  -1861  -1983  -2092  -2190  -2275  -2335  -2365  -2378  -2373  -2309  -2121  -1794  -1414  -1089  -837  -584  -282  32  308  516  647  704  711  704  710  733  754  757  752  753  771  815  893  996  1118  1262  1407  1505  1548  1569  1562  1441  1126  683  308  118  67  68  88  111  115  93  52  -6  -69  -83  -2  162  349  491  535  472  349  241  181  156  141  127  116  107  84  32  -43  -113  -149  -163  -199  -284  -389  -459  -479  -471  -459  -444  -412  -342  -226  -100  -32  -47  -93  -105  -74  -31  0  8  -41  -192  -410  -597  -719  -824  -950  -1071  -1150  -1188  -1207  -1205  -1154  -1037  -883  -739  -622  -520  -434  -378  -345  -301  -239  -180  -127  -67  0  61  69  15  10  187  581  1135  1698  1989  1767  1031  -83  -1436  -2798  -3933  -4687  -4943  -4664  -3901  -2733  -1321  42  1028  1484  1524  1342  1046  702  371  96  -96  -223  -329  -430  -504  -532  -524  -509  -509  -525  -533  -488  -358  -185  -58  -9  -6  -36  -125  -283  -467  -616  -698  -732  -767  -864  -1053  -1295  -1525  -1705  -1826  -1889  -1916  -1937  -1971  -2035  -2128  -2222  -2301  -2373  -2458  -2548  -2600  -2592  -2548  -2492  -2429  -2368  -2311  -2211  -1992  -1634  -1178  -701  -294  -23  112  186  276  391  476  501  501  520  563  625  722  859  1015  1156  1248  1277  1255  1209  1180  1199  1267  1378  1551  1793  2091  2453  2889  3312  3566  3547  3237  2740  2245  1862  1580  1383  1284  1272  1324  1420  1525  1594  1607  1563  1462  1315  1167  1073  1043  1049  1055  1042  1005  963  942  942  941  913  847  759  694  682  722  799  878  929  944  934  915  893  870  852  838  822  806  791  771  736  675  588  492  424  423  529  748  1006  1202  1299  1324  1320  1313  1310  1311  1310  1305  1297  1293  1298  1306  1319  1375  1542  1823  2084  2176  2084  1877  1643  1437  1175  754  178  -546  -1429  -2416  -3394  -4153  -4439  -4143  -3320  -2147  -891  260  1235  1935  2272  2298  2120  1788  1329  841  469  269  177  125  83  54  99  329  787  1303  1609  1612  1404  1051  532  -79  -615  -974  -1151  -1196  -1186  -1184  -1217  -1274  -1328  -1363  -1385  -1402  -1421  -1443  -1470  -1514  -1591  -1690  -1785  -1878  -2025  -2298  -2684  -3064  -3335  -3498  -3607  -3687  -3739  -3768  -3765  -3704  -3586  -3438  -3232  -2876  -2242  -1280  -220  540  875  988  1080  1195  1297  1359  1374  1319  1168  962  789  675  572  462  363  278  193  113  54  9  -40  -105  -188  -299  -418  -498  -523  -521  -525  -547  -584  -630  -689  -770  -863  -939  -979  -992  -996  -989  -930  -777  -557  -358  -230  -148  -80  -28  -3  -12  -58  -124  -178  -203  -196  -147  -42  100  234  322  369  405  466  576  706  799  835  834  817  789  753  720  700  694  694  686  659  619  564  468  303  113  -22  -77  -87  -86  -84  -82  -78  -65  -28  40  124  189  219  223  219  223  235  234  230  296  513  830  1051  1041  860  644  497  469  525  525  390  124  -345  -1099  -2073  -3119  -4034  -4514  -4336  -3556  -2375  -984  450  1730  2656  3157  3329  3309  3164  2902  2575  2282  2084  1981  1946  1940  1922  1868  1793  1729  1675  1600  1494  1381  1283  1213  1176  1155  1133  1120  1185  1393  1690  1924  1985  1821  1429  901  384  -31  -357  -698  -1112  -1526  -1859  -2124  -2383  -2676  -2968  -3200  -3385  -3567  -3745  -3909  -4073  -4229  -4355  -4443  -4483  -4455  -4316  -4027  -3613  -3172  -2817  -2599  -2433  -2181  -1852  -1586  -1426  -1289  -1133  -1008  -954  -945  -939  -925  -910  -898  -881  -864  -860  -872  -880  -876  -883  -927  -1000  -1078  -1136  -1162  -1136  -1011  -737  -282  321  956  1467  1747  1809  1757  1656  1518  1345  1156  1001  920  888  805  596  344  204  138  19  -64  119  727  1775  3041  3994  4141  3474  2386  1334  686  542  672  799  830  783  681  547  414  311  246  198  155  125  111  101  83  61  21  -70  -234  -444  -649  -791  -854  -883  -935  -1009  -1065  -1082  -1070  -990  -736  -282  195  474  474  256  -38  -255  -344  -344  -296  -226  -164  -103  23  197  258  127  -82  -216  -222  -179  -189  -328  -708  -1416  -2411  -3542  -4615  -5376  -5587  -5198  -4321  -3104  -1727  -399  721  1579  2198  2684  3194  3744  4163  4335  4307  4152  3923  3677  3443  3222  3005  2775  2522  2250  1958  1677  1469  1360  1323  1345  1435  1577  1719  1817  1847  1793  1670  1532  1415  1272  1008  628  275  78  32  31  -48  -273  -597  -906  -1144  -1334  -1520  -1740  -1963  -2117  -2202  -2287  -2393  -2468  -2476  -2437  -2392  -2363  -2339  -2278  -2131  -1870  -1506  -1092  -675  -285  27  231  385  555  742  902  998  1032  1058  1141  1294  1457  1562  1594  1584  1562  1530  1476  1421  1400  1411  1433  1462  1492  1501  1454  1333  1174  1049  991  979  984  987  989  1003  1043  1094  1134  1178  1260  1371  1458  1500  1500  1439  1266  963  622  387  304  291  240  110  -45  -154  -203  -234  -268  -295  -305  -305  -306  -311  -321  -320  -278  -182  -61  16  -12  -174  -414  -608  -703  -752  -814  -882  -927  -948  -960  -943  -841  -625  -354  -122  21  90  120  137  153  179  205  212  174  99  50  97  226  366  508  710  1017  1471  2077  2620  2750  2260  1218  -97  -1355  -2361  -3059  -3374  -3210  -2555  -1505  -227  1064  2125  2778  3031  3009  2817  2502  2093  1648  1271  1032  888  742  565  397  275  196  153  152  190  253  322  389  448  470  425  328  202  57  -89  -225  -352  -416  -245  331  1171  1849  2103  2007  1739  1408  1017  463  -336  -1253  -2001  -2434  -2647  -2792  -2956  -3133  -3270  -3351  -3398  -3422  -3423  -3401  -3353  -3267  -3135  -2969  -2774  -2537  -2271  -2024  -1817  -1620  -1397  -1146  -912  -746  -666  -646  -648  -638  -599  -541  -489  -449  -405  -355  -312  -284  -264  -239  -217  -221  -256  -292  -312  -318  -314  -309  -318  -367  -466  -583  -660  -665  -589  -448  -289  -153  -20  174  427  636  730  739  723  710  701  694  705  767  910  1131  1360  1506  1528  1422  1197  891  585  375  296  299  315  309  266  189  95  3  -67  -115  -143  -156  -163  -174  -189  -199  -205  -226  -288  -380  -453  -477  -454  -398  -305  -177  -45  49  90  93  81  63  40  18  10  19  49  102  171  264  350  337  223  153  177  219  231  179  6  -293  -726  -1355  -2216  -3218  -4120  -4623  -4528  -3801  -2588  -1183  102  1025  1465  1489  1275  1002  809  740  746  777  811  827  783  636  423  225  69  -59  -148  -177  -158  -121  -89  -67  -48  -35  -34  -50  -87  -142  -208  -272  -332  -418  -561  -738  -909  -1103  -1383  -1709  -1951  -2043  -2049  -2077  -2205  -2435  -2700  -2923  -3052  -3064  -2987  -2836  -2537  -2038  -1494  -1155  -1123  -1329  -1620  -1813  -1779  -1496  -1096  -768  -554  -349  -65  283  600  791  870  932  1039  1170  1273  1327  1343  1344  1342  1338  1329  1323  1362  1484  1657  1782  1775  1621  1387  1172  1003  834  650  488  398  380  390  404  453  575  762  964  1144  1294  1409  1477  1479  1395  1227  1036  909  887  932  984  1021  1063  1115  1153  1169  1260  1602  2228  2884  3278  3378  3327  3224  3109  3007  2898  2724  2477  2222  2010  1862  1792  1789  1821  1844  1838  1813  1772  1688  1543  1379  1275  1247  1228  1145  996  848  754  711  690  684  695  710  718  718  723  738  752  729  642  517  422  388  392  400  386  337  265  214  202  217  240  218  88  -138  -416  -785  -1368  -2241  -3355  -4496  -5304  -5484  -4994  -4032  -2879  -1692  -538  437  1059  1311  1343  1283  1118  783  339  -50  -301  -451  -558  -637  -681  -695  -699  -721  -775  -832  -873  -912  -946  -949  -930  -915  -925  -973  -1036  -1078  -1079  -1064  -1071  -1104  -1143  -1226  -1445  -1801  -2176  -2484  -2739  -2975  -3188  -3339  -3408  -3417  -3425  -3517  -3751  -4074  -4346  -4483  -4515  -4516  -4541  -4548  -4347  -3714  -2714  -1771  -1252  -1136  -1183  -1231  -1249  -1254  -1239  -1157  -979  -750  -543  -382  -237  -74  93  207  246  240  217  187  159  146  153  167  176  190  237  343  506  678  804  873  910  926  921  899  880  881  898  927  978  1068  1207  1368  1500  1572  1584  1535  1433  1331  1284  1284  1283  1272  1265  1255  1218  1147  1072  1063  1181  1382  1537  1573  1513  1423  1358  1336  1345  1383  1449  1524  1575  1584  1564  1544  1536  1537  1541  1546  1551  1548  1520  1458  1378  1314  1292  1316  1348  1344  1280  1179  1094  1047  1018  991  982  1013  1080  1151  1198  1215  1216  1220  1237  1268  1321  1419  1563  1699  1784  1860  2018  2271  2497  2587  2565  2440  2185  1931  1880  2081  2470  2853  2821  2045  654  -921  -2245  -2968  -2958  -2358  -1413  -315  794  1737  2343  2619  2695  2655  2500  2238  1949  1739  1642  1615  1609  1610  1620  1630  1629  1631  1690  1848  2062  2229  2288  2252  2160  2049  1942  1820  1645  1426  1199  971  738  509  284  31  -276  -618  -936  -1170  -1316  -1470  -1741  -2135  -2566  -2972  -3344  -3662  -3913  -4158  -4450  -4765  -5035  -5218  -5311  -5337  -5323  -5287  -5233  -5179  -5140  -5075  -4882  -4509  -4062  -3720  -3549  -3434  -3181  -2709  -2186  -1860  -1789  -1864  -1966  -2033  -2046  -1999  -1882  -1713  -1552  -1461  -1440  -1446  -1438  -1387  -1279  -1129  -985  -894  -867  -889  -956  -1059  -1158  -1217  -1238  -1243  -1222  -1134  -970  -792  -674  -633  -637  -661  -711  -796  -891  -940  -913  -856  -824  -829  -839  -841  -848  -875  -914  -944  -946  -917  -879  -861  -896  -980  -1048  -1044  -978  -903  -865  -854  -802  -655  -466  -326  -189  109  591  1077  1401  1534  1544  1520  1533  1616  1740  1834  1843  1753  1588  1407  1257  1146  1063  989  923  875  853  850  856  859  851  833  798  739  652  519  312  38  -236  -472  -758  -1204  -1741  -2171  -2379  -2333  -1945  -1160  -83  1108  2279  3270  3909  4154  4116  3914  3636  3359  3118  2906  2728  2603  2512  2366  2081  1704  1375  1151  1000  882]
