reading_id,reading_time,wire_id,result_classification,heart_rate,heart_rate_alert,firmware_version,device_app_version,hardware_version,waveform_samples
035de5b0-58df-11ed-8080-808080808080,Mon Oct 31 05:43:57 UTC 2022,a10163b41b39,NSR,75,NONE,20001.171.50,2.10.0,Charge 5,[-3508  -4053  -4535  -4935  -5267  -5559  -5820  -6009  -6101  -6158  -6276  -6491  -6770  -7073  -7375  -7691  -8073  -8508  -8872  -9065  -9136  -9188  -9262  -9352  -9446  -9528  -9574  -9580  -9573  -9593  -9669  -9780  -9869  -9902  -9864  -9743  -9567  -9389  -9217  -9025  -8820  -8640  -8506  -8404  -8306  -8204  -8086  -7926  -7750  -7643  -7630  -7647  -7589  -7371  -7023  -6692  -6478  -6362  -6300  -6308  -6455  -6789  -7233  -7620  -7853  -7958  -7998  -7991  -7916  -7733  -7438  -7127  -6926  -6844  -6783  -6682  -6549  -6402  -6267  -6192  -6179  -6139  -5955  -5617  -5256  -4995  -4804  -4563  -4232  -3863  -3516  -3243  -3084  -3020  -2991  -2949  -2874  -2774  -2668  -2546  -2372  -2106  -1740  -1347  -1028  -806  -650  -551  -500  -467  -433  -412  -413  -420  -387  -279  -124  4  105  272  568  901  1102  1148  1205  1457  1927  2509  3131  3724  4166  4409  4513  4543  4518  4431  4295  4150  4032  3950  3907  3914  3990  4122  4270  4389  4456  4480  4478  4454  4398  4330  4300  4337  4411  4475  4511  4524  4520  4501  4472  4442  4419  4427  4517  4700  4864  4871  4761  4739  5017  5669  6578  7532  8283  8583  8323  7519  6273  4860  3635  2817  2432  2324  2268  2168  2104  2220  2607  3246  3952  4472  4732  4835  4882  4893  4851  4757  4643  4537  4448  4365  4251  4064  3835  3676  3674  3829  4054  4233  4329  4382  4421  4448  4462  4466  4467  4463  4433  4361  4246  4125  4058  4077  4157  4273  4421  4583  4713  4781  4804  4818  4840  4852  4818  4750  4695  4673  4658  4612  4492  4253  3908  3550  3277  3108  2980  2822  2636  2475  2357  2239  2088  1916  1757  1597  1398  1167  969  861  846  885  940  976  950  824  621  421  288  218  179  136  58  -74  -259  -469  -651  -758  -790  -770  -718  -658  -616  -606  -617  -629  -617  -543  -386  -189  -25  60  56  -74  -351  -677  -905  -989  -980  -910  -778  -609  -451  -319  -217  -167  -171  -193  -194  -173  -161  -184  -234  -273  -263  -209  -146  -101  -76  -59  -49  -65  -131  -230  -313  -361  -395  -440  -491  -518  -475  -329  -132  12  58  41  1  -47  -101  -153  -205  -259  -319  -388  -453  -495  -512  -518  -531  -565  -617  -667  -695  -699  -679  -626  -537  -430  -273  6  412  919  1530  2143  2556  2573  2049  990  -350  -1578  -2433  -2868  -2912  -2669  -2358  -2103  -1875  -1664  -1466  -1232  -985  -825  -780  -779  -739  -609  -392  -157  -1  46  29  -15  -74  -134  -183  -211  -225  -236  -243  -231  -187  -115  -37  27  78  120  155  207  301  418  523  649  860  1118  1309  1404  1472  1559  1650  1728  1808  1898  1969  1998  1978  1898  1749  1540  1311  1104  910  692  418  46  -404  -802  -1046  -1157  -1203  -1226  -1245  -1267  -1301  -1373  -1510  -1696  -1882  -2038  -2162  -2259  -2337  -2396  -2422  -2389  -2278  -2124  -2013  -2000  -2082  -2216  -2337  -2386  -2300  -2030  -1650  -1342  -1208  -1201  -1237  -1262  -1250  -1194  -1101  -1003  -939  -921  -933  -942  -908  -800  -643  -506  -431  -405  -396  -384  -370  -361  -359  -353  -337  -315  -300  -298  -305  -306  -277  -203  -100  -4  57  78  62  28  13  43  108  166  195  202  200  197  198  205  213  224  242  251  190  2  -259  -458  -527  -497  -418  -327  -268  -268  -331  -432  -524  -577  -620  -696  -820  -957  -1015  -893  -573  -94  511  1186  1891  2563  3057  3220  2928  2074  746  -693  -1840  -2464  -2513  -2169  -1786  -1606  -1599  -1605  -1480  -1157  -740  -446  -383  -493  -658  -778  -794  -681  -443  -154  89  242  309  325  322  299  222  76  -145  -486  -955  -1428  -1728  -1742  -1374  -617  274  947  1295  1452  1571  1718  1881  2028  2157  2268  2348  2404  2447  2468  2450  2362  2204  2036  1928  1897  1934  2039  2186  2297  2259  1966  1454  945  642  529  460  346  180  -45  -341  -632  -808  -837  -760  -630  -522  -578  -987  -1784  -2706  -3396  -3719  -3738  -3464  -2806  -1801  -781  -137  65  40  -41  -162  -335  -517  -650  -713  -739  -771  -811  -820  -787  -751  -738  -744  -753  -755  -747  -727  -698  -661  -599  -484  -316  -148  -43  -20  -70  -198  -412  -682  -938  -1115  -1173  -1114  -1001  -919  -893  -896  -897  -887  -869  -848  -827  -804  -777  -755  -755  -790  -876  -1005  -1147  -1302  -1480  -1655  -1779  -1818  -1753  -1592  -1392  -1216  -1079  -967  -877  -796  -693  -559  -436  -368  -370  -461  -643  -852  -1000  -1062  -1070  -1059  -1047  -1041  -1031  -1009  -992  -1004  -1027  -1001  -855  -569  -203  158  472  703  833  896  924  902  888  987  1222  1608  2174  2886  3685  4407  4738  4476  3584  2078  255  -1330  -2344  -2755  -2640  -2191  -1604  -945  -257  358  830  1163  1386  1497  1476  1326  1108  916  810  794  854  944  1008  1030  1030  1030  1024  986  894  784  749  866  1097  1321  1476  1610  1773  1961  2168  2373  2519  2567  2522  2420  2312  2244  2242  2321  2477  2648  2757  2795  2810  2827  2837  2828  2813  2803  2758  2611  2352  2048  1786  1617  1499  1293  886  324  -223  -620  -872  -1035  -1098  -1038  -879  -688  -535  -479  -525  -614  -687  -752  -867  -1047  -1235  -1377  -1478  -1582  -1700  -1783  -1796  -1761  -1701  -1597  -1430  -1224  -1010  -801  -596  -410  -278  -214  -181  -159  -182  -308  -546  -814  -1004  -1087  -1129  -1209  -1329  -1426  -1452  -1401  -1292  -1157  -1035  -961  -944  -971  -1001  -986  -886  -700  -490  -344  -285  -266  -245  -226  -225  -243  -282  -369  -546  -814  -1100  -1298  -1367  -1318  -1167  -919  -554  -54  464  790  809  554  172  -151  -333  -428  -536  -711  -917  -1052  -1029  -833  -562  -363  -292  -305  -368  -480  -611  -708  -768  -838  -946  -1077  -1206  -1313  -1368  -1340  -1227  -1086  -970  -791  -341  485  1572  2670  3490  3755  3406  2604  1469  124  -1232  -2480  -3447  -3856  -3671  -3178  -2660  -2234  -1887  -1559  -1231  -961  -826  -835  -927  -1035  -1077  -881  -297  497  1084  1278  1218  1047  803  527  312  219  247  362  517  725  1053  1457  1741  1744  1466  1070  778  676  703  790  905  1021  1118  1193  1266  1366  1498  1633  1747  1828  1854  1808  1709  1609  1552  1536  1540  1559  1611  1709  1835  1949  2009  1920  1543  877  155  -389  -728  -936  -1046  -1043  -862  -470  6  352  483  472  394  277  158  83  65  82  114  123  24  -261  -699  -1135  -1429  -1545  -1496  -1298  -1013  -750  -584  -547  -642  -821  -999  -1117  -1174  -1189  -1154  -1033  -830  -614  -416  -146  289  814  1216  1400  1449  1450  1372  1103  633  148  -147  -236  -234  -206  -117  84  373  652  851  958  997  997  969  859  571  67  -565  -1132  -1460  -1544  -1515  -1462  -1394  -1304  -1218  -1178  -1193  -1218  -1140  -845  -377  43  228  138  -90  -96  452  1386  2067  1973  1166  189  -364  -119  810  1606  1431  281  -1254  -2612  -3363  -3274  -2499  -1494  -698  -290  -144  -45  65  144  257  581  1165  1808  2278  2510  2459  1921  725  -895  -2340  -3163  -3410  -3376  -3180  -2759  -2171  -1654  -1341  -1165  -1035  -936  -882  -875  -910  -973  -1037  -1083  -1103  -1082  -996  -850  -684  -533  -400  -247  -16  335  810  1301  1638  1777  1819  1828  1819  1824  1857  1891  1907  1911  1908  1908  1942  2068  2318  2626  2879  3039  3147  3235  3300  3326  3256  2967  2357  1531  797  334  47  -205  -419  -531  -549  -527  -513  -558  -721  -986  -1233  -1362  -1383  -1362  -1342  -1352  -1428  -1581  -1760  -1873  -1812  -1488  -969  -493  -222  -97  20  170  266  203  11  -174  -277  -318  -334  -339  -337  -326  -317  -344  -445  -614  -810  -1008  -1206  -1403  -1580  -1682  -1599  -1229  -642  -82  254  334  189  -114  -442  -653  -723  -718  -693  -638  -519  -356  -202  -82  8  73  138  276  547  890  1155  1203  903  191  -717  -1425  -1732  -1709  -1456  -1027  -504  -12  333  497  523  435  215  -76  -282  -274  -37  309  583  681  573  251  -187  -556  -775  -903  -1007  -1105  -1186  -1234  -1253  -1253  -1206  -1062  -836  -626  -531  -617  -905  -1248  -1339  -1024  -467  105  630  1076  1413  1635  1586  996  -224  -1853  -3380  -4248  -4221  -3541  -2789  -2461  -2536  -2633  -2436  -1806  -861  21  569  822  939  1006  1027  969  786  492  193  -13  -119  -186  -282  -442  -636  -782  -777  -505  50  669  1061  1174  1152  1111  1080  1052  1030  1015  998  973  976  1099  1406  1817  2195  2514  2792  2989  3092  3166  3266  3376  3428  3357  3149  2875  2634  2425  2175  1880  1632  1493  1451  1449  1410  1269  1030  711  311  -102  -388  -490  -416  -118  424  1036  1414  1318  674  -282  -1124  -1618  -1825  -1874  -1832  -1705  -1501  -1274  -1061  -869  -719  -630  -589  -569  -539  -472  -372  -288  -276  -340  -448  -594  -760  -878  -900  -819  -668  -509  -404  -364  -360  -373  -406  -471  -554  -617  -581  -350  70  499  748  809  795  775  732  613  415  191  -8  -161  -246  -271  -274  -279  -287  -296  -310  -316  -270  -132  60  204  248  212  117  -33  -217  -386  -503  -546  -517  -464  -430  -397  -297  -93  141  270  223  48  -147  -295  -379  -414  -424  -429  -424  -385  -310  -238  -208  -230  -290  -358  -414  -469  -549  -695  -955  -1278  -1448  -1269  -772  -145  432  841  1038  998  726  284  -314  -1058  -1783  -2312  -2677  -3020  -3348  -3504  -3306  -2743  -2092  -1650  -1410  -1151  -747  -271  119  343  442  510  586  638  620  514  365  252  213  242  325  427  491  491  474  551  818  1211  1536  1690  1717  1689  1640  1586  1537  1497  1467  1466  1520  1632  1762  1884  2024  2190  2322  2338  2165  1792  1364  1091  1048  1166  1332  1449  1467  1375  1185  943  689  417  124  -144  -339  -458  -525  -536  -479  -379  -290  -267  -363  -627  -998  -1317  -1493  -1552  -1530  -1396  -1038  -426  233  643  698  490  171  -127  -368  -611  -938  -1367  -1803  -2107  -2242  -2285  -2337  -2431  -2536  -2606  -2598  -2469  -2222  -1946  -1716  -1457  -1014  -359  319  779  947  907  742  518  322  214  185  223  330  463  526  450  271  94  -17  -90  -175  -278  -370  -449  -541  -659  -791  -918  -1046  -1169  -1190  -891  -112  937  1793  2204  2199  1702  508  -1160  -2567  -3205  -3184  -2829  -2398  -2030  -1704  -1364  -1076  -930  -936  -1065  -1272  -1485  -1647  -1757  -1833  -1882  -1914  -1944  -1977  -1994  -1974  -1910  -1836  -1774  -1656  -1378  -962  -575  -349  -280  -286  -275  -187  -45  88  225  511  1143  2097  3033  3552  3421  2599  1248  -230  -1403  -2094  -2372  -2426  -2447  -2454  -2316  -1955  -1429  -854  -317  148  522  785  923  936  831  629  394  217  149  192  340  568  795  914  891  792  703  664  695  829  1059  1292  1418  1364  1111  755  481  371  366  391  436  523  631  721  813  967  1165  1322  1420  1514  1650  1848  2120  2443  2731  2906  2969  2942  2776  2420  1978  1658  1553  1596  1691  1776  1821  1803  1694  1505  1295  1106  923  738  573  412  198  -58  -272  -372  -338  -168  91  346  525  614  630  557  368  109  -109  -232  -282  -302  -296  -239  -141  -59  -23  -16  -6  23  59  65  6  -110  -228  -291  -300  -301  -353  -487  -700  -927  -1077  -1099  -1004  -830  -632  -473  -415  -482  -637  -808  -967  -1142  -1349  -1548  -1678  -1676  -1438  -890  -202  291  465  450  388  348  350  386  428  439  392  272  87  -126  -308  -378  -218  250  928  1540  1866  1837  1431  724  -10  -505  -736  -822  -840  -814  -759  -652  -428  -93  236  454  545  555  546  563  607  634  612  559  479  334  137  -15  -23  173  572  1068  1455  1497  1109  516  164  417  1319  2575  3716  4335  4246  3499  2302  933  -326  -1281  -1880  -2221  -2428  -2506  -2406  -2159  -1815  -1372  -895  -540  -382  -356  -373  -395  -429  -482  -536  -567  -569  -556  -542  -543  -559  -555  -481  -352  -258  -250  -297  -351  -398  -442  -477  -499  -518  -518  -464  -366  -274  -226  -222  -240  -235  -145  61  342  673  1078  1494  1763  1811  1698  1523  1378  1307  1307  1342  1379  1412  1438  1391  1129  574  -116  -676  -989  -1116  -1161  -1188  -1191  -1140  -1048  -955  -882  -830  -796  -801  -864  -953  -1016  -1041  -1052  -1060  -1037  -938  -756  -550  -379  -252  -151  -56  37  123  195  244  251  179  -81  -611  -1249  -1693  -1836  -1771  -1577  -1312  -1085  -977  -966  -966  -916  -805  -666  -539  -462  -472  -594  -800  -1000  -1111  -1128  -1085  -1008  -925  -848  -754  -609  -429  -285  -217  -207  -226  -279  -388  -550  -727  -878  -984  -1014  -893  -566  -140  178  311  332  311  243  78  -187  -466  -636  -604  -324  129  544  756  793  770  751  749  778  868  1024  1208  1367  1456  1449  1298  966  540  213  93  194  510  937  1239  1199  751  64  -518  -758  -693  -545  -442  -322  -17  696  1825  2882  3232  2547  921  -1072  -2661  -3432  -3441  -2983  -2455  -2125  -1975  -1876  -1773  -1665  -1534  -1339  -1018  -488  215  876  1293  1459  1452  1291  986  620  303  111  71  138  225  298  387  527  721  920  1068  1154  1189  1149  915  357  -377  -920  -1120  -1137  -1142  -1160  -1144  -1048  -840  -519  -122  347  917  1497  1886  1989  1854  1534  1103  700  455  409  579  973  1459  1788  1786  1430  876  405  186  159  198  245  292  333  356  367  369  351  299  232  215  332  628  1028  1359  1481  1300  774  81  -434  -630  -638  -609  -595  -641  -823  -1167  -1556  -1818  -1913  -1917  -1874  -1740  -1471  -1116  -795  -593  -506  -489  -507  -516  -437  -204  119  377  470  399  198  -53  -250  -341  -337  -259  -125  29  158  246  308  354  402  497  665  863  1031  1154  1245  1281  1149  743  178  -263  -462  -527  -577  -632  -672  -693  -708  -701  -616  -398  -74  259  505  629  658  624  507  286  21  -174  -242  -199  -90  46  197  362  522  647  707  694  608  449  248  47  -154  -366  -549  -657  -689  -650  -523  -316  -78  160  448  829  1233  1491  1428  919  65  -744  -1170  -1206  -1035  -827  -682  -597  -524  -454  -411  -395  -388  -378  -360  -342  -358  -470  -697  -953  -1116  -1139  -1045  -877  -683  -511  -392  -325  -288  -269  -259  -247  -235  -216  -157  -18  190  450  800  1250  1694  1989  2100  2101  2079  2071  2077  2088  2103  2123  2145  2166  2184  2199  2224  2299  2457  2660  2814  2826  2619  2162  1543  970  603  400  221  -24  -387  -842  -1250  -1472  -1513  -1457  -1339  -1138  -873  -632  -485  -417  -391  -415  -501  -622  -730  -810  -888  -984  -1095  -1190  -1226  -1183  -1099  -1033  -1005  -1002  -1013  -1039  -1079  -1118  -1134  -1110  -1044  -961  -902  -886  -913  -981  -1080  -1191  -1284  -1332  -1334  -1318  -1320  -1372  -1490  -1654  -1813  -1922  -1975  -1986  -1960  -1899  -1815  -1731  -1660  -1597  -1539  -1504  -1503  -1516  -1525  -1526  -1523  -1516  -1509  -1521  -1580  -1689  -1808  -1886  -1922  -1949  -1986  -2021  -2035  -2029  -2014  -2000  -1991  -1992  -2019  -2082  -2164  -2231  -2274  -2294  -2249  -2018  -1483  -679  191  902  1311  1432  1339  1009  439  -165  -565  -769  -979  -1351  -1908  -2499  -2907  -3089  -3131  -2954  -2281  -1069  203  993  1268  1362  1516  1757  2005  2194  2331  2456  2568  2602  2504  2285  1894  1127  -62  -1263  -1971  -2128  -1991  -1757  -1465  -1118  -762  -465  -222  14  274  685  1520  2797  4199  5373  5865  5348  4162  2900  1857  1208  862  333  -517  -1251  -1497  -1197  -371  821  1917  2507  2624  2558  2503  2481  2431  2304  2136  2014  1976  1992  2025  2060  2094  2132  2180  2229  2266  2293  2348  2510  2828  3229  3560  3722  3724  3613  3422  3161  2836  2499  2258  2156  2127  2089  2028  1969  1881  1687  1387  1075  846  716  637  563  508  475  442  475  618  739  676  376  -81  -562  -1022  -1498  -1936  -2222  -2322  -2285  -2160  -2003  -1882  -1827  -1832  -1923  -2156  -2522  -2900  -3154  -3240  -3133  -2769  -2193  -1627  -1238  -982  -713  -331  135  574  900  1080  1128  1111  1156  1391  1815  2251  2495  2443  2071  1497  980  668  495  365  253  98  -170  -497  -713  -685  -394  24  353  491  517  613  943  1481  1994  2284  2319  2069  1498  776  219  -67  -237  -392  -469  -388  -175  83  298  372  197  -239  -752  -1085  -1172  -1120  -1043  -1000  -1034  -1171  -1380  -1576  -1702  -1751  -1744  -1723  -1714  -1719  -1715  -1662  -1534  -1356  -1202  -1120  -1112  -1141  -1181  -1235  -1323  -1434  -1518  -1517  -1377  -1119  -870  -726  -626  -420  17  691  1446  2044  2262  1994  1284  240  -910  -1858  -2443  -2690  -2705  -2660  -2675  -2713  -2675  -2523  -2269  -1932  -1574  -1290  -1134  -1086  -1081  -1042  -932  -799  -743  -826  -1005  -1179  -1278  -1274  -1114  -767  -342  -26  109  147  196  340  618  960  1224  1352  1386  1378  1368  1402  1507  1650  1753  1785  1788  1831  1957  2172  2438  2670  2796  2823  2803  2772  2740  2707  2644  2520  2342  2147  1949  1747  1565  1426  1303  1149  951  724  493  308  213  196  217  258  303  335  339  318  285  256  242  239  230  164  -14  -304  -617  -853  -973  -1017  -1060  -1152  -1274  -1373  -1415  -1391  -1299  -1166  -1047  -977  -952  -942  -908  -840  -765  -720  -721  -763  -822  -869  -872  -807  -664  -457  -232  -50  50  81  75  69  113  246  432  571  592  481  266  7  -212  -335  -368  -352  -303  -215  -99  54  292  592  840  966  999  997  993  989  979  961  959  1002  1033  979  883  830  830  840  802  672  488  329  220  138  82  50  21  -41  -172  -342  -470  -521  -511  -442  -309  -156  -56  -32  -54  -86  -107  -127  -203  -403  -698  -963  -1116  -1194  -1258  -1295  -1273  -1213  -1162  -1139  -1134  -1124  -1095  -1059  -1025  -999  -1033  -1087  -956  -536  73  759  1444  2002  2245  2034  1337  197  -1189  -2463  -3327  -3649  -3424  -2831  -2208  -1801  -1606  -1503  -1379  -1168  -904  -684  -561  -525  -533  -540  -511  -405  -220  -21  118  184  185  132  67  13  -58  -217  -507  -844  -1071  -1105  -965  -709  -395  -84  186  428  672  897  1072  1200  1290  1355  1459  1679  1974  2193  2244  2147  1977  1822  1729  1635  1399  970  504  224  223  453  767  987  1021  889  659  389  90  -233  -525  -701  -756  -752  -729  -679  -597  -501  -411  -333  -262  -190  -105  -6  91  173  233  272  294  299  286  255  207  126  -4  -156  -268  -316  -336  -361  -386  -404  -422  -451  -487  -514  -515  -496  -479  -459  -403  -319  -274  -329  -472  -642  -812  -995  -1167  -1276  -1315  -1314  -1280  -1196  -1083  -992  -923  -828  -691  -547  -415  -305  -238  -214  -199  -167  -125  -92  -77  -97  -178  -325  -503  -659  -745  -751  -698  -620  -539  -446  -351  -270  -170  19  311  639  918  1106  1238  1381  1543  1631  1556  1298  902  470  143  0  -6  28  35  -32  -201  -465  -762  -990  -1099  -1132  -1144  -1128  -1024  -820  -648  -621  -607  -415  17  726  1653  2482  2861  2645  1865  704  -499  -1455  -2109  -2542  -2778  -2822  -2684  -2294  -1604  -763  -5  533  819  904  890  843  789  748  735  744  744  693  579  475  487  607  710  701  615  595  759  1061  1342  1520  1626  1685  1644  1487  1292  1127  970  813  737  802  936  1066  1238  1512  1820  2034  2124  2172  2310  2613  2993  3260  3309  3145  2819  2416  2015  1649  1310  998  753  610  550  525  483  377  192  -18  -187  -290  -354  -407  -461  -518  -576  -634  -681  -706  -724  -763  -832  -905  -945  -932  -861  -762  -680  -634  -601  -571  -552  -545  -539  -544  -609  -793  -1067  -1306  -1413  -1393  -1297  -1152  -981  -823  -709  -640  -623  -648  -676  -664  -598  -480  -340  -239  -203  -203  -202  -185  -136  -34  93  186  221  223  210  169  92  14  -18  -15  -23  -60  -107  -140  -161  -194  -255  -328  -382  -402  -401  -390  -376  -376  -420  -536  -716  -890  -990  -1005  -964  -898  -822  -743  -667  -604  -564  -552  -591  -712  -893  -1076  -1243  -1419  -1602  -1743  -1794  -1747  -1638  -1519  -1417  -1324  -1242  -1195  -1193  -1204  -1150  -950  -596  -167  232  512  586  408  54  -279  -406  -232  285  1075  1893  2424  2438  1876  820  -524  -1805  -2687  -3060  -3021  -2746  -2405  -2094  -1822  -1570  -1316  -1033  -713  -397  -166  -63  -73  -176  -348  -526  -638  -653  -551  -332  -71  115  199  216  192  133  60  4  -21  -18  12  80  177  264  311  314  281  226  162  93  33  10  44  158  354  589  817  1051  1365  1800  2266  2579  2656  2578  2448  2264  2010  1761  1611  1549  1511  1449  1318  1050  665  308  93  28  104  331  640  861  848  559  94  -345  -632  -769  -811  -809  -788  -744  -655  -522  -386  -281  -213  -174  -159  -150  -141  -127  -91  -2  149  319  432  472  480  493  518  531  501  415  277  112  -25  -98  -109  -73  4  107  204  301  438  626  808  911  866  618  220  -142  -327  -356  -331  -317  -345  -429  -545  -639  -685  -685  -624  -467  -236  -25  78  96  145  338  679  1047  1316  1427  1310  883  242  -321  -613  -687  -687  -696  -725  -769  -820  -863  -871  -809  -651  -415  -159  59  207  269  257  187  89  1  -55  -93  -169  -362  -681  -1018  -1272  -1462  -1659  -1865  -2018  -2094  -2110  -2063  -1904  -1599  -1193  -728  -177  479  1208  1958  2681  3331  3834  4108  4096  3777  3123  2142  990  -132  -1116  -1898  -2446  -2752  -2817  -2656  -2266  -1638  -835  -39  544  826  882  820  675  453  176  -143  -475  -751  -920  -992  -1004  -955  -805  -556  -299  -125  -44  -29  -44  -44  46  301  689  1047  1242  1272  1165  928  637  439  447  690  1085  1482  1780  1957  2037  2064  2074  2066  2005  1868  1699  1566  1471  1386  1339  1361  1403  1396  1328  1239  1149  975  591  2  -624  -1103  -1377  -1504  -1551  -1530  -1434  -1281  -1127  -1041  -1037  -1069  -1073  -1017  -912  -814  -765  -757  -758  -758  -762  -751  -688  -585  -509  -486  -418  -128  435  1093  1587  1807  1812  1688  1485  1251  1014  763  519  358  310  326  357  381  364  237  -37  -372  -623  -792  -991  -1233  -1412  -1485  -1509  -1529  -1490  -1234  -673  21  538  746  757  723  701  661  566  444  366  361  400  455  540  673  807  825  638  288  -133  -609  -1062  -1216  -711  642  2498  3953  4174  2990  939  -1137  -2612  -3264  -3229  -2840  -2385  -2011  -1768  -1629  -1521  -1384  -1170  -860  -529  -314  -298  -482  -791  -1077  -1230  -1264  -1244  -1198  -1109  -964  -800  -681  -622  -593  -574  -555  -539  -533  -539  -538  -489  -347  -58  427  1099  1799  2254  2189  1418  84  -1225  -1977  -2170  -2112  -2009  -1890  -1757  -1651  -1576  -1432  -1085  -572  -99  198  378  564  798  1011  1124  1147  1136  1123  1115  1114  1135  1186  1233  1196  1013  727  450  255  126  40  51  265  730  1326  1840  2161  2312  2352  2299  2115  1807  1488  1261  1121  1032  989  991  1011  1028  1041  1057  1079  1123  1241  1466  1731  1917  1993  1989  1877  1593  1181  798  490  111  -406  -892  -1153  -1169  -995  -696  -389  -201  -205  -444  -914  -1505  -2025  -2319  -2408  -2432  -2482  -2558  -2636  -2702  -2751  -2801  -2860  -2857  -2585  -1844  -631  781  1973  2651  2839  2628  1900  579  -1004  -2319  -3080  -3315  -3174  -2831  -2382  -1738  -725  607  1832  2327  1718  204  -1538  -2866  -3487  -3398  -2755  -1823  -966  -477  -379  -532  -833  -1177  -1393  -1309  -858  -214  303  548  618  644  653  588  401  105  -236  -548  -772  -897  -953  -963  -913  -769  -562  -405  -420  -682  -1143  -1601  -1838  -1715  -1201  -504  -2  113  -82  -429  -795  -1084  -1237  -1228  -1077  -848  -622  -436  -291  -179  -79  30  137  209  234  230  222  222  243  289  365  468  563  605  586  556  561  593  637  763  1067  1502  1887  2075  1973  1490  710  -14  -394  -461  -409  -356  -349  -442  -678  -1008  -1324  -1595  -1824  -1981  -2056  -2084  -2074  -1907  -1447  -801  -266  34  205  357  507  610  612  506  338  162  30  -22  9  97  240  483  842  1223  1506  1662  1729  1737  1706  1664  1634  1622  1614  1586  1525  1498  1670  2120  2651  2967  2990  2897  2963  3326  3855  4225  4099  3351  2193  940  -197  -1008  -1343  -1296  -1060  -776  -581  -530  -553  -570  -572  -575  -579  -559  -468  -283  -36  187  315  318  208  40  -93  -148  -138  -87  -8  84  187  300  423  523  532  395  137  -175  -495  -779  -973  -1048  -995  -812  -567  -382  -314  -337  -425  -558  -692  -776  -806  -793  -719  -555  -302  -10  236  376  416  390  325  239  141  16  -125  -238  -307  -357  -385  -346  -207  -14  128  158  86  -39  -156  -226  -262  -313  -418  -555  -662  -712  -710  -637  -452  -145  211  489  624  654  647  622  558  438  283  139  49  12  -28  -128  -266  -368  -399  -385  -356  -327  -334  -456  -739  -1090  -1348  -1448  -1421  -1269  -976  -621  -345  -245  -337  -458  -317  233  1104  2027  2581  2473  1820  956  133  -471  -757  -796  -778  -854  -1068  -1385  -1694  -1877  -1884  -1687  -1278  -750  -259  90  274  322  296  261  239  231  237  247  223  86  -212  -589  -890  -1066  -1178  -1271  -1346  -1389  -1398  -1379  -1321  -1218  -1103  -1019  -967  -899  -721  -360  118  530  765  887  1054  1396  1941  2605  3195  3540  3622  3497  3194  2819  2555  2477  2515  2564  2498  2166  1559  908  456  242  173  158  125  40  -83  -192  -231  -192  -114  -66  -108  -264  -503  -737  -892  -961  -984  -991  -983  -967  -981  -1064  -1223  -1414  -1546  -1527  -1294  -896  -509  -265  -132  -34  28  34  3  -34  -76  -137  -210  -257  -246  -158  0  173  281  297  241  150  75  46  44  3  -158  -473  -868  -1197  -1370  -1418  -1420  -1410  -1392  -1386  -1416  -1466  -1489  -1458  -1390  -1317  -1257  -1212  -1182  -1160  -1092  -891  -540  -129  208  390  434  421  400  368  317  255  197  135  39  -101  -268  -422  -514  -510  -400  -224  -61  36  78  83  59  27  7  0  -10  -23  -31  -24  -7  12  30  45  66  98  125  131  120  104  89  74  59  73  143  189  58  -211  -345  -128  443  1202  1821  1994  1675  1024  192  -703  -1501  -2059  -2326  -2296  -2053  -1752  -1482  -1234  -943  -525  -31  342  490  490  451  418  388  346  294  254  234  228  230  238  245  249  246  234  218  232  343  587  891  1125  1239  1278  1297  1325  1372  1447  1551  1651  1704  1706  1685  1668  1660  1675  1743  1876  2020  2113  2157  2207  2285  2364  2422  2457  2473  2463  2385  2163  1728  1132  564  194  28  -35  -77  -140  -265  -481  -737  -925  -994  -942  -761  -490  -247  -127  -116  -160  -220  -259  -221  -46  236  493  600  537  357  129  -90  -265  -372  -417  -428  -426  -418  -405  -390  -380  -378  -377  -357  -285  -151  0  101  141  146  152  172  191  149  -28  -338  -680  -936  -1059  -1079  -1063  -1055  -1066  -1090  -1119  -1153  -1170  -1095  -853  -496  -190  -21  54  123  220  320  384  406  409  411  412  394  310  82  -363  -1019  -1735  -2297  -2588  -2665  -2649  -2611  -2563  -2490  -2378  -2238  -2092  -1923  -1682  -1379  -1114  -967  -912  -885  -850  -789  -643  -366  -37  188  258  238  193  150  117  100  116  178  266  348  421  487  533  552  558  563  560  513  378  166  -37  -160  -212  -241  -261  -241  -156  -48  -5  -22  38  289  744  1377  2046  2471  2485  2118  1400  430  -523  -1265  -1782  -2079  -2155  -2076  -1920  -1696  -1395  -1070  -817  -660  -506  -256  60  315  445  482  461  369  192  -23  -196  -273  -217  30  482  1026  1473  1691  1629  1278  751  296  83  90  214  362  484  595  734  914  1141  1390  1582  1670  1704  1756  1829  1873  1869  1860  1910  2052  2242  2383  2414  2331  2161  1959  1783  1649  1532  1385  1170  887  588  342  170  59  0  -15  -28  -96  -270  -516  -740  -891  -993  -1093  -1221  -1377  -1531  -1636  -1679  -1680  -1638  -1532  -1376  -1239  -1173  -1163  -1167  -1154  -1127  -1095  -1058  -1016  -977  -952  -946  -958  -970  -938  -801  -544  -264  -87  -28  18  149  347  509  568  523  387  213  68  -35  -129  -212  -267  -303  -375  -539  -766  -965  -1104  -1219  -1317  -1377  -1395  -1382  -1347  -1292  -1213  -1094  -906  -632  -296  46  327  488  520  459  345  227  148  112  84  45  17  35  130  319  570  793  918  950  921  841  721  597  506  477  521  616  714  769  736  575  319  85  -41  -95  -153  -250  -376  -518  -651  -732  -714  -569  -325  -78  79  122  76  -3  -65  -92  -90  -58  -4  27  -15  -136  -265  -209  264  1169  2217  3044  3403  3230  2661  1898  1082  297  -415  -1053  -1604  -2015  -2218  -2230  -2154  -2029  -1792  -1425  -1034  -758  -638  -607  -575  -498  -382  -250  -119  34  249  483  614  587  476  392  376  396  406  365  252  96  -11  12  190  437  613  663  649  658  745  894  1050  1214  1472  1871  2317  2645  2784  2799  2779  2756  2722  2644  2482  2248  2032  1907  1861  1839  1791  1682  1516  1311  1047  732  451  245  55  -136  -288  -440  -700  -1043  -1302  -1403  -1413  -1403  -1378  -1315  -1216  -1095  -949  -799  -700  -669  -679  -701  -730  -760  -780  -787  -788  -787  -780  -760  -733  -713  -701  -694  -696  -740  -872  -1100  -1346  -1500  -1504  -1365  -1143  -936  -814  -786  -828  -887  -904  -825  -622  -343  -101  22  31  -44  -192  -377  -523  -599  -643  -685  -714  -720  -716  -730  -784  -864  -929  -940  -872  -725  -547  -406  -344  -386  -537  -741  -919  -1045  -1133  -1185  -1199  -1168  -1089  -976  -874  -815  -800  -808  -807  -761  -659  -544  -477  -466  -478  -501  -553  -638  -718  -751  -709  -556  -252  181  611  886  974  932  781  532  247  9  -135  -181  -144  -35  150  414  658  687  468  291  482  1106  2064  3195  4179  4636  4388  3463  2048  521  -717  -1483  -1806  -1827  -1747  -1699  -1600  -1290  -797  -285  104  326  445  570  751  934  1045  1074  1066  1055  1044  1022  986  933  842  688  493  322  200  99  9  -48  -52  11  149  336  520  683  833  979  1131  1270  1358  1394  1420  1459  1504  1552  1599  1631  1631  1596  1537  1479  1441  1430  1437  1447  1428  1350  1220  1092  986  826  508  51  -369  -611  -692  -714  -733  -733  -697  -639  -594  -570  -519  -382  -184  -17  46  -42  -336  -756  -1104  -1271  -1323  -1344  -1342  -1291  -1164  -938  -634  -312  -25  190  325  402  449  451  351  128  -129  -294  -306  -187  -11  117  92  -160  -597  -1018  -1249  -1284  -1213  -1096  -949  -767  -577  -453  -455  -588  -795  -999  -1180  -1377  -1618  -1852  -1964  -1856  -1506  -996  -495  -151  4  34  10  -26  -71  -133  -207  -285  -346  -372  -402  -567  -972  -1513  -1942  -2125  -2098  -1915  -1612  -1251  -924  -721  -665  -706  -752  -669  -329  214  696  891  792  532  252  40  -64  -65  2  88  145  163  165  179  212  247  265  261  234  182  132  115  89  23  60  406  1091  1976  2781  3140  2826  1922  718  -445  -1336  -1933  -2290  -2437  -2468  -2510  -2593  -2658  -2589  -2281  -1775  -1250  -830  -520  -309  -210  -209  -253  -274  -187  64  427  767  993  1104  1133  1096  983  813  658  570  546  554  571  604  666  738  776  769  747  738  753  799  921  1192  1595  1972  2181  2259  2335  2451  2549  2591  2601  2621  2666  2703  2630  2334  1825  1256  761  389  140  -13  -124  -231  -339  -446  -551  -645  -702  -690  -588  -422  -267  -183  -179  -262  -437  -661  -836  -898  -878  -867  -910  -957  -954  -914  -876  -842  -781  -692  -598  -501  -402  -321  -287  -356  -589  -940  -1270  -1525  -1772  -2027  -2191  -2147  -1858  -1454  -1162  -1112  -1275  -1517  -1635  -1408  -747  210  1282  2392  3475  4288  4312  3210  1358  -521  -1918  -2606  -2679  -2463  -2197  -1969  -1799  -1648  -1495  -1382  -1332  -1322  -1321  -1334  -1395  -1523  -1676  -1768  -1722  -1507  -1211  -989  -906  -877  -708  -145  879  1994  2705  2910  2864  2788  2750  2754  2824  2978  3168  3311  3384  3410  3406  3363  3284  3171  2957  2442  1516  450  -300  -611  -689  -703  -654  -486  -221  35  187  233  212  135  -9  -240  -600  -1083  -1570  -1909  -2051  -2017  -1792  -1378  -910  -541  -280  -71  46  -94  -689  -1724  -2807  -3485  -3674  -3551  -3235  -2800  -2338  -1887  -1488  -1256  -1294  -1603  -2027  -2335  -2433  -2374  -2217  -1992  -1739  -1525  -1391  -1284  -1101  -827  -534  -273  -58  85  154  176  187  243  436  833  1411  2047  2565  2864  3010  3148  3379  3698  4020  4257  4386  4424  4352  4124  3773  3478  3429  3578  3728  3804  3858  3918  3894  3596  2899  1948  1103  650  561  564  357  -234  -1118  -1941  -2421  -2574  -2521  -2257  -1695  -833  136  894  1253  1285  1153  951  748  598  494  393  287  203  156  126  50  -141  -456  -801  -1061  -1196  -1250  -1278  -1295  -1311  -1337  -1367  -1380  -1353  -1277  -1168  -1070  -1019  -1019  -1044  -1063  -1022  -858  -581  -310  -154  -104  -86  -64  -44  -18  41  140  239  296  313  312  299  255  160  21  -134  -309  -528  -760  -919  -969  -949  -904  -855  -795  -701  -589  -507  -466  -430  -384  -350  -342  -351  -346  -290  -150  81  363  626  842  1006  1099  1126  1143  1194  1259  1267  1164  954  700  491  374  333  331  336  308  218  80  -62  -219  -441  -703  -902  -981  -974  -937  -898  -873  -874  -918  -1043  -1267  -1533  -1745  -1857  -1870  -1757  -1468  -1049  -659  -418  -326  -327  -406  -600  -927  -1314  -1632  -1772  -1691  -1374  -786  64  978  1638  1808  1395  479  -630  -1558  -2162  -2550  -2871  -3179  -3408  -3395  -3021  -2398  -1765  -1282  -1009  -913  -910  -933  -939  -884  -744  -532  -267  59  417  715  875  873  687  329  -81  -387  -535  -582  -605  -636  -656  -623  -507  -348  -230  -180  -156  -121  -61  33  168  342  551  771  946  1036  1033  931  754  617  651  866  1125  1243  1171  1064  1108  1345  1630  1696  1370  773  193  -141  -239  -324  -555  -814  -836  -504  63  669  1158  1476  1675  1813  1899  1896  1777  1587  1419  1321  1275  1230  1129  949  715  479  295  194  162  156  144  132  135  142  136  115  95  85  86  92  89  54  -37  -173  -297  -364  -384  -387  -365  -285  -139  17  116  137  102  35  -39  -95  -115  -87  -2  119  230  308  356  371  347  296  236  137  -96  -528  -1046  -1438  -1608  -1584  -1359  -922  -402  -11  159  178  106  -64  -343  -685  -1013  -1259  -1389  -1420  -1369  -1231  -1029  -840  -736  -723  -753  -774  -768  -718  -588  -372  -104  177  438  638  756  806  816  814  809  791  746  674  606  572  517  312  -100  -626  -1130  -1520  -1728  -1730  -1567  -1328  -1131  -1030  -985  -941  -853  -652  -305  140  686  1387  2142  2671  2720  2137  937  -563  -1886  -2679  -2871  -2622  -2208  -1855  -1582  -1291  -969  -639  -263  184  636  982  1181  1268  1286  1268  1236  1181  1075  923  781  689  642  624  623  628  623  599  559  523  519  586  756  1010  1258  1411  1455  1443  1420  1401  1382  1365  1370  1450  1642  1904  2124  2225  2216  2141  2046  1968  1940  2033  2311  2694  2989  3092  3005  2729  2288  1798  1402  1165  1053  982  876  710  534  395  268  101  -95  -261  -356  -396  -413  -417  -409  -395  -380  -358  -330  -312  -312  -317  -299  -231  -127  -44  -49  -196  -471  -760  -935  -980  -966  -968  -1018  -1106  -1201  -1278  -1318  -1284  -1148  -944  -765  -671  -647  -664  -719  -814  -943  -1084  -1196  -1226  -1153  -1030  -914  -812  -716  -624  -514  -367  -203  -41  118  272  398  463  458  392  261  81  -79  -161  -181  -191  -259  -440  -708  -951  -1082  -1118  -1117  -1086  -1002  -864  -688  -446  -110  243  469  504  384  191  13  -132  -348  -761  -1348  -1940  -2371  -2573  -2529  -2233  -1761  -1324  -1094  -1048  -1073  -1103  -1136  -1162  -1140  -1069  -1022  -1041  -1051  -901  -553  -227  -155  -241  -242  -44  352  924  1550  1983  2012  1593  763  -329  -1366  -2081  -2444  -2531  -2398  -2135  -1851  -1569  -1216  -797  -442  -238  -147  -115  -118  -116  -15  263  650  975  1152  1217  1240  1252  1237  1149  965  685  324  -34  -266  -320  -228  -40  163  298  340  329  325  409  659  1028  1340  1481  1495  1471  1454  1448  1457  1495  1568  1697  1954  2386  2865  3168  3180  2931  2552  2205  1980  1861  1783  1677  1473  1127  710  389  243  193  117  -28  -195  -300  -329  -364  -481  -658  -797  -851  -852  -842  -828  -799  -750  -697  -654  -633  -635  -645  -637  -575  -454  -323  -246  -251  -325  -424  -500  -549  -618  -741  -894  -1005  -1032  -970  -834  -679  -582  -589  -701  -872  -1041  -1203  -1387  -1580  -1730  -1787  -1718  -1528  -1273  -1028  -800  -532  -247  -53  9  -2  -44  -102  -117  22  314  595  756  818  811  716  506  207  -114  -392  -581  -666  -649  -497  -186  208  540  723  767  689  486  224  36  -8  57  164  258  319  333  259  73  -144  -237  -136  55  189  220  170  49  -117  -228  -126  281  851  1267  1332  1076  672  372  346  529  718  884  1198  1689  2103  2136  1658  729  -412  -1388  -1997  -2419  -2834  -3127  -3125  -2767  -2083  -1256  -582  -248  -191  -235  -271  -284  -289  -284  -249  -183  -117  -69  -38  -21  -14  -16  -33  -74  -135  -212  -306  -403  -467  -484  -473  -455  -429  -385  -334  -282  -201  -83  17  74  171  442  901  1392  1764  2000  2146  2225  2245  2201  2076  1896  1732  1623  1560  1530  1514  1486  1426  1327  1169  925  625  353  142  -16  -122  -186  -245  -320  -382  -385  -335  -287  -268  -256  -208  -74  181  542  922  1217  1348  1249  893  413  36  -164  -268  -320  -305  -224  -128  -93  -136  -214  -290  -402  -650  -1044  -1429  -1645  -1661  -1520  -1266  -964  -704  -564  -551  -611  -668  -644  -485  -197  129  368  465  409  122  -424  -1046  -1468  -1598  -1527  -1356  -1149  -955  -816  -750  -745  -777  -821  -846  -810  -684  -513  -389  -345  -340  -324  -252  -85  136  308  363  287  72  -247  -563  -782  -894  -934  -907  -784  -569  -343  -191  -133  -131  -149  -169  -190  -219  -265  -338  -456  -647  -910  -1193  -1426  -1578  -1666  -1714  -1725  -1658  -1469  -1207  -998  -903  -880  -860  -800  -709  -617  -536  -464  -421  -371  -177  259  884  1584  2262  2795  3054  2922  2289  1194  -83  -1226  -1989  -2205  -1895  -1227  -423  269  745  1123  1544  1960  2214  2232  2057  1798  1587  1492  1474  1435  1282  995  659  370  168  58  25  29  38  41  42  47  48  5  -119  -290  -416  -445  -386  -267  -86  206  638  1121  1486  1647  1664  1640  1630  1654  1745  1932  2165  2339  2394  2307  2069  1760  1544  1523  1682  1919  2108  2192  2174  2041  1752  1292  722  192  -180  -377  -447  -458  -463  -473  -468  -441  -418  -441  -544  -734  -988  -1269  -1507  -1632  -1625  -1510  -1342  -1181  -1046  -917  -790  -664  -514  -340  -199  -130  -118  -139  -185  -254  -332  -392  -419  -422  -428  -455  -497  -530  -540  -522  -467  -385  -305  -250  -227  -237  -283  -350  -413  -458  -491  -521  -533  -514  -476  -451  -457  -494  -556  -662  -792  -879  -888  -837  -757  -664  -554  -401  -175  93  305  399  375  235  1  -223  -315  -244  -97  13  60  99  179  297  442  610  765  857  879  861  828  794  750  636  376  17  -289  -468  -547  -557  -522  -480  -456  -447  -440  -432  -444  -501  -604  -723  -824  -881  -904  -929  -980  -1039  -1045  -914  -633  -248  212  680  1090  1514  2074  2745  3320  3513  3054  1880  338  -1046  -1960  -2369  -2443  -2417  -2442  -2508  -2537  -2527  -2517  -2507  -2476  -2376  -2168  -1906  -1700  -1581  -1489  -1338  -1076  -761  -516  -352  -161  93  333  499  613  700  742  678  462  163  -62  -139  -85  70  272  438  552  694  944  1262  1510  1607  1630  1812  2448  3582  4786  5523  5675  5476  5152  4818  4524  4284  4054  3705  3073  2115  1047  179  -383  -752  -1047  -1326  -1574  -1733  -1770  -1674  -1448  -1156  -916  -795  -780  -829  -897  -950  -973  -943  -828  -638  -452  -338  -297  -299  -326  -384  -512  -739  -1019  -1244  -1350  -1349  -1252  -1060  -822  -633  -552  -569  -638  -709  -743  -744  -735  -738  -785  -912  -1133  -1394  -1578  -1575  -1316  -844  -360  -65  7  -60  -193  -327  -406  -415  -373  -313  -268  -252  -281  -365  -482  -576  -617  -606  -548  -472  -407  -335  -218  -66  73  191  313  429  481  434  321  199  90  -21  -139  -240  -298  -300  -255  -186  -129  -102  -98  -101  -112  -137  -173  -191  -130  55  310  505  580  567  504  377  167  -70  -235  -306  -336  -364  -389  -404  -400  -352  -244  -114  -20  14  14  0  -11  -19  -42  -124  -283  -447  -482  -341  -123  90  321  656  1215  1966  2605  2814  2500  1718  633  -461  -1393  -2221  -2931  -3327  -3288  -2871  -2231  -1584  -1085  -728  -430  -130  210  539  723  705  563  406  287  212  166  129  97  77  73  77  82  85  80  69  54  33  7  -14  -26  -36  -45  -40  3  106  256  429  635  874  1100  1277  1439  1636  1885  2190  2548  2900  3143  3246  3267  3258  3235  3197  3141  3045  2869  2579  2188  1760  1371  1065  854  722  633  553  454  284  -5  -377  -703  -891  -956  -952  -897  -796  -677  -581  -530  -512  -521  -589  -755  -997  -1224  -1350  -1350  -1248  -1089  -907  -717  -546  -433  -370  -320  -273  -229  -173  -125  -112  -122  -95  30  242  442  546  547  483  400  347  360  448  567  653  681  677  670  668  663  645  600  509  330  14  -410  -816  -1108  -1283  -1360  -1350  -1279  -1207  -1183  -1187  -1169  -1138  -1108  -1016  -764  -350  79  340  363  189  -87  -334  -467  -500  -491  -475  -454  -414  -352  -287  -243  -226  -232  -275  -375  -503  -594  -622  -614  -598  -591  -609  -667  -746  -805  -820  -796  -739  -636  -479  -326  -266  -304  -337  -212  162  733  1277  1493  1226  594  -202  -1016  -1747  -2342  -2721  -2813  -2654  -2328  -1961  -1706  -1585  -1490  -1352  -1202  -1104  -1062  -1017  -926  -808  -703  -608  -504  -376  -167  177  571  838  921  905  873  843  815  795  798  837  913  994  1044  1061  1067  1065  1038  965  853  740  676  719  920  1256  1635  1971  2214  2340  2369  2351  2327  2298  2220  2057  1829  1615  1492  1483  1559  1664  1733  1713  1588  1411  1261  1138  972  737  495  312  190  75  -80  -314  -633  -961  -1176  -1244  -1211  -1113  -975  -847  -759  -710  -702  -764  -912  -1098  -1233  -1275  -1254  -1197  -1077  -882  -681  -560  -537  -582  -666  -760  -835  -855  -773  -589  -422  -447  -698  -973  -997  -641  28  765  1183  1047  546  102  -58  -8  47  -99  -503  -957  -1220  -1276  -1253  -1232  -1228  -1228  -1196  -1068  -785  -391  -47  135  178  148  70  -92  -373  -701  -935  -1018  -1003  -953  -896  -836  -762  -689  -642  -573  -379  -44  303  536  638  648  574  405  197  58  60  199  397  555  643  701  758  780  709  531  279  27  -138  -201  -194  -148  -98  -88  -147  -271  -432  -584  -674  -655  -511  -296  -101  42  173  353  643  1061  1518  1814  1758  1330  592  -377  -1347  -2035  -2344  -2320  -2102  -1918  -1899  -1955  -1915  -1669  -1249  -837  -607  -557  -582  -611  -635  -646  -617  -543  -462  -404  -366  -336  -307  -264  -202  -142  -85  23  234  496  693  771  749  671  585  527  505  508  539  620  805  1176  1725  2260  2572  2650  2615  2542  2442  2334  2247  2177  2102  2028  1981  1976  2005  2052  2088  2055  1899  1640  1394  1238  1121  952  713  474  309  229  184  121  12  -132  -270  -353  -375  -367  -356  -352  -362  -397  -469  -586  -732  -890  -1058  -1220  -1323  -1308  -1149  -886  -617  -423  -327  -303  -307  -310  -315  -343  -410  -503  -575  -584  -542  -501  -477  -433  -329  -183  -48  36  58  28  -18  -53  -108  -273  -618  -1062  -1408  -1557  -1574  -1548  -1508  -1440  -1325  -1145  -905  -642  -424  -300  -271  -330  -494  -737  -959  -1045  -907  -530  -65  263  389  393  293  16  -418  -826  -1052  -1116  -1127  -1149  -1149  -1012  -628  -21  637  1140  1390  1449  1438  1398  1237  849  326  -80  -237  -181  42  377  730  1037  1282  1427  1371  987  303  -391  -778  -747  -377  111  451  549  510  452  382  183  -275  -967  -1619  -1818  -1324  -224  1183  2490  3250  3127  2045  281  -1650  -3185  -3881  -3707  -3055  -2303  -1608  -1076  -805  -758  -799  -812  -736  -567  -361  -182  -61  -2  10  7  6  -3  -56  -171  -313  -409  -408  -300  -127  25  100  110  97  85  81  90  117  157  190  206  202  170  111  79  212  623  1188  1615  1799  1863  1927  2022  2119  2180  2205  2207  2213  2316  2612  3025  3329  3370  3160  2818  2467  2147  1853  1575  1227  739  220  -152  -359  -525  -717  -890  -989  -1017  -1005  -988  -994  -1051  -1178  -1379  -1639  -1893  -2055  -2078  -1993  -1852  -1648  -1343  -983  -690  -531  -475  -463  -468  -484  -519  -571  -596  -463  -59  496  900  988  831  596  435  420  551  770  970  1074  1074  994  866  733  625  565  575  640  704  737  747  738  685  538  280  -16  -216  -230  -62  190  394  493  530  550  536  422  152  -224  -577  -830  -1007  -1169  -1340  -1483  -1555  -1539  -1399  -1123  -788  -518  -376  -314  -249  -144  -24  54  67  30  -22  -57  -66  -60]
