reading_id,reading_time,wire_id,result_classification,heart_rate,heart_rate_alert,firmware_version,device_app_version,hardware_version,waveform_samples
e7236ec0-5496-11ed-8080-808080808080,Tue Oct 25 18:57:41 UTC 2022,a10163b41b39,NSR,87,NONE,20001.171.50,2.10.0,Charge 5,[11225  11344  11167  10459  9331  8155  7157  6349  5692  5107  4505  3898  3357  2835  2149  1184  36  -1075  -1953  -2518  -2859  -3160  -3607  -4319  -5238  -6205  -7091  -7805  -8319  -8698  -9055  -9464  -9890  -10242  -10488  -10698  -10974  -11304  -11556  -11669  -11743  -11921  -12248  -12620  -12879  -12944  -12858  -12637  -12136  -11275  -10237  -9232  -8376  -7819  -7691  -8108  -9116  -10490  -11867  -12984  -13637  -13763  -13514  -13074  -12597  -12244  -12039  -11846  -11598  -11358  -11188  -11088  -11018  -10951  -10901  -10887  -10905  -10932  -10908  -10731  -10362  -9923  -9590  -9387  -9189  -8925  -8649  -8425  -8259  -8137  -8024  -7911  -7817  -7734  -7610  -7402  -7125  -6873  -6723  -6633  -6489  -6211  -5798  -5378  -5122  -5043  -4964  -4723  -4391  -4242  -4453  -4891  -5282  -5502  -5624  -5751  -5911  -6105  -6348  -6633  -6909  -7130  -7280  -7345  -7262  -6972  -6557  -6224  -6078  -6030  -5965  -5868  -5772  -5649  -5433  -5152  -4913  -4755  -4653  -4605  -4614  -4643  -4636  -4594  -4549  -4464  -4291  -4087  -3936  -3834  -3690  -3426  -3064  -2704  -2421  -2208  -2029  -1877  -1774  -1728  -1712  -1709  -1732  -1819  -1975  -2114  -2128  -2029  -1914  -1802  -1630  -1388  -1143  -925  -707  -493  -336  -263  -236  -196  -128  -63  -21  -1  3  -2  -13  -19  13  115  265  412  555  723  895  1029  1115  1138  1046  823  546  331  225  195  205  256  344  426  489  568  654  719  779  870  991  1115  1247  1431  1659  1851  2004  2310  2988  4067  5341  6342  6574  5944  4738  3321  2066  1227  786  678  903  1291  1607  1830  1973  1963  1773  1486  1247  1156  1198  1287  1353  1403  1477  1573  1664  1793  2033  2334  2550  2622  2614  2592  2570  2546  2551  2602  2660  2684  2683  2697  2753  2838  2911  2961  3022  3146  3367  3673  4006  4314  4546  4671  4682  4552  4223  3695  3105  2623  2247  1840  1378  978  711  509  253  -64  -337  -480  -514  -483  -391  -257  -154  -136  -210  -354  -511  -611  -651  -699  -801  -942  -1079  -1169  -1197  -1179  -1120  -1000  -844  -731  -695  -704  -717  -706  -658  -588  -520  -457  -404  -388  -405  -434  -471  -527  -613  -725  -830  -889  -871  -730  -463  -176  -2  21  -47  -137  -191  -195  -163  -111  -58  -27  -19  -8  26  69  75  28  -22  -16  64  209  381  524  617  674  710  744  791  850  914  983  1052  1124  1213  1313  1402  1482  1553  1604  1631  1644  1656  1679  1713  1753  1798  1843  1878  1897  1904  1904  1897  1883  1877  1909  1982  2053  2083  2051  1953  1827  1734  1682  1629  1554  1483  1452  1527  1758  2096  2483  3009  3827  4991  6349  7554  8241  8203  7453  6197  4676  3120  1791  884  512  676  1116  1499  1726  1858  1923  1897  1769  1600  1504  1567  1784  2055  2246  2313  2315  2313  2328  2357  2372  2328  2206  2082  2076  2198  2351  2468  2552  2624  2709  2805  2878  2915  2971  3113  3328  3525  3633  3645  3587  3510  3458  3437  3419  3378  3313  3247  3179  3034  2738  2346  1989  1700  1398  1008  531  58  -290  -489  -597  -661  -692  -723  -793  -891  -987  -1110  -1294  -1496  -1656  -1753  -1788  -1770  -1725  -1694  -1705  -1768  -1883  -2022  -2116  -2116  -2027  -1903  -1803  -1723  -1612  -1458  -1333  -1330  -1438  -1569  -1688  -1827  -1998  -2156  -2217  -2125  -1915  -1705  -1591  -1582  -1633  -1720  -1824  -1910  -1950  -1951  -1934  -1915  -1898  -1886  -1882  -1896  -1927  -1961  -1981  -1990  -2015  -2074  -2138  -2173  -2191  -2226  -2265  -2287  -2294  -2301  -2306  -2268  -2133  -1908  -1680  -1506  -1370  -1279  -1305  -1464  -1684  -1886  -2032  -2100  -2102  -2078  -2060  -2050  -2007  -1886  -1688  -1455  -1246  -1111  -1063  -1070  -1104  -1163  -1254  -1385  -1565  -1784  -1982  -2066  -1994  -1819  -1628  -1475  -1380  -1328  -1291  -1261  -1228  -1163  -1047  -925  -899  -947  -770  -34  1225  2617  3732  4285  4124  3337  2173  821  -614  -1971  -3000  -3475  -3341  -2780  -2131  -1696  -1541  -1509  -1478  -1453  -1450  -1458  -1469  -1482  -1502  -1516  -1474  -1330  -1125  -985  -967  -1001  -996  -927  -787  -560  -282  -38  129  256  389  537  695  867  1036  1179  1317  1511  1768  2030  2264  2467  2614  2684  2694  2675  2637  2584  2523  2450  2335  2156  1929  1669  1335  891  433  108  -90  -296  -555  -773  -874  -893  -921  -1016  -1155  -1262  -1305  -1287  -1216  -1121  -1044  -999  -979  -975  -987  -1017  -1055  -1082  -1091  -1090  -1087  -1084  -1076  -1051  -997  -926  -872  -847  -836  -834  -860  -928  -1018  -1083  -1105  -1090  -1051  -1005  -978  -978  -992  -1006  -1010  -964  -812  -575  -350  -206  -127  -79  -47  -25  -17  -35  -81  -145  -218  -294  -384  -487  -571  -615  -635  -652  -664  -638  -526  -330  -119  39  135  164  121  43  -30  -87  -120  -127  -122  -120  -129  -151  -161  -109  31  215  368  464  515  528  519  507  488  438  320  144  -26  -131  -167  -164  -150  -142  -155  -204  -284  -368  -433  -462  -444  -389  -336  -288  -144  207  848  1824  3018  4172  5072  5539  5469  4936  4047  2846  1434  36  -1060  -1667  -1759  -1460  -1080  -885  -821  -728  -595  -477  -393  -323  -202  8  245  393  409  332  236  178  168  184  214  257  306  346  371  387  419  489  603  775  1013  1255  1410  1521  1744  2145  2635  3057  3290  3334  3277  3199  3141  3099  3044  2953  2800  2545  2209  1886  1621  1370  1119  934  849  826  785  635  351  15  -268  -483  -657  -782  -851  -904  -998  -1143  -1302  -1450  -1571  -1624  -1568  -1406  -1181  -966  -823  -760  -759  -810  -882  -950  -1019  -1085  -1135  -1179  -1224  -1265  -1310  -1368  -1424  -1412  -1267  -1001  -722  -528  -431  -386  -350  -313  -300  -328  -369  -386  -382  -410  -532  -747  -969  -1120  -1187  -1207  -1219  -1242  -1253  -1191  -1014  -802  -705  -752  -836  -873  -860  -827  -786  -731  -666  -621  -609  -608  -573  -474  -329  -204  -145  -166  -261  -398  -541  -672  -784  -872  -925  -936  -903  -842  -799  -805  -837  -858  -866  -869  -850  -788  -690  -604  -558  -526  -482  -395  -139  417  1220  2133  3083  3915  4338  4185  3465  2209  635  -798  -1791  -2254  -2167  -1734  -1301  -995  -759  -581  -479  -433  -406  -368  -317  -269  -239  -228  -228  -234  -241  -239  -216  -154  -26  180  413  584  659  677  708  809  997  1222  1390  1475  1525  1604  1733  1891  2048  2185  2297  2411  2552  2695  2800  2874  2953  3041  3115  3145  3083  2872  2536  2176  1835  1459  1026  582  178  -162  -434  -627  -720  -714  -637  -536  -467  -468  -537  -635  -722  -789  -848  -891  -918  -942  -965  -984  -993  -996  -1014  -1071  -1165  -1259  -1315  -1331  -1321  -1274  -1170  -1019  -876  -790  -763  -763  -755  -724  -687  -666  -679  -736  -826  -910  -956  -965  -945  -900  -847  -808  -782  -756  -725  -679  -600  -508  -449  -439  -465  -505  -543  -570  -587  -602  -619  -634  -644  -651  -661  -673  -684  -691  -676  -621  -530  -442  -369  -275  -138  -3  81  105  81  22  -68  -195  -373  -573  -745  -871  -970  -1047  -1091  -1104  -1104  -1096  -1060  -965  -803  -614  -462  -370  -325  -330  -389  -456  -477  -415  -175  409  1392  2608  3826  4796  5192  4852  3950  2750  1451  264  -659  -1259  -1497  -1433  -1167  -774  -407  -210  -203  -297  -366  -369  -345  -328  -315  -282  -213  -120  -36  14  43  81  128  162  189  278  511  851  1139  1268  1275  1245  1239  1289  1406  1584  1810  2035  2193  2261  2265  2246  2249  2307  2393  2454  2486  2517  2561  2603  2628  2611  2494  2221  1773  1206  663  295  147  129  74  -168  -589  -995  -1198  -1167  -990  -803  -722  -744  -787  -802  -797  -789  -785  -798  -837  -889  -926  -942  -958  -988  -1036  -1095  -1149  -1185  -1208  -1217  -1191  -1101  -965  -849  -800  -806  -829  -847  -863  -881  -901  -923  -947  -975  -1013  -1058  -1098  -1128  -1146  -1148  -1126  -1056  -921  -747  -599  -541  -598  -740  -899  -1014  -1053  -1023  -964  -919  -898  -890  -898  -935  -994  -1032  -1024  -974  -898  -798  -686  -593  -541  -534  -553  -556  -511  -423  -321  -226  -156  -126  -146  -220  -332  -461  -621  -797  -927  -988  -1025  -1075  -1129  -1170  -1191  -1194  -1184  -1158  -1120  -1076  -1022  -957  -928  -924  -781  -357  314  1125  1977  2866  3812  4630  5009  4829  4139  2989  1544  109  -1115  -1975  -2287  -2114  -1729  -1269  -813  -517  -402  -361  -337  -320  -301  -263  -198  -129  -86  -57  -5  74  156  214  247  262  271  288  325  386  459  535  632  796  1060  1405  1742  1970  2075  2141  2255  2425  2611  2756  2829  2847  2861  2904  2964  2980  2913  2787  2629  2392  2035  1636  1327  1159  1086  998  787  468  186  41  -4  -49  -170  -372  -588  -757  -856  -907  -956  -1022  -1087  -1116  -1111  -1109  -1132  -1163  -1168  -1113  -1015  -933  -867  -791  -717  -665  -628  -600  -590  -608  -656  -717  -767  -805  -853  -917  -968  -970  -911  -790  -616  -440  -314  -236  -191  -175  -175  -186  -215  -247  -240  -194  -151  -129  -125  -140  -158  -163  -160  -156  -156  -154  -147  -145  -173  -239  -313  -380  -452  -514  -542  -545  -542  -546  -573  -637  -727  -808  -850  -831  -742  -615  -512  -474  -498  -564  -650  -744  -849  -948  -1042  -1148  -1250  -1330  -1411  -1496  -1554  -1577  -1590  -1610  -1637  -1661  -1645  -1517  -1254  -951  -687  -331  341  1342  2459  3457  4142  4334  3975  3198  2136  832  -542  -1665  -2275  -2333  -2070  -1766  -1487  -1201  -961  -814  -707  -589  -471  -393  -383  -425  -471  -476  -421  -304  -144  20  145  223  280  330  366  395  441  514  615  751  908  1061  1219  1406  1602  1773  1929  2083  2243  2470  2805  3149  3359  3416  3393  3339  3261  3164  3061  2933  2724  2392  1977  1571  1232  962  715  440  153  -60  -161  -182  -174  -157  -136  -123  -166  -310  -511  -664  -731  -766  -829  -927  -1020  -1061  -1053  -1036  -1046  -1079  -1116  -1148  -1175  -1168  -1052  -784  -457  -236  -180  -236  -334  -447  -563  -667  -733  -761  -775  -816  -905  -1013  -1084  -1106  -1105  -1107  -1108  -1072  -969  -828  -724  -692  -710  -742  -749  -686  -566  -502  -573  -700  -773  -785  -774  -764  -759  -757  -742  -693  -603  -502  -454  -485  -547  -578  -540  -437  -330  -305  -394  -570  -764  -896  -954  -988  -1028  -1061  -1069  -1044  -993  -942  -932  -1005  -1130  -1149  -931  -481  229  1227  2352  3358  4098  4479  4384  3825  2948  1839  596  -557  -1424  -1910  -2004  -1791  -1461  -1192  -1021  -900  -789  -639  -417  -175  -5  74  112  148  199  270  344  385  372  326  291  294  329  383  448  514  578  656  773  974  1302  1694  1992  2133  2186  2224  2276  2364  2487  2608  2699  2774  2844  2879  2856  2799  2726  2607  2414  2147  1819  1459  1107  786  522  339  225  141  40  -140  -403  -654  -813  -880  -885  -865  -851  -847  -839  -819  -802  -807  -836  -882  -949  -1039  -1131  -1185  -1187  -1162  -1134  -1107  -1075  -1039  -1010  -993  -983  -970  -951  -929  -899  -855  -808  -776  -767  -770  -773  -772  -762  -750  -741  -739  -740  -736  -722  -705  -693  -685  -667  -633  -618  -661  -757  -864  -947  -989  -978  -903  -791  -702  -666  -665  -671  -674  -681  -700  -723  -727  -682  -581  -438  -303  -242  -285  -380  -448  -456  -425  -384  -353  -338  -346  -379  -427  -470  -505  -535  -556  -564  -572  -599  -673  -806  -961  -1069  -1114  -1125  -1124  -1115  -1117  -1132  -1096  -863  -299  543  1478  2440  3437  4304  4761  4677  4125  3200  1972  589  -722  -1695  -2108  -1962  -1484  -993  -735  -710  -733  -688  -607  -532  -462  -394  -344  -319  -308  -285  -233  -133  31  245  440  551  577  567  562  569  576  582  614  703  855  1035  1190  1319  1490  1736  1991  2174  2275  2335  2395  2481  2617  2822  3040  3147  3076  2883  2638  2350  2052  1825  1631  1310  820  328  -2  -169  -265  -367  -510  -695  -877  -986  -980  -863  -694  -559  -504  -516  -584  -709  -858  -967  -1003  -978  -923  -877  -856  -849  -840  -827  -817  -815  -822  -834  -831  -762  -597  -390  -244  -198  -222  -286  -376  -463  -507  -501  -477  -463  -463  -470  -496  -557  -644  -721  -764  -773  -757  -729  -704  -683  -660  -626  -589  -564  -556  -564  -587  -617  -637  -637  -620  -594  -574  -579  -628  -732  -855  -930  -934  -877  -750  -567  -387  -263  -206  -192  -196  -232  -321  -442  -544  -625  -712  -796  -850  -877  -894  -919  -961  -994  -989  -956  -924  -906  -894  -848  -745  -621  -530  -504  -533  -541  -439  -160  423  1399  2676  4009  4981  5155  4462  3214  1788  491  -499  -1226  -1761  -1998  -1880  -1607  -1395  -1236  -1023  -775  -605  -563  -603  -653  -663  -605  -478  -309  -163  -92  -102  -164  -225  -224  -155  -54  75  271  537  823  1082  1290  1435  1530  1608  1695  1808  1945  2064  2131  2184  2298  2487  2672  2774  2789  2774  2785  2852  2956  3049  3105  3093  2928  2559  2098  1717  1422  1095  700  349  156  115  149  204  254  255  169  13  -146  -281  -428  -603  -767  -882  -934  -932  -911  -900  -909  -941  -997  -1076  -1156  -1208  -1223  -1226  -1241  -1259  -1228  -1100  -916  -776  -723  -720  -709  -655  -573  -509  -485  -497  -539  -594  -635  -642  -625  -608  -607  -609  -595  -576  -585  -640  -719  -777  -797  -798  -805  -831  -868  -895  -903  -900  -911  -956  -1025  -1072  -1077  -1068  -1055  -987  -809  -565  -376  -297  -297  -338  -409  -495  -566  -619  -684  -798  -975  -1161  -1280  -1312  -1295  -1257  -1202  -1130  -1025  -862  -664  -509  -427  -390  -380  -396  -440  -502  -499  -258  368  1414  2731  3964  4725  4877  4560  3911  2963  1788  533  -630  -1490  -1823  -1639  -1219  -807  -511  -385  -399  -457  -510  -552  -573  -580  -619  -675  -645  -459  -148  174  384  446  428  401  392  398  428  494  587  700  841  996  1127  1230  1347  1504  1671  1817  1955  2107  2258  2384  2497  2623  2759  2867  2918  2908  2851  2764  2656  2528  2361  2144  1886  1590  1230  786  334  14  -137  -232  -379  -590  -806  -969  -1054  -1071  -1052  -1009  -936  -840  -762  -756  -822  -917  -1011  -1092  -1142  -1150  -1123  -1084  -1073  -1144  -1320  -1536  -1668  -1643  -1471  -1189  -868  -617  -491  -442  -411  -392  -411  -473  -550  -607  -650  -713  -793  -852  -871  -867  -864  -878  -911  -960  -999  -974  -871  -763  -696  -618  -477  -289  -108  20  42  -95  -371  -656  -836  -917  -952  -955  -931  -903  -889  -876  -824  -702  -527  -357  -232  -156  -99  -28  53  119  147  111  -23  -251  -505  -709  -818  -824  -739  -593  -455  -402  -451  -543  -591  -553  -470  -408  -390  -381  -338  -263  -204  -135  42  400  1030  1998  3203  4387  5241  5498  5044  3978  2540  989  -425  -1398  -1737  -1600  -1264  -856  -499  -336  -339  -384  -426  -472  -525  -572  -601  -609  -584  -502  -360  -205  -99  -56  -49  -49  -35  -3  34  64  100  164  250  336  429  561  739  920  1061  1159  1270  1435  1618  1775  1934  2126  2331  2504  2610  2646  2623  2550  2431  2263  2009  1648  1261  956  711  431  106  -230  -547  -788  -906  -925  -897  -868  -858  -869  -892  -916  -950  -1018  -1117  -1202  -1240  -1238  -1214  -1187  -1170  -1160  -1150  -1141  -1137  -1140  -1150  -1158  -1153  -1116  -1053  -1013  -1010  -991  -937  -894  -893  -937  -993  -1022  -1024  -1016  -1011  -1017  -1038  -1066  -1089  -1098  -1085  -1022  -888  -722  -606  -591  -665  -781  -884  -953  -984  -958  -873  -775  -721  -729  -769  -811  -847  -874  -863  -775  -609  -425  -299  -248  -241  -247  -250  -248  -236  -215  -206  -274  -475  -745  -936  -991  -973  -948  -929  -900  -855  -801  -748  -702  -685  -717  -764  -775  -724  -645  -606  -666  -792  -842  -704  -357  228  1091  2161  3219  4031  4477  4489  4047  3217  2092  790  -478  -1471  -2028  -2104  -1806  -1385  -1069  -885  -724  -545  -399  -332  -332  -356  -362  -321  -226  -76  136  378  571  675  726  755  719  566  367  290  426  686  915  1065  1197  1356  1529  1686  1819  1953  2110  2285  2484  2728  2981  3158  3228  3232  3216  3190  3142  3056  2942  2796  2587  2292  1923  1502  1069  672  346  121  1  -59  -101  -135  -178  -261  -371  -451  -476  -471  -467  -483  -525  -577  -615  -626  -619  -608  -608  -651  -765  -920  -1039  -1079  -1048  -961  -838  -719  -627  -538  -424  -307  -218  -145  -70  -20  -58  -227  -479  -699  -820  -854  -832  -773  -704  -661  -647  -628  -571  -494  -445  -430  -423  -410  -405  -422  -454  -469  -444  -386  -332  -322  -350  -378  -381  -364  -334  -285  -215  -142  -93  -77  -100  -178  -311  -461  -586  -662  -693  -703  -714  -738  -776  -819  -850  -867  -875  -878  -877  -871  -843  -742  -510  -180  94  232  338  592  1191  2198  3350  4249  4611  4299  3395  2159  805  -514  -1602  -2309  -2555  -2268  -1576  -874  -482  -387  -413  -444  -471  -512  -559  -582  -574  -561  -565  -581  -596  -600  -590  -546  -399  -96  292  607  762  804  829  884  954  1004  1032  1069  1138  1234  1352  1509  1708  1902  2034  2104  2156  2212  2256  2276  2276  2273  2286  2322  2338  2243  1961  1529  1083  734  515  386  231  -69  -507  -913  -1142  -1205  -1188  -1141  -1082  -1034  -1023  -1049  -1083  -1097  -1085  -1078  -1106  -1165  -1203  -1166  -1080  -1046  -1095  -1150  -1149  -1106  -1067  -1058  -1073  -1102  -1137  -1171  -1204  -1235  -1246  -1204  -1093  -940  -796  -682  -585  -503  -468  -499  -561  -616  -662  -706  -747  -782  -815  -856  -912  -979  -1056  -1133  -1180  -1157  -1042  -873  -701  -528  -368  -296  -349  -469  -547  -530  -464  -415  -402  -412  -428  -445  -465  -488  -515  -560  -645  -757  -854  -929  -985  -1004  -964  -883  -781  -655  -532  -494  -591  -771  -935  -1017  -1018  -972  -915  -878  -871  -880  -839  -653  -297  162  713  1488  2588  3835  4854  5318  5023  4008  2579  1055  -322  -1331  -1840  -1872  -1540  -1046  -689  -608  -671  -723  -745  -750  -708  -599  -453  -309  -150  39  212  308  330  313  292  295  347  445  553  626  647  624  578  546  582  742  1031  1376  1683  1914  2093  2252  2404  2554  2701  2828  2927  3002  3054  3080  3048  2884  2564  2197  1924  1731  1460  1043  616  345  215  103  -41  -187  -309  -403  -455  -461  -450  -466  -542  -671  -809  -914  -968  -977  -965  -956  -972  -1028  -1110  -1173  -1173  -1087  -931  -770  -668  -637  -645  -655  -655  -653  -655  -662  -668  -668  -672  -706  -793  -914  -1017  -1074  -1086  -1050  -969  -884  -842  -839  -837  -807  -735  -623  -504  -410  -344  -310  -337  -447  -605  -730  -792  -817  -831  -842  -849  -853  -857  -854  -828  -762  -663  -554  -451  -357  -267  -186  -135  -135  -199  -316  -446  -547  -604  -625  -635  -657  -692  -731  -770  -807  -852  -912  -985  -1049  -1062  -1018  -972  -953  -870  -545  173  1266  2513  3646  4481  4915  4937  4588  3770  2355  530  -1247  -2497  -2849  -2318  -1459  -879  -669  -564  -440  -344  -287  -260  -293  -439  -685  -922  -1039  -1009  -871  -676  -487  -362  -316  -307  -275  -176  0  211  375  444  445  423  402  392  414  517  742  1046  1333  1581  1825  2061  2246  2368  2452  2530  2604  2644  2626  2570  2524  2497  2421  2187  1767  1275  861  612  527  531  524  428  244  29  -165  -314  -409  -460  -490  -505  -481  -416  -353  -320  -308  -307  -340  -439  -597  -754  -860  -917  -948  -972  -1002  -1036  -1061  -1070  -1072  -1072  -1063  -1032  -979  -914  -843  -768  -695  -632  -594  -585  -599  -638  -698  -775  -866  -941  -949  -894  -833  -804  -811  -837  -861  -874  -880  -889  -920  -986  -1080  -1170  -1220  -1233  -1236  -1224  -1150  -977  -711  -417  -173  -4  110  190  241  242  160  -7  -199  -355  -462  -535  -581  -606  -628  -662  -699  -717  -710  -689  -660  -624  -588  -562  -552  -556  -578  -614  -606  -459  -169  145  437  804  1377  2267  3467  4674  5397  5354  4599  3327  1802  329  -815  -1463  -1609  -1385  -993  -658  -498  -460  -454  -450  -441  -428  -404  -347  -245  -124  -17  59  106  126  126  111  88  72  89  158  298  513  765  1002  1215  1405  1541  1608  1636  1658  1689  1732  1817  1982  2208  2428  2612  2769  2893  2940  2881  2746  2596  2464  2358  2295  2272  2222  2027  1632  1121  653  351  190  48  -136  -326  -478  -597  -705  -809  -902  -974  -1031  -1079  -1103  -1098  -1097  -1120  -1142  -1139  -1117  -1076  -992  -875  -779  -734  -731  -758  -823  -921  -1018  -1077  -1091  -1081  -1071  -1070  -1066  -1055  -1039  -1000  -909  -795  -751  -833  -990  -1121  -1178  -1185  -1165  -1123  -1064  -1012  -984  -979  -994  -1028  -1064  -1065  -1009  -919  -847  -810  -796  -793  -788  -744  -613  -416  -250  -183  -201  -252  -303  -357  -423  -499  -577  -652  -734  -821  -900  -969  -1032  -1070  -1062  -1000  -907  -827  -777  -752  -747  -774  -840  -917  -964  -975  -981  -1000  -978  -793  -324  456  1500  2715  3931  4838  5096  4598  3532  2151  657  -739  -1813  -2398  -2467  -2156  -1655  -1163  -851  -719  -642  -559  -491  -455  -436  -404  -354  -300  -249  -207  -180  -163  -138  -76  47  216  385  544  702  839  930  973  984  984  1008  1098  1277  1528  1810  2100  2372  2582  2718  2798  2833  2847  2880  2935  2963  2935  2881  2836  2770  2600  2266  1792  1301  940  726  544  312  58  -159  -320  -424  -473  -489  -511  -579  -691  -800  -868  -894  -886  -847  -787  -740  -738  -758  -752  -706  -626  -524  -433  -387  -389  -428  -486  -545  -596  -651  -711  -762  -789  -797  -796  -793  -789  -786  -783  -767  -719  -635  -530  -429  -358  -334  -360  -423  -496  -554  -597  -642  -708  -783  -827  -815  -758  -666  -535  -372  -211  -91  -31  -21  -28  -34  -32  -27  -33  -84  -209  -406  -628  -807  -900  -916  -885  -820  -738  -669  -634  -624  -622  -632  -671  -744  -829  -902  -933  -844  -560  -192  7  -32  -23  465  1625  3214  4617  5178  4643  3270  1565  -9  -1173  -1888  -2227  -2225  -1997  -1761  -1634  -1565  -1487  -1391  -1252  -1013  -713  -493  -422  -434  -450  -442  -407  -341  -251  -174  -128  -94  -40  44  154  272  387  486  549  578  610  701  903  1202  1504  1727  1861  1940  2022  2166  2387  2622  2783  2845  2849  2840  2827  2780  2652  2409  2056  1660  1324  1073  830  537  211  -110  -406  -646  -802  -883  -923  -941  -947  -947  -949  -962  -985  -998  -988  -974  -973  -983  -1002  -1025  -1052  -1086  -1140  -1218  -1297  -1331  -1301  -1241  -1197  -1161  -1076  -913  -721  -577  -504  -483  -510  -596  -716  -795  -795  -762  -755  -783  -824  -858  -886  -914  -920  -878  -802  -734  -697  -684  -678  -663  -629  -571  -483  -358  -221  -116  -51  -7  12  -11  -63  -123  -184  -241  -296  -382  -544  -750  -898  -944  -934  -920  -916  -909  -885  -844  -785  -689  -545  -400  -332  -382  -511  -628  -666  -589  -343  109  779  1704  2863  4045  4910  5133  4535  3215  1542  -40  -1207  -1825  -1957  -1762  -1407  -1069  -871  -798  -756  -699  -650  -620  -573  -476  -346  -224  -126  -45  25  88  148  204  237  219  132  8  -86  -95  13  224  470  693  899  1116  1337  1541  1730  1920  2104  2251  2342  2400  2477  2603  2756  2869  2875  2761  2572  2372  2220  2112  1941  1611  1169  736  389  169  78  59  38  -38  -190  -404  -619  -755  -791  -775  -765  -795  -876  -980  -1055  -1069  -1040  -1001  -967  -935  -896  -831  -730  -614  -526  -481  -481  -533  -613  -676  -710  -743  -786  -823  -843  -855  -862  -865  -859  -830  -746  -594  -432  -354  -382  -458  -529  -565  -564  -560  -577  -601  -621  -640  -656  -664  -665  -658  -622  -528  -384  -237  -108  11  117  175  142  2  -193  -357  -461  -521  -544  -555  -598  -700  -834  -947  -1007  -1018  -996  -937  -841  -746  -694  -682  -685  -684  -690  -716  -645  -203  781  2176  3640  4785  5269  4949  3998  2770  1494  266  -781  -1558  -2043  -2180  -1994  -1660  -1333  -1052  -799  -580  -428  -354  -337  -360  -398  -420  -402  -326  -183  -4  145  220  237  228  187  93  -33  -126  -110  50  309  581  831  1058  1265  1468  1695  1949  2191  2380  2509  2591  2641  2673  2689  2677  2617  2507  2370  2242  2132  1986  1733  1386  1050  814  647  456  224  19  -114  -197  -256  -315  -392  -480  -542  -559  -552  -568  -676  -919  -1228  -1461  -1540  -1495  -1405  -1327  -1254  -1145  -992  -838  -721  -656  -630  -639  -707  -846  -998  -1066  -1007  -877  -768  -719  -709  -710  -706  -691  -665  -637  -619  -617  -626  -638  -642  -656  -707  -782  -843  -861  -834  -794  -771  -764  -768  -777  -783  -789  -799  -800  -761  -644  -429  -151  107  277  363  389  303  33  -345  -639  -757  -763  -751  -765  -807  -849  -872  -912  -1007  -1117  -1185  -1206  -1212  -1207  -1154  -1015  -828  -693  -650  -585  -380  -74  234  618  1282  2300  3446  4326  4642  4330  3497  2302  955  -342  -1459  -2175  -2280  -1928  -1496  -1181  -948  -711  -485  -352  -334  -388  -476  -566  -623  -623  -574  -498  -415  -314  -188  -64  29  93  138  183  253  350  448  551  706  918  1124  1291  1431  1571  1741  1970  2230  2435  2536  2568  2591  2621  2647  2671  2690  2684  2617  2457  2217  1936  1648  1386  1152  891  574  270  58  -69  -206  -416  -646  -792  -808  -728  -618  -542  -522  -544  -591  -652  -722  -787  -832  -871  -943  -1051  -1160  -1243  -1301  -1325  -1286  -1167  -1003  -862  -787  -766  -759  -723  -644  -550  -486  -468  -479  -496  -508  -518  -554  -635  -738  -820  -871  -919  -972  -1010  -1011  -976  -922  -842  -720  -572  -438  -348  -307  -283  -251  -237  -271  -337  -433  -590  -779  -918  -965  -929  -816  -655  -516  -449  -437  -426  -381  -314  -238  -149  -67  -28  -53  -162  -345  -550  -709  -773  -777  -798  -877  -991  -1089  -1140  -1157  -1159  -1133  -1031  -827  -589  -441  -359  -104  529  1558  2826  4033  4849  5075  4674  3727  2433  1028  -271  -1268  -1841  -2003  -1885  -1672  -1485  -1319  -1132  -900  -631  -395  -256  -207  -189  -150  -91  -47  -30  -13  32  95  149  199  243  261  251  233  237  311  501  787  1063  1240  1331  1413  1533  1685  1849  2011  2155  2268  2357  2422  2459  2478  2514  2583  2626  2565  2400  2199  2037  1924  1785  1552  1270  1029  812  524  156  -189  -428  -554  -623  -700  -811  -926  -998  -1023  -1030  -1038  -1025  -969  -890  -825  -784  -743  -691  -635  -589  -564  -567  -596  -638  -671  -686  -687  -684  -681  -677  -670  -659  -645  -633  -628  -624  -611  -574  -504  -409  -329  -303  -337  -401  -459  -503  -536  -555  -569  -603  -664  -731  -770  -771  -740  -691  -642  -602  -577  -564  -557  -547  -529  -484  -391  -271  -183  -169  -226  -320  -398  -433  -434  -414  -395  -397  -415  -440  -481  -562  -672  -758  -789  -776  -737  -690  -657  -644  -645  -650  -661  -681  -704  -721  -738  -773  -810  -779  -624  -315  193  910  1792  2788  3759  4462  4688  4342  3427  2055  513  -771  -1494  -1677  -1514  -1217  -992  -921  -922  -917  -906  -898  -886  -837  -686  -425  -142  58  166  249  355  468  524  494  431  396  401  433  472  499  521  556  615  724  943  1266  1589  1820  1951  2012  2036  2055  2119  2269  2475  2646  2724  2726  2686  2590  2429  2236  2057  1891  1669  1320  902  583  431  365  267  68  -219  -536  -812  -986  -1054  -1072  -1082  -1087  -1076  -1053  -1027  -989  -934  -887  -872  -886  -919  -987  -1117  -1285  -1405  -1428  -1371  -1281  -1201  -1139  -1091  -1068  -1079  -1105  -1148  -1256  -1446  -1663  -1829  -1910  -1901  -1788  -1560  -1252  -962  -786  -736  -760  -830  -943  -1086  -1232  -1356  -1444  -1513  -1587  -1662  -1708  -1667  -1482  -1191  -942  -846  -887  -979  -1045  -1069  -1070  -1061  -1028  -949  -818  -673  -577  -561  -626  -761  -907  -1024  -1149  -1289  -1383  -1406  -1393  -1380  -1366  -1308  -1170  -983  -833  -777  -828  -978  -1177  -1335  -1399  -1382  -1318  -1210  -1034  -791  -483  -27  693  1700  2887  4016  4752  4829  4222  3099  1684  225  -983  -1712  -1921  -1749  -1390  -1001  -703  -538  -450  -366  -282  -226  -196  -162  -111  -53  -5  25  49  87  162  269  384  504  651  804  916  984  1033  1058  1059  1081  1182  1400  1714  2029  2254  2407  2584  2836  3108  3320  3449  3505  3515  3507  3498  3489  3459  3350  3093  2717  2338  2008  1718  1490  1312  1119  877  610  368  209  153  164  198  214  144  -66  -353  -563  -637  -642  -652  -679  -704  -703  -660  -561  -425  -302  -212  -142  -82  -14  74  163  210  185  111  44  11  -11  -53  -127  -227  -345  -470  -582  -657  -685  -655  -560  -433  -333  -282  -264  -262  -275  -306  -346  -377  -391  -393  -391  -392  -396  -397  -387  -369  -381  -451  -560  -656  -725  -777  -808  -785  -686  -538  -416  -363  -362  -377  -386  -376  -346  -307  -279  -268  -250  -205  -147  -126  -198  -373  -579  -712  -732  -664  -553  -445  -364  -304  -271  -286  -357  -481  -632  -754  -812  -823  -810  -788  -756  -646  -411  -154  77  508  1371  2597  3924  4978  5327  4823  3720  2340  902  -405  -1418  -2033  -2251  -2173  -1936  -1654  -1421  -1288  -1215  -1117  -969  -804  -649  -527  -463  -440  -414  -364  -305  -247  -199  -168  -158  -160  -168  -174  -152  -70  64  213  350  477  615  816  1085  1346  1548  1714  1881  2075  2309  2535  2680  2733  2745  2758  2775  2788  2797  2772  2644  2341  1876  1405  1113  977  802  480  97  -200  -347  -388  -402  -429  -482  -571  -691  -814  -911  -966  -983  -981  -979  -980  -981  -982  -993  -1031  -1096  -1182  -1277  -1348  -1362  -1334  -1303  -1261  -1189  -1105  -1038  -1003  -986  -969  -948  -930  -920  -917  -912  -903  -908  -948  -1019  -1105  -1175  -1205  -1185  -1119  -1021  -926  -858  -822  -819  -827  -818  -792  -756  -720  -693  -668  -644  -640  -676  -743  -826  -906  -952  -936  -849  -728  -635  -595  -580  -558  -521  -481  -458  -454  -452  -431  -380  -308  -248  -239  -301  -425  -573  -695  -777  -848  -935  -1028  -1093  -1118  -1115  -1091  -1040  -974  -917  -864  -793  -715  -658  -645  -688  -787  -900  -982  -957  -642  94  1209  2577  3953  4915  5117  4480  3236  1809  515  -505  -1201  -1610  -1784  -1718  -1471  -1193  -1006  -920  -890  -894  -920  -932  -876  -731  -557  -447  -416  -400  -323  -158  52  234  350  405  429  454  495  549  613  699  818  950  1056  1112  1140  1210  1400  1707  2038  2298  2454  2531  2591  2676  2787  2926  3086  3196  3188  3041  2748  2334  1882  1494  1216  1019  812  545  264  23  -185  -367  -481  -518  -514  -498  -477  -453  -436  -435  -451  -477  -499  -511  -513  -505  -496  -503  -536  -591  -669  -770  -876  -947  -951  -865  -696  -480  -267  -107  -45  -79  -157  -223  -260  -284  -314  -353  -393  -416  -417  -417  -461  -584  -755  -890  -943  -908  -772  -556  -351  -232  -197  -212  -275  -393  -528  -624  -673  -709  -755  -806  -848  -866  -857  -834  -799  -733  -631  -524  -449  -407  -364  -307  -256  -225  -210  -200  -188  -185  -236  -401  -666  -920  -1057  -1082  -1065  -1059  -1081  -1118  -1149  -1165  -1152  -1077  -927  -756  -640  -600  -603  -611  -597  -539  -417  -208  187  934  2014  3133  3959  4305  4078  3291  2121  763  -639  -1842  -2532  -2586  -2120  -1374  -666  -277  -221  -303  -368  -365  -318  -299  -350  -433  -495  -526  -544  -551  -510  -375  -173  -2  85  142  247  398  532  643  785  971  1154  1302  1420  1526  1624  1709  1789  1874  1989  2164  2381  2563  2656  2676  2666  2656  2657  2663  2650  2579  2415  2151  1821  1490  1212  966  699  402  110  -160  -412  -620  -757  -853  -952  -1042  -1095  -1117  -1116  -1065  -931  -754  -635  -612  -659  -748  -857  -948  -1002  -1031  -1046  -1042  -1014  -980  -958  -945  -932  -915  -891  -851  -788  -713  -642  -573  -510  -485  -522  -602  -676  -715  -722  -719  -714  -714  -720  -730  -741  -752  -756  -751  -741  -731  -726  -720  -687  -606  -498  -415  -376  -360  -353  -355  -360  -358  -344  -312  -265  -217  -178  -138  -92  -50  -44  -99  -209  -344  -477  -570  -594  -566  -525  -483  -440  -406  -386  -382  -391  -403  -421  -445  -479  -527  -588  -655  -679  -567  -296  43  394  822  1447  2352  3456  4463  4977  4767  3926  2709  1371  179  -688  -1233  -1496  -1495  -1325  -1098  -825  -529  -327  -283  -356  -463  -539  -564  -548  -504  -447  -392  -337  -249  -92  109  287  417  520  593  606  550  472  445  505  651  832  967  1044  1143  1326  1554  1741  1877  2033  2247  2481  2688  2852  2944  2920  2776  2579  2414  2245  1950  1534  1164  934  761  530  207  -137  -385  -484  -490  -479  -481  -490  -493  -487  -485  -517  -614  -761  -895  -967  -989  -1006  -1063  -1158  -1230  -1220  -1126  -1013  -953  -941  -927  -890  -840  -764  -635  -479  -363  -316  -328  -411  -596  -831  -998  -1042  -1008  -956  -923  -912  -912  -914  -928  -960  -1004  -1034  -1032  -989  -914  -829  -753  -701  -676  -666  -670  -696  -734  -768  -794  -822  -871  -933  -979  -997  -996  -982  -943  -843  -664  -452  -292  -210  -180  -180  -222  -325  -468  -610  -738  -850  -937  -1003  -1060  -1108  -1154  -1207  -1258  -1283  -1262  -1183  -1062  -943  -870  -846  -859  -921  -1026  -1087  -1005  -729  -212  586  1650  2863  3979  4704  4793  4208  3185  1967  653  -643  -1676  -2225  -2258  -1895  -1377  -984  -806  -731  -661  -607  -589  -586  -554  -478  -392  -355  -391  -464  -524  -551  -559  -560  -555  -526  -440  -241  104  517  840  1020  1116  1170  1187  1173  1171  1252  1447  1687  1853  1908  1912  1927  1988  2124  2366  2700  3032  3257  3355  3326  3103  2631  2006  1429  1015  722  481  287  154  66  -9  -94  -206  -370  -565  -732  -857  -959  -1034  -1066  -1058  -1022  -957  -856  -745  -671  -651  -667  -699  -740  -780  -804  -799  -765  -717  -673  -646  -633  -630  -644  -676  -716  -737  -714  -630  -491  -342  -245  -214  -214  -215  -220  -259  -358  -499  -632  -724  -762  -746  -699  -644  -577  -512  -464  -408  -320  -228  -178  -173  -190  -211  -226  -222  -192  -149  -108  -79  -64  -64  -66  -45  17  100  159  168  121  17  -131  -274  -331  -271  -157  -78  -57  -61  -76  -121  -213  -329  -439  -541  -630  -696  -742  -777  -792  -765  -663  -477  -175  327  1065  2039  3229  4414  5233  5461  5069  4159  2886  1403  -76  -1268  -1928  -2002  -1669  -1203  -835  -649  -595  -592  -599  -602  -582  -514  -383  -221  -83  4  48  66  92  158  266  378  441  437  401  385  407  453  521  642  819  990  1115  1223  1367  1577  1824  2048  2224  2356  2442  2489  2525  2563  2578  2544  2449  2293  2115  1994  1932  1798  1460  967  517  222  26  -151  -312  -427  -516  -640  -806  -950  -1030  -1057  -1050  -1014  -957  -910  -935  -1072  -1259  -1375  -1377  -1320  -1283  -1299  -1342  -1380  -1409  -1423  -1386  -1260  -1077  -927  -866  -869  -890  -902  -901  -896  -897  -908  -935  -958  -956  -936  -926  -932  -948  -962  -977  -995  -1015  -1030  -1018  -942  -793  -631  -533  -509  -508  -492  -481  -516  -610  -710  -745  -721  -697  -699  -706  -675  -575  -436  -325  -261  -219  -167  -81  23  64  -54  -347  -685  -908  -979  -970  -948  -934  -923  -910  -900  -900  -911  -928  -937  -921  -873  -822  -809  -813  -692  -277  463  1411  2439  3419  4156  4467  4315  3752  2855  1752  532  -727  -1793  -2423  -2573  -2345  -1944  -1599  -1339  -1019  -628  -315  -148  -70  -26  1  13  -3  -56  -129  -197  -253  -300  -310  -246  -118  27  160  257  292  269  250  335  583  933  1249  1458  1572  1638  1714  1847  2048  2252  2377  2411  2416  2447  2506  2558  2580  2548  2419  2175  1851  1486  1126  819  571  349  128  -100  -320  -512  -690  -870  -1024  -1120  -1177  -1227  -1278  -1323  -1356  -1392  -1455  -1534  -1592  -1605  -1570  -1499  -1415  -1323  -1223  -1132  -1076  -1055  -1046  -1031  -1001  -962  -935  -929  -931  -925  -906  -902  -934  -985  -1024  -1047  -1062  -1064  -1027  -924  -773  -637  -550  -467  -342  -203  -135  -180  -290  -399  -492  -575  -630  -649  -646  -634  -612  -577  -536  -494  -442  -370  -299  -252  -225  -187  -106  17  141  182  104  -34  -138  -188  -251  -376  -537  -665  -709  -671  -602  -558  -552  -561  -574  -603  -643  -684  -725  -763  -800  -833  -852  -809  -633  -343  -65  229  755  1601  2705  3871  4699  4854  4362  3424  2217  965  -125  -976  -1535  -1716  -1567  -1304  -1089  -927  -811  -762  -752  -725  -648  -544  -470  -450  -451  -431  -359  -222  -30  176  349  447  478  492  530  596  696  831  955  1037  1109  1208  1327  1451  1573  1704  1860  2039  2209  2342  2428  2486  2548  2629  2713  2767  2784  2782  2773  2717  2541  2223  1816  1405  1062  813  618  416  179  -61  -260  -417  -539  -616  -653  -684  -738  -808  -862  -896  -932  -972  -998  -1009  -1013  -993  -924  -801  -650  -508  -414  -406  -490  -610  -690  -691  -631  -554  -502  -483  -494  -554  -677  -823  -918  -927  -867  -783  -721  -693  -687  -690  -685  -655  -594  -520  -456  -410  -381  -368  -378  -422  -508  -615  -695  -731  -746  -763  -782  -794  -787  -741  -628  -450  -262  -144  -128  -184  -261  -315  -335  -336  -325  -283  -206  -123  -69  -51  -52  -74  -129  -211  -294  -354  -383  -370  -307  -216  -155  -168  -258  -381  -488  -576  -676  -790  -873  -874  -764  -581  -415  -274  -53  351  1011  1947  3072  4174  4976  5266  4966  4113  2851  1394  -10  -1115  -1725  -1792  -1492  -1131  -900  -797  -747  -693  -593  -445  -301  -215  -201  -222  -214  -194  -230  -286  -289  -244  -180  -103  -10  119  306  535  755  921  1031  1107  1167  1218  1260  1303  1365  1457  1586  1760  1950  2089  2160  2215  2293  2382  2454  2500  2523  2539  2556  2542  2411  2100  1665  1236  892  628  407  203  0  -241  -546  -864  -1090  -1188  -1210  -1212  -1211  -1201  -1159  -1065  -928  -801  -733  -731  -772  -830  -891  -959  -1018  -1027  -976  -916  -902  -941  -1007  -1087  -1171  -1230  -1237  -1203  -1159  -1123  -1075  -989  -882  -804  -778  -794  -839  -893  -929  -939  -943  -967  -1009  -1013  -940  -838  -786  -808  -878  -955  -1019  -1073  -1112  -1123  -1071  -922  -718  -566  -531  -617  -788  -962  -1049  -1028  -953  -888  -865  -891  -974  -1089  -1169  -1148  -995  -763  -550  -411  -331  -282  -268  -305  -373  -426  -458  -508  -605  -742  -882  -972  -981  -933  -899  -908  -907  -860  -804  -775  -777  -806  -867  -939  -978  -940  -815  -579  -104  765  1929  3074  3979  4479  4417  3850  2997  2015  953  -154  -1209  -2041  -2442  -2268  -1636  -902  -408  -287  -437  -631  -719  -689  -575  -421  -288  -221  -207  -201  -162  -61  94  250  351  392  406  422  448  487  541  600  645  683  770  984  1349  1760  2068  2218  2260  2267  2309  2429  2607  2778  2895  2954  2967  2919  2783  2589  2407  2259  2101  1890  1623  1298  896  471  159  -5  -128  -282  -428  -505  -516  -510  -530  -592  -675  -740  -778  -813  -861  -916  -971  -1019  -1052  -1061  -1042  -1009  -991  -1001  -1012  -1000  -962  -881  -751  -616  -533  -502  -482  -442  -389  -347  -330  -339  -373  -427  -490  -574  -694  -820  -906  -950  -985  -1024  -1031  -920  -630  -260  -2  64  12  -81  -179  -260  -320  -378  -446  -513  -540  -503  -414  -319  -259  -237  -241  -275  -349  -421  -426  -361  -292  -258  -251  -268  -331  -448  -575  -658  -686  -685  -683  -694  -721  -759  -794  -808  -792  -752  -707  -661  -568  -372  -65  369  983  1838  2947  4070  4748  4669  3832  2511  1135  22  -772  -1303  -1567  -1567  -1392  -1185  -1025  -883  -719  -567  -483  -469  -479  -468  -415  -328  -222  -103  13  97  154  223  316  405  465  507  547  597  669  748  796  801  799  858  1036  1316  1606  1838  2017  2178  2331  2461  2562  2648  2722  2776  2812  2818  2733  2494  2159  1877  1705  1599  1493  1305  958  462  -51  -437  -662  -779  -839  -872  -896  -918  -933  -940  -941  -934  -913  -881  -855  -844  -846  -854  -865  -883  -907  -925  -932  -933  -927  -906  -868  -819  -775  -757  -767  -785  -794  -794  -800  -819  -847  -872  -887  -888  -871  -839  -812  -798  -776  -742  -711  -683  -637  -581  -556  -597  -688  -776  -817  -810  -777  -740  -707  -684  -671  -668  -670  -676  -682  -684  -677  -662  -655  -658  -654  -627  -580  -518  -458  -405  -346  -281  -232  -223  -280  -389  -493  -565  -600  -608  -613  -633  -660  -672  -667  -653  -642  -634  -630  -627  -628  -632  -638  -649  -670  -710  -780  -884  -959  -870  -498  178  1108  2232  3405  4373  4917  4950  4465  3491  2145  667  -670  -1644  -2065  -1920  -1491  -1088  -826  -699  -658  -638  -598  -508  -381  -270  -203  -172  -159  -154  -151  -149  -147  -137  -105  -36  78  239  410  534  594  614  626  660  738  840  932  1027  1192  1509  1975  2428  2687  2749  2729  2709  2707  2718  2734  2745  2724  2631  2434  2155  1857  1566  1244  870  505  233  63  -80  -239  -378  -475  -571  -692  -814  -906  -958  -983  -991  -986  -977  -974  -976  -979  -973  -947  -900  -849  -809  -783  -769  -769  -799  -867  -952  -1020  -1055  -1054  -1027  -976  -894  -788  -691  -615  -554  -516  -518  -557  -612  -652  -666  -662  -653  -649  -668  -725  -801  -860  -895  -927  -961  -989  -982  -909  -805  -737  -700  -651  -592  -555  -557  -587  -608  -609  -610  -611  -576  -500  -417  -363  -345  -345  -350  -355  -356  -352  -348  -354  -376  -403  -425  -456  -522  -612  -679  -702  -697  -688  -685  -691  -706  -722  -737  -754  -772  -780  -764  -700  -594  -485  -379  -161  347  1272  2561  3935  5019  5472  5092  4030  2711  1400  172  -875  -1722  -2338  -2490  -2081  -1431  -910  -614  -463  -364  -264  -167  -97  -51  -26  -27  -61  -121  -190  -227  -189  -77  55  144  171  168  176  225  327  450  548  641  847  1275  1817  2211  2346  2326  2279  2268  2328  2463  2623  2742  2803  2825  2806  2739  2643  2542  2393  2148  1863  1627  1428  1190  896  597  346  155  26  -54  -140  -275  -463  -674  -853  -957  -992  -995  -989  -981  -970  -963  -983  -1038  -1088  -1090  -1046  -977  -882  -762  -642  -561  -542  -569  -617  -677  -733  -762  -766  -759  -749  -744  -769  -842  -943  -1017  -1031  -993  -930  -843  -716  -575  -493  -496  -543  -588  -607  -604  -604  -618  -626  -613  -583  -568  -592  -637  -651  -605  -528  -472  -456  -462  -471  -477  -473  -442  -382  -314  -269  -255  -269  -308  -367  -436  -508  -573  -612  -615  -593  -577  -629  -789  -991  -1117  -1145  -1142  -1149  -1141  -1081  -987  -906  -846  -758  -520  10  884  1975  3023  3784  4090  3859  3177  2207  1040  -235  -1413  -2274  -2696  -2628  -2194  -1693  -1297  -970  -708  -560  -504  -490  -493  -505  -519  -535  -547  -545  -498  -380  -223  -95  -25  13  49  100  166  229  293  398  577  805  1010  1158  1280  1401  1504  1601  1752  1981  2218  2385  2483  2557  2624  2681  2722  2718  2623  2448  2267  2112  1927  1647  1319  1054  860  616  249  -146  -420  -554  -660  -812  -974  -1081  -1111  -1068  -974  -875  -832  -867  -945  -1006  -1028  -1027  -1023  -1021  -1018  -1007  -984  -958  -943  -939  -941  -946  -949  -938  -898  -839  -797  -777  -757  -738  -741  -765  -792  -803  -791  -780  -788  -806  -817  -828  -860  -910  -940  -921  -858  -767  -670  -600  -576  -585  -608  -634  -655  -677  -720  -786  -846  -876  -863  -789  -668  -561  -503  -473  -443  -420  -433  -467  -469  -425  -372  -336  -316  -332  -430  -614  -808  -926  -958  -945  -922  -907  -907  -917  -923  -917  -909  -908  -904  -859  -749  -610  -523  -505  -447  -180  413  1320  2374  3351  4063  4371  4217  3669  2833  1769  573  -545  -1370  -1772  -1712  -1340  -948  -705  -596  -544  -504  -468  -437  -407  -378  -351  -313  -246  -152  -61  0  34  56  70  81  119  248  511  828  1043  1084  995  860  767  797  1000  1333  1662  1897  2045  2169  2320  2483  2608  2677  2716  2758  2810  2857  2888  2897  2871  2761  2477  1970  1383  950  736  616  466  258  55  -66  -105  -127  -197  -344  -535  -696  -785  -792  -719  -602  -493  -425  -398  -396  -401  -403  -399  -390  -379  -363  -339  -311  -315  -381  -489  -577  -580  -468  -282  -115  -31  -17  -40  -85  -138  -174  -171  -121  -35  58  127  156  158  154  168  216  298  390  468  515  527  517  504  503  521  549  576  596  605  633  713  827  913  942  938  940  968  1014  1053  1074  1081  1083  1088  1105  1127  1119  1046  919  792  710  686  721  797  881  944  977  986  977  965  970  1008  1060  1106  1166  1273  1394  1515  1787  2434  3497  4791  5967  6634  6616  6046  5111  3901  2585  1407  509  -11  -52  277  676  963  1143  1253  1318  1362  1395  1414  1426  1464  1562  1708  1832  1883  1874  1874  1966  2184  2450  2637  2706  2711  2714  2741  2787  2839  2889  2964  3101  3292  3484  3658  3837  4022  4190  4346  4509  4661  4769  4823  4822  4767  4684  4619  4595  4587  4527  4322  3929  3421  2931  2532  2223  2003  1855  1724  1569  1402  1263  1165  1079  990  918  862  787  671  549  471  445  448  467  506  551  558  487  350  196  75  9  -5  13  56  106  126  91  18  -52  -103  -153  -206  -246  -267  -302  -400  -587  -807  -964  -1038  -1087  -1166  -1275  -1371  -1434  -1513  -1650  -1819  -1948  -2002  -2003  -1989  -1992  -2044  -2156  -2309  -2473  -2623  -2752  -2873  -2990  -3094  -3193  -3306  -3436  -3563  -3655  -3700  -3712  -3717  -3728  -3745  -3789  -3927  -4232  -4690  -5191  -5618  -5921  -6107  -6216  -6308  -6424  -6578  -6768  -6980  -7175  -7329  -7476  -7679  -7929  -8137  -8244  -8269  -8240  -8140  -7937  -7612  -7138  -6447  -5484  -4313]
