reading_id,reading_time,wire_id,result_classification,heart_rate,heart_rate_alert,firmware_version,device_app_version,hardware_version,waveform_samples
0bd8f3a0-6af6-11ed-8080-808080808080,Wed Nov 23 06:14:11 UTC 2022,a10163b41b39,UNREADABLE,0,NONE,20001.171.50,2.10.0,Charge 5,[2773  2983  3363  3945  4550  5061  5659  6498  7340  7813  7855  7667  7412  7159  6962  6854  6910  7348  8356  9745  11028  11880  12165  11755  10797  9808  9236  9094  8999  8601  7827  6612  5031  3644  3058  3223  3513  3464  3114  2599  1958  1358  1007  900  903  1004  1344  1961  2511  2624  2458  2358  2333  2273  2128  1808  1310  840  634  707  886  1023  1081  1125  1279  1600  1942  2051  1875  1689  1776  2175  2794  3394  3629  3432  3035  2617  2247  1945  1614  1155  633  216  16  -58  -317  -957  -1627  -1693  -1116  -466  -117  -22  -33  -141  -529  -1287  -2151  -2830  -3320  -3702  -3948  -4052  -4072  -3982  -3663  -3095  -2489  -2095  -1980  -2071  -2264  -2449  -2617  -2877  -3234  -3525  -3635  -3641  -3612  -3430  -3047  -2603  -2201  -1889  -1769  -1873  -2076  -2242  -2364  -2492  -2625  -2717  -2714  -2573  -2351  -2283  -2519  -2955  -3494  -4114  -4706  -5152  -5431  -5566  -5594  -5533  -5379  -5173  -5033  -5132  -5546  -6052  -6277  -6040  -5317  -4086  -2548  -1203  -375  67  364  470  208  -377  -1030  -1583  -2104  -2784  -3849  -5390  -6810  -7048  -5919  -4336  -3040  -1977  -860  421  1796  2516  1528  -859  -3128  -4225  -3847  -2213  -381  33  -1653  -4104  -5521  -5373  -3682  -1177  224  -531  -2560  -4489  -5677  -6196  -6324  -6178  -5634  -4599  -3399  -2599  -2435  -2739  -3251  -3775  -4189  -4425  -4496  -4486  -4445  -4327  -4055  -3681  -3350  -3115  -2959  -2844  -2668  -2395  -2102  -1802  -1481  -1199  -1028  -981  -1051  -1236  -1477  -1667  -1774  -1842  -1905  -1974  -2030  -2024  -1875  -1508  -1003  -652  -797  -1587  -2714  -3525  -3532  -2678  -1376  -279  289  476  526  559  611  672  699  649  536  421  351  302  217  138  318  975  1842  2347  2244  1713  1138  877  927  1011  1033  1098  1243  1448  1677  1819  1702  1246  623  161  3  76  337  813  1479  2163  2613  2712  2501  2105  1726  1499  1284  818  130  -457  -705  -573  -70  719  1530  2081  2342  2497  2667  2807  2872  2925  3062  3256  3342  3513  4391  5901  7102  7520  7506  7420  7217  6685  5928  5587  6390  8008  8984  8718  7929  7000  6162  6019  6619  7360  7758  7794  7492  6472  4712  2904  1534  838  995  1559  1936  2202  2910  4461  6606  8573  9783  10315  10555  10592  10249  9528  8756  8243  7921  7514  6933  6446  6476  7146  8184  9248  10058  10421  10347  10031  9653  9273  8848  8309  7645  6877  6133  5795  6063  6549  6839  6939  6979  6938  6667  5944  4688  3282  2329  1939  1725  1469  1311  1392  1631  1856  1992  1988  1662  830  -334  -1339  -1888  -2122  -2414  -3093  -4101  -4960  -5308  -5086  -4318  -3252  -2342  -1844  -1716  -1796  -1930  -2034  -2125  -2236  -2278  -2030  -1375  -532  98  311  130  -290  -642  -769  -780  -756  -752  -780  -652  -299  36  181  195  176  134  23  -177  -465  -838  -1203  -1447  -1696  -2201  -2906  -3452  -3616  -3456  -3113  -2735  -2471  -2380  -2474  -2842  -3591  -4589  -5522  -6238  -6677  -6657  -6100  -5162  -4124  -3321  -2941  -2897  -3040  -3335  -3776  -4273  -4656  -4740  -4469  -4006  -3583  -3292  -3136  -3154  -3452  -4104  -4987  -5777  -6183  -6190  -6015  -5862  -5786  -5748  -5703  -5578  -5316  -4985  -4631  -4043  -2984  -1732  -1183  -1938  -3387  -4471  -4990  -5280  -5169  -4303  -2828  -977  893  1560  -145  -3539  -6553  -7929  -7906  -7134  -6167  -5465  -5047  -4685  -4285  -3808  -3196  -2394  -1505  -872  -746  -987  -1263  -1410  -1455  -1429  -1280  -966  -586  -324  -305  -577  -1095  -1682  -2108  -2256  -2166  -1988  -1859  -1775  -1636  -1439  -1245  -973  -477  148  661  1001  1222  1271  996  246  -832  -1752  -2384  -3150  -4214  -5161  -5518  -5196  -4512  -3878  -3479  -3292  -3258  -3334  -3477  -3626  -3727  -3751  -3668  -3439  -3100  -2790  -2601  -2414  -2020  -1452  -981  -739  -555  -211  256  619  775  777  609  147  -632  -1463  -1976  -2031  -1751  -1368  -1094  -994  -999  -1006  -857  -413  205  683  869  795  459  -154  -880  -1274  -975  -370  -312  -971  -1764  -2319  -2652  -2752  -2575  -2227  -1880  -1596  -1377  -1245  -1194  -1160  -1092  -977  -863  -806  -701  -410  -79  71  63  67  159  172  -61  -375  -465  -233  168  487  605  591  550  535  518  355  -85  -683  -1127  -1277  -1224  -1074  -899  -768  -709  -689  -652  -577  -526  -569  -541  -240  13  -85  -169  -36  123  787  2745  5604  7739  7837  6027  3591  2087  2373  3730  4335  3243  1415  384  646  1783  3292  4737  5716  6124  6185  6163  6165  6124  5945  5660  5403  5251  5202  5264  5458  5724  5910  5899  5686  5383  5135  4953  4727  4394  4029  3710  3368  2885  2211  1210  -224  -1723  -2668  -2867  -2563  -1993  -1193  -193  747  1372  1376  341  -1358  -2572  -2860  -2712  -2583  -2522  -2341  -1886  -1268  -738  -384  -122  111  327  511  528  205  -327  -617  -370  247  865  1257  1386  1299  1086  858  703  636  559  317  -97  -464  -602  -551  -474  -497  -597  -671  -682  -671  -682  -748  -866  -972  -997  -965  -951  -996  -1056  -987  -673  -227  130  359  566  765  861  824  756  689  433  -144  -703  -722  -247  299  805  1417  2155  2594  2111  820  -430  -1116  -1312  -1163  -642  186  1005  1504  1602  1388  1008  576  171  -91  -83  297  1024  1810  2280  2243  1746  1053  492  156  -46  -111  2  187  310  351  343  347  490  866  1357  1699  1818  1893  2081  2396  2653  2545  2042  1393  713  48  -433  -687  -832  -926  -978  -1057  -1242  -1549  -1901  -2259  -2784  -3619  -4545  -5120  -5059  -4336  -3224  -2120  -1224  -597  -293  -245  -280  -265  -196  -201  -392  -685  -904  -987  -987  -951  -808  -382  434  1366  1901  1930  1522  330  -1477  -2631  -2216  -703  780  1263  142  -2292  -4718  -5931  -5704  -4428  -2636  -1039  -370  -734  -1538  -2259  -2825  -3268  -3518  -3550  -3438  -3285  -3133  -2931  -2713  -2736  -3092  -3382  -3192  -2623  -2044  -1624  -1289  -963  -663  -436  -302  -248  -256  -348  -552  -802  -942  -852  -504  49  675  1164  1343  1229  1025  890  811  712  490  40  -607  -1283  -1865  -2299  -2511  -2398  -1917  -1235  -653  -251  102  465  771  936  917  788  704  721  776  809  823  824  790  687  533  376  235  158  368  1150  2324  3173  3207  2603  1831  1267  1029  1001  1030  1069  1173  1427  1782  2010  1844  1195  337  -261  -388  -176  135  371  485  504  457  384  298  131  -199  -645  -1027  -1168  -874  -12  1130  1963  2234  2110  1680  907  1  -621  -773  -564  -230  -157  -600  -1335  -1977  -2321  -2266  -1849  -1172  -155  1141  1833  834  -1589  -3982  -5320  -5465  -4655  -3640  -3103  -2555  -1409  -181  492  663  692  817  1023  1185  1295  1485  1798  2065  2047  1655  1044  512  246  203  244  297  374  492  579  510  180  -441  -1182  -1728  -1967  -2057  -2136  -2199  -2214  -2212  -2267  -2419  -2589  -2678  -2718  -2753  -2721  -2603  -2458  -2345  -2252  -2072  -1772  -1502  -1383  -1383  -1416  -1416  -1361  -1288  -1257  -1279  -1311  -1264  -991  -422  250  720  889  900  902  931  961  969  950  950  1021  1142  1276  1495  1912  2428  2739  2725  2567  2387  2144  1858  1595  1376  1229  1184  1298  1616  2012  2232  2103  1618  993  554  409  394  348  296  408  712  923  787  463  326  520  864  1109  1182  1168  1154  1155  1124  1008  813  640  603  708  827  859  820  777  762  769  780  765  698  578  433  294  180  94  31  -10  -25  -32  -79  -156  -175  -56  203  504  714  793  789  710  524  281  97  20  10  70  258  568  874  1060  1138  1143  987  528  -161  -835  -1391  -1888  -2335  -2672  -2854  -2873  -2779  -2675  -2556  -2241  -1580  -661  245  903  1257  1346  1107  456  -381  -962  -1110  -999  -785  -428  85  415  214  -91  187  989  1833  2162  1392  -140  -1082  -639  631  1705  1928  1030  -728  -2104  -1846  -472  579  999  1200  1194  833  185  -531  -1104  -1515  -1926  -2319  -2454  -2283  -2025  -1859  -1818  -1872  -1944  -1983  -1959  -1766  -1350  -907  -694  -728  -827  -822  -689  -483  -209  102  349  453  356  -32  -664  -1264  -1644  -1980  -2459  -2869  -2960  -2793  -2418  -1883  -1434  -1227  -1181  -1168  -1127  -1081  -1067  -1069  -1029  -884  -605  -209  196  463  547  514  418  277  124  11  -24  0  46  76  80  85  130  202  191  -5  -286  -409  -319  -157  -22  55  75  85  152  316  517  614  537  367  240  197  171  92  -24  -122  -188  -250  -310  -326  -197  201  841  1462  1839  2028  2174  2254  2110  1672  1112  699  478  359  444  860  1326  1333  787  23  -614  -728  -64  923  1617  1844  1388  227  -921  -1609  -2120  -2666  -3399  -4250  -4488  -3740  -2487  -1097  278  1331  1885  2015  1866  1613  1409  1295  1200  1055  932  961  1087  1097  942  767  658  572  456  321  185  8  -241  -505  -713  -868  -1010  -1187  -1450  -1736  -1873  -1777  -1512  -1214  -1058  -1125  -1281  -1348  -1309  -1325  -1615  -2267  -3083  -3712  -3982  -3962  -3750  -3415  -3075  -2839  -2722  -2726  -2865  -3076  -3199  -3030  -2447  -1652  -1048  -766  -622  -409  -11  589  1236  1661  1687  1290  601  -128  -739  -1194  -1428  -1324  -819  -46  660  1037  1107  1069  1098  1238  1344  1256  1044  865  774  780  812  800  826  927  1029  1082  1047  929  783  637  540  499  454  401  402  483  573  572  506  500  594  733  901  1111  1339  1545  1732  1938  2123  2174  2063  1842  1608  1473  1344  1045  682  437  290  201  198  262  322  326  309  326  373  436  539  671  774  832  882  924  907  820  732  769  1043  1548  2153  2654  2824  2561  2000  1304  556  29  3  280  456  580  1005  1842  3022  4103  4056  2551  465  -1475  -3031  -3934  -4199  -4024  -3272  -2024  -1013  -680  -617  -357  126  700  1244  1766  2257  2257  1350  89  -505  -192  437  763  628  296  20  -231  -527  -757  -848  -867  -880  -839  -654  -426  -337  -264  9  300  242  -231  -869  -1387  -1786  -2258  -2727  -2928  -2838  -2486  -1884  -1386  -1358  -1718  -2148  -2418  -2491  -2477  -2471  -2483  -2445  -2299  -2078  -1910  -1922  -2054  -2116  -2139  -2271  -2371  -2185  -1720  -1200  -781  -415  -34  263  382  350  214  -19  -364  -767  -1039  -1046  -808  -287  548  1438  1970  1926  1337  504  -127  -347  -290  -168  -53  117  327  414  291  87  10  118  263  336  405  526  622  631  616  735  1133  1777  2439  2865  2820  2078  720  -666  -1493  -1712  -1585  -1245  -711  -74  524  885  847  504  47  -384  -623  -648  -492  -76  443  718  653  407  121  -202  -532  -718  -675  -483  -247  12  235  271  92  -141  -283  -343  -403  -494  -580  -635  -661  -670  -677  -701  -747  -800  -827  -804  -659  -292  372  1334  2132  2040  1017  -292  -1248  -1327  -214  1520  2566  2391  1460  99  -1453  -2671  -3396  -3856  -3880  -3199  -2110  -1090  -289  422  1240  2178  2987  3421  3508  3424  3247  2958  2588  2257  1988  1671  1305  1035  910  840  783  766  795  821  769  664  655  857  1242  1645  1892  1958  1850  1342  214  -1188  -2143  -2300  -1847  -1204  -738  -545  -528  -629  -866  -1186  -1392  -1426  -1518  -1782  -2043  -2181  -2290  -2456  -2563  -2444  -2067  -1446  -671  -26  215  42  -338  -710  -996  -1238  -1466  -1602  -1518  -1155  -587  -26  345  566  759  910  918  794  659  579  544  585  814  1278  1811  2179  2294  2139  1668  955  305  57  236  464  398  108  -98  -66  110  262  319  316  294  272  279  367  549  747  920  1091  1215  1241  1219  1216  1231  1195  1023  681  201  -327  -749  -954  -971  -884  -768  -730  -840  -1025  -1174  -1242  -1199  -1020  -726  -397  -161  -122  -252  -450  -653  -859  -1068  -1201  -1081  -628  -45  360  494  482  443  342  58  -436  -994  -1377  -1459  -1418  -1490  -1631  -1699  -1751  -1999  -2572  -3350  -4018  -4299  -4146  -3657  -2736  -1100  938  2192  1996  1113  492  268  120  -157  -141  654  1617  1915  1430  74  -1706  -2705  -2374  -1257  -408  -386  -723  -1009  -1314  -1545  -1590  -1512  -1351  -1123  -846  -556  -419  -587  -969  -1379  -1728  -1981  -2158  -2335  -2519  -2598  -2498  -2307  -2177  -2135  -2038  -1743  -1320  -1001  -932  -1108  -1467  -1930  -2360  -2546  -2297  -1609  -713  69  574  863  1069  1235  1340  1390  1408  1353  1138  761  364  52  -199  -404  -503  -419  -124  311  792  1233  1559  1833  2194  2608  2902  3021  3055  3048  2888  2442  1849  1488  1575  1948  2274  2354  2247  2118  2035  1928  1702  1402  1181  1101  1094  1081  1049  1020  1009  1011  1016  1013  993  952  890  825  835  1008  1285  1487  1518  1446  1370  1327  1314  1356  1485  1650  1723  1631  1447  1299  1231  1209  1224  1300  1425  1536  1588  1587  1565  1549  1549  1559  1565  1534  1439  1309  1212  1171  1158  1158  1175  1209  1247  1276  1286  1253  1153  1017  913  876  890  932  963  868  458  -384  -1506  -2578  -3395  -3864  -3798  -2998  -1629  -287  562  968  1257  1791  2831  4015  4214  2628  -209  -2834  -3855  -2612  219  2705  3419  2727  1735  1034  639  357  142  137  240  58  -474  -986  -1214  -1205  -1166  -1329  -1737  -2165  -2394  -2427  -2395  -2385  -2405  -2421  -2395  -2291  -2140  -2100  -2255  -2453  -2530  -2514  -2509  -2567  -2690  -2906  -3294  -3794  -4162  -4166  -3715  -2930  -2123  -1559  -1292  -1236  -1275  -1309  -1241  -1013  -700  -465  -369  -354  -406  -606  -998  -1477  -1846  -1935  -1694  -1227  -698  -177  332  780  1107  1292  1344  1283  1153  1042  1001  1003  1000  966  918  889  876  824  700  581  604  774  985  1186  1370  1498  1549  1554  1537  1505  1494  1613  1964  2455  2851  3012  2922  2643  2351  2138  1919  1685  1527  1456  1413  1350  1267  1184  1079  931  896  1399  2523  3277  2764  1667  1211  1849  3380  4889  4904  2966  450  -1063  -1144  -101  1457  2852  3743  3952  3376  2462  1836  1612  1566  1534  1502  1520  1526  1278  616  -205  -717  -727  -385  147  822  1435  1634  1344  704  -268  -1415  -2308  -2749  -2907  -2919  -2696  -2009  -726  879  2191  2825  2944  2869  2663  2228  1665  1264  1148  1173  1128  917  629  435  410  454  382  157  -59  -132  -55  141  433  765  1008  958  386  -699  -1841  -2528  -2719  -2694  -2609  -2351  -1780  -1082  -761  -1088  -1696  -1957  -1723  -1384  -1342  -1718  -2342  -2883  -3146  -3200  -3188  -3175  -3147  -3065  -2933  -2834  -2914  -3293  -3893  -4441  -4749  -4790  -4489  -3732  -2611  -1402  -355  301  306  -455  -1640  -2558  -2676  -1932  -790  102  436  169  -785  -2218  -3362  -3410  -2048  255  2032  1937  505  -535  -460  196  819  852  -254  -2013  -2933  -2339  -973  307  996  656  -352  -987  -948  -710  -583  -590  -718  -956  -1215  -1382  -1424  -1390  -1371  -1512  -1921  -2464  -2835  -2876  -2661  -2305  -1855  -1287  -562  174  593  580  393  292  280  184  -181  -847  -1620  -2255  -2638  -2823  -3003  -3272  -3391  -3079  -2459  -1904  -1618  -1480  -1250  -913  -646  -528  -479  -412  -339  -422  -890  -1716  -2493  -2836  -2660  -2172  -1806  -1840  -2123  -2420  -2635  -2800  -3032  -3328  -3581  -3770  -3915  -3968  -3746  -3003  -1805  -623  103  280  67  -268  -481  -504  -438  -392  -361  -236  55  399  563  462  269  188  201  176  74  -89  -246  -235  13  417  873  1271  1535  1716  1863  1850  1536  1010  444  -90  -544  -827  -932  -939  -883  -738  -549  -465  -566  -773  -947  -989  -883  -623  -144  537  1246  1783  2056  2112  2085  2043  1943  1775  1639  1661  1900  2287  2672  2942  3042  3017  2997  2979  2860  2709  2700  2889  3149  3309  3349  3381  3464  3575  3684  3785  3799  3459  2522  1231  222  -148  4  443  1034  1716  2324  2587  2392  1889  1349  1000  884  895  937  966  986  1030  1126  1254  1321  1221  971  703  538  546  789  1301  1994  2680  3171  3205  2442  847  -1014  -2359  -2787  -2372  -1463  -533  89  423  621  740  778  739  620  461  336  281  292  401  712  1296  1997  2498  2661  2559  2282  1946  1716  1665  1739  1847  1926  1959  1958  1938  1949  2060  2272  2472  2526  2383  2094  1665  991  123  -646  -1287  -2098  -3251  -4675  -5871  -5852  -3989  -755  2517  4244  3529  1055  -1276  -1856  -699  997  2341  3047  3104  2820  2538  2255  1829  1334  991  868  864  887  900  876  780  620  439  241  3  -282  -617  -1015  -1487  -1953  -2161  -1960  -1554  -1232  -1161  -1421  -1884  -2250  -2373  -2330  -2260  -2311  -2644  -3284  -4060  -4794  -5385  -5738  -5847  -5817  -5761  -5806  -6008  -6212  -6195  -5750  -4757  -3539  -2709  -2463  -2518  -2579  -2548  -2463  -2389  -2338  -2250  -2018  -1619  -1309  -1403  -1816  -2184  -2334  -2351  -2338  -2288  -2116  -1805  -1481  -1290  -1261  -1341  -1481  -1638  -1757  -1764  -1612  -1316  -959  -595  -188  203  395  347  208  27  -279  -685  -1010  -1151  -1169  -1144  -1068  -887  -564  -34  865  2133  3361  4099  4334  4354  4348  4229  3688  2570  1255  337  -33  -123  -124  0  361  996  1835  2668  3233  3421  3197  2463  1339  280  -359  -610  -677  -677  -594  -376  -60  206  362  554  881  1237  1537  1840  2228  2745  3363  3894  4218  4717  5590  5955  5134  3824  2961  2991  4036  5214  4917  2759  -77  -2343  -3154  -2224  -838  -534  -963  -842  310  2287  4526  6334  7464  7892  7271  5459  3137  1156  -247  -1079  -1315  -1377  -1618  -1624  -1122  -627  -609  -906  -1099  -1038  -938  -1038  -1314  -1601  -1846  -2224  -2940  -3862  -4613  -5063  -5316  -5391  -5343  -5360  -5544  -5840  -6088  -6146  -6113  -6209  -6483  -6834  -7144  -7327  -7363  -7255  -6943  -6319  -5417  -4564  -4106  -4035  -4059  -3890  -3452  -2953  -2659  -2596  -2590  -2511  -2389  -2309  -2271  -2213  -2135  -2110  -2204  -2459  -2842  -3199  -3437  -3588  -3688  -3815  -3839  -3321  -2256  -1188  -371  320  914  1322  1500  1475  1338  1150  800  128  -826  -1862  -2776  -3387  -3625  -3543  -3238  -2859  -2597  -2515  -2529  -2554  -2564  -2554  -2438  -2060  -1378  -564  190  818  1280  1554  1736  1949  2170  2299  2318  2299  2288  2154  1810  1583  1803  2208  2384  2296  2128  2000  1905  1775  1540  1169  739  437  424  660  924  1121  1357  1660  1884  1878  1617  1233  945  876  1033  1382  1796  2078  2160  2132  2099  2124  2237  2398  2535  2622  2660  2636  2554  2493  2601  2983  3519  3932  4082  3985  3657  3186  2781  2582  2530  2513  2534  2751  3258  3728  3543  2441  725  -974  -2019  -2118  -1377  -138  1295  2967  4875  6395  6740  5665  3562  1388  467  1587  3964  5532  4606  1527  -1619  -2892  -1596  1518  4626  6335  6704  6381  5738  5088  4698  4515  4335  4059  3648  3017  2039  667  -922  -2374  -3353  -3766  -3670  -3014  -1816  -504  322  317  -618  -2290  -4134  -5561  -6345  -6607  -6460  -5774  -4435  -2613  -619  1216  2543  3209  3423  3508  3530  3113  1811  -90  -1661  -2410  -2606  -2556  -2336  -2057  -1880  -1855  -1922  -2023  -2146  -2271  -2297  -2110  -1733  -1344  -1129  -1165  -1430  -1796  -2053  -2043  -1737  -1278  -967  -1149  -1990  -3168  -4042  -4263  -3900  -3159  -2257  -1267  -164  849  1443  1592  1540  1471  1417  1363  1308  1272  1269  1316  1480  1852  2381  2896  3268  3330  2893  2033  1085  328  -160  -461  -751  -1190  -1740  -2233  -2661  -3162  -3710  -4141  -4411  -4549  -4568  -4542  -4555  -4615  -4632  -4445  -3900  -2926  -1538  89  1562  2518  2887  2778  2282  1571  956  630  542  633  1020  1773  2672  3343  3583  3478  3275  3095  2849  2432  1736  635  -644  -1582  -2026  -2266  -2448  -2244  -1053  1221  3682  5310  5971  6031  5774  5275  4454  3893  4702  6604  7848  7559  6749  6763  7672  8773  9335  8159  4561  66  -2821  -2974  -1242  453  808  -6  -1128  -2101  -3026  -3931  -4553  -4794  -4827  -4802  -4793  -4934  -5396  -6125  -6794  -7148  -7222  -7125  -6859  -6439  -6034  -5827  -5840  -5963  -6105  -6258  -6449  -6639  -6664  -6334  -5650  -4894  -4378  -4171  -4142  -4168  -4200  -4181  -3982  -3465  -2611  -1664  -991  -706  -690  -898  -1354  -1949  -2473  -2805  -2914  -2764  -2347  -1774  -1261  -986  -963  -1091  -1257  -1381  -1459  -1527  -1609  -1697  -1747  -1729  -1669  -1544  -1269  -868  -445  -58  146  -75  -682  -1305  -1677  -1797  -1800  -1852  -2029  -2234  -2314  -2269  -2219  -2250  -2388  -2605  -2794  -2800  -2528  -2075  -1686  -1512  -1495  -1501  -1462  -1399  -1344  -1228  -933  -487  -33  371  734  1016  1193  1284  1298  1187  914  575  309  137  30  -8  47  228  484  700  868  1143  1682  2531  3601  4789  6111  7499  8624  9170  9018  8175  6934  5871  5296  5050  4838  4398  3777  3386  3231  3109  3526  4861  6520  7919  9001  9333  8259  6122  3928  2181  971  325  -128  -1018  -2182  -2703  -2259  -1324  -321  596  1427  2295  3298  4406  5511  6422  6949  7108  7072  6965  6826  6751  7016  7884  9147  10189  10579  10098  8644  6735  5365  4933  5043  5208  5146  4730  4075  3504  3213  3120  3078  3039  2940  2544  1566  63  -1589  -3081  -4220  -4871  -5118  -5191  -5274  -5501  -6028  -6915  -7898  -8558  -8752  -8598  -8217  -7757  -7417  -7287  -7373  -7766  -8515  -9264  -9429  -8920  -8212  -7699  -7421  -7253  -7074  -6881  -6786  -6847  -6907  -6557  -5435  -3781  -2317  -1431  -987  -775  -680  -637  -599  -550  -579  -953  -1927  -3317  -4545  -5269  -5582  -5647  -5554  -5399  -5279  -5235  -5284  -5447  -5690  -5889  -5860  -5414  -4535  -3523  -2755  -2321  -2075  -1902  -1749  -1605  -1565  -1682  -1852  -1980  -2059  -2131  -2243  -2391  -2494  -2448  -2215  -1892  -1652  -1557  -1534  -1496  -1407  -1297  -1186  -942  -225  1242  3151  4729  5560  5688  5022  3434  1459  -1  -749  -1260  -1766  -1934  -1390  -444  168  219  -8  -281  -496  -675  -940  -1256  -1329  -918  -146  672  1494  2579  4019  5423  6281  6505  6357  6061  5742  5465  5135  4551  3606  2325  820  -637  -1714  -2270  -2434  -2424  -2409  -2556  -3010  -3665  -4146  -4146  -3623  -2661  -1254  630  2686  4361  5398  5894  6007  5741  4982  3860  2700  1526  177  -1171  -2025  -2077  -1583  -1103  -898  -847  -786  -668  -484  -229  59  342  540  512  233  -244  -927  -1691  -2244  -2479  -2549  -2673  -3059  -3769  -4573  -5225  -5750  -6214  -6524  -6636  -6637  -6624  -6630  -6648  -6669  -6695  -6701  -6592  -6224  -5416  -3769  -799  3278  7484  11237  14712  17809  19907  20895  21489  22174  22607  22162  20059  15707  10127  5498  2768  1456  997  817  458  137  132  141  2  -3  98  -30  -400  -745  -857  -808  -947  -1457  -2111  -2645  -3001  -3239  -3483  -3845  -4242  -4426  -4274  -3943  -3687  -3611  -3705  -3946  -4244  -4476  -4659  -4900  -5128  -5156  -5001  -4807  -4425  -3492  -2069  -726  170  746  1054  870  240  -376  -658  -666  -579  -492  -463  -605  -1020  -1577  -1977  -2108  -2119  -2171  -2290  -2431  -2583  -2739  -2851  -2883  -2836  -2702  -2444  -1976  -1168  179  2157  4307  5838  6475  6444  5896  4966  4001  3319  2886  2429  1787  1079  551  248  -90  -731  -1608  -2457  -3206  -3787  -3864  -3350  -2712  -2345  -2132  -1679  -777  275  965  1114  916  602  236  -295  -1066  -1942  -2748  -3387  -3779  -3897  -3785  -3507  -3153  -2865  -2755  -2837  -3033  -3255  -3472  -3667  -3614  -2757  -704  2105  4753  6643  7602  7638  6786  5134  3047  1201  119  -297  -540  -923  -1450  -1947  -2252  -2361  -2378  -2368  -2341  -2304  -2289  -2349  -2536  -2847  -3215  -3513  -3565  -3202  -2344  -1096  448  2509  5069  7330  8512  8613  7978  6860  5536  4383  3649  3248  2869  2321  1621  763  -333  -1597  -2714  -3399  -3667  -3722  -3695  -3614  -3514  -3456  -3454  -3406  -3155  -2534  -1279  760  3040  4623  5129  4596  3003  789  -1015  -1823  -1886  -1591  -1057  -429  19  166  96  -89  -308  -465  -506  -406  -152  217  653  1217  2115  3428  4806  5711  5857  5131  3529  1499  -146  -924  -999  -770  -498  -361  -603  -1407  -2508  -3329  -3604  -3480  -3138  -2738  -2462  -2384  -2441  -2523  -2488  -2152  -1369  -136  1271  2385  2965  3145  3048  2486  1276  -269  -1480  -1998  -1949  -1590  -1158  -885  -895  -1138  -1438  -1617  -1687  -1873  -2368  -3078  -3736  -4185  -4442  -4634  -5074  -6123  -7447  -7646  -5667  -2318  803  3151  5198  7572  10344  12604  12808  10250  6213  2863  1381  1367  1516  1070  386  -64  -357  -682  -1063  -1481  -1942  -2456  -2943  -3206  -3155  -2881  -2480  -2039  -1749  -1809  -2290  -3004  -3603  -3946  -4191  -4508  -4953  -5529  -6108  -6466  -6507  -6299  -5973  -5640  -5315  -4988  -4748  -4748  -5073  -5729  -6669  -7655  -8279  -8254  -7595  -6660  -5926  -5566  -5421  -5218  -4600  -3367  -1727  27  1792  3371  4406  4741  4557  4161  3766  3409  2941  2073  654  -1022  -2409  -3220  -3567  -3671  -3658  -3572  -3448  -3371  -3403  -3521  -3674  -3795  -3862  -3941  -4059  -3985  -3167  -1128  1930  5165  7798  9629  11009  12435  13943  15108  15619  15216  13460  10490  7524  5700  4958  4626  4407  4316  4306  4246  4039  3668  3211  2818  2632  2632  2618  2389  2142  2414  2879  2196  76  -2033  -2730  -1384  1956  5357  5810  2878  -975  -3487  -3734  -1976  112  893  585  333  483  723  862  888  743  347  -187  -587  -728  -670  -451  12  839  1943  3054  4178  5602  7328  8955  10110  10644  10530  9767  8500  7070  5842  5016  4468  3842  2938  1971  1354  1224  1384  1586  1726  1787  1739  1615  1525  1426  1018  106  -1009  -1793  -2117  -2317  -2684  -3171  -3650  -4008  -3892  -2923  -1082  1246  3468  5126  6049  6272  5791  4559  2969  1756  1176  888  596  322  131  -25  -174  -364  -707  -1158  -1527  -1771  -1986  -2186  -2330  -2448  -2627  -2955  -3404  -3679  -3518  -3062  -2600  -2260  -2030  -1753  -1236  -466  371  1065  1522  1720  1533  779  -428  -1644  -2631  -3516  -4365  -5068  -5547  -5807  -5816  -5439  -4583  -3485  -2608  -2187  -2123  -2226  -2365  -2493  -2600  -2711  -2841  -2828  -2533  -2172  -1988  -1839  -1407  -588  431  1362  2034  2444  2540  2291  1920  1690  1625  1634  1634  1549  1308  916  488  93  -384  -1065  -1818  -2424  -2815  -2970  -2933  -2924  -3019  -3040  -2902  -2716  -2590  -2543  -2560  -2621  -2665  -2547  -2174  -1724  -1501  -1632  -2054  -2593  -3057  -3398  -3604  -3584  -3360  -3086  -2823  -2529  -2120  -1506  -784  -280  -311  -1015  -2195  -3307  -3953  -4164  -4035  -3502  -2683  -1977  -1644  -1597  -1580  -1284  -440  935  2424  3578  4339  4848  5020  4443  2802  598  -1080  -1739  -1774  -1698  -1629  -1441  -1132  -903  -880  -971  -1039  -1022  -910  -737  -552  -375  -213  -86  -2  20  -96  -454  -1033  -1593  -1586  -132  3175  7165  9854  10277  8661  5760  2610  49  -1617  -2453  -2644  -2193  -1121  -49  232  -214  -519  108  1838  4335  6708  7548  6082  2858  -943  -3999  -5257  -4464  -2219  81  1057  621  -337  -1159  -1706  -2032  -2103  -1722  -538  1687  4553  7042  8259  7785  5672  2842  635  -588  -1365  -2043  -2627  -3106  -3519  -3862  -4073  -4148  -4149  -4110  -4015  -3849  -3660  -3534  -3511  -3554  -3579  -3468  -3186  -2855  -2601  -2420  -2294  -2269  -2296  -2075  -1174  475  2374  3917  4864  5319  5412  5004  3843  2165  683  -229  -775  -1200  -1544  -1828  -2104  -2382  -2620  -2776  -2854  -2862  -2714  -2317  -1779  -1366  -1209  -1291  -1624  -2187  -2834  -3416  -3914  -4366  -4721  -4738  -3959  -1981  970  3866  5636  5896  4662  2117  -985  -3666  -5499  -6566  -7016  -6738  -5304  -2689  106  1819  1852  133  -2849  -5784  -7453  -7718  -7060  -5933  -4826  -4162  -3953  -3952  -4108  -4627  -5562  -6532  -7061  -7068  -6840  -6651  -6533  -6379  -6149  -5839  -5353  -4670  -3962  -3213  -1901  451  3620  6922  9841  12101  13527  14541  16227  19172  23164  27022  28014  24450  18220  12335  8449  6901  6737  6493  5527  4138  2923  2064  1132  -224  -1773  -3010  -3593  -3378  -2406  -1127  -220  73  43  -10  -45  -192  -556  -1134  -1895  -2765  -3524  -3898  -3587  -2359  -531  1031  1804  1978  1911  1633  1005  180  -411  -574  -492  -471  -778  -1558  -2746  -4081  -5295  -6386  -7597  -8994  -10219  -10892  -11059  -11032  -11009  -10982  -10828  -10468  -9972  -9457  -8994  -8666  -8259  -6818  -3499  882  4443  6369  7241  7856  8652  9775  11109  12432  13781  15366  16990  18045  18221  17750  17117  16754  16717  16515  15356  12771  9193  5757  3406  2178  1225  -347  -2464  -4223  -5078  -5261  -5206  -5123  -5080  -5181  -5510  -5986  -6435  -6759  -6974  -7165  -7459  -7942  -8503  -8884  -8981  -8926  -8871  -8860  -8882  -8924  -9001  -9147  -9342  -9521  -9650  -9720  -9796  -10096  -10807  -11796  -12577  -12690  -12300  -12034  -11889  -10572  -6791  -1595  2241  3565  3452  3023  2531  2098  2137  2935  4481  6748  9783  13378  16641  18493  18619  17441  15715  14319  13816  14338  15718  17364  18491  18697  17939  16288  14046  11810  10168  9310  8998  8918  8927  8996  9084  9124  9045  8811  8517  8351  8386  8369  7578  5393  2328  -469  -2680  -4659  -6495  -7861  -8218  -7511  -6927  -8106  -11334  -15013  -16851  -15452  -11229  -6750  -5469  -8004  -11193  -12256  -11225  -9501  -8277  -7853  -7873  -8118  -8748  -9919  -11419  -12837  -13940  -14653  -14952  -14881  -14536  -14078  -13660  -13291  -12955  -12752  -12723  -12716  -12485  -11887  -10977  -9830  -8453  -6933  -5453  -4261  -3553  -3027  -1871  522  3988  7698  10630  12165  12480  12122  11416  10621  10082  9928  9999  10107  10168  10162  10034  9632  8856  7895  7128  6734  6622  6636  6684  6736  6760  6652  6313  5830  5452  5303  5297  5324  5362  5441  5557  5622  5480  4992  4121  3040  2136  1726  1713  1751  1706  1702  1838  2106  2500  2957  3316  3490  3524  3440  3189  2763  2240  1685  1136  653  261  -217  -1252  -3283  -5965  -8189  -9254  -9358  -8862  -7897  -6798  -6297  -7032  -8934  -11120  -12598  -13033  -12570  -11427  -10051  -9062  -8712  -8818  -9187  -9759  -10387  -10800  -10831  -10538  -10118  -9639  -8731  -6904  -4311  -1775  6  1078  2075  3535  5393  7120  8329  9028  9263  9051  8610  8138  7653  7122  6489  5780  5172  4728  4140  2944  1225  -270  -935  -638  524  2070  3238  3643  3305  2278  889  -228  -760  -904  -917  -820  -503  13  478  674  622  332  -471  -2067  -4110  -5743  -6484  -6582  -6509  -6514  -6614  -6708  -6690  -6499  -6090  -5506  -4926  -4512  -4324  -4313  -4355  -4305  -4076  -3726  -3414  -3217  -3052  -2793  -2457  -2199  -2103  -2106  -2125  -2127  -2112  -2099  -2142  -2300  -2557  -2864  -3236  -3653  -3983  -4115  -4078  -3970  -3788  -3427  -2908  -2421  -2024  -1486  -561  742  2213  3610  4691  5345  5880  6798  8107  9291  9952  10092  9961  9870  9986  10276  10725  11454  12392  13176  13567  13653  13617  13568  13509  13395  13216  12970  12593  12008  11226  10311  9269  7938  6164  4175  2517  1470  884  528  292  141  62  35  45  90  93  -167  -894  -1930  -2907  -3705  -4352  -4752  -4870  -4850  -4836  -4891  -5090  -5520  -6083  -6530  -6757  -6821  -6744  -6527  -6268  -6101  -6068  -6141  -6285  -6446  -6563  -6665  -6862  -7149  -7297  -7150  -6878  -6695  -6604  -6559  -6574  -6581  -6413  -6056  -5730  -5579  -5522  -5485  -5612  -6185  -7249  -8409  -9154  -9105  -7921  -5580  -2768  -392  1130  1960  2642  3668  5042  6696  8909  11449  13305  13979  13941  13777  13726  13846  14130  14474  14775  15086  15539  16143  16653  16664  15892  14294  12113  9839  7931  6611  5878  5575  5407  4987  3983  2321  314  -1521  -2777  -3375  -3547  -3539  -3399  -3080  -2606  -2147  -1877  -1706  -1386  -880  -439  -245  -207  -275  -738  -2048  -4263  -6633  -8127  -8368  -7657  -6516  -5499  -4928  -4751  -4726  -4551  -3999  -3213  -2635  -2538  -2874  -3404  -3869  -4138  -4215  -4176  -4139  -4131  -3979  -3376  -2107  -380  1157  1945  1893  1218  321  -338  -577  -507  -251  93  306  -10  -1147  -2753  -4023  -4618  -4821  -4931  -5019  -5075  -5100  -5087  -4996  -4808  -4588  -4440  -4398  -4440  -4540  -4634  -4571  -4239  -3755  -3380  -3199  -3088  -2977  -2982  -3321  -4060  -4834  -5089  -4778  -4364  -4160  -4119  -4123  -4151  -4267  -4543  -4994  -5495  -5801  -5744  -5260  -4177  -2409  -441  1107  2392  3968  5708  6949  7405  7315  6919  6121  4858  3543  2677  2278  2091  1963  1714  1099  57  -1201  -2353  -3134  -3463  -3449  -3292  -3204  -3262  -3410  -3797  -4736  -6068  -7006  -6674  -4754  -2067  -136  231  -656  -1984  -2969  -3334  -3312  -3180  -3056  -3006  -3082  -3284  -3587  -3908  -4105  -4088  -3921  -3786  -3808  -3914  -3964  -3916  -3824  -3784  -3874  -4054  -4127  -3975  -3813  -3946  -4334  -4642  -4709  -4673  -4594  -4302  -3653  -2694  -1586  -419  861  2190  3318  4391  5975  8052  9873  11105  12125  13112  13801  13979  13583  12518  10880  9350  8740  8866  8424  6378  3449  1778  2796  6140  10375  13185  12137  7397  1727  -2421  -3726  -1897  1727  4835  5671  4068  1236  -1342  -2762  -2928  -2299  -1466  -928  -947  -1485  -2224  -2751  -2917  -2863  -2748  -2692  -2899  -3578  -4652  -5727  -6442  -6638  -6320  -5689  -5104  -4818  -4749  -4602  -4228  -3856  -3787  -3933  -3963  -3705  -3267  -2860  -2585  -2476  -2563  -2844  -3328  -3964  -4558  -4913  -4993  -4913  -4749  -4451  -4074  -3793  -3661  -3578  -3408  -3115  -2811  -2649  -2741  -3024  -3172  -2993  -2715  -2627  -2748  -2923  -3042  -3066  -2859  -2074  -353  2070  4206  5248  5317  5078  5241  6358  8329  10255  11344  11666  11723  11817  11976  12091  12055  11831  11412  10899  10534  10517  10894  11515  12022  12094  11708  11236  11355  12315  13286  13191  12204  11755  12778  14648  15980  15573  13435  11359  11014  12109  13539  14496  14149  12375  10337  9052  8330  7516  6447  5373  4360  3276  2224  1484  1052  534  -577  -2507  -4746  -6343  -6889  -6684  -6096  -5323  -4604  -4219  -4288  -4747  -5477  -6284  -6980  -7598  -8260  -8911  -9427  -9777  -9981  -10066  -10047  -9900  -9605  -9250  -8976  -8852  -8874  -9071  -9474  -9959  -10282  -10330  -10158  -9837  -9409  -8909  -8332  -7654  -6971  -6534  -6612  -7333  -8466  -9446  -9895  -9943  -9908  -9901  -9835  -9726  -9764  -10096  -10661  -11265  -11731  -11956  -11841  -11301  -10470  -9731  -9427  -9705  -10565  -11781  -12998  -13966  -14573  -14793  -14613  -14024  -13205  -12520  -12160  -12045  -11995  -11883  -11697  -11438  -10985  -10235  -9301  -8279  -6982  -5189  -3097  -1453  -985  -1512  -1885  -841  1993  5780  8822  9336  6924  3391  937  95  310  943  1197  891  914  1699  2521  2731  2398  1888  1548  1608  2113  2835  3396  3615  3545  3227  2687  2117  1820  1961  2476  3172  3817  4220  4295  3963  3192  2297  1889  2314  3296  4219  4715  4831  4737  4511  4215  3995  4088  4711  5807  7009  8065  8919  9376  9305  8722  7337  4980  2492  1314  2214  4712  7625  9597  9419  7008  3941  2161  2340  3831  5616  6714  6416  5035  3711  3147  3254  3640  3945  4046  4051  4106  4292  4618  5000  5294  5422  5435  5423  5422  5372  5070  4285  3075  1856  1017  711  1075  2236  3821  5019  5307  4598  2997  949  -804  -1808  -2226  -2428  -2562  -2572  -2333  -1771  -995  -228  409  949  1407  1700  1780  1707  1551  1272  774  159  -299  -493  -522  -464  -314  -87  79  -23  -491  -1218  -1934  -2321  -2232  -1936  -2065  -2956  -4172  -5010  -5067  -4295  -2838  -991  498  743  -426  -2521  -4811  -6330  -6436  -5374  -3823  -2498  -2007  -2406  -3181  -3772  -3968  -3847  -3537  -3153  -2812  -2553  -2362  -2243  -2170  -2076  -1897  -1565  -1062  -535  -199  -113  -75  267  1128  2291  3204  3506  3360  3176  3147  3159  3031  2700  2186  1547  949  607  649  1094  1806  2523  3070  3418  3592  3653  3634  3447  2954  2223  1571  1260  1336  1825  2783  4019  5056  5584  5604  5063  3839  2165  687  -58  32  783  1796  2581  2952  3091  3232  3432  3619  3784  3981  4194  4340  4322  4003  3293  2411  1803  1733  2124  2684  3071  3102  2813  2384  2011  1755  1545  1311  1070  900  841  885  1061  1431  2012  2691  3256  3560  3651  3665  3665  3625  3524  3419  3395  3437  3449  3337  3063  2725  2422  1919  874  -481  -1479  -1808  -1611  -1080  -478  -240  -639  -1492  -2380  -3028  -3378  -3460  -3226  -2579  -1702  -1015  -693  -594  -609  -712  -828  -890  -923  -1008  -1208  -1440  -1488  -1251  -852  -464  -172  -53  -367  -1437  -3033  -4206  -4103  -2875  -1757  -1815  -2586  -2766  -1585  897  3310  3489  1092  -1938  -4019  -5162  -5897  -6370  -6468  -6077  -5283  -4534  -4176  -4098  -4087  -4043  -3826  -3299  -2585  -2036  -1944  -2479  -3621  -4924  -5763  -5849  -5251  -4234  -3160  -2269  -1537  -798  3  681  1018  982  677  288  18  -91  -193  -568  -1490  -2843  -4043  -4621  -4518  -3858  -2923  -2148  -1778  -1736  -1841  -1969  -2029  -1914  -1561  -1074  -683  -496  -383  -173  116  286  158  -266  -795  -1140  -1217  -1195  -1186  -1207  -1249  -1204  -987  -636  -175  406  1006  1410  1478  1196  620  -117  -926  -1772  -2435  -2584  -2203  -1594  -1045  -650  -344  -77  88  53  -211  -587  -874  -973  -930  -813  -670  -514  -345  -218  -173  -158  -172  -272  -399  -385  -106  420  1058  1630  1999  2118  1940  1278  -86  -2037  -3965  -5221  -5362  -3875  -692  2924  5112  4881  2557  -349  -1803  -917  1160  2466  1785  -782  -3967  -6066  -5864  -3660  -1434  -641  -700  -650  -229  678  1928  2966  3468  3624  3700  3594  2898  1382  -649  -2583  -3914  -4312  -3469  -1370  1139  2801  3067  2233  932  -178  -784  -993  -1015  -971  -926  -907  -899  -878  -852  -897  -1158  -1813  -2894  -4027  -4517  -3910  -2445  -895  113  505  496  254  -244  -1101  -2142  -2928  -3199  -2981  -2395  -1688  -1181  -1001  -994  -912  -655  -410  -401  -499  -413  -95  313  609  639  447  140  -189  -399  -433  -407  -316  39  728  1516  2089  2346  2420  2459  2515  2605  2734  2841  2747  2240  1337  404  -189  -400  -383  -195  192  653  898  774  431  120  -9  145  705  1589  2477  3078  3175  2502  1124  -114  -339  340  1045  810  -721  -2506  -2811  -952  2685  6877  8882  6776  2165  -2077  -4301  -3805  -1360  1014  2332  3064  3616  3970  4159  4247  4157  3674  2685  1465  525  95  -43  -192  -356  -293  144  881  1854  3031  4148  4791  4641  3548  1743  -162  -1652  -2539  -2894  -2836  -2319  -1248  172  1494  2356  2599  2135  1025  -283  -1198  -1502  -1307  -728  24  600  827  807  683  519  350  198  92  64  101  157  206  213  0  -722  -1961  -3218  -3942  -4072  -3893  -3669  -3536  -3524  -3608  -3711  -3600  -2915  -1580  -98  901  1284  1310  1206  1042  860  736  708  752  807  734  323  -491  -1422  -1995  -1813  -707  953  2337  2924  2839  2392  1757  1122  747  749  978  1132  1059  889  777  678  445  11  -563  -1135  -1552  -1722  -1565  -1017  -244  290  89  -1044  -2656  -3860  -4106  -3351  -1880  -324  710  1128  1156  951  574  148  -110  -93  56  150  165  174  237  343  410  327  60  -256  -458  -561  -657  -741  -777  -784  -813  -918  -1118  -1387  -1674  -1955  -2276  -2674  -3096  -3503  -3891  -4147  -3968  -3023  -1408  250  1451  2164  2519  2624  2601  2526  2388  2143  1799  1448  1165  952  792  665  603  748  1164  1680  2071  2250  2257  2123  1797  1191  360  -412  -838  -874  -657  -364  -169  -209  -537  -1039  -1476  -1709  -1788  -1753  -1491  -898  -157  406  713  892  979  894  610  152  -476  -1171  -1752  -2245  -2842  -3618  -4414  -4856  -4397  -2691  -329  1415  1842  1114  -291  -1846  -3199  -4306  -5218  -5891  -6187  -5925  -4949  -3302  -1452  -101  363  111  -410  -849  -974  -732  -504  -673  -1113  -1685  -2562  -3673  -4572  -4868  -4325  -3113  -2148  -2352  -3786  -5854  -7358  -6713  -3520  958  4948  6379  4270  607  -1999  -2788  -1922  -351  494  655  1011  1419  1438  1167  798  478  315  276  302  368  395  152  -568  -1561  -2308  -2553  -2397  -1962  -1330  -617  57  553  743  641  347  -57  -572  -1253  -1975  -2396  -2312  -1860  -1358  -1042  -963  -1154  -1689  -2426  -2937  -2798  -1887  -619  289  508  241  -148  -403  -462  -410  -346  -292  -180  64  421  784  1063  1226  1325  1439  1541  1445  978  247  -433  -867  -1046  -1050  -972  -887  -839  -835  -845  -820  -721  -570  -435  -356  -306  -221  -37  296  813  1465  2073  2318  1855  613  -921  -2028  -2400  -2187  -1599  -824  -94  418  716  886  963  861  374  -612  -1811  -2695  -3034  -2876  -2188  -1031  150  929  1343  1606  1754  1819  2036  2641  3487  4144  4408  4417  4344  4271  4258  4361  4540  4685  4758  4832  4947  4882  4133  2394  171  -1516  -2090  -1673  -712  291  1014  1416  1584  1599  1518  1361  1176  1039  951  815  538  159  -166  -326  -320  -185  40  270  392  309  -18  -463  -792  -903  -859  -731  -570  -468  -550  -895  -1407  -1913  -2446  -3174  -4025  -4626  -4567  -3599  -1911  -215  822  1088  836  347  -155  -515  -683  -717  -759  -1025  -1638  -2335  -2509  -1543  454  1897  1205  -946  -2564  -2269  225  3542  5027  3577  804  -1409  -2319  -1875  -911  -425  -337  -223  -184  -434  -991  -1685  -2216  -2446  -2440  -2213  -1701  -1003  -398  -73  12  -14  -57  -76  -93  -131  -170  -160  -51  124  197  3  -488  -1239  -2089  -2730  -2852  -2154  -530  1425  2712  2829  1990  830  9  -272  -224  -27  232  467  662  884  1141  1344  1395  1292  1150  1074  1067  1104  1191  1343  1551  1796  2012  2128  2333  3048  4586  7019  9742  11279  10314  6726  1844  -2178  -3947  -3674  -2477  -1377  -751  -320  363  1356  2327  3003  3415  3737  4119  4673  5372  5997  6345  6375  6161  5747  5075  4211  3467  3105  3134  3427  3804  4096  4251  4285  4143  3754  3175  2525  1811  1088  541  216  -11  -189  -321  -442  -540  -590  -657  -847  -1210  -1670  -2061  -2267  -2138  -1403  -25  1461  2327  2160  997  -567  -1675  -2004  -1883  -1742  -1907  -2545  -3445  -4152  -4470  -4511  -4373  -4073  -3664  -3296  -3097  -3047  -2985  -2574  -1392  505  2342  3358  3415  2722  1592  518  -53  51  776  1794  2574  2682  1842  100  -1836  -3090  -3471  -3308  -2758  -1801  -653  204  392  -80  -824  -1393  -1662  -1690  -1300  -214  1290  2367  2332  1126  -619  -2001  -2631  -2701  -2504  -2259  -2093  -2011  -1962  -1949  -2070  -2423  -2913  -3297  -3460  -3453  -3359  -3257  -3195  -3120  -2907  -2480  -1913  -1410  -1142  -1086  -1079  -1006  -883  -795  -755  -698  -689  -1115  -2374  -4135  -5444  -5673  -4849  -3327  -1552  51  1109  1428  1030  94  -947  -1618  -1845  -1893  -1998  -2345  -3073  -3871  -3947  -3043  -2037  -1942  -2593  -2651  -849  2965  7091  8108  4287  -1887  -6629  -8018  -6175  -2942  -747  -433  -961  -1125  -548  473  1470  2231  2746  2992  2969  2725  2279  1655  856  -141  -1182  -1944  -2301  -2415  -2400  -2050  -1097  192  1139  1454  1403  1288  1231  1289  1530  1949  2371  2547  2341  1847  1340  1053  996  1039  1075  1043  914  730  583  527  589  792  1085  1322  1383  1237  968  736  565  286  -271  -1162  -2191  -2951  -3207  -2894  -1838  -110  1592  2595  2947  3059  3105  3069  2809  1981  540  -998  -2132  -2535  -2059  -1169  -477  92  643  659  -222  -1923  -4140  -6030  -6530  -5203  -2697  -402  1071  2439  4168  5697  6447  6368  5599  4374  3017  1680  367  -774  -1519  -1805  -1705  -1289  -666  -13  567  1068  1476  1705  1578  924  -165  -1315  -2168  -2604  -2694  -2499  -2011  -1363  -876  -807  -1267  -2176  -3146  -3761  -3979  -4010  -4014  -4098  -4347  -4737  -5201  -5738  -6172  -6095  -5318  -4090  -2912  -2250  -2180  -2327  -2169  -1423  -362  417  676  661  657  714  656  238  -615  -1636  -2386  -2722  -2852  -2856  -2353  -915  1063  2530  2932  2485  1581  552  -203  -312  186  834  1250  1425  1546  1742  2011  2257  2343  2164  1755  1317  1062  1049  1209  1423  1574  1620  1584  1479  1307  1120  1009  1030  1166  1351  1512  1586  1457  945  -49  -1222  -1508  232  3598  6346  6130  2777  -1232  -3193  -2162  1227  4669  5082  1830  -2668  -5960  -6951  -5484  -2635  81  2167  3548  3991  3768  3407  2939  2139  1115  287  -72  99  858  2062  3285  4139  4415  4043  3167  2117  1211  529  -105  -759  -1251  -1437  -1284  -777  -36  662  1127  1345  1383  1278  969  411  -311  -1069  -1755  -2248  -2461  -2386  -2069  -1662  -1378  -1296  -1329  -1346  -1187  -717  -50  464  513  -63  -1189  -2463  -3456  -4066  -4393  -4478  -4293  -3832  -3162  -2429  -1801  -1347  -1029  -781  -572  -427  -389  -455  -548  -563  -458  -266  -60  84  140  141  132  135  138  108  -18  -356  -960  -1656  -2089  -1941  -1100  95  931  782  -479  -2246  -3505  -3744  -3183  -2363  -1767  -1573  -1760  -2405  -3590  -5008  -6060  -6433  -6161  -5320  -4155  -3156  -2647  -2534  -2581  -2717  -2989  -3316  -3393  -2938  -2033  -1087  -398  62  454  901  1369  1685  1802  1876  2054  2315  2536  2617  2456  1977  1336  870  739  841  1024  1194  1302  1253  854  7  -1005  -1713  -1865  -1409  -412  737  1512  1728  1502  925  108  -689  -1235  -1497  -1438  -820  507  2099  3158  3286  2657  1756  1095  857  881  978  1079  1172  1257  1328  1348  1201  783  221  -195  -355  -369  -305  -75  369  841  1061  1002  859  764  717  739  954  1445  2052  2481  2581  2351  1785  879  -198  -1134  -1688  -1728  -1243  -519  6  164  103  29  113  463  982  1358  1240  459  -769  -1978  -2879  -3436  -3632  -3320  -2374  -1110  -174  178  178  74  -14  -3  167  487  859  1147  1284  1296  1224  1119  1072  1133  1196  990  161  -1511  -3745  -5733  -6851  -7058  -6437  -5046  -3315  -2004  -1478  -1232  -404  1357  3784  6072  6936  5582  2611  -512  -2558  -3068  -2323  -1136  -431  -541  -1083  -1476  -1336  -574  490  1306  1565  1215  292  -844  -1608  -1798  -1699  -1580  -1462  -1259  -943  -636  -532  -720  -1238  -2182  -3485  -4720  -5399  -5294  -4460  -3277  -2308  -1849  -1843  -2145  -2696  -3449  -4149  -4392  -4035  -3355  -2696  -2161  -1716  -1262  -642  122  763  1090  1241  1456  1744  1880  1718  1396  1214  1345  1725  2191  2614  2826  2514  1443  -30  -1110  -1374  -985  -307  287  594  665  635  515  252  -82  -310  -386  -420  -454  -289  375  1521  2665  3334  3380  2743  1469  46  -874  -1145  -1097  -1066  -1184  -1379  -1430  -1139  -527  165  666  826  662  329  12  -202  -342  -471  -632  -827  -1035  -1237  -1410  -1519  -1500  -1357  -1233  -1237  -1296  -1291  -1195  -1022  -681  -41  698  946  340  -700  -1318  -1096  -397  171  371  322  171  -3  -108  0  420  1019  1447  1407  838  -7  -725  -1117  -1281  -1409  -1601  -1832  -2028  -2136  -2154  -2116  -2060  -2012  -2009  -2110  -2347  -2637  -2827  -2834  -2643  -2191  -1406  -451  287  599  618  553  499  460  429  418  472  632  834  878  589  9  -640  -1184  -1505  -1532  -1410  -1380  -1472  -1581  -1678  -1843  -2152  -2514  -2708  -2683  -2592  -2551  -2526  -2423  -2240  -2184  -2478  -3087  -3771  -4305  -4585  -4645  -4546  -4295  -3925  -3507  -3118  -3033  -3610  -4671  -5552  -5870  -5737  -5402  -4915  -3977  -2416  -743  264  270  -598  -1867  -2883  -3280  -3126  -2588  -1736  -634  482  1284  1655  1696  1398  647  -343  -1060  -1233  -1000  -580  54  1113  2424  3352  3463  2828  1834  919  298  -1  102  798  2052  3353  4137  4259  3836  3040  2208  1710  1606  1669  1643  1384  955  573  376  341  460  849  1555  2348  2898  3142  3236  3263  3210  3127  3108  3193  3338  3460  3509  3491  3420  3304  3159  3030  3006  3187  3623  4222  4733  4982  5010  4948  4886  4914  5155  5731  6723  8025  9143  9337  8115  5770  3267  1169]
