reading_id,reading_time,wire_id,result_classification,heart_rate,heart_rate_alert,firmware_version,device_app_version,hardware_version,waveform_samples
4109e690-631e-11ed-8080-808080808080,Sun Nov 13 06:41:50 UTC 2022,a10163b41b39,NSR,70,NONE,20001.171.50,2.10.0,Charge 5,[215  448  691  942  1175  1355  1460  1508  1551  1639  1770  1895  1967  1988  1988  1982  1958  1899  1818  1750  1707  1668  1608  1520  1393  1199  933  638  366  123  -78  -206  -259  -282  -332  -437  -602  -794  -955  -1038  -1043  -996  -925  -861  -826  -817  -821  -827  -829  -818  -787  -742  -698  -663  -640  -634  -650  -691  -742  -777  -786  -780  -771  -766  -764  -767  -774  -775  -754  -691  -595  -506  -453  -434  -435  -441  -434  -401  -351  -303  -273  -266  -270  -274  -270  -251  -224  -199  -179  -161  -153  -162  -183  -204  -223  -235  -242  -244  -246  -264  -315  -386  -440  -454  -428  -373  -297  -228  -208  -259  -345  -390  -349  -246  -139  -52  37  133  204  231  225  200  173  155  139  106  49  -19  -108  -226  -339  -398  -402  -394  -399  -416  -445  -489  -546  -615  -691  -755  -782  -777  -761  -753  -747  -721  -663  -578  -450  -179  366  1154  1988  2737  3329  3623  3526  3094  2453  1700  886  56  -718  -1352  -1742  -1781  -1529  -1223  -1007  -851  -696  -539  -429  -391  -399  -419  -435  -441  -424  -373  -305  -251  -229  -211  -159  -71  17  83  133  182  237  300  365  417  456  506  589  692  794  884  970  1082  1238  1421  1608  1792  1961  2096  2180  2222  2253  2292  2325  2332  2302  2244  2172  2107  2052  1963  1760  1403  984  663  481  362  244  105  -62  -240  -387  -487  -551  -594  -614  -611  -598  -589  -586  -584  -574  -551  -523  -504  -500  -510  -530  -553  -574  -584  -569  -526  -466  -410  -369  -340  -328  -339  -366  -400  -442  -484  -510  -519  -520  -512  -480  -416  -324  -218  -122  -56  -27  -33  -80  -171  -275  -344  -356  -327  -283  -250  -236  -236  -240  -243  -244  -241  -230  -211  -192  -183  -189  -200  -209  -218  -235  -268  -311  -344  -357  -358  -351  -333  -309  -290  -282  -275  -249  -169  1  224  382  394  267  80  -67  -132  -140  -146  -204  -324  -460  -554  -590  -594  -589  -587  -586  -584  -578  -575  -591  -629  -672  -701  -710  -712  -713  -703  -667  -603  -527  -439  -299  -66  228  527  868  1344  1941  2531  2925  2934  2507  1738  772  -206  -1053  -1694  -2047  -2096  -1960  -1751  -1510  -1262  -1047  -857  -658  -469  -345  -298  -295  -297  -276  -219  -137  -65  -32  -29  -32  -17  19  70  119  156  174  175  169  168  196  296  488  714  886  972  1007  1051  1170  1399  1686  1934  2089  2166  2201  2217  2232  2268  2334  2407  2459  2469  2396  2208  1957  1761  1660  1566  1380  1098  788  516  316  198  121  14  -130  -250  -294  -274  -228  -191  -175  -188  -248  -361  -497  -617  -698  -738  -745  -745  -756  -770  -775  -777  -777  -758  -700  -599  -478  -373  -308  -282  -294  -342  -415  -485  -531  -549  -551  -550  -554  -568  -581  -572  -520  -419  -301  -220  -191  -190  -198  -208  -222  -253  -295  -326  -340  -340  -325  -307  -297  -289  -273  -248  -224  -216  -245  -323  -434  -529  -566  -546  -486  -410  -345  -310  -301  -304  -308  -310  -313  -315  -308  -277  -221  -162  -135  -168  -267  -401  -519  -595  -629  -625  -578  -490  -382  -281  -189  -100  -1  111  218  281  273  196  82  -33  -155  -291  -414  -494  -545  -597  -655  -702  -723  -723  -724  -742  -776  -812  -835  -844  -846  -839  -813  -771  -732  -700  -641  -494  -217  181  681  1328  2116  2866  3334  3365  2972  2298  1496  675  -127  -903  -1574  -2002  -2102  -1906  -1532  -1122  -792  -591  -496  -457  -444  -444  -448  -450  -448  -437  -410  -361  -293  -218  -154  -116  -104  -108  -107  -65  45  193  299  337  353  396  467  540  616  736  903  1071  1207  1321  1430  1543  1657  1762  1857  1962  2104  2279  2443  2537  2517  2386  2217  2093  2040  2031  2006  1901  1660  1292  902  622  481  406  297  106  -115  -286  -391  -461  -501  -512  -506  -501  -511  -545  -596  -641  -663  -663  -647  -628  -614  -609  -615  -630  -650  -665  -670  -664  -649  -629  -610  -595  -577  -553  -523  -488  -454  -427  -414  -416  -434  -466  -498  -529  -566  -602  -619  -603  -551  -485  -438  -421  -416  -409  -401  -397  -397  -397  -392  -380  -369  -368  -377  -387  -396  -413  -442  -465  -472  -477  -489  -490  -479  -469  -464  -459  -446  -423  -393  -366  -343  -319  -295  -282  -292  -320  -351  -376  -392  -404  -413  -415  -406  -389  -378  -386  -407  -425  -430  -426  -418  -384  -293  -153  -24  51  77  79  68  45  15  -13  -33  -56  -105  -194  -308  -410  -479  -513  -516  -494  -452  -410  -386  -389  -419  -463  -496  -509  -512  -523  -550  -587  -619  -624  -573  -446  -274  -82  165  528  1059  1782  2610  3332  3717  3647  3136  2302  1333  366  -542  -1297  -1780  -1941  -1805  -1511  -1230  -1012  -820  -650  -532  -482  -478  -488  -497  -495  -474  -426  -367  -325  -309  -304  -294  -259  -176  -38  131  282  385  451  509  558  580  573  569  603  692  810  926  1046  1196  1370  1557  1744  1897  1996  2072  2159  2235  2258  2233  2192  2151  2125  2108  2056  1929  1743  1550  1359  1149  929  729  558  415  298  169  -17  -242  -418  -496  -506  -505  -513  -528  -549  -585  -632  -667  -671  -653  -632  -618  -620  -658  -755  -882  -978  -1012  -989  -918  -817  -722  -660  -635  -633  -637  -631  -604  -557  -507  -476  -471  -486  -511  -535  -551  -559  -562  -544  -485  -397  -322  -292  -303  -323  -334  -337  -340  -345  -346  -344  -342  -347  -356  -359  -359  -372  -409  -450  -473  -478  -477  -473  -461  -434  -403  -380  -374  -390  -428  -477  -509  -502  -451  -382  -331  -308  -293  -274  -260  -261  -274  -279  -251  -173  -58  59  139  165  143  96  44  2  -31  -73  -145  -236  -315  -359  -370  -366  -372  -400  -445  -497  -534  -535  -499  -454  -411  -354  -265  -164  -86  -39  -10  28  134  377  813  1447  2175  2789  3071  2935  2472  1794  987  176  -552  -1157  -1562  -1731  -1698  -1496  -1197  -931  -781  -719  -672  -604  -525  -450  -380  -316  -261  -218  -184  -154  -120  -80  -32  30  95  143  172  203  240  267  288  325  391  472  559  660  796  972  1156  1298  1396  1488  1601  1722  1816  1882  1947  2036  2131  2194  2216  2215  2202  2168  2113  2060  2027  1992  1912  1764  1570  1362  1132  864  593  362  165  -12  -154  -243  -312  -406  -522  -623  -689  -726  -744  -754  -751  -723  -674  -626  -604  -617  -654  -702  -746  -774  -782  -779  -772  -763  -750  -731  -710  -692  -679  -664  -646  -632  -627  -626  -619  -605  -578  -525  -448  -376  -338  -339  -368  -405  -436  -456  -464  -458  -423  -355  -294  -300  -372  -440  -460  -436  -397  -370  -361  -360  -364  -377  -406  -444  -478  -509  -540  -567  -585  -594  -599  -603  -595  -565  -525  -497  -495  -515  -540  -565  -588  -588  -538  -457  -392  -364  -361  -366  -374  -380  -370  -335  -277  -215  -171  -155  -161  -169  -168  -159  -145  -126  -115  -146  -244  -379  -482  -522  -520  -503  -494  -508  -545  -589  -620  -633  -639  -639  -628  -601  -568  -543  -534  -535  -545  -566  -571  -499  -338  -153  21  250  631  1237  2050  2892  3482  3594  3186  2422  1535  633  -261  -1068  -1665  -1942  -1844  -1485  -1089  -792  -617  -533  -488  -442  -385  -336  -323  -344  -372  -389  -397  -394  -362  -289  -190  -102  -39  4  30  47  79  154  276  418  544  645  733  824  930  1062  1211  1344  1433  1484  1547  1675  1859  2031  2142  2191  2203  2205  2212  2220  2219  2201  2165  2118  2060  1979  1848  1650  1417  1204  1022  827  580  314  97  -48  -153  -243  -318  -370  -402  -434  -468  -496  -513  -516  -509  -506  -537  -624  -735  -801  -793  -745  -708  -699  -704  -708  -713  -724  -734  -722  -680  -633  -606  -600  -613  -637  -655  -643  -583  -484  -383  -311  -281  -303  -379  -482  -556  -575  -546  -491  -425  -365  -325  -309  -306  -304  -295  -282  -274  -274  -260  -224  -184  -155  -139  -133  -147  -200  -292  -390  -456  -475  -462  -447  -448  -459  -470  -480  -484  -448  -342  -198  -93  -57  -59  -67  -82  -125  -198  -276  -342  -395  -438  -468  -491  -511  -520  -507  -487  -477  -479  -476  -455  -405  -334  -261  -210  -183  -162  -123  -59  3  34  30  13  10  13  -2  -38  -78  -120  -176  -257  -352  -424  -455  -456  -450  -452  -463  -479  -489  -484  -461  -437  -427  -426  -422  -417  -423  -448  -490  -547  -583  -505  -262  72  435  863  1420  2118  2887  3533  3813  3588  2888  1905  875  -56  -814  -1362  -1723  -1861  -1702  -1314  -891  -591  -449  -412  -412  -420  -427  -419  -380  -315  -254  -220  -211  -205  -182  -140  -90  -49  -26  -4  43  131  246  351  416  440  456  508  621  770  902  1003  1088  1167  1257  1394  1594  1822  2016  2138  2197  2215  2219  2235  2275  2316  2309  2237  2139  2070  2036  1966  1769  1463  1159  930  772  649  525  368  184  16  -130  -276  -407  -503  -573  -634  -684  -713  -727  -739  -750  -751  -739  -722  -718  -733  -749  -744  -708  -655  -612  -596  -606  -639  -680  -710  -721  -723  -719  -697  -643  -561  -481  -452  -497  -584  -658  -697  -710  -710  -690  -639  -572  -524  -507  -496  -464  -411  -351  -289  -238  -227  -265  -322  -368  -386  -375  -356  -341  -315  -283  -274  -313  -391  -471  -524  -546  -546  -523  -475  -431  -422  -450  -483  -501  -504  -495  -478  -456  -440  -432  -429  -425  -424  -426  -420  -400  -374  -354  -344  -341  -337  -323  -292  -240  -178  -126  -96  -80  -70  -72  -97  -137  -170  -187  -199  -216  -242  -286  -350  -426  -496  -538  -543  -518  -483  -457  -450  -455  -473  -519  -598  -684  -732  -726  -694  -662  -606  -426  -44  493  1076  1634  2129  2548  2830  2860  2569  1974  1172  312  -481  -1133  -1590  -1851  -1944  -1885  -1686  -1389  -1090  -881  -744  -591  -407  -262  -197  -187  -188  -179  -160  -143  -130  -110  -68  -10  32  45  36  31  67  167  303  413  468  497  537  605  701  836  1021  1239  1434  1574  1675  1774  1882  1974  2034  2081  2151  2252  2355  2419  2427  2374  2266  2140  2039  1965  1875  1729  1531  1326  1134  926  680  426  206  43  -59  -121  -166  -219  -305  -420  -522  -584  -618  -639  -645  -646  -664  -697  -727  -740  -733  -718  -704  -684  -658  -630  -593  -548  -510  -492  -491  -500  -502  -497  -513  -557  -594  -591  -558  -540  -564  -602  -609  -574  -512  -452  -415  -402  -392  -378  -366  -374  -410  -461  -503  -528  -536  -521  -469  -386  -316  -308  -359  -424  -467  -485  -486  -482  -482  -486  -494  -503  -506  -494  -456  -403  -362  -355  -389  -457  -531  -581  -597  -579  -526  -443  -350  -269  -223  -216  -229  -230  -185  -78  53  144  160  118  53  -1  -40  -82  -157  -280  -425  -545  -609  -629  -631  -627  -610  -575  -531  -488  -454  -431  -423  -447  -519  -617  -692  -710  -673  -595  -492  -356  -170  47  289  622  1154  1908  2764  3482  3785  3500  2688  1626  602  -268  -976  -1520  -1898  -2045  -1894  -1531  -1156  -906  -777  -688  -588  -498  -433  -375  -325  -294  -264  -215  -157  -118  -102  -90  -65  -26  11  32  38  54  99  163  219  271  351  465  592  732  905  1104  1278  1387  1445  1494  1564  1668  1811  1970  2101  2181  2219  2228  2219  2208  2203  2199  2180  2117  2001  1857  1721  1600  1446  1186  806  380  33  -158  -220  -235  -273  -351  -428  -463  -473  -493  -526  -566  -611  -655  -697  -736  -765  -778  -775  -747  -691  -627  -610  -673  -781  -870  -911  -921  -916  -886  -806  -669  -514  -407  -370  -369  -377  -403  -464  -546  -607  -627  -624  -617  -615  -616  -621  -625  -615  -574  -500  -412  -332  -278  -255  -257  -271  -289  -300  -303  -303  -302  -299  -291  -288  -306  -345  -382  -402  -414  -426  -434  -424  -389  -340  -304  -299  -322  -355  -382  -397  -406  -407  -397  -382  -370  -365  -366  -369  -371  -364  -342  -311  -287  -278  -286  -313  -350  -377  -366  -303  -199  -93  -10  51  104  142  139  91  14  -94  -223  -330  -384  -398  -402  -414  -445  -491  -531  -551  -554  -548  -536  -524  -519  -528  -547  -569  -585  -575  -495  -329  -121  68  212  316  475  868  1597  2556  3437  3901  3775  3109  2130  1109  188  -633  -1339  -1860  -2095  -1977  -1603  -1173  -830  -613  -507  -471  -465  -462  -446  -411  -363  -310  -265  -237  -229  -227  -206  -146  -52  35  84  101  110  131  177  235  298  378  474  554  606  649  707  821  1043  1345  1605  1741  1791  1831  1886  1952  2032  2123  2201  2245  2255  2238  2206  2169  2118  2025  1879  1708  1539  1358  1137  890  647  398  151  -31  -116  -138  -154  -188  -231  -264  -287  -321  -381  -463  -554  -644  -722  -776  -803  -810  -803  -785  -757  -724  -695  -674  -662  -659  -657  -649  -626  -587  -552  -546  -568  -592  -602  -602  -603  -610  -612  -591  -547  -507  -489  -489  -491  -490  -486  -479  -471  -464  -457  -428  -362  -275  -213  -199  -221  -256  -288  -308  -316  -314  -309  -304  -301  -299  -299  -308  -336  -390  -459  -523  -569  -589  -574  -525  -445  -354  -292  -273  -272  -265  -248  -234  -245  -291  -355  -401  -417  -416  -412  -402  -383  -357  -330  -311  -312  -306  -251  -133  19  157  235  235  153  7  -148  -267  -344  -406  -469  -532  -579  -600  -601  -596  -598  -624  -673  -728  -762  -763  -725  -649  -554  -473  -424  -369  -239  -24  231  499  819  1287  1927  2602  3079  3144  2720  1943  1052  220  -482  -1063  -1528  -1839  -1945  -1835  -1564  -1231  -921  -693  -562  -486  -416  -346  -296  -274  -276  -288  -291  -267  -197  -92  4  62  89  105  115  125  153  211  294  380  445  502  592  727  859  946  1000  1083  1241  1454  1652  1781  1849  1911  2015  2152  2267  2321  2327  2314  2295  2273  2242  2191  2121  2040  1945  1813  1613  1320  960  618  356  186  79  -7  -106  -214  -308  -375  -413  -425  -424  -433  -473  -542  -614  -673  -716  -751  -783  -806  -820  -828  -830  -825  -821  -817  -798  -745  -670  -610  -586  -596  -629  -666  -692  -705  -701  -681  -661  -649  -642  -632  -620  -613  -604  -566  -484  -383  -316  -305  -338  -386  -426  -447  -451  -449  -445  -440  -434  -431  -437  -448  -461  -470  -480  -489  -491  -483  -467  -449  -437  -427  -413  -390  -366  -357  -372  -404  -441  -475  -498  -501  -480  -431  -363  -282  -191  -105  -47  -19  3  33  49  20  -72  -225  -402  -532  -584  -592  -597  -611  -623  -630  -643  -671  -706  -728  -727  -704  -669  -631  -596  -573  -571  -576  -529  -373  -136  110  360  691  1212  1928  2683  3241  3397  3074  2379  1516  629  -236  -1027  -1652  -2033  -2133  -1969  -1624  -1235  -927  -741  -648  -592  -529  -442  -340  -246  -186  -164  -165  -176  -193  -210  -212  -194  -160  -121  -81  -25  51  136  214  277  331  387  468  584  724  869  1020  1189  1384  1591  1775  1903  1974  2016  2051  2093  2162  2267  2384  2464  2481  2427  2303  2152  2034  1959  1884  1766  1572  1279  907  536  246  63  -36  -109  -206  -332  -452  -536  -584  -606  -616  -627  -658  -722  -800  -851  -857  -838  -821  -814  -814  -818  -824  -823  -803  -760  -706  -660  -630  -616  -606  -592  -582  -587  -621  -680  -727  -745  -757  -778  -789  -761  -675  -556  -463  -421  -406  -405  -411  -404  -377  -342  -306  -270  -241  -227  -237  -263  -287  -295  -294  -291  -288  -282  -273  -263  -254  -252  -275  -339  -425  -488  -510  -507  -496  -479  -459  -443  -437  -439  -445  -447  -433  -391  -332  -290  -288  -314  -339  -359  -386  -435  -498  -551  -575  -560  -493  -392  -301  -233  -164  -92  -32  11  47  75  89  86  60  2  -86  -189  -274  -321  -336  -340  -360  -413  -484  -540  -569  -584  -588  -582  -573  -572  -582  -593  -599  -600  -582  -516  -407  -305  -245  -183  -38  251  752  1479  2305  3042  3538  3655  3339  2699  1884  967  23  -832  -1521  -1959  -2037  -1781  -1377  -995  -705  -521  -431  -392  -367  -344  -323  -315  -320  -320  -295  -249  -196  -140  -75  0  73  130  167  190  207  229  274  342  406  449  489  580  763  995  1183  1283  1320  1341  1408  1578  1823  2032  2136  2176  2222  2286  2339  2364  2369  2358  2330  2286  2230  2157  2070  1977  1859  1648  1281  822  424  164  19  -53  -104  -178  -283  -391  -469  -504  -508  -500  -495  -502  -530  -570  -605  -622  -626  -631  -650  -686  -725  -757  -780  -799  -819  -834  -841  -831  -787  -698  -591  -515  -489  -492  -504  -526  -561  -601  -631  -648  -656  -659  -655  -639  -605  -555  -513  -510  -547  -586  -593  -547  -451  -339  -250  -202  -190  -203  -229  -271  -340  -431  -512  -562  -581  -584  -584  -584  -574  -539  -484  -435  -416  -426  -447  -463  -470  -470  -463  -445  -423  -419  -447  -495  -530  -534  -519  -501  -486  -478  -490  -534  -596  -644  -661  -640  -578  -480  -372  -281  -226  -179  -92  25  118  157  154  125  73  -8  -116  -232  -342  -435  -503  -553  -589  -608  -615  -620  -626  -628  -625  -623  -623  -626  -630  -636  -640  -624  -573  -498  -435  -400  -355  -249  -73  157  488  990  1671  2433  3107  3486  3417  2935  2189  1300  373  -494  -1227  -1748  -1996  -1946  -1643  -1232  -889  -690  -595  -542  -487  -410  -324  -265  -245  -253  -270  -287  -303  -312  -306  -271  -200  -109  -27  42  101  137  140  128  137  219  398  627  813  914  987  1108  1268  1395  1471  1545  1645  1749  1826  1881  1947  2050  2174  2269  2309  2310  2289  2247  2177  2086  1976  1827  1648  1480  1325  1131  875  581  291  46  -139  -275  -372  -442  -505  -570  -630  -668  -682  -675  -654  -633  -620  -611  -595  -575  -571  -598  -645  -686  -707  -714  -729  -772  -835  -882  -875  -799  -683  -582  -528  -503  -481  -458  -455  -479  -505  -514  -508  -499  -495  -490  -483  -475  -470  -461  -435  -383  -311  -247  -204  -176  -158  -147  -150  -181  -234  -278  -294  -289  -279  -281  -317  -399  -500  -572  -597  -588  -560  -526  -500  -487  -483  -484  -490  -506  -527  -517  -439  -313  -211  -169  -170  -181  -192  -201  -208  -207  -186  -147  -97  -50  -20  -12  -15  -22  -37  -72  -126  -197  -283  -382  -472  -528  -550  -563  -576  -588  -592  -581  -545  -496  -464  -476  -533  -607  -667  -708  -724  -659  -455  -154  140  417  762  1269  1955  2712  3274  3344  2855  2019  1082  200  -544  -1139  -1629  -2008  -2151  -1989  -1652  -1307  -1004  -754  -577  -478  -436  -418  -387  -332  -276  -242  -234  -239  -223  -157  -50  45  93  107  115  132  160  208  283  381  483  570  632  684  746  839  979  1168  1370  1537  1650  1727  1791  1869  1986  2130  2256  2332  2360  2359  2349  2337  2318  2277  2186  2039  1859  1681  1529  1395  1228  954  547  128  -137  -226  -241  -257  -279  -294  -311  -358  -443  -536  -600  -635  -666  -719  -789  -852  -897  -922  -919  -889  -847  -810  -795  -795  -768  -701  -633  -591  -564  -539  -523  -521  -534  -558  -589  -621  -632  -609  -571  -549  -557  -583  -592  -562  -511  -468  -439  -426  -422  -420  -410  -393  -376  -362  -355  -361  -384  -422  -460  -485  -493  -490  -480  -457  -436  -442  -475  -512  -525  -516  -528  -588  -664  -708  -708  -679  -633  -577  -520  -477  -450  -438  -438  -448  -460  -457  -426  -365  -262  -124  2  71  84  70  40  -2  -53  -105  -153  -207  -289  -410  -541  -639  -692  -718  -730  -724  -695  -655  -623  -611  -618  -651  -709  -768  -806  -820  -813  -758  -606  -364  -123  46  195  462  962  1710  2592  3346  3659  3397  2707  1857  1013  208  -563  -1295  -1906  -2231  -2156  -1769  -1315  -995  -827  -721  -601  -452  -304  -208  -174  -174  -179  -185  -201  -232  -266  -280  -267  -236  -202  -169  -129  -74  -2  88  204  341  476  580  651  731  869  1055  1239  1396  1530  1636  1716  1795  1881  1946  1986  2034  2118  2228  2327  2382  2401  2402  2387  2321  2182  1993  1815  1676  1540  1343  1056  724  405  138  -46  -159  -252  -349  -420  -448  -450  -455  -480  -522  -554  -553  -527  -504  -517  -576  -652  -709  -734  -732  -712  -684  -659  -644  -646  -661  -679  -686  -671  -636  -597  -569  -555  -553  -556  -566  -579  -593  -599  -586  -547  -489  -435  -397  -377  -371  -376  -384  -394  -402  -399  -360  -270  -162  -91  -81  -116  -166  -209  -249  -289  -315  -319  -316  -321  -337  -363  -384  -389  -384  -380  -376  -362  -333  -297  -268  -245  -211  -162  -117  -94  -95  -113  -140  -165  -182  -192  -201  -211  -220  -229  -232  -223  -206  -188  -177  -167  -137  -88  -51  -42  -47  -34  24  127  238  323  376  402  392  353  314  291  273  230  143  32  -51  -86  -93  -102  -119  -132  -132  -126  -118  -105  -78  -41  -3  24  25  -2  -54  -135  -236  -317  -323  -208  23  316  629  980  1476  2202  3085  3909  4371  4249  3592  2651  1664  744  -70  -753  -1256  -1495  -1412  -1075  -661  -324  -108  14  65  66  54  71  142  250  346  400  422  427  414  360  248  95  -44  -111  -85  -2  78  125  159  223  330  443  519  556  587  640  732  871  1031  1166  1276  1396  1534  1653  1735  1803  1882  1967  2025  2029  1962  1832  1670  1510  1358  1186  933  546  55  -432  -826  -1097  -1284  -1457  -1641  -1803  -1902  -1928  -1908  -1866  -1825  -1797  -1786  -1788  -1795  -1800  -1785  -1738  -1673  -1621  -1596  -1585  -1562  -1519  -1470  -1428  -1384  -1351  -1349  -1363  -1363  -1341  -1322  -1339  -1387  -1439  -1481  -1517  -1551  -1590  -1630  -1643  -1593  -1483  -1364  -1290  -1265  -1258  -1247  -1222  -1186  -1144  -1092  -1024  -948  -875  -794  -707  -642  -617  -634  -696  -791  -880  -930  -946  -957  -970  -959  -888  -775  -681  -637  -629  -632  -641  -664  -698  -727  -722  -648  -499  -327  -205  -167  -211  -326  -469  -576  -620  -626  -620  -604  -573  -535  -503  -486  -479  -471  -448  -407  -365  -338  -325  -321  -321  -309  -251  -104  118  329  447  475  465  455  455  456  445  421  393  372  361  355  349  338  323  312  303  286  254  213  172  137  105  75  59  66  101  146  174  173  160  203  407  794  1270  1786  2377  3037  3697  4195  4297  3877  3022  1963  942  108  -515  -1003  -1362  -1483  -1330  -1030  -738  -549  -465  -434  -420  -410  -384  -324  -233  -133  -41  42  117  175  209  218  217  221  241  271  299  334  384  441  487  532  594  675  760  848  959  1098  1232  1343  1457  1599  1740  1846  1915  1965  2024  2105  2181  2218  2223  2237  2268  2299  2317  2315  2266  2110  1822  1456  1105  826  602  417  284  174  23  -170  -341  -442  -493  -536  -578  -605  -615  -614  -617  -640  -688  -750  -812  -864  -902  -931  -952  -961  -948  -909  -858  -815  -779  -741  -707  -684  -682  -703  -710  -654  -526  -379  -280  -243  -246  -285  -373  -490  -584  -626  -633  -631  -624  -599  -549  -482  -411  -351  -308  -287  -298  -345  -402  -441  -449  -436  -407  -375  -355  -364  -411  -479  -534  -560  -559  -537  -498  -453  -422  -413  -415  -411  -382  -326  -260  -206  -166  -131  -90  -43  -5  3  -24  -90  -190  -315  -436  -520  -558  -564  -533  -456  -354  -280  -255  -256  -261  -264  -271  -288  -318  -355  -379  -377  -355  -314  -214  -28  170  312  464  783  1375  2166  2923  3437  3570  3262  2602  1761  857  -20  -745  -1199  -1387  -1392  -1242  -964  -663  -431  -275  -170  -94  -22  58  132  177  190  194  208  241  304  398  513  637  759  862  929  972  1011  1052  1097  1151  1208  1262  1329  1422  1527  1634  1759  1917  2088  2238  2342  2417  2514  2674  2875  3040  3119  3132  3123  3114  3105  3095  3082  3067  3053  3019  2892  2611  2216  1818  1489  1232  1017  822  635  440  250  113  46  7  -55  -146  -229  -281  -316  -358  -411  -454  -479  -494  -509  -536  -598  -702  -832  -964  -1088  -1215  -1366  -1539  -1689  -1771  -1790  -1784  -1778  -1776  -1772  -1757  -1726  -1684  -1650  -1645  -1664  -1687  -1705  -1723  -1751  -1787  -1819  -1850  -1891  -1941  -2001  -2083  -2173  -2238  -2263  -2267  -2265  -2243  -2169  -2029  -1840  -1641  -1473  -1348  -1250  -1170  -1119  -1085  -1040  -977  -918  -882  -864  -855  -851  -874  -953  -1084  -1219  -1318  -1380  -1410  -1417  -1414  -1408  -1395  -1367  -1313  -1218  -1067  -878  -712  -609  -558  -532  -511  -489  -467  -443  -421  -407  -400  -393  -391  -401  -412  -414  -404  -388  -373  -363  -366  -403  -485  -598  -719  -830  -871  -767  -526  -244  19  314  744  1403  2263  3102  3605  3561  2988  2091  1152  368  -268  -862  -1419  -1823  -1940  -1742  -1353  -959  -696  -583  -556  -557  -551  -499  -377  -219  -93  -36  -34  -57  -78  -81  -49  15  86  143  189  224  242  239  228  248  341  511  707  864  955  1013  1109  1294  1532  1734  1849  1910  1973  2074  2220  2373  2473  2512  2521  2524  2525  2528  2525  2479  2342  2127  1895  1679  1492  1329  1146  896  591  286  37  -121  -192  -210  -211  -216  -238  -283  -345  -415  -487  -560  -615  -631  -596  -522  -440  -378  -348  -350  -383  -438  -496  -540  -566  -575  -574  -571  -571  -580  -592  -603  -609  -611  -610  -607  -598  -580  -549  -505  -447  -385  -335  -305  -296  -315  -352  -384  -397  -397  -389  -373  -351  -332  -321  -315  -307  -295  -278  -250  -212  -171  -135  -117  -139  -217  -324  -402  -425  -415  -397  -382  -368  -350  -331  -319  -314  -315  -319  -326  -331  -314  -250  -147  -41  37  90  122  148  171  161  82  -76  -272  -438  -529  -557  -556  -549  -544  -543  -543  -544  -546  -554  -565  -574  -577  -577  -578  -586  -592  -571  -491  -348  -188  -64  36  214  583  1182  1928  2657  3159  3262  2932  2273  1443  552  -356  -1181  -1785  -2104  -2106  -1833  -1458  -1160  -997  -907  -807  -673  -536  -423  -346  -316  -329  -351  -360  -360  -351  -317  -260  -208  -178  -172  -179  -187  -164  -78  62  203  313  420  558  710  832  917  994  1096  1238  1411  1589  1738  1841  1903  1959  2049  2172  2283  2352  2387  2403  2414  2424  2427  2392  2279  2082  1831  1534  1193  871  650  524  402  224  28  -113  -176  -191  -197  -211  -225  -239  -260  -288  -312  -326  -337  -351  -376  -421  -496  -591  -678  -736  -762  -772  -785  -803  -817  -805  -754  -663  -552  -450  -377  -343  -349  -381  -411  -420  -412  -402  -399  -403  -435  -510  -593  -630  -605  -540  -472  -415  -355  -287  -237  -216  -210  -203  -195  -189  -187  -204  -256  -329  -389  -414  -415  -407  -401  -398  -395  -393  -392  -394  -395  -391  -386  -381  -372  -357  -335  -312  -293  -282  -272  -261  -252  -255  -278  -315  -349  -363  -342  -272  -170  -82  -41  -39  -47  -49  -47  -54  -82  -141  -219  -311  -431  -564  -654  -680  -673  -662  -661  -684  -726  -770  -803  -818  -818  -805  -774  -713  -634  -546  -403  -155  141  398  653  1017  1523  2119  2660  2898  2646  1955  1048  149  -624  -1227  -1655  -1937  -2072  -2024  -1823  -1567  -1323  -1093  -854  -630  -477  -402  -363  -333  -304  -264  -218  -185  -175  -178  -182  -179  -158  -113  -54  3  54  101  146  213  320  464  621  768  897  1008  1106  1206  1334  1494  1641  1726  1756  1791  1864  1960  2046  2105  2135  2150  2174  2212  2243  2234  2161  2034  1894  1762  1622  1465  1298  1130  957  750  483  174  -116  -331  -446  -483  -493  -507  -527  -549  -567  -581  -587  -586  -580  -575  -583  -617  -667  -709  -729  -743  -766  -792  -799  -777  -733  -680  -619  -554  -501  -476  -473  -481  -494  -510  -522  -524  -520  -508  -480  -425  -363  -331  -336  -360  -395  -433  -459  -464  -443  -396  -330  -259  -199  -154  -125  -127  -180  -275  -377  -436  -417  -344  -269  -216  -188  -193  -236  -311  -397  -474  -530  -565  -583  -586  -565  -509  -434  -376  -348  -339  -332  -323  -313  -303  -297  -296  -301  -315  -334  -350  -365  -387  -417  -451  -481  -492  -475  -439  -387  -304  -179  -38  71  127  144  139  123  96  51  -14  -83  -145  -212  -285  -352  -404  -448  -489  -535  -583  -618  -632  -628  -604  -564  -521  -495  -499  -542  -616  -686  -676  -493  -158  168  384  563  864  1410  2197  3007  3497  3468  2992  2241  1354  454  -397  -1177  -1769  -2016  -1894  -1556  -1187  -891  -693  -582  -531  -508  -481  -436  -387  -360  -360  -373  -377  -348  -271  -169  -94  -69  -71  -81  -87  -70  -4  106  221  301  343  370  429  562  767  982  1153  1295  1440  1574  1675  1759  1848  1952  2076  2197  2276  2301  2298  2291  2281  2256  2196  2097  1982  1889  1826  1762  1650  1470  1234  959  674  436  281  170  42  -120  -280  -398  -483  -566  -657  -718  -696  -606  -524  -487  -475  -472  -484  -515  -554  -586  -610  -643  -702  -764  -782  -744  -691  -656  -643  -644  -650  -655  -645  -603  -535  -467  -421  -398  -391  -392  -408  -447  -490  -508  -494  -464  -443  -439  -443  -436  -396  -325  -252  -206  -189  -185  -183  -183  -190  -206  -236  -294  -390  -482  -512  -496  -491  -498  -501  -502  -507  -516  -527  -533  -526  -498  -454  -413  -389  -382  -381  -380  -374  -349  -298  -240  -228  -293  -404  -492  -529  -534  -534  -540  -546  -541  -511  -457  -399  -363  -354  -357  -359  -352  -331  -292  -244  -201  -169  -159  -178  -212  -239  -234  -183  -98  -20  14  8  -16  -45  -79  -127  -191  -268  -345  -404  -425  -405  -361  -317  -288  -273  -264  -262  -292  -375  -488  -567  -584  -572  -564  -565  -569  -578  -586  -554  -435  -217  102  543  1114  1819  2610  3309  3683  3597  3074  2260  1358  534  -179  -821  -1380  -1776  -1915  -1767  -1412  -985  -617  -407  -354  -373  -398  -412  -420  -418  -395  -335  -240  -121  7  110  156  147  111  74  45  34  49  101  190  308  431  536  629  727  817  887  962  1096  1296  1492  1629  1727  1839  1971  2084  2157  2207  2252  2284  2290  2276  2262  2252  2231  2181  2097  1963  1752  1473  1184  932  729  560  390  212  58  -42  -93  -120  -164  -255  -383  -501  -576  -610  -627  -639  -642  -633  -613  -595  -594  -616  -656  -699  -740  -777  -797  -789  -757  -715  -683  -671  -672  -665  -637  -598  -566  -551  -542  -524  -500  -491  -511  -552  -593  -620  -626  -595  -519  -418  -334  -294  -298  -334  -383  -424  -447  -449  -419  -351  -275  -242  -258  -299  -350  -389  -404  -406  -410  -419  -435  -455  -474  -488  -498  -501  -490  -452  -396  -348  -326  -323  -327  -331  -341  -355  -361  -352  -345  -361  -392  -408  -396  -372  -360  -356  -332  -274  -219  -216  -267  -324  -358  -373  -382  -395  -410  -420  -425  -426  -420  -397  -358  -313  -273  -249  -236  -228  -231  -246  -266  -280  -285  -278  -239  -145  -15  92  146  157  132  68  -16  -89  -140  -182  -229  -287  -349  -402  -430  -430  -406  -369  -328  -288  -268  -282  -327  -394  -468  -521  -542  -544  -542  -530  -497  -425  -293  -114  89  364  770  1307  1938  2555  2972  3048  2759  2187  1449  626  -212  -958  -1505  -1814  -1872  -1678  -1315  -940  -672  -542  -502  -478  -442  -410  -393  -376  -339  -276  -200  -141  -108  -80  -34  20  57  75  98  141  189  219  239  303  455  659  812  866  868  897  993  1144  1302  1432  1529  1613  1698  1777  1848  1936  2060  2191  2290  2357  2403  2398  2309  2167  2048  1984  1919  1766  1523  1287  1135  1056  993  891  698  399  76  -144  -234  -268  -317  -383  -434  -464  -495  -545  -616  -694  -738  -733  -702  -670  -667  -693  -715  -717  -712  -707  -706  -710  -723  -739  -750  -754  -754  -750  -731  -693  -651  -613  -567  -517  -476  -450  -442  -454  -473  -477  -461  -430  -401  -383  -378  -379  -388  -407  -433  -451  -438  -373  -268  -173  -127  -126  -148  -177  -207  -241  -273  -283  -280  -288  -313  -353  -414  -485  -542  -572  -576  -564  -547  -522  -500  -489  -483  -477  -477  -495  -530  -559  -565  -559  -546  -511  -461  -423  -406  -396  -381  -367  -361  -362  -367  -375  -386  -404  -426  -445  -441  -409  -360  -308  -264  -235  -220  -211  -202  -185  -162  -139  -124  -122  -131  -152  -188  -238  -289  -340  -386  -412  -408  -393  -391  -415  -458  -499  -522  -531  -544  -576  -626  -674  -683  -630  -526  -401  -266  -125  18  208  524  1018  1684  2434  3073  3383  3268  2805  2126  1327  477  -355  -1110  -1712  -2038  -2008  -1676  -1181  -705  -422  -351  -380  -418  -438  -442  -429  -390  -326  -249  -185  -152  -157  -186  -202  -166  -74  33  106  127  120  106  96  110  187  346  552  757  943  1096  1210  1325  1480  1658  1801  1889  1958  2047  2148  2227  2265  2271  2264  2255  2249  2240  2220  2187  2147  2097  2017  1868  1613  1261  899  630  485  411  346  257  133  -36  -236  -405  -495  -522  -538  -577  -630  -670  -684  -678  -669  -661  -652  -641  -633  -631  -638  -648  -656  -659  -653  -636  -614  -609  -639  -695  -748  -775  -763  -711  -635  -564  -508  -470  -464  -480  -469  -418  -369  -359  -385  -417  -423  -389  -318  -230  -157  -120  -114  -122  -136  -152  -164  -167  -156  -128  -84  -40  -24  -47  -89  -125  -152  -183  -210  -222  -225  -228  -230  -228  -228  -244  -280  -316  -317  -282  -242  -218  -208  -205  -214  -246  -294  -335  -358  -368  -367  -360  -350  -349  -365  -393  -413  -411  -389  -363  -327  -274  -215  -175  -160  -157  -156  -151  -151  -162  -182  -201  -217  -228  -230  -227  -234  -264  -305  -325  -308  -278  -263  -250  -220  -186  -166  -154  -139  -123  -115  -117  -127  -142  -155  -172  -197  -222  -227  -194  -119  -24  59  129  185  206  171  102  35  -18  -77  -154  -237  -302  -336  -334  -293  -239  -212  -224  -262  -299  -324  -341  -359  -378  -399  -416  -423  -419  -408  -391  -376  -371  -348  -226  77  606  1344  2194  2993  3549  3713  3426  2752  1858  917  31  -714  -1262  -1601  -1709  -1582  -1301  -1018  -842  -777  -745  -673  -532  -342  -170  -92  -120  -194  -245  -256  -244  -218  -177  -125  -71  -32  -14  9  67  156  242  327  428  529  602  661  754  883  1025  1178  1332  1445  1502  1532  1574  1656  1771  1880  1964  2032  2086  2116  2120  2110  2093  2059  2001  1931  1872  1828  1763  1623  1398  1131  860  587  323  109  -24  -104  -180  -284  -406  -511  -581  -613  -620  -619  -626  -649  -682  -713  -737  -751  -750  -734  -720  -713  -714  -717  -715  -696  -654  -604  -571  -561  -563  -569  -579  -591  -600  -603  -600  -593  -585  -574  -545  -491  -427  -382  -365  -365  -368  -371  -370  -359  -341  -317  -291  -264  -243  -232  -230  -234  -247  -274  -307  -333  -349  -370  -397  -417  -422  -417  -408  -395  -377  -345  -300  -266  -270  -317  -375  -413  -426  -422  -408  -392  -379  -373  -372  -377  -387  -398  -405  -414  -433  -459  -480  -490  -495  -496  -483  -445  -391  -347  -325  -317  -318  -330  -355  -385  -394  -353  -254  -132  -42  -3  3  9  26  51  71  70  27  -62  -177  -284  -367  -424  -461  -488  -516  -546  -570  -581  -585  -591  -604  -623  -644  -665  -681  -683  -660  -612  -561  -519  -461  -339  -148  80  359  732  1231  1854  2510  3001  3140  2865  2253  1456  614  -206  -947  -1506  -1825  -1923  -1814  -1532  -1182  -873  -653  -529  -478  -464  -452  -421  -366  -300  -236  -185  -151  -129  -109  -82  -48  -7  40  89  131  163  195  235  295  370  438  484  529  605  720  862  1027  1223  1443  1672  1886  2046  2130  2158  2166  2180  2203  2229  2251  2258  2247  2229  2210  2182  2117  1987  1793  1587  1423  1281  1101  877  671  512  357  165  -38  -212  -349  -447  -519  -575  -618  -649  -669  -684  -696  -708  -712  -703  -681  -660  -660  -692  -738  -762  -745  -705  -668  -635  -603  -581  -580  -600  -628  -648  -656  -655  -647  -624  -583  -533  -497  -475  -450  -417  -390  -379  -383  -399  -424  -443  -450  -451  -451  -446  -429  -394  -340  -263  -196  -189  -238  -295  -330  -346  -348  -345  -344  -350  -367  -401  -448  -493  -528  -552  -559  -533  -481  -430  -399  -386  -378  -374  -374  -381  -392  -401  -406  -406  -402  -390  -364  -321  -271  -233  -205  -170  -120  -58  -10  -1  -30  -76  -130  -200  -298  -401  -478  -529  -580  -636  -674  -685  -683  -677  -660  -621  -571  -534  -522  -527  -540  -553  -548  -510  -443  -365  -275  -145  56  372  861  1533  2284  2920  3211  3023  2434  1631  771  -43  -763  -1360  -1768  -1905  -1786  -1532  -1255  -1009  -819  -711  -681  -683  -652  -551  -405  -282  -212  -171  -141  -114  -92  -72  -56  -50  -56  -59  -45  -16  31  110  222  339  428  491  552  662  870  1127  1309  1386  1453  1583  1745  1866  1950  2046  2162  2268  2348  2402  2430  2431  2404  2345  2274  2220  2185  2123  1982  1771  1548  1344  1129  872  601  365  181  36  -78  -179  -280  -377  -453  -500  -524  -537  -547  -560  -579  -594  -597  -592  -588  -588  -589  -591  -599  -618  -641  -656  -660  -658  -654  -651  -652  -649  -626  -589  -569  -574  -585  -583  -555  -502  -442  -400  -386  -396  -418  -441  -454  -447  -427  -405  -380  -351  -325  -302  -287  -280  -272  -255  -231  -213  -202  -187  -163  -139  -135  -152  -183  -223  -270  -315  -347  -364  -380  -399  -414  -415  -403  -386  -369  -353  -342  -336  -333  -332  -341  -370  -410  -442  -456  -458  -456  -454  -456  -463  -465  -448  -412  -373  -353  -365  -404  -456  -509  -549  -571  -580  -576  -549  -493  -415  -337  -282  -248  -217  -188  -170  -165  -168  -170  -163  -143  -116  -96  -89  -89  -89  -87  -92  -118  -183  -288  -407  -497  -539  -548  -542  -522  -481  -426  -377  -351  -365  -432  -524  -587  -598  -568  -527  -502  -496  -491  -446  -342  -209  -51  241  759  1440  2162  2823  3278  3364  3064  2490  1736  869  -24  -848  -1507  -1890  -1923  -1674  -1321  -1011  -816  -719  -643  -540  -430  -351  -293  -215  -112  -31  -15  -49  -87  -106  -113  -117  -110  -76  -11  73  154  211  243  271  313  397  543  734  908  1031  1145  1306  1495  1638  1702  1730  1794  1923  2073  2175  2217  2228  2233  2245  2277  2322  2360  2369  2325  2207  2012  1780  1562  1382  1231  1080  901  698  495  294  107  -29  -109  -155  -192  -234  -285  -335  -380  -439  -527  -629  -719  -784  -817  -818  -796  -766  -741  -722  -704  -689  -680  -677  -677  -673  -661  -641  -617  -602  -598  -602  -605  -606  -609  -624  -658  -705  -747  -761  -734  -681  -634  -611  -598  -577  -538  -484  -420  -361  -323  -312  -312  -316  -327  -346  -366  -376  -374  -367  -366  -371  -381  -400  -436  -489  -540  -571  -582  -582  -579  -578  -578  -578  -578  -577  -576  -580  -591  -608  -623  -632  -636  -638  -641  -638  -619  -585  -573  -602  -625  -586  -498  -412  -350  -299  -267  -269  -289  -306  -315  -329  -347  -358  -350  -318  -270  -221  -178  -138  -98  -59  -29  -13  -12  -18  -25  -35  -65  -121  -195  -276  -356  -423  -467  -499  -534  -550  -524  -474  -432  -411  -407  -410  -417  -431  -455  -485  -521  -547  -502  -320  -17  344  756  1236  1805  2456  3066  3411  3336  2842  2048  1140  281  -476  -1107  -1548  -1757  -1720  -1469  -1125  -842  -697  -659  -648  -598  -479  -325  -199  -130  -96  -73  -57  -44  -20  17  48  45  20  17  54  108  155  193  243  336  470  619  768  921  1077  1219  1338  1432  1504  1571  1653  1757  1877  2018  2170  2291  2354  2372  2371  2368  2382  2430  2497  2532  2468  2282  2030  1808  1641  1464  1219  939  672  426  209  61  -8  -41  -90  -182  -291  -370  -406  -430  -480  -571  -674  -744  -773  -786  -806  -832  -850  -846  -811  -757  -707  -678  -670  -672  -675  -677  -671  -651  -627  -615  -621  -634  -645  -656  -672  -692  -708  -720  -731  -739  -727  -675  -584  -484  -415  -383  -371  -362  -352  -337  -309  -266  -216  -175  -150  -142  -159  -221  -323  -417  -456  -432  -379  -333  -312  -318  -355  -415  -473  -510  -525  -515  -474  -415  -368  -341  -329  -324  -324  -322  -300  -247  -181  -132  -119  -150  -230  -338  -432  -486  -504  -499  -488  -489  -511  -555  -610  -662  -695  -697  -668  -617  -555  -483  -412  -366  -352  -358  -369  -382  -390  -389  -374  -347  -316  -284  -230  -139  -43  4  -17  -87  -170  -243  -305  -356  -398  -429  -453  -485  -534  -582  -608  -608  -596  -593  -606  -618  -614  -602  -608  -630  -632  -580  -468  -325  -181  -34  122  282  491  867  1480  2257  2987  3397  3318  2809  2076  1307  556  -226  -1033  -1718  -2072  -1989  -1594  -1152  -847  -717  -699  -678  -602  -518  -472  -453  -427  -360  -229  -71  40  77  61  18  -33  -70  -67  -7  104  231  329  382  398  394  390  413  509  710  980  1243  1447  1568  1616  1646  1718  1838  1967  2081  2189  2295  2377  2419  2435  2444  2450  2453  2450  2416  2306  2116  1904  1721  1536  1274  940  638  438  311  190  28  -157  -309  -395  -426  -425  -407  -383  -371  -404  -500  -626  -717  -740  -724  -712  -724  -743  -749  -749  -761  -781  -795  -790  -756  -693  -618  -550  -501  -476  -475  -490  -510  -525  -535  -543  -547  -540  -524  -506  -495  -493  -504  -532  -572  -599  -590  -538  -466  -405  -351  -280  -199  -129  -75  -30  0  6  -21  -81  -159  -236  -304  -361  -403  -428  -435  -422  -393  -367  -364  -383  -404  -418  -424  -427  -424  -407  -380  -358  -349  -354  -360  -363  -360  -357  -364  -385  -414  -434  -440  -436  -430  -424  -418  -416  -426  -449  -463  -437  -373  -295  -215  -137  -81  -48  -20  15  50  65  48  13  -14  -25  -32  -67  -149  -261  -367  -442  -482  -497  -508  -523  -534  -539  -542  -548  -559  -572  -587  -591  -576  -550  -528  -510  -483  -418  -287  -101  116  411  850  1433  2089  2718  3185  3328  3073  2493  1710  832  -39  -824  -1463  -1905  -2072  -1905  -1499  -1076  -797  -673  -621  -566  -491  -418  -363  -336  -332  -342  -354  -352  -322  -247  -107  64  186  220  200  168  144  128  115  120  179  317  502  678  823  948  1079  1230  1384  1502  1569  1615  1690  1809  1938  2032  2090  2160  2250  2326  2367  2386  2380  2310  2158  1975  1850  1796  1721  1550  1329  1146  985  769  508  282  108  -57  -219  -327  -369  -402  -488  -622  -737  -791  -797  -787  -780  -780  -781  -773  -756  -740  -739  -755  -779  -800  -815  -831  -846  -840  -795  -713  -640  -615  -628  -651  -680  -711  -724  -713  -695  -686  -688  -686  -672  -647  -618  -596  -589  -584  -558  -517  -484  -468  -462  -455  -448  -446  -446  -445  -445  -452  -466  -477  -468  -457  -470  -497  -516  -520  -516  -512  -515  -521  -527  -529  -528  -523  -508  -484  -456  -431  -411  -381  -333  -273  -216  -162  -114  -87  -91  -115  -146  -197  -298  -441  -563  -625  -650  -678  -726  -787  -845  -879  -871  -819  -747  -694  -675  -680  -695  -717  -740  -746  -689  -535  -317  -85  185  564  1087  1712  2307  2694  2767  2513  1973  1232  386  -512  -1370  -1994  -2260  -2198  -1902  -1528  -1254  -1109  -992  -848  -701  -589  -520  -475  -432  -385  -349  -325  -294  -247  -186  -109  -15  78  149  185  192  190  208  274  387  515  624  692  723  751  818  940  1110  1320  1536  1706  1819  1899  1977  2072  2182  2283  2370  2464  2563  2634  2649  2607  2513  2369  2184  1968  1738  1528  1365  1222  1048  823  564  310  96  -79  -247  -405  -524  -599  -640  -657  -658  -654  -654  -665  -681  -695  -706  -717  -736  -762  -787  -798  -789  -766  -732  -688  -639  -606  -606  -640  -696  -751  -781  -767  -715  -653  -605  -577  -560  -549  -545  -558  -583  -600  -598  -585  -574  -560  -521  -462  -414  -388  -365  -338  -329  -346  -372  -385  -388  -397  -411  -418  -424  -449  -500  -550  -580  -594  -595  -578  -530  -466  -419  -402  -402  -405  -405  -405  -416  -441  -465  -464  -443  -427  -425  -436  -456  -478  -494  -508  -517  -516  -500  -465  -405  -334  -271  -217  -161  -100  -45  -21  -42  -96  -165  -243  -319  -383  -444  -524  -621  -707  -755  -767  -762  -755  -746  -734  -723  -720  -728  -743  -759  -771  -784  -792  -748  -599  -364  -99  180  535  1061  1798  2631  3311  3569  3282  2566  1647  694  -190  -957  -1610  -2114  -2338  -2217  -1841  -1375  -991  -795  -746  -731  -680  -599  -528  -484  -456  -433  -420  -422  -431  -433  -414  -378  -342  -318  -296  -251  -167  -52  61  152  224  289  354  431  541  700  891  1067  1206  1333  1482  1640  1765  1844  1908  1969  2026  2080  2135  2185  2222  2244  2257  2266  2255  2172  1977  1723  1506  1341  1169  960  727  478  234  28  -122  -231  -320  -398  -452  -477  -478  -463  -444  -431  -433  -458  -506  -559  -598  -616  -619  -617  -609  -587  -547  -488  -416  -360  -360  -407  -450  -458  -440  -414  -390  -368  -344  -322  -307  -298  -291  -277  -246  -197  -145  -115  -104  -88  -66  -44  -7  52  124  186  229  256  266  242  177  84]
