reading_id,reading_time,wire_id,result_classification,heart_rate,heart_rate_alert,firmware_version,device_app_version,hardware_version,waveform_samples
0c26a990-5f31-11ed-8080-808080808080,Tue Nov 08 06:46:18 UTC 2022,a10163b41b39,UNCLASSIFIABLE,76,NONE,20001.171.50,2.10.0,Charge 5,[-409  -488  -546  -557  -512  -440  -387  -423  -737  -1543  -2779  -4194  -5654  -6972  -7849  -8261  -8479  -8672  -8797  -8820  -8845  -9062  -9569  -10188  -10611  -10745  -10726  -10683  -10644  -10574  -10445  -10291  -10194  -10179  -10216  -10351  -10734  -11379  -12034  -12436  -12571  -12532  -12300  -11787  -11053  -10335  -9792  -9358  -8952  -8660  -8615  -8802  -8668  -6677  -726  9829  22279  32229  32767  32767  32767  32767  32767  32767  32767  17778  -1542  -17662  -25787  -24728  -17612  -10079  -5005  -1881  -251  45  -313  -771  -1113  -1321  -1459  -1548  -1524  -1312  -913  -406  131  664  1128  1465  1728  2039  2426  2733  2733  2423  2016  1650  1331  1010  626  191  -198  -490  -709  -865  -902  -706  -244  310  765  1108  1407  1764  2233  2628  2666  2269  1642  1080  645  224  -147  -332  -258  105  916  2373  4098  5119  5062  4549  4216  4120  4014  3790  3625  3650  3755  3878  3980  3893  3629  3394  3275  3234  3191  3079  2904  2753  2705  2758  2805  2621  2003  1086  297  -70  20  439  906  1165  1163  996  810  723  718  677  571  534  692  992  1258  1360  1313  1219  1144  1087  1058  1072  1118  1177  1210  1191  1110  882  508  240  286  592  957  1189  1218  1109  939  736  528  375  301  278  277  326  453  610  712  733  720  710  693  659  631  662  787  968  1095  1071  880  622  437  352  273  141  -10  -120  -132  -47  14  -163  -674  -1200  -1244  -812  -388  -210  -19  489  1170  1521  1334  952  780  891  1050  900  386  -150  -449  -544  -570  -595  -532  -236  194  378  38  -747  -1580  -2006  -1926  -1626  -1390  -1255  -1113  -922  -761  -782  -1018  -1155  -935  -637  -673  -935  -832  -65  929  1592  1829  1857  1881  1911  1702  945  -298  -1482  -2077  -2076  -1836  -1521  -1008  -333  187  321  95  -327  -783  -1160  -1388  -1467  -1419  -1234  -948  -687  -547  -514  -516  -498  -418  -221  106  391  364  98  -61  -7  146  311  495  925  1698  2422  2748  2778  2737  2717  2724  2726  2683  2576  2471  2496  2712  3052  3398  3535  2983  1338  -892  -1687  2081  11387  22448  30495  32767  32767  32767  32767  32767  32371  19070  528  -16532  -26249  -26872  -21107  -13901  -8742  -6693  -7111  -8171  -8538  -8324  -8073  -7954  -7893  -7840  -7803  -7748  -7618  -7436  -7259  -7057  -6811  -6602  -6458  -6297  -6047  -5696  -5273  -4853  -4546  -4401  -4358  -4329  -4286  -4242  -4215  -4239  -4308  -4372  -4399  -4406  -4419  -4458  -4528  -4584  -4547  -4379  -4090  -3724  -3394  -3211  -3171  -3191  -3214  -3242  -3283  -3310  -3275  -3177  -3080  -3025  -2969  -2897  -2859  -2877  -2905  -2868  -2719  -2483  -2242  -2021  -1748  -1421  -1193  -1249  -1646  -2214  -2680  -2927  -2968  -2773  -2345  -1848  -1508  -1374  -1343  -1381  -1535  -1765  -1931  -1992  -2077  -2360  -2874  -3437  -3862  -4202  -4530  -4215  -1570  4908  14318  23239  28692  29592  24596  12533  -3047  -14963  -19588  -18358  -13767  -8325  -4631  -3513  -3885  -4415  -3869  -426  7522  18924  30106  32767  32767  32767  32767  32767  32767  32767  32767  32767  32767  28559  14686  -3723  -20314  -29098  -27921  -19981  -11789  -7440  -6422  -6639  -6732  -6400  -6011  -5824  -5767  -5668  -5332  -4677  -3873  -3163  -2650  -2358  -2282  -2387  -2589  -2771  -2971  -3308  -3685  -3987  -4288  -4561  -4559  -4101  -3330  -2451  -1347  35  1056  839  -511  -1861  -2449  -2483  -2395  -2314  -2139  -1855  -1674  -1637  -1480  -1127  -699  -187  377  795  851  552  107  -498  -1488  -2664  -3367  -3115  -2219  -1550  -1450  -1443  -1050  -558  -976  -2702  -4740  -5977  -6268  -5902  -4978  -3629  -2224  -1136  -527  -333  -438  -842  -1553  -2397  -3109  -3515  -3615  -3533  -3420  -3368  -3364  -3381  -3459  -3591  -3645  -3471  -3072  -2613  -2220  -1886  -1651  -1569  -1554  -1558  -1592  -1581  -1500  -1424  -1407  -1487  -1636  -1763  -1850  -1921  -1964  -1943  -1800  -1504  -1134  -868  -834  -975  -1128  -1212  -1273  -1385  -1537  -1631  -1598  -1482  -1410  -1343  -1041  -487  10  251  310  317  307  265  197  124  52  -3  7  173  527  932  1191  1263  1257  1275  1306  1201  820  325  51  57  154  229  266  214  -30  -484  -965  -1251  -1284  -1152  -980  -865  -819  -768  -657  -512  -371  -224  -78  50  223  546  1088  1863  2761  3499  3787  3519  2787  1882  1170  812  653  419  26  -389  -682  -773  -593  -134  444  891  1049  954  757  597  534  553  601  650  706  751  736  635  486  365  299  271  306  503  917  1389  1623  1475  1092  729  505  415  480  774  1308  1911  2332  2511  2593  2716  2938  3238  3522  3697  3751  3723  3645  3554  3501  3508  3527  3451  3189  2790  2374  1958  1529  1122  709  249  -182  -497  -747  -1022  -1261  -1402  -1547  -1806  -2045  -1949  -1393  -567  219  712  806  490  -205  -1046  -1622  -1717  -1508  -1343  -1411  -1656  -1931  -2155  -2293  -2256  -1870  -1085  -196  420  706  801  720  375  -271  -1175  -2102  -2692  -2753  -2367  -1786  -1308  -1076  -1026  -1048  -1085  -1128  -1141  -1008  -621  -91  318  502  531  456  302  135  13  -104  -312  -628  -955  -1177  -1246  -1176  -1017  -822  -626  -448  -289  -131  -19  -29  -132  -259  -405  -543  -623  -659  -692  -752  -847  -943  -972  -912  -785  -591  -345  -134  -20  27  61  100  128  111  24  -106  -223  -288  -318  -343  -374  -404  -406  -405  -499  -749  -1077  -1353  -1508  -1553  -1533  -1499  -1469  -1419  -1318  -1169  -1008  -836  -554  -31  690  1405  2018  2544  2945  3112  2827  1892  556  -639  -1554  -2369  -3059  -3475  -3618  -3583  -3415  -3125  -2770  -2445  -2227  -2116  -2053  -2014  -2000  -1993  -1987  -1968  -1872  -1648  -1371  -1188  -1163  -1232  -1288  -1278  -1226  -1130  -906  -494  16  430  640  697  686  637  613  820  1442  2296  2920  3096  2974  2779  2642  2585  2583  2622  2700  2796  2884  2962  3027  3070  3103  3148  3160  2959  2359  1485  722  243  -70  -303  -409  -370  -266  -208  -305  -624  -1069  -1434  -1644  -1791  -2071  -2451  -1863  1917  10093  20356  28527  32654  32767  32767  32767  32767  32431  22847  6688  -10818  -23658  -28621  -25395  -15277  -233  15689  26100  26182  15451  -1463  -15844  -21141  -18139  -12269  -8260  -7264  -7455  -7351  -7034  -6676  -6137  -5425  -4781  -4473  -4487  -4598  -4701  -4877  -5216  -5677  -6041  -5985  -5412  -4662  -4179  -4055  -4097  -4153  -4207  -4272  -4279  -4117  -3788  -3410  -3085  -2862  -2727  -2666  -2756  -3028  -3364  -3628  -3760  -3777  -3744  -3720  -3750  -3866  -4036  -4157  -4114  -3851  -3449  -3082  -2851  -2745  -2704  -2682  -2644  -2572  -2483  -2374  -2233  -2127  -2122  -2169  -2188  -2166  -2150  -2165  -2147  -1957  -1515  -897  -198  580  1370  1975  2242  2106  1567  830  241  -58  -203  -377  -606  -745  -641  -281  168  497  689  862  958  777  354  -10  -138  -127  -99  -13  261  768  1384  1900  2195  2344  2493  2665  2777  2757  2595  2353  2085  1757  1375  1076  992  1166  1578  2124  2688  3177  3495  3641  3707  3731  3710  3687  3712  3805  3980  4211  4383  4310  3943  3462  3058  2719  2339  1911  1504  1176  969  897  916  961  999  1014  894  478  -164  -715  -931  -761  -247  468  1198  1804  2157  2155  1791  1166  395  -410  -1011  -1186  -939  -511  -346  -602  -856  -817  -664  -593  -709  -1197  -1974  -2348  -1869  -1047  -534  -481  -802  -1224  -1457  -1500  -1491  -1450  -1234  -719  -72  330  329  123  -6  30  112  126  95  89  102  73  -1  -61  -84  -97  -92  -48  -11  -76  -238  -315  -194  -49  -95  -292  -464  -546  -596  -665  -754  -856  -958  -1054  -1048  -708  -88  345  308  -218  -1156  -2078  -2495  -2335  -1828  -1292  -921  -683  -526  -451  -450  -493  -503  -403  -225  -91  -50  -25  100  304  347  107  -98  137  931  2374  4777  8141  11690  14374  15469  14656  12150  8818  5802  3976  3592  4032  4219  3602  2516  1594  1097  890  808  753  554  16  -771  -1450  -1885  -2414  -3520  -5313  -7285  -8753  -9495  -9697  -9497  -8864  -7901  -6921  -6152  -5649  -5406  -5361  -5411  -5486  -5567  -5692  -5912  -6179  -6334  -6288  -6112  -5817  -5158  -3960  -2605  -1753  -1721  -2386  -3342  -4121  -4589  -5010  -5663  -6452  -7024  -7248  -7257  -7120  -6799  -6346  -5906  -5590  -5421  -5363  -5353  -5380  -5521  -5782  -5953  -5754  -5063  -3901  -2212  11  2233  3639  4048  3913  3647  3407  3215  3025  2823  2647  2484  2281  2058  1893  1914  2324  3209  4280  5073  5385  5286  4866  4268  3766  3530  3402  3076  2431  1585  699  -133  -812  -1219  -1354  -1332  -1205  -902  -320  507  1347  2021  2575  3096  3557  3870  4008  4037  4042  4062  4126  4314  4717  5280  5810  6183  6407  6517  6442  5964  4984  3760  2688  1947  1522  1337  1270  1207  1113  1040  1137  1565  2263  2928  3360  3659  3984  4309  4515  4583  4634  4843  5310  5912  6372  6500  6197  5432  4436  3601  3096  2823  2645  2503  2391  2283  2140  1952  1748  1595  1551  1601  1742  2122  2912  4094  5578  7271  8838  9836  10189  10151  9879  9362  8643  7833  6984  6166  5519  5095  4838  4708  4678  4706  4768  4843  4895  4898  4844  4745  4634  4547  4458  4186  3490  2403  1330  643  333  188  99  45  -42  -252  -538  -782  -1016  -1407  -1996  -2626  -3093  -3307  -3330  -3278  -3222  -3170  -3099  -3003  -2869  -2646  -2343  -2112  -2217  -2899  -4057  -5163  -5761  -5870  -5744  -5531  -5271  -5027  -4914  -5007  -5267  -5622  -6045  -6620  -7466  -8482  -9323  -9806  -10065  -10310  -10644  -11023  -11326  -11498  -11565  -11554  -11438  -11148  -10703  -10249  -9936  -9802  -9803  -9877  -9966  -10026  -10027  -9956  -9857  -9938  -10560  -11866  -13415  -14531  -14976  -14985  -14794  -14456  -14055  -13827  -14001  -14671  -15800  -17193  -18438  -19145  -19231  -18823  -18020  -16821  -15222  -13490  -11994  -10757  -9665  -8824  -8293  -7775  -6789  -5193  -3533  -2538  -2384  -2753  -3254  -3569  -3510  -3062  -2445  -1987  -1803  -1805  -1945  -2188  -2391  -2365  -1908  -753  1189  3601  5940  7748  8926  9822  10808  11825  12594  13044  13299  13437  13465  13389  13198  12836  12307  11760  11370  11174  11096  11079  11110  11163  11191  11167  11104  11006  10814  10474  10034  9609  9271  9025  8838  8657  8456  8269  8129  8013  7840  7516  7056  6611  6288  6053  5862  5730  5671  5659  5675  5745  5924  6296  6921  7693  8323  8631  8688  8609  8350  7697  6473  4822  3230  2176  1776  1852  2215  2713  3183  3509  3662  3672  3586  3453  3332  3276  3288  3313  3246  2997  2614  2276  2092  2034  2051  2152  2360  2616  2810  2918  3007  3137  3308  3501  3729  3975  4167  4248  4181  3909  3456  2994  2699  2589  2578  2597  2621  2647  2665  2637  2530  2356  2169  1985  1768  1489  1155  799  455  159  -95  -351  -604  -824  -1044  -1275  -1449  -1522  -1525  -1509  -1512  -1568  -1697  -1870  -2029  -2150  -2262  -2374  -2451  -2460  -2399  -2304  -2223  -2194  -2257  -2443  -2693  -2874  -2919  -2868  -2794  -2745  -2726  -2694  -2602  -2445  -2257  -2100  -2023  -2026  -2064  -2098  -2109  -2083  -2001  -1883  -1773  -1697  -1657  -1644  -1643  -1623  -1563  -1474  -1360  -1191  -975  -789  -692  -678  -710  -751  -777  -780  -757  -690  -568  -419  -297  -242  -304  -566  -1034  -1530  -1848  -1960  -1932  -1724  -1245  -574  17  328  388  331  259  202  146  89  52  50  59  23  -98  -268  -383  -367  -229  -46  88  134  110  58  4  -55  -139  -266  -452  -656  -806  -876  -883  -811  -618  -354  -164  -155  -329  -595  -821  -950  -1025  -1131  -1336  -1636  -1929  -2107  -2160  -2153  -2156  -2213  -2279  -2153  -1579  -522  802  2148  3330  4177  4595  4581  4089  3096  1764  386  -779  -1607  -2180  -2702  -3237  -3628  -3706  -3505  -3264  -3177  -3273  -3520  -3871  -4241  -4542  -4723  -4779  -4723  -4558  -4345  -4191  -4153  -4207  -4304  -4399  -4457  -4465  -4421  -4337  -4217  -4025  -3726  -3382  -3102  -2936  -2873  -2878  -2894  -2833  -2628  -2333  -2085  -1932  -1788  -1576  -1305  -1036  -832  -730  -713  -732  -745  -725  -643  -483  -283  -113  4  73  69  -19  -173  -353  -501  -592  -690  -891  -1173  -1428  -1607  -1747  -1889  -2075  -2340  -2643  -2878  -2995  -3034  -3050  -3077  -3113  -3064  -2754  -2074  -1138  -259  294  530  631  701  739  746  755  801  889  1007  1152  1301  1404  1445  1447  1408  1302  1148  1019  969  984  1021  1069  1156  1303  1468  1590  1657  1704  1751  1775  1697  1446  1094  841  837  1084  1443  1735  1899  1986  2043  2078  2096  2100  2086  2048  1995  1946  1904  1853  1791  1732  1683  1643  1606  1559  1491  1412  1353  1346  1418  1579  1785  1958  2051  2079  2055  1944  1708  1378  1031  748  602  646  885  1212  1450  1504  1389  1175  965  844  814  820  811  759  666  585  594  772  1166  1736  2403  3162  4003  4723  5050  4856  4199  3263  2241  1231  280  -588  -1313  -1698  -1629  -1267  -826  -394  -3  319  564  724  808  825  781  711  665  670  736  912  1258  1720  2156  2554  2989  3412  3671  3696  3522  3240  2985  2839  2776  2713  2561  2244  1829  1501  1375  1501  1962  2722  3477  3918  4020  3950  3809  3598  3324  3046  2828  2685  2562  2365  2050  1648  1234  904  716  651  648  654  631  539  367  177  59  90  317  694  1064  1295  1333  1074  423  -412  -1022  -1244  -1209  -1086  -1021  -1202  -1741  -2462  -2999  -3133  -2815  -2094  -1243  -617  -292  -136  -95  -185  -358  -536  -700  -852  -970  -1033  -1063  -1112  -1232  -1459  -1836  -2386  -3046  -3671  -4120  -4342  -4399  -4386  -4359  -4332  -4303  -4280  -4264  -4253  -4251  -4252  -4214  -4063  -3756  -3351  -2989  -2792  -2776  -2905  -3162  -3501  -3827  -4064  -4188  -4212  -4201  -4281  -4550  -4932  -5211  -5282  -5217  -5129  -5026  -4752  -4146  -3307  -2521  -1954  -1581  -1337  -1172  -1048  -957  -888  -786  -614  -416  -270  -189  -102  68  301  494  595  631  666  791  1044  1310  1467  1636  2034  2659  3401  4241  5086  5692  5874  5563  4769  3687  2687  2001  1572  1331  1327  1579  1997  2427  2760  2978  3091  3092  2994  2872  2801  2766  2663  2410  2064  1791  1706  1872  2327  2982  3603  4004  4163  4174  4148  4131  4119  4094  4056  3993  3825  3420  2727  1925  1318  1036  967  955  937  914  907  929  973  1002  975  872  660  315  -92  -425  -639  -857  -1246  -1805  -2367  -2795  -3087  -3287  -3398  -3422  -3382  -3271  -3067  -2832  -2710  -2728  -2738  -2621  -2377  -2008  -1525  -1055  -739  -611  -672  -950  -1413  -1889  -2222  -2433  -2663  -2985  -3307  -3443  -3191  -2491  -1613  -994  -770  -742  -740  -789  -918  -993  -851  -522  -192  3  73  57  -67  -322  -615  -743  -462  358  1458  2355  2867  3115  3248  3257  2889  1886  278  -1571  -3164  -4267  -5019  -5500  -5558  -5232  -4846  -4613  -4545  -4666  -5020  -5501  -5890  -6088  -6098  -5899  -5544  -5190  -4896  -4580  -4252  -4068  -4113  -4300  -4517  -4754  -5028  -5286  -5460  -5548  -5602  -5641  -5543  -5046  -4056  -2950  -2253  -2110  -2322  -2673  -3039  -3368  -3688  -4080  -4517  -4840  -4937  -4781  -4364  -3806  -3341  -3092  -2952  -2655  -1958  -888  219  1031  1512  1836  2126  2393  2624  2793  2870  2854  2754  2590  2420  2308  2272  2286  2325  2378  2433  2466  2478  2514  2650  2941  3325  3657  3873  4031  4180  4314  4411  4471  4500  4508  4510  4512  4517  4532  4570  4656  4802  4963  5079  5151  5220  5306  5394  5486  5603  5734  5833  5885  5917  5947  5977  6004  6013  5962  5784  5441  4999  4605  4353  4214  4095  3951  3825  3747  3632  3371  3004  2693  2522  2437  2360  2281  2216  2139  2005  1816  1643  1532  1460  1396  1353  1370  1479  1656  1828  1938  1983  1975  1899  1751  1583  1460  1384  1308  1211  1115  1045  996  929  814  676  575  547  577  635  688  720  732  735  739  737  711  647  559  483  440  429  439  472  526  568  517  306  10  -214  -327  -421  -539  -631  -638  -553  -422  -314  -261  -244  -257  -339  -554  -946  -1483  -2019  -2390  -2568  -2644  -2748  -3026  -3543  -4143  -4566  -4695  -4557  -4210  -3797  -3503  -3354  -3248  -3135  -3043  -2994  -2981  -3002  -3062  -3162  -3270  -3346  -3360  -3282  -3097  -2859  -2669  -2551  -2339  -1805  -954  -59  648  1090  1286  1338  1387  1527  1770  2024  2214  2473  3055  4064  5357  6614  7421  7469  6704  5271  3428  1516  -142  -1332  -1930  -1974  -1691  -1340  -1111  -1036  -992  -831  -448  171  894  1481  1781  1845  1816  1753  1617  1357  1010  698  523  483  532  643  766  798  652  347  -13  -322  -512  -560  -443  -107  424  959  1268  1254  967  577  287  187  259  529  1045  1711  2280  2579  2635  2564  2446  2316  2161  1888  1410  829  343  -30  -416  -801  -1052  -1131  -1129  -1140  -1180  -1195  -1120  -928  -669  -440  -308  -399  -963  -2091  -3447  -4544  -5174  -5425  -5491  -5520  -5562  -5628  -5701  -5713  -5577  -5277  -4921  -4665  -4586  -4659  -4808  -4940  -5008  -5045  -5111  -5200  -5247  -5209  -5123  -5059  -5042  -5045  -5023  -4959  -4896  -4915  -5027  -5148  -5174  -5064  -4861  -4647  -4465  -4314  -4194  -4123  -4118  -4187  -4294  -4308  -4106  -3748  -3433  -3265  -3130  -2847  -2430  -2049  -1756  -1422  -910  -277  248  533  651  723  786  832  878  971  1107  1172  968  387  -359  -879  -1002  -840  -560  -242  126  546  921  1157  1243  1202  1044  811  594  450  370  336  335  349  354  311  185  0  -181  -314  -363  -232  169  757  1268  1469  1298  948  834  1329  2445  3787  4882  5437  5325  4603  3511  2263  968  -252  -1254  -1897  -2070  -1742  -979  29  946  1490  1688  1772  1904  2093  2302  2502  2677  2802  2838  2766  2633  2519  2456  2426  2417  2460  2597  2803  2983  3071  3082  3056  3035  3114  3409  3919  4458  4838  5013  5060  5102  5235  5462  5698  5863  5945  5963  5938  5893  5831  5719  5537  5339  5206  5164  5180  5212  5213  5076  4635  3784  2632  1520  789  458  301  130  -138  -499  -840  -1082  -1319  -1668  -2060  -2323  -2408  -2369  -2229  -1969  -1591  -1117  -593  -96  301  573  727  778  748  667  555  411  235  50  -103  -209  -301  -442  -632  -800  -901  -1021  -1277  -1628  -1892  -1985  -1961  -1879  -1756  -1612  -1448  -1223  -930  -655  -478  -384  -323  -271  -228  -201  -192  -211  -265  -339  -399  -428  -436  -427  -382  -260  -58  152  281  314  291  237  176  131  109  95  92  139  280  474  623  674  639  534  393  326  518  1091  1861  2447  2683  2695  2641  2589  2557  2557  2568  2476  2097  1396  623  69  -216  -356  -418  -389  -305  -269  -362  -630  -1080  -1574  -1893  -1971  -1909  -1823  -1783  -1823  -1908  -1932  -1794  -1403  -745  0  697  1379  1967  2278  2172  1553  435  -990  -2379  -3392  -3891  -3904  -3514  -2929  -2498  -2402  -2517  -2653  -2738  -2782  -2802  -2751  -2546  -2172  -1722  -1334  -1119  -1095  -1199  -1338  -1440  -1475  -1438  -1305  -1046  -662  -251  34  141  152  160  227  413  761  1216  1622  1856  1924  1907  1883  1905  1998  2128  2231  2290  2332  2380  2427  2445  2424  2395  2363  2256  1985  1548  1064  652  327  82  -60  -122  -148  -162  -184  -247  -370  -547  -739  -888  -957  -982  -1090  -1443  -2054  -2729  -3275  -3623  -3785  -3815  -3752  -3580  -3288  -2954  -2691  -2542  -2478  -2449  -2409  -2320  -2159  -1961  -1817  -1769  -1804  -1897  -2011  -2075  -2044  -1922  -1749  -1576  -1453  -1403  -1412  -1448  -1462  -1366  -1087  -705  -414  -304  -301  -322  -352  -413  -506  -624  -777  -983  -1223  -1433  -1554  -1558  -1436  -1191  -852  -461  -43  389  784  1034  1106  1075  1052  1138  1384  1705  1922  1916  1691  1379  1155  1081  1088  1108  1139  1225  1382  1557  1680  1762  1849  1914  1804  1345  596  -103  -494  -607  -585  -494  -335  -143  10  100  168  236  279  304  406  670  1029  1372  1756  2297  2952  3575  4043  4285  4263  3896  3122  2027  771  -439  -1391  -2012  -2335  -2394  -2258  -2033  -1810  -1630  -1481  -1338  -1190  -1049  -929  -825  -733  -668  -639  -622  -591  -531  -441  -346  -271  -217  -158  -96  -55  -44  -54  -63  -37  75  301  564  749  826  847  859  887  954  1079  1277  1571  1983  2431  2747  2863  2846  2774  2669  2538  2383  2170  1852  1480  1195  1040  921  760  587  456  372  279  91  -203  -510  -731  -863  -964  -1089  -1248  -1416  -1565  -1675  -1742  -1780  -1805  -1795  -1661  -1286  -666  -9  431  586  552  433  303  220  209  250  307  347  363  371  370  330  208  -3  -246  -447  -581  -670  -724  -745  -741  -727  -726  -743  -764  -770  -760  -761  -801  -875  -956  -1044  -1164  -1303  -1403  -1445  -1456  -1461  -1474  -1493  -1508  -1494  -1433  -1330  -1215  -1092  -951  -816  -746  -823  -1103  -1492  -1770  -1782  -1533  -1170  -893  -781  -767  -776  -781  -795  -849  -982  -1203  -1477  -1736  -1901  -1923  -1769  -1446  -1069  -790  -656  -624  -652  -723  -799  -823  -783  -715  -654  -606  -573  -575  -611  -605  -451  -101  438  1089  1750  2398  3049  3669  4150  4366  4227  3730  2991  2157  1325  538  -196  -812  -1126  -1000  -553  -92  152  163  29  -143  -255  -235  -72  154  324  388  397  426  505  619  726  794  823  843  885  985  1207  1606  2111  2530  2759  2884  3003  3108  3162  3181  3220  3309  3425  3510  3540  3535  3511  3463  3392  3332  3325  3369  3432  3529  3689  3874  4003  4030  3942  3724  3380  2907  2266  1496  813  428  289  178  -30  -365  -899  -1682  -2525  -3110  -3313  -3192  -2823  -2360  -2029  -1922  -1973  -2127  -2381  -2646  -2589  -1898  -752  351  1162  1751  2198  2402  2135  1240  -208  -1748  -2678  -2688  -2064  -1292  -797  -770  -1039  -1269  -1306  -1211  -1088  -1003  -964  -948  -971  -1120  -1445  -1837  -2120  -2232  -2244  -2248  -2316  -2477  -2722  -3027  -3332  -3560  -3682  -3719  -3677  -3532  -3293  -3024  -2786  -2622  -2552  -2575  -2672  -2798  -2887  -2914  -2899  -2855  -2761  -2553  -2195  -1787  -1495  -1349  -1239  -1101  -979  -918  -914  -967  -1113  -1352  -1597  -1754  -1763  -1543  -1023  -276  485  1100  1549  1865  2037  2035  1917  1843  1919  2046  2008  1582  587  -807  -2035  -2620  -2457  -1756  -938  -381  -161  -79  73  391  892  1561  2311  2953  3317  3374  3116  2470  1447  266  -749  -1396  -1677  -1734  -1710  -1670  -1623  -1567  -1512  -1478  -1469  -1482  -1508  -1513  -1417  -1152  -784  -472  -291  -200  -152  -133  -136  -156  -184  -208  -205  -140  -18  120  256  427  698  1130  1731  2393  2934  3291  3580  3880  4137  4292  4369  4416  4444  4453  4453  4457  4464  4452  4376  4203  3970  3769  3655  3605  3561  3469  3312  3089  2780  2395  1943  1357  616  -133  -685  -948  -1004  -980  -906  -717  -390  -34  186  190  -11  -318  -584  -716  -703  -520  -148  351  865  1277  1509  1572  1529  1409  1221  967  630  244  -75  -242  -272  -200  -11  287  571  687  632  535  495  528  621  761  914  1031  1099  1134  1132  1029  757  336  -120  -484  -681  -743  -761  -806  -912  -1092  -1328  -1551  -1688  -1734  -1721  -1638  -1442  -1170  -947  -849  -847  -886  -934  -973  -986  -967  -918  -864  -829  -820  -823  -834  -849  -861  -845  -774  -643  -467  -223  131  531  798  784  476  23  -335  -477  -455  -355  -243  -168  -149  -174  -228  -288  -331  -346  -342  -333  -331  -317  -224  0  289  490  480  240  -122  -432  -610  -730  -864  -1016  -1191  -1413  -1653  -1832  -1910  -1897  -1779  -1494  -1014  -376  395  1339  2448  3591  4507  4885  4641  3989  3118  2003  579  -1066  -2643  -3798  -4300  -4159  -3667  -3184  -2865  -2679  -2573  -2524  -2508  -2494  -2478  -2476  -2493  -2504  -2469  -2342  -2106  -1833  -1636  -1554  -1551  -1550  -1366  -765  198  1096  1580  1708  1701  1664  1618  1592  1627  1755  2015  2457  3021  3495  3722  3748  3701  3649  3587  3478  3323  3148  2950  2746  2599  2551  2623  2829  3093  3241  3161  2865  2360  1590  639  -231  -889  -1402  -1836  -2207  -2528  -2777  -2915  -2952  -2928  -2857  -2752  -2655  -2615  -2636  -2677  -2682  -2637  -2587  -2589  -2679  -2909  -3283  -3693  -4010  -4202  -4305  -4351  -4362  -4328  -4181  -3864  -3467  -3167  -3017  -2932  -2859  -2815  -2804  -2793  -2721  -2486  -2057  -1595  -1317  -1303  -1497  -1763  -1943  -1934  -1733  -1451  -1246  -1197  -1288  -1466  -1658  -1800  -1876  -1909  -1919  -1916  -1904  -1889  -1877  -1876  -1900  -1954  -2020  -2049  -1968  -1738  -1443  -1237  -1178  -1209  -1260  -1301  -1328  -1329  -1264  -1111  -894  -696  -599  -621  -701  -774  -808  -794  -743  -660  -567  -503  -489  -516  -551  -511  -279  184  738  1189  1453  1567  1634  1777  2092  2574  3090  3452  3571  3507  3361  3206  3091  3061  3136  3264  3363  3392  3352  3238  3064  2907  2926  3281  3965  4804  5612  6279  6710  6818  6569  5986  5112  4005  2767  1534  475  -188  -271  183  877  1427  1615  1495  1249  1018  878  848  911  1051  1221  1351  1407  1410  1389  1339  1224  1025  819  756  918  1222  1524  1777  1988  2110  2064  1817  1459  1152  963  869  849  888  978  1151  1465  1899  2340  2712  3012  3322  3722  4152  4443  4509  4348  3986  3538  3156  2886  2701  2587  2521  2445  2307  2083  1785  1474  1191  873  443  -52  -497  -827  -1069  -1301  -1545  -1710  -1686  -1441  -1069  -739  -549  -481  -447  -322  -30  335  588  641  539  370  203  58  -86  -246  -404  -516  -568  -617  -731  -891  -1004  -1030  -1057  -1262  -1747  -2363  -2820  -2990  -2949  -2790  -2521  -2161  -1823  -1616  -1544  -1553  -1599  -1623  -1502  -1131  -623  -246  -121  -166  -281  -403  -483  -507  -482  -417  -340  -319  -408  -589  -800  -997  -1176  -1362  -1591  -1867  -2125  -2276  -2255  -2028  -1646  -1259  -1004  -911  -957  -1129  -1383  -1631  -1804  -1883  -1888  -1871  -1889  -1980  -2122  -2243  -2298  -2305  -2300  -2297  -2280  -2231  -2157  -2068  -1903  -1529  -885  -132  495  963  1427  2077  2919  3683  4050  3938  3457  2746  1917  1003  -20  -1139  -2282  -3355  -4255  -4903  -5208  -5031  -4367  -3541  -2959  -2747  -2762  -2845  -2926  -2980  -2972  -2841  -2557  -2174  -1793  -1480  -1271  -1158  -1090  -1026  -978  -960  -956  -933  -861  -718  -495  -217  63  303  466  552  622  761  995  1295  1652  2051  2394  2580  2624  2606  2562  2491  2408  2348  2328  2339  2370  2411  2441  2434  2359  2187  1938  1668  1416  1165  861  490  119  -183  -400  -532  -585  -583  -553  -506  -446  -386  -345  -319  -291  -235  -145  -39  48  95  84  -8  -191  -424  -631  -752  -776  -715  -576  -397  -252  -186  -187  -235  -319  -425  -523  -582  -584  -531  -440  -333  -228  -136  -69  -17  46  133  222  288  321  338  362  403  457  501  493  418  296  159  29  -99  -251  -435  -623  -774  -873  -924  -945  -956  -963  -961  -949  -935  -929  -931  -932  -926  -923  -953  -1040  -1154  -1231  -1258  -1277  -1315  -1354  -1373  -1377  -1382  -1397  -1421  -1439  -1444  -1442  -1423  -1351  -1205  -1020  -851  -705  -540  -354  -208  -131  -99  -93  -111  -136  -143  -132  -134  -200  -366  -597  -801  -913  -928  -858  -691  -428  -147  67  277  670  1355  2266  3208  3921  4214  4077  3591  2791  1658  224  -1312  -2613  -3359  -3388  -2828  -2065  -1467  -1169  -1091  -1087  -1079  -1080  -1106  -1148  -1214  -1327  -1465  -1559  -1561  -1451  -1258  -1064  -946  -919  -946  -978  -978  -935  -799  -460  99  673  1013  1093  1054  1018  1039  1127  1251  1363  1450  1521  1566  1582  1610  1737  2037  2489  2980  3406  3720  3919  4034  4103  4141  4143  4091  3962  3761  3529  3284  2990  2591  2112  1657  1275  911  521  173  -25  -68  -10  113  280  440  532  516  388  196  30  -45  4  206  511  777  905  921  897  866  835  809  799  809  829  861  920  1002  1067  1052  897  601  253  -35  -211  -307  -396  -510  -608  -646  -650  -680  -742  -755  -658  -503  -382  -289  -141  61  210  225  115  -42  -153  -187  -179  -167  -166  -184  -214  -243  -267  -304  -373  -454  -481  -365  -68  295  540  581  451  234  8  -200  -420  -639  -795  -864  -884  -895  -906  -909  -899  -877  -852  -839  -832  -810  -783  -795  -870  -972  -1048  -1077  -1071  -1044  -1005  -970  -955  -987  -1086  -1221  -1321  -1353  -1338  -1295  -1203  -1023  -761  -504  -352  -315  -347  -418  -513  -633  -791  -943  -937  -575  311  1715  3325  4658  5345  5226  4387  3104  1657  255  -898  -1662  -1993  -1877  -1409  -855  -463  -283  -234  -242  -291  -374  -463  -530  -559  -514  -327  1  343  558  628  624  599  555  477  362  235  125  61  73  167  306  443  547  613  659  723  873  1178  1625  2104  2490  2720  2843  2974  3181  3409  3558  3596  3545  3425  3253  3061  2852  2577  2182  1694  1216  834  556  340  133  -117  -397  -620  -751  -826  -876  -911  -929  -919  -869  -759  -585  -407  -286  -219  -192  -228  -334  -459  -544  -584  -612  -667  -757  -841  -849  -743  -563  -407  -330  -324  -389  -552  -808  -1069  -1231  -1268  -1213  -1101  -955  -803  -674  -596  -581  -601  -620  -618  -589  -516  -342  -11  387  670  745  629  362  26  -248  -393  -443  -464  -485  -501  -501  -474  -423  -377  -411  -623  -1021  -1450  -1740  -1881  -1969  -2094  -2285  -2490  -2619  -2642  -2593  -2526  -2483  -2478  -2504  -2542  -2568  -2571  -2551  -2518  -2498  -2535  -2661  -2835  -2970  -3033  -3049  -3019  -2905  -2690  -2400  -2047  -1597  -1063  -558  -202  -26  20  14  -1  -8  7  57  125  151  77  -96  -290  -415  -454  -438  -383  -291  -180  -67  70  275  540  826  1168  1665  2368  3249  4206  5014  5381  5204  4640  3857  2878  1723  554  -383  -861  -786  -376  -14  103  39  -70  -144  -166  -160  -147  -139  -137  -142  -150  -155  -145  -92  27  208  400  550  655  744  821  876  926  1023  1205  1438  1633  1737  1780  1831  1954  2170  2439  2680  2818  2853  2841  2827  2820  2809  2782  2743  2718  2731  2752  2744  2722  2717  2709  2635  2443  2137  1755  1322  817  223  -390  -869  -1118  -1206  -1267  -1366  -1470  -1526  -1525  -1500  -1472  -1452  -1435  -1408  -1369  -1333  -1307  -1279  -1230  -1159  -1093  -1088  -1225  -1571  -2080  -2571  -2865  -2927  -2804  -2537  -2211  -1951  -1814  -1780  -1798  -1829  -1859  -1872  -1811  -1610  -1308  -1038  -892  -859  -887  -931  -962  -967  -949  -922  -893  -866  -856  -890  -975  -1078  -1146  -1166  -1158  -1142  -1134  -1161  -1250  -1384  -1495  -1515  -1382  -1073  -687  -388  -246  -221  -252  -306  -368  -431  -488  -528  -569  -651  -793  -956  -1072  -1107  -1059  -937  -785  -676  -630  -612  -587  -481  -188  279  726  972  988  800  445  40  -264  -430  -524  -619  -764  -985  -1247  -1477  -1653  -1799  -1914  -1979  -1978  -1863  -1567  -1105  -602  -200  15  84  242  798  1864  3204  4397  5064  5035  4388  3348  2130  837  -463  -1620  -2409  -2655  -2355  -1708  -1029  -576  -406  -401  -409  -342  -147  194  593  887  1010  1025  1013  1004  999  997  991  966  928  898  879  852  801  733  658  588  550  637  976  1556  2178  2655  2960  3157  3284  3355  3389  3419  3469  3534  3591  3635  3678  3724  3764  3791  3782  3679  3422  3001  2470  1914  1385  864  267  -405  -979  -1282  -1355  -1358  -1388  -1466  -1614  -1827  -2049  -2238  -2380  -2437  -2372  -2178  -1901  -1645  -1512  -1517  -1588  -1663  -1730  -1808  -1894  -1967  -2002  -1984  -1912  -1794  -1656  -1522  -1388  -1258  -1177  -1158  -1157  -1106  -995  -869  -713  -455  -118  166  336  435  514  580  617  630  637  656  685  713  727  708  617  420  142  -125  -295  -351  -328  -256  -161  -87  -61  -75  -105  -131  -145  -147  -135  -103  -61  -30  -24  -39  -53  8  255  715  1268  1738  2030  2178  2259  2296  2252  2089  1853  1663  1576  1493  1194  535  -277  -840  -1008  -949  -843  -760  -713  -694  -682  -650  -597  -561  -567  -531  -297  216  950  1760  2481  2959  3081  2816  2217  1371  360  -721  -1718  -2424  -2666  -2378  -1709  -1013  -575  -420  -419  -477  -568  -676  -759  -793  -769  -668  -497  -299  -132  -27  27  69  126  257  522  897  1268  1533  1658  1653  1533  1331  1123  996  977  1033  1117  1198  1266  1329  1404  1500  1589  1632  1631  1636  1694  1802  1925  2039  2138  2230  2293  2206  1784  1017  177  -469  -895  -1198  -1449  -1650  -1770  -1803  -1783  -1736  -1684  -1649  -1642  -1662  -1696  -1730  -1753  -1763  -1754  -1699  -1565  -1330  -1032  -776  -635  -589  -576  -555  -496  -384  -241  -125  -79  -126  -277  -483  -640  -684  -602  -405  -143  119  378  630  853  1054  1231  1340  1351  1280  1168  1055  935  773  595  469  413  391  373  344  296  237  181  151  173  276  490  803  1138  1400  1558  1665  1778  1888  1962  1993  1998  1980  1929  1855  1795  1775  1799  1867  1950  2002  2015  2028  2111  2319  2629  2924  3067  3023  2865  2685  2521  2364  2202  2055  1955  1905  1871  1814  1707  1527  1267  949  646  459  455  635  925  1181  1307  1320  1284  1244  1222  1228  1268  1333  1403  1471  1514  1417  972  33  -1336  -2862  -4181  -5029  -5321  -5102  -4557  -3997  -3729  -3929  -4547  -5353  -6082  -6497  -6487  -6122  -5545  -4928  -4493  -4348  -4380  -4421  -4408  -4367  -4325  -4234  -4012  -3687  -3389  -3188  -3021  -2787  -2457  -2115  -1860  -1715  -1637  -1577  -1496  -1364  -1174  -963  -774  -614  -488  -411  -341  -159  244  852  1506  2017  2281  2324  2196  1896  1442  959  601  383  160  -199  -655  -1053  -1327  -1517  -1659  -1742  -1743  -1676  -1573  -1447  -1304  -1176  -1101  -1081  -1102  -1158  -1226  -1263  -1246  -1198  -1163  -1166  -1191  -1206  -1180  -1082  -890  -596  -241  80  300  413  451  444  404  299  88  -178  -371  -434  -409  -343  -248  -140  -53  -13  -30  -106  -223  -346  -454  -547  -635  -739  -873  -1017  -1137  -1237  -1352  -1511  -1709  -1890  -2003  -2057  -2059  -1924  -1539  -956  -424  -155  -183  -428  -743  -965  -1047  -1058  -1053  -1031  -981  -893  -762  -562  -271  45  256  306  262  254  440  938  1699  2469  2967  3136  3092  2913  2611  2238  1878  1586  1354  1159  985  794  535  223  -63  -232  -187  159  760  1371  1774  1964  2013  1878  1456  811  202  -85  160  967  2107  3186  3888  4118  3819  2907  1482  -188  -1726  -2677  -2862  -2467  -1739  -879  -142  281  426  483  568  660  671  549  346  152  -33  -259  -484  -636  -708  -727  -688  -553  -319  -61  131  236  289  318  339  381  468  621  864  1187  1558  1949  2332  2727  3211  3740  4139  4358  4506  4663  4852  5100  5396  5663  5836  5902  5872  5734  5419  4875  4182  3522  2992  2588  2325  2217  2147  1900  1368  670  58  -309  -474  -560  -637  -708  -751  -770  -802  -876  -1000  -1188  -1446  -1722  -1933  -2055  -2124  -2187  -2259  -2293  -2250  -2169  -2111  -2080  -2041  -1960  -1852  -1771  -1732  -1697  -1646  -1597  -1580  -1605  -1652  -1674  -1631  -1509  -1333  -1149  -1014  -982  -1109  -1389  -1704  -1913  -1990  -2000  -1988  -1930  -1792  -1602  -1446  -1374  -1366  -1387  -1421  -1452  -1482  -1576  -1811  -2137  -2376  -2385  -2146  -1762  -1407  -1181  -1063  -999  -967  -968  -1005  -1061  -1096  -1080  -1036  -998  -971  -935  -880  -812  -743  -669  -562  -398  -198  -19  81  94  50  -11  -58  -74  -43  49  180  290  331  286  159  -2  -114  -102  67  365  703  980  1124  1144  1191  1492  2116  2904  3677  4295  4562  4329  3641  2623  1379  40  -1257  -2358  -3007  -2969  -2211  -1010  80  619  646  505  423  404  398  399  413  432  429  384  314  272  294  371  454  473  444  451  504  551  572  590  645  743  831  874  890  903  914  922  929  938  949  975  1059  1256  1587  1972  2266  2405  2449  2485  2563  2678  2787  2851  2824  2641  2285  1853  1488  1247  1093  968  835  677  492  294  116  -4  -70  -104  -122  -136  -173  -244  -321  -385  -454  -517  -537  -494  -398  -292  -225  -206  -206  -191  -148  -99  -99  -202  -419  -688  -901  -1005  -1037  -1055  -1074  -1068  -1000  -874  -747  -660  -601  -549  -517  -531  -589  -648  -649  -593  -537  -511  -484  -420  -325  -227  -144  -87  -69  -83  -105  -117  -122  -123  -99  -18  116  262  383  463  508  523  509  469  400  300  169  0  -180  -297  -305  -218  -90  11  60  68  47  -2  -65  -109  -121  -115  -134  -229  -415  -638  -818  -927  -985  -998  -963  -913  -890  -898  -913  -917  -923  -942  -948  -937  -908  -840  -780  -797  -879  -966  -941  -591  262  1557  2927  3889  4111  3558  2469  1211  89  -812  -1590  -2308  -2896  -3230  -3202  -2804  -2246  -1837  -1690  -1698  -1734  -1751  -1753  -1754  -1757  -1761  -1768  -1781  -1787  -1744  -1615  -1436  -1295  -1223  -1194  -1177  -1147  -1067  -916  -690  -375  35  500  917  1209  1407  1587  1767  1907  1990  2027  2027  1982  1881  1737  1587  1491  1494  1587  1703  1771  1792  1810  1820  1715  1355  743  111  -303  -486  -552  -569  -561  -569  -667  -889  -1189  -1481  -1721  -1907  -2043  -2122  -2119  -2054  -1979  -1923  -1904  -1938  -2008  -2086  -2159  -2219  -2252  -2256  -2236  -2190  -2082  -1845  -1450  -1016  -712  -556  -467  -419  -436  -522  -623  -660  -623  -566  -532  -525  -539  -552  -545  -509  -443  -358  -270  -195  -132  -58  54  219  413  574  661  689  687  638  508  318  144  40  2  5  22  30  0  -95  -223  -311  -330  -312  -303  -323  -369  -414  -439  -436  -389  -274  -121  -10  22  10  -3  15  87  186  257  273  255  243  298  480  786  1107  1312  1362  1276  1045  690  313  10  -204  -393  -668  -1067  -1463  -1695  -1754  -1741  -1720  -1685  -1629  -1579  -1559  -1559  -1549  -1500  -1423  -1351  -1295  -1257  -1241  -1201  -983  -339  896  2538  4092  5128  5461  5138  4481  3821  3093  2084  942  53  -284  25  645  1023  1027  881  731  626  587  592  614  637  644  620  581  579  657  801  949  1078  1210  1344  1429  1435  1385  1353  1416  1574  1738  1828  1847  1837  1822  1804  1791  1823  1939  2105  2235  2312  2421  2660  3048  3498  3887  4148  4290  4327  4246  4039  3743  3413  3092  2806  2584  2430  2302  2111  1808  1471  1231  1118  1073  1050  1030  1006  965  871  655  307  -54  -294  -392  -405  -366  -316  -313  -372  -455  -520  -552  -540  -484  -404  -338  -309  -343  -471  -686  -920  -1112  -1266  -1413  -1552  -1663  -1753  -1843  -1930  -1995  -2025  -2006  -1914  -1754  -1573  -1418  -1319  -1288  -1310  -1335  -1326  -1292  -1251  -1209  -1175  -1183  -1281  -1477  -1690  -1813  -1818  -1767  -1726  -1724  -1755  -1808  -1867  -1920  -1959  -1962  -1861  -1577  -1131  -690  -436  -419  -585  -827  -1023  -1111  -1126  -1126  -1131  -1118  -1055  -944  -823  -724  -656  -624  -677  -865  -1151  -1409  -1567  -1647  -1674  -1620  -1452  -1228  -1057  -971  -913  -838  -739  -611  -484  -404  -370  -346  -313  -286  -269  -251  -235  -278  -462  -778  -1079  -1202  -1102  -868  -646  -526  -495  -525  -638  -854  -1137  -1409  -1605  -1700  -1718  -1705  -1704  -1757  -1872  -1954  -1821  -1302  -289  1162  2743  4073  4969  5386  5307  4778  3895  2798  1710  893  481  388  451  557  634  692  788  897  961  993  1013  959  699  177  -460  -972  -1231  -1276  -1209  -1123  -1065  -1039  -1023  -1001  -972  -943  -924  -924  -943  -967  -935  -760  -412  42  530  1026  1475  1791  1954  2034  2087  2123  2162  2254  2424  2612  2730  2761  2750  2737  2737  2751  2767  2718  2500  2043  1370  637  78  -190  -243  -207  -153  -64  105  330  502  525  348  -39  -580  -1113  -1459  -1610  -1706  -1823  -1914  -1913  -1808  -1650  -1518  -1434  -1362  -1301  -1301  -1369  -1443  -1455  -1376  -1212  -990  -759  -588  -512  -501  -508  -519  -561  -682  -882  -1081  -1197  -1230  -1237  -1260  -1297  -1328  -1343  -1348  -1346  -1336  -1330  -1334  -1339  -1320  -1259  -1174  -1108  -1079  -1072  -1062  -1027  -962  -889  -836  -809  -800  -811  -854  -923  -967  -889  -615  -236  48  154  156  135  110  95  125  233  416  626  856  1167  1567  1956  2236  2400  2506  2591  2634  2616  2565  2522  2509  2521  2550  2578  2601  2624  2648  2674  2709  2744  2749  2630  2199  1384  475  -136  -383  -415  -228  246  898  1494  1886  2099  2266  2545  2996  3473  3705  3455  2612  1323  -27  -1105  -1824  -2234  -2325  -2075  -1508  -693  135  645  721  501  204  3  -61  -56  -34  -5  25  54  84  112  124  117  111  122  144  167  205  313  559  907  1225  1456  1659  1895  2147  2380  2602  2801  2897  2831  2656  2476  2328  2149  1882  1589  1393  1333  1352  1385  1404  1388  1291  1070  742  377  27  -286  -540  -735  -947  -1269  -1693  -2097  -2387  -2594  -2800  -3020  -3215  -3352  -3424  -3436  -3383  -3253  -3062  -2874  -2721  -2599  -2513  -2457  -2383  -2263  -2137  -2061  -2042  -2048  -2060  -2077  -2094  -2079  -1975  -1766  -1512  -1309  -1190  -1115  -1048  -1006  -1005  -1017  -1007  -970  -918  -863  -822  -804  -814  -844  -874  -872  -810  -675  -490  -308  -182  -144  -200  -334  -488  -589  -616  -590  -524  -414  -261  -104  -2  26  19  17  34  56  70  80  83  53  -40  -173  -280  -325  -324  -291  -232  -168  -134  -141  -172  -211  -259  -318  -372  -404  -407  -388  -371  -387  -451  -556  -668  -751  -799  -827  -847  -869  -907  -952  -977  -957  -896  -815  -716  -567  -336  -52  247  551  758  702  423  161  50  40  72  163  366  691  1008  1148  1143  1241  1700  2594  3708  4640  5026  4701  3763  2537  1336  273  -614  -1253  -1621  -1772  -1779  -1728  -1649  -1483  -1209  -934  -819  -925  -1164  -1382  -1486  -1472  -1367  -1205  -1024  -839  -668  -553  -508  -503  -509  -516  -524  -532  -544  -550  -525  -444  -325  -197  -33  231  613  1018  1295  1403  1430  1468  1557  1718  1940  2145  2232  2179  2062  1973  1945  1945  1928  1869  1781  1687  1567  1392  1146  831  517  317  258  269  263  191  54  -118  -299  -472  -630  -791  -961  -1096  -1162  -1173  -1163  -1149  -1138  -1135  -1144  -1160  -1173  -1179  -1179  -1179  -1179  -1178  -1174  -1166  -1165  -1189  -1230  -1267  -1313  -1422  -1603  -1794  -1928  -1988  -1994  -1969  -1923  -1876  -1840  -1789  -1677  -1497  -1305  -1177  -1133  -1144  -1173  -1184  -1115  -918  -635  -367  -164  -23  60  113  195  348  558  756  878  922  913  822  573  175  -277  -718  -1095  -1314  -1291  -991  -491  12  363  541  607  608  543  415  282  222  289  504  816  1101  1256  1255  1102  829  543  362  306  306  289  220  96  -68  -259  -478  -765  -1134  -1520  -1821  -1901  -1542  -578  863  2328  3253  3207  2053  246  -1269  -1806  -1286  -64  1194  1851  1748  1225  743  535  615  972  1515  2036  2393  2606  2746  2864  3007  3247  3703  4462  5358  6055  6419  6540  6515  6392  6175  5759  4992  3883  2710  1836  1425  1389  1595  1976  2417  2695  2540  1775  606  -427  -1038  -1391  -1660  -1769  -1622  -1329  -1098  -1001  -963  -918  -852  -781  -741  -753  -786  -800  -796  -796  -809  -810  -743  -571  -315  -64  116  242  341  403  433  479  586  737  878  992  1115  1288  1499  1682  1791  1841  1865  1873  1829  1652  1302  823  317  -95  -325  -406  -473  -644  -913  -1180  -1404  -1635  -1885  -2078  -2165  -2163  -2091  -1952  -1772  -1618  -1533  -1487  -1410  -1295  -1204  -1180  -1203  -1222  -1198  -1118  -1004  -871  -679  -381  -54  159  221  201  165  131  102  73  50  44  60  95  131  102  -114  -577  -1147  -1573  -1715  -1583  -1260  -899  -647  -534  -480  -411  -324  -266  -270  -317  -365  -394  -398  -339  -174  54  236  307  262  99  -138  -362  -524  -651  -772  -877  -922  -881  -787  -693  -625  -574  -526  -480  -450  -455  -504  -591  -737  -988  -1310  -1587  -1775  -1918  -2024  -2045  -1974  -1867  -1772  -1692  -1615  -1530  -1436  -1350  -1267  -1123  -857  -511  -214  -47  5  -14  -82  -179  -281  -380  -500  -658  -835  -979  -1063  -1097  -1128  -1215  -1374  -1573  -1767  -1923  -2021  -2024  -1859  -1510  -1107  -831  -736  -756  -817  -882  -943  -1010  -1101  -1203  -1287  -1323  -1235  -934  -470  -32  263  450  576  634  565  316  -44  -337  -457  -443  -366  -241  -71  94  180  147  36  42  452  1384  2664  3942  4825  5026  4589  3831  2962  1993  980  -6  -1001  -1955  -2675  -3031  -2995  -2656  -2268  -2016  -1839  -1661  -1538  -1513  -1558  -1617  -1653  -1665  -1665  -1662  -1644  -1600  -1536  -1478  -1409  -1220  -787  -83  761  1485  1858  1795  1335  677  144  -94  -89  104  519  1175  1930  2547  2935  3180  3367  3515  3622  3706  3817  3984  4173  4305  4288  4046  3597  3119  2800  2664  2610  2538  2373  2074  1705  1405  1236  1144  1092  1097  1178  1306  1416  1477  1531  1659  1920  2261  2567  2760  2795  2638  2336  2027  1787  1535  1199  846  559  300  11  -277  -527  -787  -1122  -1541  -2025  -2479  -2762  -2853  -2851  -2828  -2796  -2741  -2674  -2623  -2595  -2562  -2496  -2411  -2322  -2196  -1981  -1677  -1359  -1128  -1015  -973  -962  -997  -1108  -1264  -1384  -1421  -1374  -1251  -1095  -976  -918  -893  -880  -875  -879  -892  -907  -910  -891  -858  -836  -833  -823  -822  -869  -946  -1000  -993  -893  -673  -334  78  513  984  1485  1887  2077  2084  2005  1907  1810  1706  1609  1523  1318  841  192  -322  -557  -614  -661  -778  -929  -1028  -1037  -987  -982  -1178  -1591  -1907  -1755  -1032  177  1713  3256  4418  4932  4666  3670  2269  855  -339  -1213  -1734  -1901  -1769  -1466  -1144  -895  -712  -570  -478  -431  -372  -197  211  866  1540  1956  2063  1956  1700  1397  1236  1350  1683  2029  2212  2222  2125  1927  1630  1321  1112  1045  1111  1307  1594  1880  2078  2171  2204  2221  2231  2228  2226  2258  2353  2528  2763  2982  3107  3129  3078  2967  2809  2642  2484  2253  1786  1009  113  -565  -884  -962  -960  -968  -1012  -1079  -1138  -1195  -1284  -1405  -1506  -1567  -1627  -1741  -1924  -2124  -2260  -2303  -2288  -2245  -2186  -2104  -1923  -1536  -1004  -558  -324  -217  -140  -75  -27  24  98  171  195  146  50  -36  -74  -45  65  225  360  427  456  477  463  380  248  115  21  -18  -42  -128  -319  -570  -790  -927  -976  -939  -815  -653  -538  -505  -522  -541  -512  -396  -217  -51  43  56  16  -40  -94  -136  -165  -194  -224  -234  -200  -106  43  266  608  1070  1527  1824  1916  1831  1579  1191  730  231  -251  -631  -870  -999  -1056  -1069  -1061  -1064  -1114  -1219  -1334  -1403  -1407  -1362  -1289  -1203  -1096  -970  -853  -754  -622  -406  -90  361  996  1785  2605  3279  3671  3749  3472  2771  1780  802  -23  -742  -1343  -1756  -1967  -2035  -2042  -2043  -2044  -2013  -1908  -1729  -1543  -1429  -1403  -1419  -1433  -1436  -1448  -1473  -1473  -1448  -1483  -1608  -1747  -1831  -1856  -1795  -1607  -1322  -1011  -661  -238]
