reading_id,reading_time,wire_id,result_classification,heart_rate,heart_rate_alert,firmware_version,device_app_version,hardware_version,waveform_samples
89204040-64af-11ed-8080-808080808080,Tue Nov 15 06:34:20 UTC 2022,a10163b41b39,NSR,73,NONE,20001.171.50,2.10.0,Charge 5,[-1807  -1897  -2074  -2450  -3042  -3714  -4294  -4663  -4787  -4699  -4439  -4039  -3584  -3225  -3048  -3005  -3031  -3181  -3562  -4109  -4529  -4578  -4333  -4115  -4152  -4414  -4732  -4992  -5272  -5799  -6638  -7494  -7919  -7734  -7306  -7177  -7527  -8169  -8726  -8903  -8794  -8676  -8673  -8776  -8945  -9139  -9339  -9519  -9646  -9728  -9815  -9919  -9974  -9943  -9908  -9962  -10077  -10174  -10275  -10518  -10988  -11573  -12080  -12423  -12634  -12781  -12893  -12932  -12870  -12723  -12498  -12145  -11657  -11175  -10867  -10729  -10596  -10347  -10048  -9845  -9779  -9779  -9781  -9765  -9727  -9678  -9632  -9599  -9592  -9619  -9670  -9705  -9687  -9624  -9532  -9394  -9182  -8904  -8596  -8324  -8129  -7988  -7845  -7685  -7542  -7400  -7211  -6981  -6784  -6665  -6577  -6453  -6289  -6111  -5882  -5543  -5140  -4785  -4535  -4357  -4179  -3966  -3742  -3544  -3390  -3291  -3249  -3237  -3209  -3139  -3051  -2979  -2923  -2855  -2748  -2585  -2376  -2142  -1877  -1545  -1176  -879  -697  -588  -535  -576  -742  -973  -1149  -1193  -1093  -870  -598  -365  -187  9  308  724  1197  1652  2030  2316  2548  2754  2919  3047  3163  3273  3387  3576  3962  4639  5624  6858  8181  9293  9837  9573  8508  6954  5411  4242  3517  3123  2874  2663  2578  2783  3336  4112  4837  5317  5570  5708  5819  5967  6179  6426  6667  6858  6961  6967  6891  6760  6630  6553  6528  6521  6511  6493  6466  6432  6431  6566  6912  7362  7690  7802  7779  7729  7701  7697  7701  7699  7683  7658  7633  7608  7583  7568  7583  7643  7738  7839  7937  8040  8148  8243  8323  8388  8406  8338  8183  7983  7770  7532  7252  6969  6762  6653  6596  6543  6464  6329  6123  5875  5635  5430  5243  5050  4852  4658  4486  4357  4289  4276  4291  4315  4354  4416  4485  4533  4549  4557  4587  4643  4702  4720  4672  4581  4483  4382  4270  4156  4048  3957  3899  3872  3856  3819  3741  3633  3532  3467  3433  3405  3350  3239  3081  2935  2821  2626  2219  1635  1039  550  211  46  58  236  540  908  1284  1614  1842  1949  1985  2010  2033  2022  1999  2028  2112  2197  2286  2477  2862  3406  3989  4551  5081  5510  5775  5927  6038  6079  5989  5793  5594  5452  5308  5052  4637  4086  3424  2662  1890  1287  972  918  1065  1286  1371  1343  1535  2112  2868  3468  3570  2881  1419  -334  -1831  -2874  -3496  -3802  -3991  -4187  -4265  -4126  -3885  -3666  -3482  -3335  -3252  -3247  -3304  -3382  -3439  -3467  -3489  -3530  -3600  -3688  -3769  -3823  -3837  -3788  -3638  -3379  -3086  -2868  -2756  -2679  -2541  -2292  -1987  -1743  -1595  -1451  -1212  -912  -681  -576  -537  -505  -475  -461  -475  -523  -584  -628  -651  -677  -719  -777  -855  -944  -1020  -1074  -1145  -1295  -1573  -1971  -2428  -2870  -3242  -3512  -3668  -3730  -3740  -3738  -3747  -3765  -3783  -3796  -3812  -3834  -3849  -3843  -3824  -3796  -3761  -3727  -3682  -3601  -3497  -3410  -3351  -3314  -3301  -3312  -3323  -3278  -3114  -2839  -2559  -2368  -2263  -2194  -2138  -2144  -2335  -2789  -3353  -3753  -3887  -3853  -3749  -3622  -3502  -3409  -3352  -3315  -3251  -3108  -2876  -2605  -2384  -2268  -2222  -2173  -2101  -2043  -2016  -1983  -1903  -1781  -1656  -1531  -1377  -1197  -1049  -976  -963  -964  -950  -923  -894  -867  -845  -837  -851  -890  -943  -993  -1033  -1053  -1026  -932  -801  -694  -627  -571  -510  -455  -417  -394  -373  -345  -316  -315  -371  -476  -590  -688  -769  -796  -617  -23  1019  2297  3520  4418  4760  4475  3659  2502  1284  248  -569  -1252  -1863  -2394  -2729  -2698  -2258  -1600  -1014  -648  -471  -399  -362  -313  -249  -201  -187  -199  -221  -241  -251  -237  -185  -109  -48  -20  -4  38  119  210  284  332  357  363  357  346  352  432  642  964  1317  1647  1948  2213  2453  2668  2822  2910  2988  3107  3263  3405  3493  3532  3531  3456  3250  2914  2523  2141  1767  1391  1033  718  433  152  -80  -203  -217  -173  -116  -82  -106  -205  -338  -435  -468  -464  -451  -435  -410  -379  -346  -317  -296  -282  -272  -259  -249  -248  -257  -263  -259  -255  -260  -264  -257  -246  -248  -270  -297  -310  -307  -305  -329  -396  -504  -627  -734  -801  -821  -809  -781  -747  -704  -651  -598  -554  -516  -481  -453  -437  -431  -432  -440  -475  -552  -655  -736  -770  -771  -761  -747  -733  -724  -736  -786  -865  -943  -991  -992  -936  -826  -692  -576  -501  -463  -450  -455  -476  -515  -583  -700  -856  -993  -1070  -1100  -1109  -1100  -1055  -965  -863  -800  -800  -856  -937  -1001  -1039  -1063  -1048  -925  -619  -89  664  1590  2575  3430  3934  3935  3365  2295  1012  -151  -1070  -1787  -2367  -2844  -3161  -3137  -2677  -1952  -1231  -686  -375  -258  -231  -220  -208  -193  -163  -110  -40  21  56  68  84  142  280  474  649  762  844  948  1077  1196  1291  1389  1518  1670  1815  1946  2086  2275  2526  2785  2960  3036  3089  3204  3403  3616  3750  3787  3777  3762  3751  3739  3711  3636  3464  3169  2784  2398  2084  1819  1528  1206  919  703  552  452  379  309  230  133  -2  -164  -303  -385  -430  -458  -464  -429  -352  -271  -232  -234  -252  -267  -276  -280  -282  -285  -285  -280  -269  -254  -249  -268  -307  -346  -367  -363  -348  -333  -323  -315  -313  -325  -354  -392  -427  -446  -440  -405  -351  -297  -263  -260  -293  -346  -387  -405  -408  -419  -453  -514  -595  -659  -677  -651  -611  -608  -654  -706  -733  -744  -746  -721  -633  -488  -345  -266  -254  -295  -384  -505  -622  -709  -772  -837  -911  -979  -1031  -1070  -1094  -1112  -1142  -1185  -1220  -1226  -1199  -1156  -1113  -1094  -1122  -1130  -998  -664  -73  833  1992  3145  3961  4199  3741  2637  1188  -171  -1179  -1888  -2481  -3036  -3498  -3705  -3535  -3068  -2490  -1975  -1645  -1501  -1451  -1410  -1358  -1309  -1278  -1242  -1151  -984  -772  -570  -433  -377  -376  -390  -388  -343  -249  -124  -5  81  142  202  291  431  605  788  986  1203  1391  1505  1586  1719  1937  2185  2381  2490  2529  2539  2555  2581  2593  2572  2528  2473  2378  2162  1800  1386  1033  754  486  174  -155  -417  -590  -732  -873  -973  -1007  -992  -951  -901  -861  -852  -887  -953  -1006  -1021  -1008  -991  -986  -995  -999  -989  -974  -965  -963  -964  -970  -980  -995  -1007  -1013  -1003  -966  -894  -805  -739  -713  -700  -687  -679  -679  -682  -686  -689  -683  -658  -615  -574  -545  -525  -514  -518  -538  -560  -572  -575  -574  -573  -572  -573  -573  -570  -562  -555  -566  -594  -619  -622  -612  -602  -592  -574  -536  -466  -359  -240  -148  -89  -56  -59  -97  -159  -243  -338  -414  -458  -480  -506  -559  -629  -679  -694  -695  -699  -703  -702  -691  -679  -676  -684  -694  -655  -470  -64  575  1436  2448  3442  4204  4539  4273  3357  1995  538  -732  -1702  -2368  -2793  -3061  -3140  -2934  -2501  -2009  -1555  -1180  -902  -703  -562  -476  -423  -368  -287  -188  -98  -26  27  57  62  57  65  103  168  247  342  466  608  745  856  937  1027  1181  1382  1555  1674  1794  1979  2256  2564  2782  2861  2859  2853  2874  2912  2944  2954  2936  2886  2811  2712  2565  2341  2058  1756  1455  1140  814  537  356  223  49  -156  -317  -427  -549  -691  -805  -867  -899  -925  -959  -999  -1027  -1034  -1023  -1005  -997  -1006  -1016  -1004  -975  -949  -931  -911  -880  -836  -785  -741  -717  -717  -734  -750  -759  -761  -761  -762  -763  -767  -779  -806  -845  -878  -890  -882  -859  -833  -812  -795  -780  -767  -759  -757  -757  -755  -746  -720  -671  -613  -570  -548  -529  -505  -484  -476  -486  -522  -581  -643  -693  -727  -745  -762  -797  -843  -879  -892  -892  -882  -862  -831  -794  -748  -698  -653  -632  -657  -716  -726  -560  -137  557  1492  2564  3553  4184  4256  3699  2606  1249  -33  -1042  -1784  -2343  -2761  -3006  -2993  -2659  -2094  -1478  -939  -551  -343  -264  -229  -198  -175  -169  -171  -165  -137  -91  -32  48  163  301  431  513  544  558  590  664  786  929  1043  1100  1129  1187  1317  1524  1777  2020  2194  2291  2360  2478  2696  2961  3154  3224  3212  3163  3088  3003  2928  2869  2787  2622  2362  2042  1681  1290  903  573  337  167  16  -125  -251  -360  -453  -515  -541  -547  -550  -553  -549  -533  -518  -516  -526  -535  -536  -534  -546  -585  -641  -681  -687  -662  -624  -590  -560  -531  -512  -507  -510  -514  -509  -485  -440  -380  -311  -252  -241  -294  -374  -436  -463  -466  -454  -411  -326  -228  -161  -144  -162  -202  -246  -272  -271  -251  -230  -218  -217  -226  -239  -255  -277  -308  -339  -360  -373  -385  -396  -410  -434  -472  -519  -571  -637  -735  -853  -939  -973  -972  -956  -940  -938  -968  -1036  -1117  -1174  -1194  -1175  -1115  -1027  -943  -891  -909  -1012  -1116  -1033  -587  256  1393  2615  3619  4134  4022  3293  2139  870  -250  -1130  -1843  -2491  -3061  -3430  -3426  -2994  -2318  -1669  -1220  -1005  -935  -871  -740  -570  -428  -349  -318  -299  -267  -216  -152  -86  -6  98  205  274  297  299  307  339  396  468  555  668  803  937  1065  1216  1435  1732  2026  2222  2325  2414  2530  2656  2766  2846  2892  2905  2882  2826  2748  2648  2497  2281  2036  1798  1556  1289  994  665  314  -6  -247  -399  -486  -545  -598  -642  -676  -701  -719  -731  -744  -771  -818  -873  -914  -928  -917  -888  -855  -833  -824  -824  -834  -861  -893  -888  -806  -669  -556  -511  -518  -539  -542  -513  -462  -411  -379  -372  -393  -441  -503  -548  -564  -552  -520  -480  -453  -448  -459  -476  -497  -531  -572  -603  -618  -622  -618  -598  -552  -489  -436  -419  -439  -474  -503  -523  -548  -579  -603  -613  -616  -619  -621  -623  -623  -623  -623  -621  -613  -603  -595  -592  -594  -595  -585  -549  -487  -415  -358  -327  -319  -321  -326  -334  -350  -377  -416  -469  -529  -585  -631  -673  -723  -786  -850  -899  -933  -957  -966  -953  -915  -860  -799  -744  -727  -780  -852  -789  -445  242  1262  2479  3591  4272  4356  3827  2797  1530  308  -739  -1615  -2368  -3002  -3411  -3440  -3055  -2393  -1670  -1082  -742  -629  -626  -617  -544  -420  -301  -226  -193  -171  -125  -45  42  107  156  196  223  242  287  403  588  768  867  882  876  929  1083  1304  1530  1748  1967  2170  2332  2454  2551  2637  2739  2877  3031  3152  3210  3218  3189  3122  3017  2883  2721  2511  2230  1883  1519  1175  862  574  295  26  -210  -383  -474  -506  -523  -550  -582  -612  -658  -737  -820  -867  -876  -877  -886  -905  -930  -952  -965  -970  -968  -963  -956  -950  -942  -921  -884  -847  -828  -820  -807  -791  -784  -780  -765  -733  -691  -647  -607  -582  -577  -581  -587  -591  -593  -591  -580  -561  -537  -512  -501  -515  -552  -597  -632  -647  -643  -630  -608  -579  -553  -546  -558  -578  -594  -595  -577  -540  -497  -465  -448  -443  -442  -440  -435  -436  -447  -461  -465  -459  -445  -421  -375  -307  -232  -164  -111  -92  -114  -172  -245  -309  -363  -414  -469  -521  -555  -567  -564  -556  -547  -542  -540  -539  -534  -523  -506  -494  -489  -505  -558  -589  -486  -160  449  1337  2393  3425  4189  4461  4132  3244  1998  696  -416  -1261  -1899  -2392  -2738  -2864  -2675  -2190  -1588  -1033  -600  -323  -191  -130  -83  -40  -9  30  103  204  293  350  388  431  494  574  651  722  805  918  1036  1117  1161  1217  1321  1476  1659  1841  2024  2225  2420  2556  2630  2686  2771  2904  3067  3221  3325  3374  3386  3371  3317  3221  3082  2890  2659  2449  2272  2054  1736  1337  891  443  80  -146  -267  -333  -394  -485  -609  -736  -830  -876  -886  -885  -884  -882  -876  -871  -880  -914  -974  -1049  -1104  -1123  -1112  -1085  -1055  -1036  -1033  -1041  -1054  -1061  -1052  -1016  -966  -924  -901  -897  -908  -924  -936  -940  -940  -939  -938  -939  -940  -941  -942  -941  -937  -929  -919  -910  -905  -911  -933  -969  -1003  -1019  -1013  -997  -984  -978  -975  -973  -972  -970  -962  -940  -903  -855  -801  -752  -720  -709  -711  -707  -689  -661  -632  -593  -534  -466  -417  -399  -404  -425  -465  -519  -583  -657  -739  -813  -870  -922  -977  -1016  -1019  -984  -928  -875  -844  -844  -871  -907  -939  -958  -965  -972  -976  -958  -854  -550  46  944  2053  3155  3920  4105  3675  2731  1489  253  -796  -1645  -2316  -2831  -3166  -3231  -2986  -2514  -1926  -1331  -865  -600  -482  -418  -355  -293  -246  -217  -190  -141  -49  86  231  332  367  358  342  359  440  577  724  846  940  1023  1119  1247  1385  1496  1584  1693  1854  2056  2247  2379  2456  2537  2683  2893  3107  3240  3262  3206  3123  3051  2992  2922  2815  2647  2391  2032  1617  1237  925  668  453  257  71  -83  -202  -311  -413  -485  -521  -539  -560  -591  -626  -667  -718  -767  -798  -808  -806  -796  -773  -743  -722  -714  -708  -695  -676  -657  -641  -622  -596  -568  -548  -548  -564  -584  -606  -633  -660  -679  -687  -682  -657  -611  -557  -516  -501  -503  -507  -507  -507  -506  -497  -477  -451  -435  -434  -441  -450  -455  -450  -429  -399  -372  -357  -362  -393  -445  -495  -526  -536  -536  -532  -527  -521  -515  -507  -499  -494  -498  -516  -551  -592  -620  -629  -625  -613  -588  -547  -496  -449  -417  -401  -397  -402  -408  -410  -411  -413  -417  -416  -398  -358  -300  -241  -196  -166  -140  -118  -110  -132  -184  -257  -341  -434  -523  -580  -597  -590  -577  -565  -557  -553  -559  -585  -631  -681  -717  -734  -741  -743  -725  -664  -570  -439  -187  306  1114  2195  3335  4186  4467  4095  3177  1979  807  -181  -1007  -1740  -2371  -2806  -2919  -2669  -2182  -1634  -1148  -800  -609  -524  -470  -390  -265  -127  -32  13  48  97  155  218  287  353  399  424  449  508  624  772  899  979  1030  1078  1134  1210  1347  1571  1843  2105  2341  2546  2694  2780  2837  2899  2977  3061  3144  3224  3301  3358  3380  3355  3279  3161  3005  2778  2458  2065  1637  1228  896  648  431  196  -59  -289  -442  -510  -535  -566  -630  -719  -804  -856  -878  -880  -861  -824  -786  -777  -814  -877  -925  -944  -955  -980  -1015  -1028  -1003  -959  -932  -921  -901  -864  -827  -804  -797  -805  -829  -861  -884  -893  -893  -891  -886  -878  -875  -884  -904  -917  -911  -886  -850  -802  -749  -712  -701  -706  -716  -726  -730  -717  -673  -609  -554  -530  -531  -545  -563  -580  -597  -610  -616  -617  -624  -646  -677  -703  -712  -705  -677  -629  -574  -525  -498  -496  -511  -533  -551  -557  -545  -510  -461  -423  -411  -423  -448  -475  -500  -519  -531  -535  -524  -491  -440  -394  -360  -334  -321  -328  -347  -366  -380  -391  -394  -377  -336  -274  -193  -105  -39  -9  -4  -3  -1  -18  -94  -250  -439  -576  -626  -619  -591  -563  -546  -539  -534  -522  -499  -474  -454  -446  -456  -502  -587  -677  -702  -607  -382  -4  607  1506  2608  3693  4452  4617  4100  3027  1693  432  -575  -1340  -1950  -2468  -2829  -2870  -2532  -1947  -1309  -781  -445  -273  -186  -131  -94  -63  -20  39  103  170  242  308  354  388  429  474  506  526  559  622  713  813  911  1012  1118  1222  1318  1429  1593  1813  2036  2206  2326  2442  2583  2725  2835  2905  2955  3000  3033  3035  3005  2962  2913  2849  2755  2619  2420  2116  1713  1286  910  607  357  123  -104  -292  -404  -452  -477  -503  -536  -582  -655  -737  -793  -810  -807  -801  -797  -791  -786  -789  -805  -822  -826  -820  -806  -781  -747  -710  -678  -650  -629  -614  -604  -594  -584  -578  -586  -611  -639  -646  -632  -616  -607  -590  -552  -504  -469  -456  -454  -455  -459  -474  -501  -535  -561  -576  -585  -587  -567  -509  -428  -367  -344  -345  -350  -348  -345  -354  -385  -435  -482  -502  -488  -463  -449  -446  -443  -431  -408  -389  -391  -411  -437  -460  -468  -452  -422  -380  -335  -300  -280  -271  -269  -268  -248  -192  -108  -27  31  60  55  0  -107  -231  -324  -372  -412  -478  -561  -621  -641  -638  -631  -630  -630  -622  -604  -583  -568  -556  -539  -521  -526  -535  -414  -29  641  1570  2641  3592  4160  4205  3669  2626  1321  58  -976  -1753  -2313  -2717  -2967  -2984  -2731  -2286  -1742  -1204  -807  -596  -491  -410  -325  -241  -165  -109  -82  -68  -49  -22  0  20  56  103  134  140  149  217  400  676  929  1059  1088  1105  1183  1329  1495  1632  1734  1827  1945  2113  2328  2553  2746  2884  2955  2973  2968  2955  2928  2884  2821  2738  2629  2463  2180  1788  1381  1024  724  491  309  114  -125  -370  -577  -749  -892  -991  -1039  -1053  -1051  -1046  -1044  -1053  -1081  -1120  -1150  -1156  -1141  -1109  -1071  -1036  -1007  -980  -952  -932  -928  -935  -936  -920  -893  -861  -830  -811  -812  -832  -863  -890  -904  -904  -892  -868  -840  -820  -812  -811  -795  -750  -687  -638  -610  -585  -553  -530  -530  -555  -588  -609  -615  -619  -622  -623  -623  -634  -665  -706  -727  -720  -695  -669  -651  -640  -637  -639  -640  -636  -635  -646  -674  -706  -724  -713  -662  -586  -523  -497  -502  -516  -527  -532  -532  -523  -500  -469  -444  -441  -463  -498  -528  -539  -515  -444  -349  -276  -240  -213  -170  -115  -65  -28  -5  -1  -33  -115  -239  -370  -474  -545  -600  -647  -683  -712  -731  -723  -682  -625  -578  -561  -569  -580  -580  -561  -524  -488  -434  -273  89  723  1669  2829  3887  4472  4384  3634  2431  1125  -6  -899  -1612  -2205  -2684  -2976  -2963  -2613  -2052  -1469  -999  -688  -504  -370  -236  -115  -25  42  97  135  160  182  210  252  313  382  439  470  481  500  558  656  756  825  873  936  1044  1212  1439  1694  1933  2125  2272  2390  2491  2587  2702  2852  3011  3128  3184  3196  3186  3161  3123  3077  3015  2903  2699  2398  2049  1702  1362  1021  670  328  76  -40  -100  -222  -421  -604  -705  -738  -747  -754  -759  -758  -755  -761  -776  -792  -805  -819  -832  -839  -838  -833  -824  -807  -777  -739  -709  -695  -693  -695  -696  -688  -659  -614  -568  -531  -505  -501  -530  -582  -622  -623  -596  -572  -564  -564  -558  -542  -517  -492  -471  -455  -440  -420  -399  -388  -383  -370  -353  -345  -350  -362  -368  -367  -369  -373  -369  -359  -351  -348  -346  -341  -336  -348  -390  -449  -488  -490  -471  -454  -448  -450  -452  -446  -426  -399  -377  -369  -372  -383  -395  -396  -384  -376  -384  -398  -406  -408  -410  -413  -408  -379  -322  -261  -233  -257  -316  -374  -404  -403  -378  -342  -306  -276  -256  -248  -248  -252  -258  -264  -270  -265  -236  -182  -123  -82  -68  -79  -111  -164  -238  -320  -400  -477  -545  -591  -617  -632  -637  -639  -646  -656  -669  -694  -732  -777  -833  -893  -911  -816  -569  -153  449  1258  2256  3309  4170  4614  4488  3746  2542  1183  -58  -1061  -1833  -2447  -2919  -3153  -3031  -2540  -1838  -1189  -777  -582  -489  -424  -365  -301  -222  -129  -34  39  91  134  175  211  251  311  385  448  482  495  508  534  585  680  822  996  1168  1314  1430  1540  1674  1867  2147  2473  2742  2890  2941  2957  2993  3075  3182  3265  3298  3293  3258  3176  3015  2766  2464  2178  1957  1763  1517  1188  811  456  189  22  -106  -250  -400  -529  -644  -755  -843  -896  -925  -944  -955  -950  -930  -914  -907  -905  -901  -887  -855  -807  -759  -724  -705  -698  -702  -717  -738  -756  -772  -789  -806  -811  -797  -773  -746  -716  -691  -677  -658  -622  -586  -566  -560  -556  -541  -519  -506  -504  -504  -495  -470  -438  -416  -420  -450  -493  -526  -541  -553  -577  -609  -638  -654  -661  -662  -663  -659  -642  -607  -564  -537  -538  -557  -579  -596  -605  -607  -610  -620  -637  -652  -657  -658  -671  -694  -718  -732  -734  -725  -703  -662  -613  -577  -565  -568  -575  -581  -586  -595  -607  -618  -619  -598  -544  -458  -362  -283  -225  -183  -154  -138  -136  -167  -260  -416  -587  -710  -765  -777  -780  -787  -792  -784  -765  -748  -740  -741  -748  -754  -757  -760  -768  -773  -748  -635  -370  88  783  1746  2864  3844  4396  4359  3711  2595  1287  39  -1034  -1905  -2564  -3005  -3210  -3132  -2744  -2163  -1576  -1081  -701  -453  -329  -285  -271  -252  -217  -169  -111  -42  33  109  175  231  290  354  421  497  586  689  792  878  932  969  1026  1136  1300  1493  1690  1882  2072  2254  2410  2530  2617  2681  2758  2892  3073  3226  3289  3274  3228  3192  3158  3084  2928  2690  2404  2097  1774  1448  1127  807  498  233  22  -168  -349  -480  -551  -598  -650  -707  -757  -795  -821  -841  -855  -859  -851  -828  -796  -773  -770  -786  -809  -824  -818  -785  -740  -707  -696  -699  -707  -715  -721  -725  -725  -720  -716  -716  -718  -716  -698  -662  -623  -597  -588  -586  -582  -574  -569  -564  -552  -530  -508  -495  -493  -495  -493  -484  -469  -455  -446  -441  -444  -458  -487  -526  -564  -592  -605  -600  -583  -564  -553  -552  -553  -549  -530  -499  -469  -450  -436  -422  -411  -407  -411  -423  -439  -450  -454  -456  -461  -463  -443  -387  -310  -251  -220  -194  -142  -62  20  69  54  -41  -193  -342  -453  -527  -567  -578  -573  -566  -558  -548  -547  -565  -606  -663  -718  -752  -768  -785  -795  -743  -554  -182  398  1221  2258  3323  4117  4370  3938  2904  1568  281  -749  -1505  -2057  -2484  -2795  -2895  -2722  -2332  -1820  -1283  -836  -559  -434  -379  -334  -279  -223  -178  -139  -75  44  191  308  368  390  403  439  526  648  755  821  868  934  1040  1181  1329  1459  1568  1662  1758  1887  2064  2258  2416  2532  2665  2850  3033  3143  3172  3165  3157  3157  3156  3139  3089  2991  2838  2628  2369  2071  1741  1384  1022  706  451  225  10  -179  -346  -497  -627  -745  -870  -996  -1093  -1161  -1223  -1281  -1315  -1315  -1293  -1268  -1248  -1232  -1225  -1231  -1245  -1265  -1284  -1295  -1299  -1299  -1290  -1268  -1237  -1214  -1201  -1192  -1176  -1152  -1118  -1082  -1057  -1050  -1053  -1057  -1057  -1043  -1011  -970  -929  -888  -849  -827  -829  -837  -832  -812  -795  -788  -787  -785  -777  -764  -753  -749  -750  -752  -750  -744  -730  -714  -702  -702  -711  -715  -700  -675  -655  -645  -644  -649  -655  -655  -643  -616  -577  -531  -487  -453  -439  -441  -442  -428  -391  -328  -252  -179  -114  -60  -40  -79  -175  -288  -385  -472  -556  -617  -651  -667  -678  -683  -679  -668  -655  -644  -632  -622  -624  -656  -723  -788  -792  -664  -329  248  1072  2100  3163  3976  4301  4031  3199  1994  708  -428  -1333  -2004  -2483  -2796  -2913  -2785  -2420  -1902  -1357  -897  -579  -382  -260  -179  -124  -86  -57  -24  32  124  232  314  356  369  371  383  435  533  648  738  791  838  923  1069  1250  1418  1550  1660  1789  1969  2194  2424  2619  2753  2840  2909  2989  3093  3209  3298  3340  3336  3301  3249  3173  3056  2891  2668  2391  2084  1778  1484  1179  844  522  276  123  22  -84  -225  -391  -563  -704  -781  -788  -749  -699  -663  -648  -645  -647  -653  -659  -663  -664  -665  -667  -666  -657  -634  -606  -586  -577  -571  -563  -563  -580  -611  -644  -669  -684  -690  -685  -680  -680  -676  -647  -584  -514  -478  -490  -527  -556  -573  -593  -622  -646  -658  -659  -650  -627  -593  -560  -541  -535  -537  -555  -595  -647  -687  -704  -706  -700  -686  -669  -658  -666  -695  -729  -751  -762  -765  -755  -738  -727  -732  -754  -781  -801  -811  -821  -835  -845  -840  -821  -797  -780  -776  -776  -772  -758  -734  -709  -687  -665  -648  -635  -614  -579  -546  -520  -485  -426  -351  -284  -239  -214  -204  -211  -238  -271  -287  -270  -225  -156  -73  -7  29  55  74  73  43  -12  -85  -165  -235  -291  -333  -367  -397  -414  -418  -416  -416  -424  -445  -480  -516  -542  -548  -530  -499  -493  -523  -528  -405  -43  650  1658  2807  3821  4436  4466  3873  2798  1514  304  -688  -1481  -2130  -2657  -3006  -3051  -2741  -2205  -1620  -1116  -767  -583  -511  -483  -452  -404  -336  -257  -182  -120  -70  -27  9  36  56  91  164  260  334  365  374  404  490  621  758  884  1020  1175  1329  1464  1589  1742  1928  2103  2232  2322  2409  2512  2624  2731  2832  2931  3002  2995  2916  2826  2748  2626  2386  2027  1629  1259  931  632  338  36  -241  -457  -630  -805  -971  -1078  -1117  -1120  -1118  -1120  -1121  -1119  -1114  -1110  -1109  -1099  -1052  -951  -816  -688  -600  -559  -550  -548  -537  -508  -462  -409  -370  -356  -367  -394  -423  -442  -437  -392  -307  -217  -162  -147  -154  -170  -195  -224  -248  -256  -241  -203  -160  -135  -134  -150  -169  -188  -207  -222  -226  -220  -212  -211  -218  -230  -239  -244  -245  -244  -245  -247  -250  -254  -260  -267  -280  -306  -340  -366  -380  -390  -406  -434  -472  -505  -517  -513  -506  -496  -474  -438  -400  -370  -351  -339  -329  -321  -317  -314  -310  -304  -302  -305  -315  -329  -342  -358  -371  -355  -270  -122  20  100  121  104  45  -60  -184  -290  -376  -457  -531  -583  -608  -617  -623  -630  -634  -636  -634  -634  -636  -638  -635  -633  -644  -679  -702  -606  -288  264  1036  2021  3107  4047  4541  4380  3557  2284  893  -330  -1296  -2073  -2713  -3172  -3364  -3204  -2684  -1973  -1321  -858  -583  -445  -386  -351  -314  -277  -241  -189  -115  -42  3  22  27  30  65  167  323  467  559  610  651  703  767  848  969  1139  1309  1417  1482  1597  1822  2123  2406  2602  2711  2787  2867  2953  3035  3112  3182  3233  3253  3245  3216  3156  3018  2768  2450  2121  1777  1406  1055  765  521  285  32  -231  -462  -605  -658  -671  -690  -729  -775  -808  -822  -823  -819  -813  -804  -795  -790  -796  -814  -838  -857  -868  -871  -860  -820  -753  -684  -641  -627  -629  -632  -629  -617  -602  -588  -576  -566  -564  -564  -560  -548  -532  -518  -502  -475  -432  -389  -360  -340  -316  -290  -278  -281  -292  -303  -314  -328  -351  -376  -387  -385  -381  -380  -378  -369  -349  -327  -306  -279  -252  -236  -231  -232  -238  -254  -274  -288  -287  -277  -270  -270  -270  -263  -256  -251  -249  -247  -238  -224  -202  -171  -144  -140  -150  -150  -139  -132  -135  -148  -165  -185  -217  -256  -291  -312  -316  -303  -268  -201  -113  -52  -63  -156  -288  -384  -423  -439  -471  -540  -651  -780  -877  -921  -928  -919  -912  -909  -905  -890  -858  -817  -789  -775  -772  -774  -735  -568  -210  380  1234  2301  3368  4112  4269  3750  2660  1300  41  -922  -1627  -2186  -2661  -2978  -3007  -2738  -2286  -1758  -1244  -845  -599  -454  -354  -276  -213  -147  -62  34  109  144  154  153  136  92  26  -36  -79  -91  -44  92  286  456  565  644  736  874  1062  1250  1368  1416  1467  1605  1856  2151  2374  2488  2552  2617  2683  2732  2761  2774  2766  2733  2682  2609  2478  2253  1950  1629  1334  1059  780  511  280  64  -166  -391  -554  -643  -701  -761  -815  -848  -862  -868  -868  -862  -849  -834  -826  -836  -867  -907  -938  -955  -965  -969  -952  -905  -837  -775  -735  -709  -681  -647  -617  -605  -614  -637  -663  -683  -689  -680  -665  -642  -616  -596  -585  -585  -595  -614  -628  -621  -600  -591  -609  -643  -663  -654  -621  -576  -528  -496  -487  -495  -514  -537  -553  -558  -556  -551  -550  -559  -582  -611  -628  -624  -609  -596  -592  -591  -591  -593  -604  -624  -632  -616  -588  -569  -565  -569  -577  -588  -595  -580  -510  -381  -242  -150  -116  -115  -136  -189  -283  -398  -507  -586  -634  -667  -701  -731  -749  -754  -752  -750  -750  -751  -754  -759  -759  -746  -716  -680  -667  -662  -559  -220  438  1447  2654  3692  4221  4084  3292  2045  684  -493  -1372  -1998  -2464  -2828  -3063  -3074  -2806  -2317  -1741  -1222  -853  -622  -467  -342  -235  -150  -85  -31  22  76  126  176  223  258  289  336  393  435  468  531  635  757  876  983  1075  1156  1244  1357  1504  1679  1867  2058  2244  2427  2609  2782  2940  3072  3152  3175  3171  3162  3151  3132  3103  3059  2974  2808  2544  2211  1853  1508  1201  917  625  337  91  -91  -210  -298  -392  -498  -590  -649  -680  -689  -686  -684  -703  -758  -833  -894  -919  -909  -882  -848  -811  -779  -754  -724  -689  -660  -643  -636  -635  -637  -638  -639  -638  -640  -654  -683  -718  -742  -749  -740  -723  -704  -682  -646  -597  -551  -523  -510  -502  -490  -479  -473  -472  -470  -468  -462  -450  -431  -416  -410  -410  -411  -416  -424  -434  -452  -487  -528  -554  -552  -529  -498  -477  -470  -471  -475  -481  -493  -510  -528  -538  -538  -533  -520  -503  -487  -474  -459  -439  -418  -405  -403  -405  -398  -373  -337  -304  -287  -283  -285  -289  -293  -298  -311  -333  -354  -369  -381  -384  -346  -240  -97  7  43  39  29  19  11  6  1  -29  -121  -256  -372  -433  -452  -450  -442  -435  -432  -433  -433  -431  -439  -473  -540  -620  -689  -734  -745  -688  -501  -126  483  1358  2442  3516  4271  4478  4073  3135  1892  644  -430  -1304  -1982  -2476  -2788  -2861  -2639  -2190  -1649  -1129  -721  -471  -348  -288  -258  -248  -247  -236  -188  -81  60  189  283  358  424  475  503  512  528  575  652  728  781  820  860  919  1026  1204  1436  1667  1847  1976  2097  2239  2424  2660  2901  3071  3156  3200  3236  3265  3271  3251  3214  3166  3087  2958  2754  2448  2057  1657  1307  1018  778  548  293  36  -169  -308  -409  -509  -619  -710  -760  -775  -776  -779  -795  -815  -830  -832  -818  -779  -721  -670  -643  -640  -651  -669  -692  -719  -741  -748  -738  -719  -708  -713  -727  -732  -720  -700  -687  -681  -673  -663  -656  -653  -653  -652  -650  -644  -630  -606  -591  -598  -618  -629  -624  -608  -590  -573  -559  -558  -576  -603  -620  -627  -633  -647  -661  -661  -645  -619  -593  -575  -568  -567  -567  -566  -562  -553  -542  -537  -539  -542  -543  -543  -547  -557  -571  -581  -585  -587  -599  -626  -655  -661  -627  -570  -522  -493  -470  -443  -411  -383  -367  -363  -366  -372  -377  -379  -370  -344  -302  -255  -208  -167  -146  -152  -176  -209  -269  -373  -497  -594  -653  -697  -736  -754  -750  -742  -746  -753  -753  -744  -734  -729  -727  -729  -739  -754  -751  -678  -430  78  836  1796  2860  3802  4345  4312  3650  2477  1103  -139  -1108  -1849  -2439  -2900  -3177  -3152  -2764  -2117  -1447  -961  -699  -574  -500  -442  -396  -362  -333  -304  -273  -232  -160  -52  71  183  263  309  327  348  401  493  605  727  853  960  1027  1073  1141  1255  1417  1624  1842  2019  2151  2289  2470  2671  2846  2982  3094  3181  3228  3238  3231  3219  3202  3157  3040  2824  2536  2216  1863  1496  1176  905  618  295  -15  -258  -404  -468  -508  -581  -696  -818  -898  -926  -927  -922  -917  -914  -913  -918  -922  -919  -909  -894  -876  -857  -844  -837  -836  -836  -836  -835  -830  -822  -813  -799  -780  -763  -756  -758  -770  -792  -821  -845  -858  -854  -821  -765  -709  -668  -640  -617  -598  -581  -571  -571  -576  -584  -591  -597  -600  -593  -579  -571  -581  -602  -617  -612  -581  -537  -504  -490  -485  -480  -477  -480  -491  -501  -497  -475  -446  -426  -420  -423  -440  -470  -502  -523  -529  -523  -506  -482  -456  -434  -419  -408  -397  -382  -368  -355  -339  -323  -308  -298  -293  -292  -295  -300  -301  -282  -222  -123  -20  45  68  72  64  22  -72  -205  -349  -487  -600  -664  -680  -672  -662  -658  -660  -667  -675  -679  -680  -681  -682  -681  -672  -659  -642  -572  -361  44  668  1540  2617  3703  4509  4774  4355  3310  1917  541  -579  -1407  -2032  -2546  -2929  -3044  -2802  -2266  -1578  -915  -450  -216  -120  -72  -38  -8  26  77  144  213  270  321  374  420  451  476  509  551  588  614  641  697  791  912  1047  1199  1375  1557  1719  1854  1974  2079  2171  2282  2444  2638  2812  2958  3096  3216  3278  3272  3219  3142  3046  2931  2800  2649  2452  2174  1810  1409  1019  666  358  83  -165  -376  -534  -665  -816  -982  -1115  -1185  -1218  -1254  -1291  -1307  -1309  -1323  -1360  -1405  -1441  -1459  -1451  -1396  -1292  -1172  -1083  -1036  -1009  -976  -922  -839  -743  -659  -604  -577  -573  -578  -586  -591  -593  -594  -598  -610  -631  -655  -677  -691  -697  -690  -671  -638  -598  -569  -559  -562  -573  -593  -620  -650  -669  -670  -649  -615  -581  -559  -548  -544  -544  -549  -562  -581  -597  -611  -623  -632  -623  -582  -513  -439  -385  -358  -346  -339  -334  -344  -373  -413  -447  -471  -475  -418  -263  -49  121  201  220  212  177  93  -37  -176  -288  -367  -428  -481  -534  -583  -615  -620  -608  -590  -577  -562  -531  -484  -439  -412  -414  -447  -488  -461  -277  117  777  1706  2767  3700  4233  4188  3527  2399  1096  -97  -1056  -1782  -2334  -2768  -3048  -3050  -2731  -2194  -1582  -1023  -637  -455  -398  -355  -273  -168  -67  23  110  195  270  324  362  391  407  408  414  447  510  577  629  694  811  978  1157  1316  1447  1566  1697  1866  2082  2301  2467  2579  2679  2784  2895  3016  3136  3237  3299  3318  3303  3273  3236  3172  3040  2822  2522  2164  1772  1366  959  581  284  97  -28  -194  -436  -686  -862  -947  -979  -989  -992  -992  -996  -1007  -1024  -1042  -1053  -1053  -1037  -1003  -963  -937  -938  -965  -1002  -1028  -1033  -1019  -999  -983  -975  -972  -968  -960  -949  -938  -926  -906  -875  -841  -815  -803  -800  -802  -805  -807  -804  -788  -753  -703  -652  -618  -604  -597  -590  -588  -601  -641  -693  -729  -737  -723  -704  -692  -688  -687  -684  -684  -696  -721  -741  -740  -723  -710  -711  -715  -717  -722  -724  -721  -718  -714  -697  -665  -625  -588  -558  -533  -516  -511  -512  -518  -530  -545  -555  -564  -583  -621  -667  -696  -682  -599  -459  -326  -253  -236  -242  -254  -277  -323  -394  -482  -578  -668  -741  -791  -816  -817  -798  -770  -753  -751  -756  -761  -764  -771  -787  -809  -819  -800  -735  -561  -178  496  1476  2625  3635  4183  4105  3410  2248  925  -237  -1112  -1748  -2226  -2602  -2842  -2841  -2554  -2050  -1470  -974  -659  -499  -392  -270  -151  -81  -64  -71  -78  -79  -68  -41  9  77  159  258  361  437  482  519  568  627  684  753  859  1006  1190  1409  1627  1790  1899  2012  2156  2317  2478  2628  2753  2864  2972  3074  3157  3210  3225  3209  3168  3112  3032  2889  2654  2350  2015  1669  1327  1014  749  518  299  110  -39  -189  -366  -526  -618  -644  -638  -621  -593  -558  -534  -534  -555  -577  -582  -577  -579  -587  -596  -606  -617  -626  -631  -620  -578  -503  -420  -360  -334  -340  -362  -397  -447  -502  -539  -549  -544  -538  -534  -534  -535  -528  -509  -482  -461  -446  -419  -369  -303  -236  -182  -150  -138  -138  -149  -176  -219  -267  -300  -316  -323  -334  -356  -394  -449  -506  -540  -537  -504  -457  -423  -411  -406  -397  -393  -393  -386  -373  -363  -355  -349  -347  -351  -363  -380  -395  -405  -408  -400  -395  -406  -433  -461  -476  -482  -484  -480  -460  -422  -380  -352  -344  -340  -327  -309  -298  -297  -298  -299  -299  -300  -299  -293  -276  -246  -201  -147  -107  -103  -129  -165  -221  -321  -458  -591  -676  -693  -661  -628  -618  -624  -640  -673  -714  -744  -754  -751  -743  -739  -750  -787  -811  -736  -483  -15  702  1680  2799  3808  4420  4424  3765  2590  1222  -17  -984  -1696  -2236  -2675  -2986  -3029  -2720  -2168  -1554  -1008  -610  -385  -294  -272  -266  -247  -223  -206  -189  -150  -80  0  73  135  193  263  346  420  467  501  563  677  810  913  995  1101  1243  1386  1522  1681  1862  2030  2186  2365  2580  2810  3010  3148  3225  3257  3269  3274  3273  3268  3262  3242  3174  3014  2760  2450  2134  1832  1524  1188  836  493  186  -54  -221  -348  -469  -584  -673  -732  -779  -827  -863  -879  -882  -878  -871  -859  -844  -834  -828  -822  -811  -796  -781  -770  -766  -767  -765  -756  -739  -724  -716  -714  -716  -719  -722  -724  -725  -723  -713  -700  -688  -678  -668  -664  -665  -655  -624  -580  -531  -480  -431  -389  -356  -339  -348  -388  -446  -498  -535  -562  -585  -603  -602  -567  -508  -463  -457  -485  -525  -552  -559  -556  -562  -584  -611  -616  -581  -527  -494  -488  -494  -501  -511  -526  -551  -582  -610  -626  -631  -630  -628  -627  -627  -628  -629  -629  -626  -617  -603  -592  -585  -580  -577  -579  -583  -587  -590  -593  -596  -591  -571  -530  -474  -409  -349  -300  -265  -247  -247  -271  -327  -422  -548  -669  -744  -772  -777  -775  -768  -758  -754  -762  -781  -802  -819  -830  -842  -863  -897  -934  -949  -897  -705  -288  412  1395  2545  3607  4304  4446  3950  2909  1614  363  -697  -1560  -2284  -2890  -3287  -3343  -3000  -2354  -1618  -992  -590  -415  -376  -367  -317  -205  -69  22  48  40  32  42  76  131  197  267  342  425  516  611  694  754  802  881  1021  1194  1339  1450  1566  1711  1894  2120  2351  2532  2674  2812  2942  3048  3139  3223  3289  3323  3331  3331  3319  3273  3159  2959  2684  2368  2053  1754  1464  1177  883  588  320  101  -68  -189  -271  -334  -407  -495  -576  -631  -662  -680  -700  -727  -757  -776  -782  -783  -788  -797  -804  -814  -830  -846  -839  -798  -739  -693  -678  -686  -702  -724  -745  -751  -736  -708  -683  -671  -671  -678  -689  -705  -710  -647  -449  -143  135  276  284  220  139  73  26  -11  -47  -95  -173  -276  -376  -442  -467  -468  -464  -463  -464  -468  -469  -465  -461  -463  -467  -468  -475  -490  -501  -501  -495  -491  -492  -498  -506  -514  -520  -526  -531  -534  -535  -533  -526  -507  -472  -430  -401  -397  -414  -442  -472  -507  -538  -555  -559  -563  -574  -587  -592  -590  -584  -576  -553  -509  -469  -453  -456  -464  -471  -475  -463  -414  -330  -246  -195  -181  -200  -259  -354  -474  -604  -718  -788  -810  -804  -783  -753  -723  -705  -701  -703  -704  -701  -695  -692  -704  -735  -761  -752  -671  -438  30  768  1760  2882  3857  4392  4316  3604  2396  997  -260  -1207  -1866  -2337  -2687  -2904  -2916  -2674  -2215  -1631  -1045  -581  -304  -193  -164  -152  -130  -91  -35  25  76  117  153  180  195  202  217  260  336  443  576  727  867  977  1056  1113  1166  1237  1328  1422  1533  1715  1984  2259  2461  2610  2757  2901  3013  3077  3112  3144  3177  3198  3194  3163  3102  3000  2839  2613  2332  2016  1682  1338  998  691  421  170  -61  -256  -393  -480  -544  -619  -709  -791  -844  -867  -864  -838  -796  -756  -734  -729  -733  -738  -741  -744  -746  -745  -741  -737  -741  -761  -795  -832  -857  -861  -844  -814  -784  -765  -756  -747  -731  -708  -689  -676  -666  -657  -649  -641  -635  -634  -633  -628  -618  -615  -629  -656  -677  -684  -682  -679  -675  -664  -641  -609  -580  -565  -562  -564  -564  -562  -557  -550  -550  -580  -656  -759  -844  -884  -891  -886  -881  -875  -861  -832  -789  -744  -713  -700  -693  -688  -687  -690  -694  -692  -677  -650  -615  -577  -534  -477  -403  -330  -277  -251  -260  -313  -398  -492  -576  -651  -710  -753  -796  -847  -895  -928  -941  -927  -879  -814  -760  -731  -713  -703  -713  -741  -725  -592  -294  230  1047  2106  3191  4000  4269  3864  2854  1530  255  -756  -1477  -2014  -2479  -2848  -2995  -2857  -2465  -1881  -1222  -690  -409  -318  -299  -287  -255  -176  -42  103  212  270  303  333  360  381  413  481  574  647  682  700  747  878  1090  1293  1401  1423  1429  1481  1609  1800  2012  2208  2382  2549  2710  2844  2938  3024  3143  3274  3361  3389  3382  3352  3283  3161  2984  2764  2514  2241  1939  1600  1235  873  542  267  55  -112  -271  -431  -565  -649  -692  -716  -721  -702  -674  -664  -686  -728  -762  -776  -778  -777  -780  -785  -789  -784  -771  -755  -737  -716  -695  -680  -673  -670  -668  -670  -674  -676  -675  -671  -666  -661  -655  -653  -654  -655  -645  -621  -592  -568  -556  -566  -596  -621  -631  -629  -615  -578  -516  -448  -397  -377  -383  -399  -412  -422  -442  -476  -515  -544  -555  -553  -547  -534  -506  -474  -456  -462  -479  -488  -481  -475  -487  -508  -519  -514  -507  -504  -491  -455  -405  -367  -354  -360  -377  -405  -439  -468  -483  -486  -482  -475  -466  -456  -443  -425  -396  -360  -335  -326  -327  -330  -336  -343  -346  -333  -294  -232  -165  -107  -64  -39  -31  -33  -43  -79  -170  -324  -488  -603  -665  -702  -721  -722  -712  -702  -697  -693  -690  -690  -700  -718  -751  -806  -872  -903  -832  -568  -48  740  1749  2825  3751  4323  4370  3814  2760  1464  202  -842  -1635  -2238  -2691  -2969  -2989  -2693  -2155  -1550  -1015  -622  -412  -350  -341  -305  -226  -138  -69  -11  41  86  125  168  214  253  281  299  316  347  408  497  608  712  770  789  852  1049  1364  1681  1924  2093  2215  2317  2436  2573  2698  2812  2936  3055  3142  3191  3213  3219  3214  3194  3155  3078  2937  2727  2457  2125  1757  1407  1071  733  426  159  -73  -249  -353  -397  -407  -419  -469  -567  -689  -796  -865  -902  -923  -939  -946  -934  -912  -893  -879  -867  -858  -852  -850  -844  -824  -787  -756  -748  -762  -775  -772  -758  -740  -709  -669  -636  -622  -622  -635  -662  -697  -727  -740  -738  -733  -730  -722  -700  -670  -643  -621  -598  -570  -535  -499  -481  -483  -496  -513  -527  -539  -556  -580  -603  -616  -620  -623  -631  -641  -648  -649  -648  -650  -655  -656  -640  -606  -569  -550  -552  -564  -573  -577  -580  -584  -588  -591  -592  -593  -594  -591  -579  -559  -537  -521  -514  -516  -521  -523  -518  -509  -500  -496  -495  -494  -483  -454  -410  -363  -314  -259  -203  -161  -150  -172  -215  -261  -305  -364  -460  -578  -673  -724  -753  -782  -809  -824  -825  -814  -791  -757  -726  -710  -715  -737  -761  -777  -775  -667  -312  353  1281  2365  3419  4189  4464  4146  3267  2026  729  -382  -1253  -1959  -2557  -2977  -3077  -2836  -2370  -1806  -1274  -903  -732  -675  -612  -481  -305  -144  -37  11  20  24  46  83  121  152  181  219  264  309  347  380  424  505  642  836  1054  1230  1321  1355  1396  1502  1705  1992  2294  2536  2691  2779  2857  2972  3105  3202  3243  3261  3274  3263  3193  3060  2885  2675  2415  2082  1692  1295  931  631  412  230  21  -198  -363  -447  -494  -557  -653  -763  -856  -916  -950  -966  -968  -960  -950  -940  -929  -918  -917  -933  -963  -991  -1006  -1009  -998  -960  -902  -835  -764  -701  -672  -691  -733  -766  -775  -772  -769  -767  -771  -779  -782  -767  -723  -659  -600  -562  -540  -524  -518  -524  -535  -542  -544  -546  -550  -551  -541  -513  -478  -453  -445  -446  -447  -445  -445  -447  -446  -441  -438  -446  -465  -485  -491  -477  -455  -441  -440  -445  -441  -411  -348  -267  -200  -182  -209  -258  -317  -380  -424  -427  -385  -311  -237  -190  -175  -178  -182  -175  -143  -86  -21  21  35  33  23  9  -5  -8  14  75  175  297  412  491  530  547  547  510  421  308  217  159  110  61  26  9  -1  -19  -52  -91  -123  -142  -154  -160  -156  -143  -127  -104  -37  113  389  868  1624  2631  3744  4724  5307  5307  4674  3548  2236  1019  29  -731  -1343  -1842  -2130  -2097  -1743  -1175  -530  41  435  653  766  840  896  940  1009  1130  1277  1385  1433  1447  1457  1478  1521  1597  1697  1792  1870  1959  2084  2227  2362  2504  2661  2803  2934  3101  3316  3526  3674  3743  3756  3750  3750  3760  3768  3736  3622  3439  3238  3050  2887  2736  2542  2275  1958  1628  1315  1018  680  251  -214  -620  -934  -1174  -1340  -1441  -1504  -1549  -1583  -1621  -1674  -1733  -1769  -1771  -1751  -1731  -1719  -1718  -1728  -1763  -1831  -1916  -1989  -2047  -2109  -2183  -2261  -2342  -2441  -2554  -2647  -2685  -2678  -2664  -2676  -2727  -2802  -2872  -2927  -2974  -3018  -3046  -3045  -3023  -3003  -2999  -3005  -3005  -2980  -2932  -2873  -2817  -2768  -2715  -2653  -2596  -2551  -2510  -2477  -2457  -2445  -2429  -2405  -2381  -2359  -2331  -2301  -2271  -2236  -2207  -2185  -2147  -2084  -2020  -1975  -1940  -1887  -1807  -1728  -1675  -1635  -1585  -1522  -1455  -1390  -1321  -1227  -1100  -967  -857  -771  -707  -668  -642  -598  -502  -353  -189  -53  39  102  158  213  255  271  252  193  104  3  -83  -141  -158  -136  -107  -96  -103  -109  -112  -120  -145  -181  -212  -231  -248  -283  -327  -303  -116  278  879  1691  2686  3714  4510  4820  4496  3565  2243  866  -294  -1158  -1772  -2211  -2519  -2647  -2493  -2050  -1459  -900  -475  -192  -32  26  33  42  68  108  181  312  475  592  636  642  646  651  652  654  672  725  815  914  989  1052  1154  1311  1481  1630  1771  1918  2058  2183  2288  2370  2457  2609  2850  3127  3360  3511  3591  3628  3644  3652  3653  3629  3543  3358  3069  2696  2258  1782  1310  880  514  223  -7  -215  -426  -620  -762  -839  -868  -875  -894  -943  -1005  -1049  -1067  -1070  -1070  -1075  -1088  -1104  -1113  -1105  -1079  -1040  -992  -938  -886  -855  -850  -857  -849  -806  -729  -654  -613  -607  -619  -639  -652  -635  -561  -439  -325  -262  -244  -240  -227  -199  -160  -127  -118  -145  -204  -267  -304  -291  -221  -118  -26  25  41  39  38  40  44  48  54  59  59  50  31  12  7  20  37  24  -31  -98  -140  -143  -113  -69  -35  -24  -32  -54  -83  -103  -100  -64  -7  43  65  51  4  -59  -119  -149  -140  -92  -25  26  48  48  38  22  5  1  25  82  151  204  247  308  385  451  498  537  573  601  622  633  623  590  553  525  505  480  437  378  323  285  265]
