reading_id,reading_time,wire_id,result_classification,heart_rate,heart_rate_alert,firmware_version,device_app_version,hardware_version,waveform_samples
026445e0-6966-11ed-8080-808080808080,Mon Nov 21 06:30:36 UTC 2022,a10163b41b39,NSR,78,NONE,20001.171.50,2.10.0,Charge 5,[-20873  -20985  -20846  -20237  -19258  -18372  -17930  -17865  -17938  -18010  -18040  -17965  -17663  -16989  -15916  -14669  -13534  -12527  -11545  -10615  -9753  -8852  -7806  -6657  -5627  -4932  -4591  -4424  -4244  -4020  -3814  -3654  -3519  -3374  -3193  -2941  -2549  -1972  -1221  -307  669  1481  2037  2529  3254  4363  5755  7140  8179  8696  8797  8664  8350  7863  7274  6688  6224  5944  5828  5864  6109  6591  7185  7719  8148  8517  8834  9105  9455  9977  10527  10866  10937  10839  10669  10499  10381  10347  10436  10677  10987  11215  11309  11325  11316  11307  11340  11456  11643  11860  12106  12392  12681  12934  13139  13298  13407  13467  13501  13530  13538  13509  13462  13389  13252  13071  12918  12788  12574  12180  11636  11062  10512  9954  9336  8617  7852  7184  6668  6269  5994  5845  5750  5613  5378  5067  4758  4528  4380  4249  4100  3959  3856  3784  3699  3508  3126  2630  2236  2057  2022  2021  2009  1953  1797  1536  1270  1093  1012  980  964  941  874  728  523  334  199  61  -133  -349  -505  -576  -588  -575  -565  -593  -689  -818  -876  -768  -504  -211  -13  85  163  289  483  702  889  1025  1100  1114  1092  1066  1049  1045  1075  1165  1301  1429  1521  1602  1700  1804  1875  1894  1859  1765  1639  1537  1485  1465  1454  1459  1526  1699  1951  2199  2388  2520  2600  2640  2654  2651  2620  2522  2341  2107  1865  1657  1573  1704  2058  2596  3270  4025  4839  5658  6289  6450  5975  4965  3716  2506  1468  625  -49  -574  -858  -839  -654  -488  -380  -301  -240  -203  -175  -134  -77  -28  -10  -11  12  105  252  381  442  453  456  481  537  613  704  809  914  993  1041  1071  1114  1202  1349  1513  1635  1694  1722  1767  1845  1948  2074  2215  2347  2454  2533  2577  2590  2571  2501  2373  2212  2048  1883  1712  1540  1346  1086  726  293  -109  -386  -543  -666  -839  -1099  -1403  -1642  -1756  -1778  -1767  -1752  -1729  -1695  -1655  -1608  -1541  -1454  -1379  -1341  -1335  -1341  -1341  -1322  -1293  -1273  -1266  -1250  -1194  -1094  -984  -910  -884  -889  -908  -935  -972  -1019  -1074  -1132  -1188  -1234  -1268  -1285  -1282  -1268  -1250  -1187  -1016  -745  -491  -354  -335  -378  -449  -543  -668  -827  -984  -1085  -1115  -1107  -1089  -1071  -1054  -1042  -1037  -1052  -1100  -1174  -1242  -1263  -1174  -927  -602  -365  -280  -292  -354  -462  -599  -743  -907  -1097  -1286  -1470  -1680  -1895  -2036  -2075  -2051  -2011  -1990  -2029  -2158  -2337  -2466  -2492  -2436  -2353  -2296  -2299  -2369  -2476  -2569  -2585  -2460  -2157  -1703  -1098  -279  748  1875  2939  3730  4020  3728  2996  2012  910  -157  -1058  -1723  -2045  -1953  -1601  -1221  -893  -608  -373  -190  -56  30  85  116  137  199  365  643  939  1130  1190  1184  1171  1176  1206  1267  1371  1516  1681  1843  1972  2044  2064  2060  2051  2045  2050  2083  2152  2258  2425  2661  2909  3088  3187  3248  3303  3369  3449  3534  3598  3618  3557  3365  3024  2574  2084  1601  1162  803  525  294  88  -96  -268  -447  -672  -938  -1173  -1323  -1401  -1435  -1453  -1470  -1488  -1509  -1538  -1558  -1520  -1378  -1161  -959  -819  -722  -637  -555  -478  -417  -380  -368  -395  -485  -627  -761  -844  -879  -883  -865  -844  -833  -838  -861  -919  -1027  -1157  -1252  -1298  -1329  -1365  -1393  -1415  -1449  -1499  -1554  -1616  -1692  -1777  -1858  -1939  -2023  -2104  -2175  -2237  -2302  -2381  -2462  -2522  -2552  -2565  -2582  -2619  -2659  -2658  -2545  -2260  -1874  -1564  -1406  -1319  -1221  -1099  -976  -881  -827  -807  -806  -814  -829  -851  -871  -868  -808  -668  -491  -361  -317  -332  -380  -451  -531  -611  -677  -716  -732  -732  -725  -706  -637  -468  -176  266  900  1702  2612  3570  4422  4917  4869  4297  3386  2353  1365  475  -339  -1061  -1574  -1732  -1513  -1057  -536  -70  248  393  413  378  339  301  221  53  -177  -390  -520  -553  -502  -405  -312  -254  -229  -218  -215  -214  -193  -113  51  282  514  685  785  844  896  970  1077  1205  1329  1487  1790  2283  2831  3255  3503  3636  3724  3786  3789  3734  3660  3551  3334  2999  2608  2192  1724  1207  737  419  246  122  -36  -247  -461  -630  -757  -862  -942  -991  -1020  -1046  -1082  -1133  -1178  -1203  -1221  -1243  -1269  -1290  -1302  -1306  -1309  -1313  -1309  -1281  -1231  -1188  -1182  -1209  -1246  -1269  -1277  -1279  -1280  -1280  -1281  -1288  -1308  -1337  -1364  -1375  -1351  -1277  -1172  -1079  -1007  -933  -852  -776  -713  -662  -614  -574  -561  -571  -572  -538  -470  -399  -362  -361  -375  -401  -453  -525  -576  -569  -495  -390  -311  -282  -292  -326  -368  -399  -414  -433  -484  -577  -681  -749  -774  -775  -744  -655  -511  -366  -271  -231  -225  -255  -341  -479  -636  -793  -934  -1047  -1152  -1259  -1329  -1303  -1150  -921  -727  -621  -572  -536  -502  -478  -454  -396  -300  -185  -31  232  656  1269  2029  2762  3315  3620  3583  3140  2344  1324  222  -806  -1617  -2159  -2452  -2502  -2326  -2006  -1642  -1323  -1122  -1042  -1028  -1032  -1034  -1028  -1002  -937  -812  -637  -472  -376  -351  -360  -383  -415  -455  -490  -510  -501  -451  -368  -280  -203  -124  -8  180  441  746  1071  1364  1558  1647  1705  1821  2039  2329  2618  2841  2983  3076  3159  3236  3295  3322  3274  3096  2790  2421  2023  1613  1230  897  613  373  176  33  -51  -105  -160  -217  -275  -351  -442  -511  -531  -493  -402  -291  -220  -223  -297  -398  -468  -491  -493  -508  -540  -562  -553  -525  -481  -405  -302  -211  -162  -162  -192  -222  -251  -296  -359  -413  -436  -419  -360  -284  -222  -182  -142  -89  -28  27  63  66  24  -67  -192  -318  -431  -518  -565  -574  -566  -559  -557  -557  -559  -561  -564  -564  -562  -559  -568  -606  -690  -805  -905  -966  -996  -1010  -989  -902  -743  -558  -410  -337  -345  -421  -531  -642  -746  -823  -828  -763  -689  -657  -667  -693  -715  -730  -744  -757  -770  -771  -732  -622  -459  -297  -150  25  247  463  613  679  670  610  530  455  369  234  50  -141  -286  -327  -221  15  332  738  1303  2029  2775  3337  3536  3288  2655  1779  779  -234  -1101  -1658  -1844  -1734  -1487  -1228  -991  -755  -503  -268  -124  -88  -114  -161  -207  -238  -253  -270  -325  -447  -609  -738  -788  -747  -599  -372  -142  51  220  371  503  611  678  727  846  1101  1431  1702  1848  1908  1939  1988  2107  2314  2542  2708  2802  2854  2876  2874  2857  2841  2825  2750  2536  2162  1693  1222  825  546  352  154  -71  -260  -367  -422  -476  -568  -706  -849  -953  -1011  -1043  -1063  -1085  -1117  -1160  -1202  -1236  -1267  -1310  -1378  -1451  -1489  -1465  -1393  -1290  -1154  -985  -808  -661  -556  -470  -367  -242  -126  -48  -15  -16  -49  -112  -195  -292  -421  -579  -718  -801  -829  -829  -821  -816  -813  -809  -806  -808  -826  -865  -913  -949  -967  -972  -968  -960  -955  -950  -937  -908  -870  -837  -814  -789  -753  -712  -684  -682  -708  -749  -781  -786  -751  -669  -563  -479  -428  -389  -354  -333  -333  -351  -378  -405  -428  -439  -415  -331  -204  -75  40  138  189  178  120  40  -35  -80  -65  21  149  254  297  278  204  82  -62  -192  -283  -350  -414  -470  -501  -507  -508  -500  -407  -154  202  491  612  587  456  263  72  -65  -151  -214  -267  -303  -328  -369  -428  -483  -538  -631  -794  -1009  -1216  -1361  -1407  -1324  -1087  -692  -154  506  1288  2171  3045  3721  3999  3762  3087  2226  1393  630  -130  -891  -1550  -1945  -1946  -1617  -1185  -815  -541  -346  -206  -113  -64  -34  -5  38  122  255  395  476  467  375  246  146  115  168  317  533  749  915  1022  1081  1109  1127  1184  1343  1625  1972  2301  2585  2856  3102  3261  3312  3291  3222  3110  2983  2868  2774  2702  2676  2729  2861  3017  3130  3136  2961  2556  2000  1461  1033  698  429  218  58  -54  -139  -229  -338  -473  -645  -822  -935  -967  -955  -938  -928  -927  -936  -962  -999  -1031  -1044  -1037  -1023  -1015  -1012  -1011  -1023  -1068  -1158  -1279  -1403  -1506  -1560  -1533  -1416  -1259  -1142  -1098  -1097  -1104  -1099  -1081  -1050  -996  -913  -824  -768  -773  -840  -944  -1036  -1076  -1035  -897  -712  -575  -532  -568  -661  -788  -903  -962  -975  -997  -1072  -1180  -1261  -1287  -1281  -1271  -1261  -1239  -1191  -1121  -1048  -977  -900  -806  -696  -593  -534  -530  -567  -633  -711  -775  -811  -825  -837  -844  -826  -786  -743  -694  -620  -494  -308  -121  -4  35  37  16  -47  -189  -417  -696  -958  -1144  -1259  -1348  -1425  -1471  -1425  -1205  -824  -446  -242  -265  -471  -742  -930  -987  -970  -950  -947  -930  -817  -519  16  794  1728  2641  3353  3759  3781  3344  2502  1430  288  -773  -1580  -2046  -2223  -2155  -1861  -1445  -1051  -763  -580  -461  -361  -253  -130  9  164  313  425  489  524  555  593  627  640  632  617  607  603  613  654  727  825  957  1147  1398  1670  1898  2040  2101  2118  2132  2165  2219  2308  2444  2600  2727  2827  2956  3141  3338  3475  3524  3489  3383  3241  3094  2888  2515  1958  1351  864  577  446  345  165  -96  -356  -555  -685  -762  -808  -833  -843  -844  -843  -843  -844  -837  -803  -728  -632  -558  -531  -560  -651  -779  -890  -965  -1024  -1082  -1126  -1150  -1160  -1163  -1167  -1172  -1166  -1141  -1089  -1019  -955  -910  -877  -841  -787  -715  -655  -639  -662  -696  -723  -728  -709  -688  -679  -674  -662  -642  -619  -587  -542  -496  -463  -447  -443  -442  -443  -444  -440  -430  -419  -414  -410  -370  -257  -87  70  173  213  148  -80  -434  -756  -932  -980  -970  -943  -897  -820  -717  -602  -482  -364  -268  -206  -177  -168  -180  -237  -347  -475  -575  -634  -671  -701  -731  -764  -802  -853  -929  -1018  -1087  -1112  -1071  -939  -728  -506  -337  -247  -242  -312  -432  -534  -530  -397  -149  279  954  1794  2616  3229  3452  3194  2529  1621  609  -405  -1321  -2042  -2505  -2668  -2509  -2125  -1714  -1405  -1185  -1013  -862  -679  -447  -230  -91  -29  -8  2  18  43  81  148  241  340  431  504  545  553  544  534  544  600  726  927  1178  1438  1670  1869  2040  2182  2310  2467  2699  2992  3263  3440  3530  3591  3650  3680  3658  3611  3580  3557  3479  3289  2981  2601  2189  1743  1271  838  513  289  114  -28  -124  -176  -222  -308  -442  -590  -724  -861  -1011  -1146  -1230  -1260  -1240  -1162  -1027  -867  -726  -638  -597  -580  -574  -580  -586  -583  -574  -559  -538  -502  -445  -384  -358  -393  -480  -589  -695  -782  -848  -907  -963  -1007  -1055  -1141  -1259  -1358  -1406  -1418  -1407  -1361  -1253  -1096  -944  -838  -775  -720  -640  -535  -435  -369  -339  -334  -343  -373  -445  -570  -711  -806  -826  -792  -734  -681  -653  -645  -647  -650  -646  -629  -602  -578  -567  -573  -600  -643  -690  -724  -736  -718  -661  -580  -502  -427  -350  -286  -245  -216  -189  -164  -125  -52  49  154  240  298  316  294  239  157  41  -112  -303  -538  -815  -1066  -1215  -1253  -1214  -1112  -972  -853  -793  -796  -864  -994  -1140  -1244  -1288  -1300  -1306  -1300  -1238  -1068  -782  -417  -15  424  984  1773  2766  3771  4538  4842  4595  3924  3036  2050  1005  -32  -954  -1641  -1954  -1834  -1432  -1004  -738  -665  -696  -738  -762  -771  -761  -711  -611  -484  -380  -327  -312  -312  -312  -301  -271  -213  -123  2  170  383  631  873  1061  1199  1331  1484  1641  1771  1871  1978  2115  2258  2375  2473  2576  2687  2785  2871  2983  3149  3333  3466  3515  3487  3389  3217  2978  2689  2379  2079  1776  1445  1103  756  374  -28  -400  -688  -855  -918  -938  -949  -944  -916  -880  -867  -877  -890  -903  -929  -967  -1005  -1040  -1086  -1155  -1247  -1340  -1409  -1446  -1462  -1461  -1440  -1398  -1353  -1321  -1301  -1281  -1259  -1241  -1215  -1144  -981  -728  -460  -272  -196  -203  -268  -381  -515  -624  -678  -687  -676  -657  -633  -618  -629  -673  -729  -767  -777  -757  -704  -625  -549  -499  -488  -525  -607  -728  -876  -1019  -1116  -1169  -1208  -1236  -1222  -1152  -1052  -965  -919  -906  -897  -870  -823  -757  -670  -561  -456  -390  -369  -368  -362  -333  -285  -237  -202  -185  -176  -170  -164  -159  -156  -154  -157  -178  -227  -312  -433  -593  -789  -984  -1124  -1190  -1201  -1175  -1118  -1044  -980  -956  -983  -1043  -1105  -1144  -1165  -1173  -1136  -1003  -775  -486  -115  417  1148  2023  2916  3654  4060  4005  3480  2647  1718  792  -110  -966  -1721  -2273  -2484  -2289  -1791  -1200  -676  -282  -41  48  47  32  42  88  159  244  329  410  529  725  951  1102  1136  1090  1018  974  1024  1206  1454  1634  1699  1705  1706  1711  1714  1726  1762  1825  1911  2013  2131  2305  2595  2976  3335  3605  3813  4003  4162  4258  4271  4163  3890  3448  2898  2329  1803  1320  863  453  114  -155  -364  -519  -637  -740  -856  -1009  -1169  -1274  -1295  -1260  -1208  -1171  -1172  -1229  -1336  -1449  -1515  -1518  -1476  -1416  -1367  -1334  -1317  -1314  -1306  -1270  -1201  -1117  -1042  -992  -965  -952  -945  -934  -923  -916  -914  -904  -872  -825  -793  -791  -805  -821  -841  -870  -910  -949  -974  -978  -955  -894  -799  -688  -587  -518  -481  -453  -420  -379  -334  -298  -278  -276  -289  -314  -345  -380  -436  -527  -633  -720  -772  -792  -791  -775  -753  -732  -716  -702  -672  -605  -505  -408  -354  -358  -410  -481  -533  -557  -562  -548  -493  -391  -281  -210  -186  -190  -213  -259  -315  -362  -408  -487  -618  -787  -966  -1115  -1191  -1174  -1086  -973  -872  -787  -717  -673  -661  -676  -722  -792  -860  -897  -885  -818  -724  -661  -632  -535  -254  263  1016  1915  2777  3430  3774  3730  3252  2425  1429  419  -456  -1066  -1414  -1571  -1565  -1429  -1211  -949  -692  -488  -345  -230  -124  -41  4  32  71  137  211  265  296  324  358  400  469  573  696  820  929  1002  1032  1047  1088  1166  1267  1379  1506  1654  1820  2013  2245  2515  2807  3093  3339  3530  3679  3791  3856  3869  3835  3751  3628  3496  3370  3226  3009  2664  2181  1625  1098  682  404  221  48  -160  -383  -584  -735  -824  -852  -838  -794  -738  -695  -681  -708  -784  -890  -976  -1013  -1013  -995  -975  -963  -970  -1004  -1054  -1100  -1140  -1187  -1240  -1281  -1301  -1306  -1300  -1285  -1263  -1239  -1221  -1204  -1169  -1108  -1033  -967  -931  -928  -940  -933  -870  -743  -596  -484  -415  -369  -343  -351  -404  -490  -578  -646  -696  -730  -754  -781  -813  -839  -856  -880  -927  -986  -1023  -995  -876  -708  -579  -524  -514  -514  -517  -529  -552  -575  -586  -585  -578  -567  -543  -509  -463  -396  -308  -225  -173  -149  -146  -190  -322  -525  -715  -832  -883  -907  -921  -929  -931  -931  -933  -939  -950  -963  -978  -998  -1017  -1035  -1060  -1081  -1053  -910  -617  -184  395  1129  1927  2624  3056  3081  2641  1865  958  58  -744  -1411  -1984  -2478  -2806  -2836  -2529  -2008  -1488  -1131  -939  -830  -748  -682  -615  -522  -403  -291  -201  -131  -69  7  97  170  202  211  237  315  434  545  615  659  716  803  923  1089  1296  1507  1689  1831  1939  2029  2126  2244  2392  2576  2775  2932  3013  3036  3039  3038  3037  3024  2956  2778  2482  2115  1721  1335  979  643  304  -30  -324  -529  -625  -646  -648  -658  -682  -720  -758  -775  -758  -718  -679  -651  -641  -663  -733  -832  -911  -945  -942  -923  -904  -886  -867  -846  -828  -813  -800  -786  -760  -708  -637  -557  -461  -359  -289  -267  -270  -275  -277  -277  -276  -268  -256  -245  -239  -236  -216  -150  -32  101  198  242  253  248  227  185  126  59  -9  -70  -108  -120  -119  -121  -137  -172  -227  -291  -348  -390  -416  -429  -436  -453  -490  -540  -580  -601  -608  -604  -575  -508  -422  -358  -338  -363  -424  -500  -561  -585  -551  -428  -223  1  185  309  392  454  503  531  521  455  337  206  104  44  19  13  13  13  12  13  10  -27  -126  -258  -359  -401  -409  -410  -414  -408  -339  -106  392  1167  2069  2877  3397  3481  3081  2322  1391  396  -603  -1514  -2260  -2797  -3039  -2901  -2456  -1906  -1432  -1116  -954  -893  -864  -822  -747  -639  -511  -370  -204  -22  122  196  223  238  248  258  276  303  343  410  510  619  704  764  842  979  1163  1343  1479  1572  1664  1811  2024  2267  2489  2677  2854  3036  3196  3297  3340  3346  3319  3249  3138  2995  2806  2552  2223  1818  1375  968  639  391  205  33  -174  -423  -657  -813  -885  -912  -930  -943  -943  -941  -964  -1023  -1101  -1165  -1203  -1229  -1254  -1267  -1252  -1202  -1124  -1048  -999  -983  -982  -981  -974  -959  -935  -902  -857  -798  -739  -699  -685  -692  -708  -733  -773  -824  -863  -874  -852  -806  -766  -761  -779  -794  -797  -798  -802  -803  -789  -757  -722  -699  -690  -687  -687  -682  -667  -647  -640  -662  -715  -786  -856  -906  -926  -913  -860  -783  -717  -688  -685  -691  -696  -698  -691  -668  -629  -590  -564  -554  -555  -560  -559  -543  -510  -466  -417  -356  -278  -201  -155  -155  -186  -228  -286  -392  -542  -689  -790  -837  -847  -841  -831  -823  -818  -824  -853  -915  -994  -1054  -1074  -1048  -964  -810  -603  -363  -41  457  1172  2052  2949  3679  4110  4159  3813  3138  2222  1147  12  -1044  -1868  -2333  -2389  -2096  -1626  -1192  -904  -735  -624  -546  -492  -445  -388  -316  -228  -134  -59  -20  1  43  117  210  302  378  432  469  501  547  630  747  866  957  1030  1106  1200  1325  1477  1634  1813  2038  2309  2630  2980  3285  3479  3567  3600  3618  3633  3638  3619  3557  3438  3253  2999  2675  2281  1850  1419  1016  682  439  254  73  -115  -264  -342  -376  -427  -535  -682  -803  -862  -888  -922  -970  -1012  -1031  -1030  -1008  -956  -876  -798  -751  -739  -746  -758  -764  -736  -651  -532  -446  -428  -466  -530  -591  -635  -656  -657  -645  -626  -616  -634  -676  -721  -752  -780  -834  -905  -959  -978  -976  -972  -978  -1001  -1036  -1066  -1072  -1056  -1036  -1025  -1024  -1028  -1028  -1023  -1022  -1028  -1033  -1031  -1024  -1022  -1031  -1046  -1053  -1044  -1012  -956  -895  -858  -847  -847  -847  -843  -838  -827  -803  -772  -755  -765  -795  -823  -838  -835  -814  -765  -686  -584  -470  -342  -218  -137  -117  -150  -229  -332  -421  -467  -479  -478  -479  -480  -465  -413  -322  -214  -122  -68  -50  -50  -66  -114  -209  -325  -398  -376  -258  -40  318  865  1612  2495  3340  3933  4096  3752  3011  2097  1145  196  -734  -1613  -2333  -2718  -2682  -2326  -1832  -1339  -940  -672  -507  -398  -326  -280  -245  -216  -191  -161  -121  -70  -20  19  72  171  305  426  516  609  738  897  1056  1198  1330  1448  1545  1633  1722  1826  1994  2251  2534  2763  2934  3091  3271  3503  3771  3988  4078  4051  3979  3913  3828  3663  3404  3095  2748  2349  1918  1486  1067  681  343  36  -242  -461  -599  -688  -786  -908  -1022  -1110  -1175  -1219  -1247  -1265  -1271  -1261  -1241  -1222  -1211  -1207  -1209  -1215  -1226  -1239  -1248  -1248  -1244  -1243  -1251  -1272  -1309  -1348  -1373  -1380  -1378  -1373  -1363  -1347  -1326  -1313  -1314  -1309  -1269  -1198  -1122  -1068  -1047  -1046  -1040  -1029  -1029  -1049  -1080  -1105  -1117  -1118  -1113  -1102  -1081  -1053  -1032  -1035  -1072  -1137  -1199  -1233  -1238  -1224  -1199  -1166  -1130  -1087  -1021  -940  -860  -771  -641  -473  -278  -66  131  261  323  371  447  539  614  665  700  715  703  678  652  616  552  456  338  224  137  87  58  33  8  -20  -78  -193  -352  -506  -609  -656  -673  -681  -675  -639  -553  -433  -288  -43  432  1177  2058  2848  3324  3339  2887  2128  1249  327  -627  -1528  -2252  -2718  -2873  -2705  -2315  -1846  -1381  -976  -697  -568  -540  -538  -524  -487  -432  -366  -297  -216  -123  -38  21  68  131  220  318  399  465  538  627  719  805  905  1034  1168  1278  1377  1499  1669  1903  2187  2452  2630  2729  2818  2960  3163  3386  3571  3677  3708  3703  3676  3597  3404  3064  2629  2163  1664  1169  771  490  265  69  -88  -211  -327  -452  -577  -686  -776  -850  -920  -992  -1061  -1104  -1117  -1113  -1103  -1093  -1085  -1084  -1091  -1099  -1105  -1109  -1109  -1094  -1049  -988  -942  -928  -934  -940  -929  -887  -827  -776  -747  -735  -731  -730  -730  -727  -725  -733  -741  -727  -703  -691  -701  -726  -744  -739  -720  -704  -691  -680  -670  -661  -651  -641  -636  -634  -634  -635  -641  -654  -669  -681  -689  -693  -696  -693  -673  -626  -558  -490  -434  -399  -383  -380  -383  -387  -391  -391  -377  -341  -285  -224  -187  -194  -237  -300  -375  -468  -584  -708  -799  -839  -844  -838  -835  -834  -830  -817  -794  -781  -793  -822  -851  -877  -899  -914  -900  -826  -678  -468  -179  251  900  1747  2601  3213  3443  3281  2797  2083  1231  302  -628  -1440  -2016  -2305  -2300  -2042  -1652  -1270  -970  -751  -581  -426  -277  -158  -89  -60  -51  -47  -24  43  148  243  301  334  361  391  423  472  551  656  769  875  969  1056  1145  1247  1376  1538  1716  1880  2028  2210  2456  2711  2896  3015  3139  3288  3419  3502  3546  3553  3505  3398  3243  3042  2777  2457  2105  1715  1288  879  556  342  209  96  -57  -269  -502  -704  -842  -915  -945  -960  -973  -983  -991  -997  -1002  -997  -980  -955  -928  -910  -910  -935  -983  -1032  -1058  -1054  -1029  -993  -942  -886  -846  -832  -833  -841  -856  -876  -890  -886  -853  -797  -736  -685  -642  -610  -595  -596  -601  -602  -602  -607  -614  -624  -638  -659  -686  -716  -748  -777  -795  -801  -802  -802  -795  -770  -732  -700  -692  -703  -712  -707  -696  -687  -682  -673  -653  -625  -598  -577  -556  -523  -481  -444  -423  -416  -410  -393  -353  -285  -211  -158  -129  -111  -98  -100  -133  -208  -332  -490  -641  -746  -805  -837  -860  -875  -882  -886  -889  -891  -893  -896  -899  -904  -909  -895  -826  -686  -490  -251  56  523  1227  2125  3047  3753  4020  3749  3036  2098  1108  134  -784  -1584  -2157  -2379  -2217  -1800  -1331  -960  -734  -596  -478  -382  -333  -322  -319  -303  -276  -251  -220  -162  -80  -5  52  107  174  252  339  436  529  600  657  730  830  942  1059  1190  1345  1525  1745  2006  2272  2493  2657  2796  2955  3145  3351  3540  3674  3742  3761  3740  3653  3477  3230  2937  2615  2292  1982  1641  1221  759  348  36  -190  -359  -503  -646  -787  -905  -979  -996  -968  -932  -909  -897  -891  -890  -889  -886  -884  -890  -911  -939  -963  -978  -991  -1001  -1003  -997  -986  -981  -985  -981  -951  -896  -830  -774  -746  -747  -768  -796  -816  -824  -818  -795  -756  -712  -671  -635  -603  -583  -577  -582  -600  -631  -668  -706  -743  -777  -812  -847  -872  -882  -883  -881  -879  -880  -882  -885  -887  -881  -855  -805  -748  -713  -709  -724  -734  -730  -720  -702  -665  -614  -579  -573  -594  -623  -647  -665  -684  -700  -682  -589  -423  -253  -149  -112  -106  -109  -123  -166  -239  -318  -391  -471  -573  -685  -801  -912  -998  -1045  -1053  -1038  -1027  -1037  -1059  -1075  -1082  -1085  -1086  -1076  -1035  -927  -711  -387  -12  403  944  1696  2607  3498  4164  4417  4157  3488  2632  1725  809  -89  -922  -1579  -1910  -1844  -1461  -947  -523  -317  -283  -298  -300  -291  -284  -279  -269  -249  -219  -185  -154  -127  -96  -57  -11  46  117  189  248  293  354  466  626  786  897  973  1095  1316  1595  1841  2018  2178  2386  2640  2884  3080  3236  3384  3531  3653  3707  3677  3594  3490  3356  3161  2901  2580  2192  1762  1361  1020  720  431  147  -104  -307  -463  -567  -623  -669  -742  -853  -977  -1077  -1135  -1161  -1169  -1167  -1152  -1122  -1085  -1054  -1041  -1038  -1035  -1030  -1024  -1018  -1008  -992  -975  -959  -943  -929  -917  -898  -867  -832  -805  -790  -782  -778  -774  -762  -740  -711  -685  -670  -669  -677  -682  -677  -660  -640  -627  -617  -597  -564  -540  -558  -626  -710  -765  -776  -748  -695  -637  -600  -599  -633  -680  -714  -722  -714  -699  -685  -673  -667  -666  -669  -675  -682  -685  -681  -675  -686  -737  -828  -920  -976  -997  -999  -967  -866  -711  -571  -494  -467  -464  -473  -485  -492  -500  -526  -587  -687  -806  -913  -986  -1025  -1041  -1045  -1047  -1058  -1087  -1125  -1157  -1178  -1195  -1211  -1226  -1228  -1207  -1165  -1117  -1058  -935  -678  -213  503  1406  2344  3170  3730  3850  3455  2677  1712  679  -344  -1267  -2000  -2455  -2538  -2257  -1798  -1392  -1155  -1063  -1025  -957  -836  -688  -541  -395  -246  -102  19  117  205  300  400  495  589  702  825  918  974  1031  1119  1245  1417  1616  1782  1886  1958  2022  2098  2224  2426  2663  2866  3037  3221  3424  3620  3787  3922  4027  4095  4128  4147  4164  4161  4072  3830  3460  3057  2667  2261  1832  1411  1030  712  454  225  9  -182  -328  -418  -462  -496  -554  -633  -704  -745  -758  -764  -784  -834  -915  -1004  -1061  -1074  -1059  -1035  -1011  -993  -977  -962  -952  -952  -957  -950  -909  -830  -744  -691  -671  -629  -515  -357  -237  -191  -192  -216  -268  -344  -420  -478  -525  -573  -616  -641  -648  -647  -645  -637  -620  -600  -591  -602  -625  -643  -652  -663  -684  -714  -745  -776  -813  -856  -896  -920  -922  -898  -855  -817  -808  -832  -864  -871  -842  -783  -699  -601  -516  -464  -443  -438  -439  -444  -458  -488  -540  -622  -756  -946  -1136  -1256  -1296  -1298  -1291  -1274  -1240  -1199  -1170  -1158  -1156  -1153  -1148  -1140  -1123  -1098  -1078  -1076  -1058  -964  -768  -446  67  806  1699  2596  3306  3621  3420  2783  1915  994  108  -730  -1516  -2178  -2601  -2683  -2428  -1977  -1511  -1158  -953  -838  -745  -663  -607  -559  -486  -395  -311  -235  -159  -100  -73  -72  -75  -60  -5  105  277  501  740  938  1073  1167  1248  1330  1425  1546  1690  1842  1999  2159  2314  2497  2756  3061  3316  3475  3566  3620  3655  3677  3691  3698  3649  3450  3070  2603  2182  1865  1629  1417  1182  887  526  152  -163  -396  -552  -644  -702  -770  -870  -983  -1071  -1112  -1117  -1109  -1108  -1123  -1154  -1192  -1218  -1223  -1208  -1173  -1110  -1030  -966  -936  -923  -907  -889  -878  -873  -866  -850  -834  -838  -860  -876  -868  -837  -789  -730  -674  -633  -614  -623  -656  -694  -719  -727  -725  -715  -690  -652  -616  -589  -575  -570  -573  -579  -582  -581  -575  -566  -558  -554  -558  -565  -568  -562  -553  -554  -569  -588  -601  -609  -614  -616  -613  -598  -567  -541  -529  -508  -441  -317  -169  -43  31  59  65  63  48  -15  -155  -354  -556  -715  -806  -837  -834  -818  -789  -755  -732  -737  -773  -821  -854  -868  -889  -942  -1021  -1078  -1058  -932  -677  -292  208  848  1653  2518  3207  3502  3312  2681  1804  916  90  -726  -1510  -2146  -2502  -2483  -2144  -1682  -1260  -936  -722  -604  -553  -528  -488  -419  -338  -265  -201  -145  -107  -89  -72  -40  10  78  163  259  356  456  575  708  833  951  1070  1183  1300  1438  1586  1727  1880  2063  2262  2462  2656  2838  3009  3162  3272  3347  3406  3445  3460  3461  3448  3401  3281  3048  2699  2280  1851  1451  1078  731  432  178  -38  -205  -335  -474  -628  -758  -829  -852  -852  -849  -847  -856  -886  -939  -998  -1042  -1065  -1068  -1053  -1022  -986  -958  -940  -922  -895  -854  -796  -739  -705  -698  -708  -730  -756  -775  -781  -777  -770  -762  -756  -751  -742  -721  -692  -671  -664  -664  -660  -649  -636  -633  -651  -693  -745  -785  -798  -793  -786  -787  -803  -830  -856  -873  -871  -838  -762  -646  -525  -459  -479  -567  -660  -709  -717  -710  -701  -689  -673  -659  -655  -659  -665  -659  -619  -533  -425  -330  -260  -203  -154  -120  -117  -174  -310  -493  -647  -732  -769  -806  -854  -898  -925  -948  -979  -1016  -1043  -1054  -1056  -1049  -1028  -997  -962  -915  -849  -762  -610  -273  370  1286  2262  3069  3558  3637  3305  2683  1914  1060  143  -771  -1576  -2151  -2387  -2255  -1878  -1456  -1109  -858  -694  -601  -543  -490  -423  -329  -218  -131  -95  -97  -103  -73  9  116  192  217  212  211  242  325  451  592  726  852  985  1145  1324  1497  1647  1780  1921  2106  2327  2535  2710  2867  3023  3204  3421  3628  3759  3804  3790  3716  3568  3363  3108  2767  2339  1879  1423  1004  658  371  110  -112  -278  -421  -563  -673  -734  -773  -821  -868  -891  -879  -850  -828  -819  -816  -808  -799  -798  -813  -841  -862  -862  -850  -841  -837  -835  -831  -823  -818  -823  -847  -890  -935  -961  -962  -945  -919  -895  -872  -849  -826  -792  -742  -686  -640  -609  -592  -587  -589  -591  -598  -613  -625  -609  -554  -468  -380  -310  -258  -220  -194  -178  -163  -139  -106  -80  -82  -124  -191  -253  -293  -316  -334  -358  -391  -421  -432  -426  -424  -433  -447  -462  -478  -491  -488  -450  -364  -237  -108  -24  7  10  -13  -101  -280  -506  -696  -818  -901  -970  -1025  -1054  -1049  -1023  -1009  -1026  -1062  -1092  -1106  -1110  -1115  -1119  -1103  -1030  -867  -635  -384  -81  379  1061  1919  2820  3583  3996  3913  3363  2507  1516  511  -422  -1225  -1830  -2156  -2156  -1877  -1459  -1049  -726  -521  -424  -382  -352  -327  -306  -278  -227  -156  -86  -36  -9  8  38  90  165  268  396  522  617  684  748  825  918  1016  1107  1197  1297  1428  1618  1870  2146  2396  2586  2727  2873  3042  3200  3320  3426  3527  3573  3517  3375  3203  3045  2892  2680  2353  1919  1445  1006  639  337  80  -159  -407  -640  -802  -883  -925  -976  -1041  -1101  -1142  -1183  -1249  -1333  -1395  -1419  -1424  -1429  -1433  -1427  -1400  -1357  -1314  -1289  -1285  -1297  -1321  -1349  -1373  -1386  -1382  -1339  -1245  -1122  -1022  -968  -943  -922  -896  -876  -868  -865  -862  -856  -848  -846  -861  -890  -905  -890  -867  -852  -835  -809  -785  -775  -776  -770  -754  -745  -743  -733  -719  -710  -706  -703  -694  -679  -663  -647  -618  -567  -495  -417  -348  -301  -288  -308  -343  -361  -334  -276  -219  -182  -157  -134  -107  -81  -60  -45  -37  -48  -100  -202  -344  -505  -653  -754  -804  -831  -856  -879  -891  -893  -894  -896  -900  -905  -912  -917  -910  -901  -909  -888  -729  -381  127  767  1513  2302  3029  3551  3692  3356  2629  1686  679  -286  -1151  -1868  -2336  -2430  -2141  -1621  -1065  -622  -374  -301  -297  -269  -199  -124  -79  -66  -68  -82  -117  -165  -210  -236  -230  -176  -90  -8  71  173  300  430  550  668  814  1013  1242  1442  1583  1710  1898  2146  2380  2559  2701  2825  2938  3059  3209  3381  3538  3633  3641  3561  3414  3227  3014  2767  2487  2186  1865  1524  1159  762  366  31  -204  -356  -460  -547  -642  -740  -818  -862  -878  -879  -879  -888  -915  -971  -1045  -1109  -1139  -1136  -1114  -1085  -1048  -997  -932  -861  -789  -717  -642  -567  -498  -446  -408  -383  -368  -358  -350  -345  -346  -363  -406  -477  -560  -632  -671  -663  -607  -529  -462  -412  -357  -299  -262  -257  -273  -302  -346  -405  -472  -541  -614  -695  -775  -840  -879  -897  -903  -901  -894  -881  -860  -830  -796  -766  -746  -742  -756  -778  -781  -735  -639  -532  -446  -350  -193  24  230  350  383  378  359  313  221  90  -75  -290  -546  -777  -913  -953  -939  -896  -826  -742  -674  -636  -623  -611  -571  -502  -433  -386  -349  -288  -162  85  529  1208  2060  2925  3608  3953  3883  3417  2650  1707  654  -466  -1514  -2325  -2799  -2867  -2615  -2273  -1988  -1775  -1618  -1469  -1281  -1075  -897  -755  -649  -589  -565  -544  -496  -417  -324  -245  -195  -175  -174  -164  -100  34  201  337  426  488  547  626  748  928  1160  1422  1698  1976  2234  2471  2706  2960  3225  3471  3669  3811  3907  3976  4032  4073  4074  3987  3764  3403  2955  2486  2019  1549  1100  724  457  271  95  -103  -313  -518  -703  -838  -917  -978  -1060  -1157  -1238  -1288  -1309  -1309  -1295  -1283  -1286  -1296  -1305  -1312  -1312  -1296  -1252  -1179  -1104  -1052  -1030  -1027  -1030  -1036  -1040  -1036  -1015  -983  -958  -953  -967  -987  -1004  -1010  -1006  -988  -953  -905  -857  -822  -805  -800  -796  -784  -760  -727  -698  -685  -679  -670  -657  -641  -624  -603  -588  -587  -596  -607  -613  -617  -626  -642  -662  -678  -690  -701  -709  -691  -610  -464  -307  -197  -143  -126  -125  -131  -149  -202  -322  -498  -670  -792  -877  -958  -1021  -1012  -924  -818  -748  -711  -685  -659  -642  -645  -658  -666  -660  -639  -609  -542  -367  -23  533  1331  2266  3099  3635  3750  3370  2586  1637  699  -197  -1053  -1831  -2460  -2827  -2825  -2474  -1946  -1425  -1043  -854  -795  -753  -672  -577  -505  -462  -436  -406  -339  -203  -5  198  347  425  467  525  630  780  959  1141  1294  1410  1494  1554  1629  1775  1994  2225  2420  2577  2713  2846  2980  3111  3223  3300  3341  3358  3371  3390  3411  3414  3377  3288  3141  2927  2633  2266  1839  1367  898  507  209  -29  -242  -456  -686  -899  -1042  -1105  -1127  -1151  -1190  -1228  -1251  -1259  -1259  -1253  -1238  -1214  -1190  -1176  -1172  -1173  -1177  -1182  -1187  -1192  -1194  -1192  -1189  -1187  -1188  -1189  -1192  -1189  -1166  -1111  -1025  -938  -884  -869  -870  -873  -877  -888  -903  -915  -920  -919  -916  -914  -914  -914  -909  -900  -887  -872  -861  -855  -855  -853  -845  -832  -816  -795  -769  -745  -717  -671  -599  -522  -472  -456  -458  -462  -472  -494  -530  -565  -576  -544  -472  -383  -305  -239  -183  -142  -117  -101  -95  -128  -243  -442  -648  -777  -812  -787  -724  -640  -563  -516  -503  -515  -546  -591  -636  -668  -683  -692  -702  -704  -684  -622  -499  -279  120  770  1636  2559  3322  3729  3663  3138  2333  1444  516  -444  -1351  -2083  -2507  -2520  -2188  -1737  -1350  -1074  -876  -726  -624  -569  -541  -524  -514  -515  -530  -547  -544  -500  -408  -279  -147  -46  20  73  128  190  254  312  376  490  689  956  1230  1464  1662  1847  2031  2222  2419  2613  2811  3021  3221  3370  3456  3509  3558  3590  3572  3506  3406  3257  3036  2744  2391  2010  1641  1275  899  558  288  79  -76  -179  -258  -353  -463  -550  -593  -606  -621  -652  -690  -716  -723  -724  -734  -755  -783  -809  -825  -825  -811  -796  -778  -752  -724  -710  -709  -709  -710  -713  -715  -715  -712  -701  -676  -633  -583  -546  -531  -532  -540  -544  -528  -477  -406  -356  -348  -375  -408  -425  -423  -417  -413  -408  -403  -400  -405  -424  -449  -476  -506  -537  -563  -586  -610  -634  -653  -669  -682  -689  -691  -692  -697  -706  -705  -689  -663  -626  -568  -495  -421  -359  -299  -233  -173  -134  -117  -115  -148  -239  -384  -552  -711  -843  -944  -1012  -1043  -1045  -1037  -1030  -1020  -1002  -978  -962  -958  -957  -956  -960  -976  -996  -968  -803  -459  47  711  1526  2408  3229  3851  4108  3874  3189  2213  1125  70  -865  -1625  -2160  -2420  -2371  -2049  -1594  -1178  -898  -749  -684  -666  -661  -637  -574  -470  -326  -167  -46  8  19  29  64  117  170  226  293  373  476  603  726  835  964  1126  1278  1390  1481  1573  1681  1837  2072  2355  2621  2838  3030  3235  3457  3653  3771  3802  3768  3709  3662  3621  3516  3256  2816  2271  1744  1336  1064  839  552  197  -143  -412  -600  -719  -784  -819  -842  -872  -906  -930  -942  -953  -974  -1008  -1055  -1114  -1183  -1251  -1301  -1321  -1306  -1262  -1193  -1103  -1011  -952  -938  -948  -963  -972  -972  -967  -960  -967  -1012  -1100  -1205  -1286  -1326  -1336  -1334  -1328  -1319  -1302  -1275  -1243  -1220  -1212  -1218  -1223  -1217  -1192  -1147  -1093  -1045  -1019  -1024  -1055  -1092  -1116  -1126  -1126  -1121  -1113  -1108  -1109  -1117  -1127  -1136  -1130  -1072  -925  -727  -570  -494  -465  -451  -439  -422  -394  -353  -313  -286  -274  -265  -248  -210  -142  -58  -1  -29  -186  -438  -677  -814  -850  -832  -800  -765  -731  -712  -712  -720  -727  -731  -740  -753  -756  -736  -706  -685  -656  -556  -313  98  666  1377  2208  3082  3849  4343  4442  4109  3397  2442  1400  360  -598  -1341  -1756  -1805  -1521  -1056  -627  -357  -218  -133  -58  7  64  133  233  342  419  455  472  484  489  489  488  488  493  505  521  543  580  627  667  697  738  820  988  1260  1581  1863  2070  2219  2338  2460  2613  2814  3042  3245  3385  3477  3550  3620  3678  3691  3595  3333  2937  2541  2244  2015  1770  1463  1106  749  437  172  -46  -217  -367  -534  -708  -845  -929  -975  -994  -999  -1009  -1038  -1077  -1091  -1061  -1005  -958  -935  -920  -883  -817  -740  -683  -660  -668  -706  -780  -880  -976  -1041  -1073  -1081  -1074  -1052  -1013  -961  -902  -846  -804  -790  -804  -827  -844  -858  -881  -909  -931  -944  -957  -979  -1006  -1026  -1027  -1004  -963  -917  -871  -819  -767  -728  -706  -689  -674  -666  -662  -654  -622  -555  -476  -419  -389  -359  -311  -236  -125  10  140  239  307  345  349  321  282  250  199  78  -118  -339  -538  -711  -858  -958  -1000  -1001  -986  -969  -957  -947  -938  -929  -925  -944  -1003  -1093  -1177  -1226  -1211  -1108  -912  -595  -90  620  1433  2171  2647  2702  2285  1513  566  -442  -1429  -2285  -2909  -3250  -3279  -3026  -2597  -2117  -1686  -1357  -1125  -969  -872  -819  -787  -741  -655  -541  -442  -375  -324  -279  -245  -213  -157  -67  45  154  239  302  370  469  606  774  958  1139  1285  1388  1485  1626  1823  2064  2322  2562  2763  2921  3035  3113  3172  3216  3249  3271  3276  3259  3208  3091  2855  2463  1947  1406  939  582  324  120  -79  -294  -516  -738  -937  -1067  -1113  -1111  -1095  -1083  -1075  -1069  -1060  -1049  -1030  -1006  -978  -948  -922  -908  -900  -869  -778  -636  -504  -435  -419  -416  -407  -398  -394  -388  -372  -345  -311  -281  -261  -251  -246  -239  -232  -231  -238  -248  -250  -240  -221  -197  -176  -163  -162  -175  -198  -231  -290  -367  -440  -494  -528  -545  -560  -589  -640  -698  -744  -768  -766  -734  -681  -629  -594  -577  -574  -579  -584  -572  -530  -464  -398  -332  -245  -144  -72  -45  -42  -40  -40  -71  -165  -317  -474  -583  -631  -643  -646  -653  -669  -699  -739  -779  -803  -801  -774  -736  -708  -699  -703  -714  -723  -697  -567  -276  179  782  1509  2305  3073  3681  3965  3805  3218  2341  1318  263  -697  -1457  -1982  -2233  -2157  -1826  -1405  -1019  -749  -611  -545  -482  -395  -280  -153  -52  0  14  13  8  8  35  112  239  375  467  506  526  554  591  633  696  799  931  1059  1164  1262  1410  1660  1991  2321  2568  2714  2810  2920  3069  3246  3414  3534  3602  3634  3645  3626  3550  3404  3193  2936  2640  2312  1950  1542  1107  697  350  88  -71  -156  -219  -282  -336  -381  -437  -524  -642  -771  -883  -956  -993  -1011  -1027  -1069  -1153  -1258  -1330  -1348  -1324  -1277  -1219  -1164  -1128  -1112  -1100  -1087  -1076  -1076  -1086  -1097  -1103  -1117  -1150  -1199  -1242  -1266  -1277  -1287  -1284  -1259  -1216  -1173  -1133  -1092  -1048  -1002  -963  -945  -955  -983  -1023  -1065  -1103  -1122  -1107  -1046  -957  -886  -853  -842  -840  -863  -908  -933  -891  -783  -649  -532  -456  -417  -393  -365  -333  -310  -300  -281  -243  -203  -185  -188  -184  -159  -130  -115  -115  -127  -151  -192  -259  -359  -483  -607  -699  -740  -739  -719  -694  -678  -679  -687  -687  -675  -660  -659  -670  -677  -670  -647  -612  -570  -500  -340  -25  467  1151  2019  2937  3655  3960  3777  3182  2348  1412  416  -613  -1587  -2338  -2684  -2560  -2096  -1514  -1012  -707  -583  -533  -493  -464  -455  -462  -473  -480  -474  -449  -413  -382  -360  -349  -353  -362  -326  -186  46  277  434  523  590  685  850  1060  1238  1339  1390  1438  1522  1658  1858  2124  2418  2685  2904  3072  3186  3254  3286  3299  3310  3314  3272  3135  2898  2593  2243  1853  1459  1109  817  566  334  105  -117  -306  -439  -528  -606  -688  -752  -792  -822  -862  -904  -931  -937  -938  -950  -978  -1011  -1027  -1023  -1021  -1040  -1072  -1101  -1125  -1146  -1149  -1117  -1044  -946  -861  -816  -807  -816  -827  -831  -826  -815  -800  -776  -742  -702  -655  -606  -567  -545  -531  -519  -514  -515  -519  -530  -552  -590  -633  -676  -729  -786  -823  -828  -810  -783  -750  -695  -613  -529  -462  -409  -372  -375  -414  -459  -495  -527  -559  -584  -596  -597  -596  -595  -587  -555  -483  -373  -255  -163  -105  -64  -29  -5  -3  -30  -71  -107  -136  -165  -213  -300  -426  -562  -682  -770  -815  -821  -802  -769  -735  -711  -703  -709  -722  -735  -747  -757  -762  -757  -726  -645  -476  -197  196  727  1407  2189  2993  3692  4075  3966  3380  2486  1454  420  -498  -1246  -1800  -2084  -2052  -1779  -1387  -991  -677  -476  -367  -315  -288  -273  -266  -261  -253  -235  -206  -174  -143  -98  -15  102  214  283  308  326  375  474  603  734  863  997  1144  1305  1465  1622  1795  1994  2195  2375  2541  2700  2836  2938  3030  3123  3216  3312  3399  3460  3488  3472  3368  3142  2830  2496  2162  1829  1482  1084  637  207  -145  -405  -595  -737  -848  -940  -1014  -1066  -1096  -1110  -1110  -1097  -1065  -1009  -939  -882  -856  -859  -886  -922  -950  -962  -964  -963  -960  -958  -961  -966  -971  -976  -983  -987  -972  -923  -842  -761  -711  -695  -689  -685  -687  -707  -742  -779  -803  -812  -806  -780  -732  -682  -650  -640  -638  -634  -624  -607  -592  -590  -603  -623  -638  -645  -648  -654  -680  -735  -808  -864  -879  -856  -806  -750  -710  -695  -701  -729  -784  -852  -902  -912  -882  -815  -709  -588  -495  -437  -381  -314  -259  -234  -231  -241  -275  -370  -555  -806  -1036  -1161  -1177  -1140  -1092  -1035  -971  -925  -910  -916  -929  -940  -937  -916  -880  -843  -827  -837  -832  -734  -501  -127  422  1188  2090  2943  3565  3776  3449  2672  1660  575  -475  -1387  -2120  -2645  -2856  -2703  -2326  -1937  -1654  -1500  -1442  -1422  -1375  -1268  -1120  -969  -831  -713  -626  -565  -519  -493  -483  -449  -351  -188  -6  132  196  221  270  374  509  648  803  998  1230  1468  1679  1850  1991  2126  2294  2534  2852  3219  3578  3854  4012  4079  4104  4117  4127  4127  4080  3938  3697  3395  3070  2725  2333  1881  1402  961  617  373  173  -5  -152  -293  -450  -579  -644  -657  -648  -634  -619  -599  -577  -562  -558  -559  -557  -548  -537  -543  -581  -641  -692  -716  -719  -704  -664  -597  -523  -469  -431  -390  -338  -282  -233  -203  -192  -202  -236  -287  -334  -358  -362  -351  -324  -287  -257  -238  -225  -216  -212  -212  -219  -234  -261  -309  -385  -482  -577  -643  -674  -675  -651  -620  -615  -651  -725  -847  -1018  -1199  -1331  -1390  -1386  -1324  -1205  -1072  -984  -955  -958  -970  -985  -1003  -1023  -1044  -1066  -1087  -1100  -1104  -1105  -1108  -1111  -1105  -1087  -1068  -1057  -1054  -1059  -1085  -1151  -1245  -1319  -1317  -1199  -970  -704  -474  -244  133  777  1643  2545  3277  3678  3627  3116  2272  1238  154  -809  -1526  -1977  -2207  -2246  -2114  -1857  -1522  -1171  -897  -744  -673  -622  -573  -516  -439  -344  -265  -212  -149  -37  109  238  329  411  507  608  707  830  1003  1196  1347  1437  1503  1586  1690  1812  1968  2158  2354  2542  2723  2894  3056  3208  3367  3553  3751  3920  4033  4087  4084  4022  3895  3712  3475  3170  2786  2323  1813  1330  935  625  369  133  -96  -301  -449  -552  -650  -763  -875  -958  -1004  -1020  -1020  -1015  -1009  -996  -969  -927  -887  -874  -898  -933  -951  -940  -905  -854  -791  -724  -680  -683  -736  -811  -864  -864  -812  -734  -666  -617  -576  -538  -509  -493  -487  -480  -474  -485  -528  -588  -631  -643  -640  -642  -658  -685  -708  -719  -722  -721  -717  -702  -678  -651  -634  -637  -659  -683  -692  -675  -631  -553  -441  -324  -252  -245  -288  -350  -403  -425  -397  -284  -100  77  180  211  208  198  184  154  93  -1  -121  -243  -349  -439  -532  -635  -747  -867  -1000  -1158  -1338  -1507  -1633  -1703  -1726  -1722  -1701  -1658  -1597  -1533  -1449  -1290  -993  -492  246  1173  2157  3029  3588  3675  3294  2585  1683  699  -269  -1169  -1942  -2462  -2614  -2411  -1997  -1579  -1275  -1060  -888  -759  -676  -628  -598  -575  -552  -505  -418  -318  -251  -229  -228  -228  -226  -220  -211  -197  -180  -154  -99  -5  103  188  252  331  443  592  786  1028  1310  1603  1846  1993  2072  2157  2298  2495  2703  2855  2930  2957  2967  2941  2818  2567  2254  1978  1759  1545  1290  968  596  238  -73  -364  -635  -838  -946  -990  -1023  -1067  -1131  -1214  -1297  -1352  -1374  -1374  -1364  -1352  -1344  -1341  -1334  -1300  -1231  -1151  -1091  -1047  -992  -929  -887  -883  -904  -919  -911  -897  -891  -882  -842  -760  -657  -564  -500  -472  -472  -485  -498  -509  -523  -549  -587  -630  -669  -701  -737  -784  -832  -861  -861  -836  -800  -775  -764  -763  -777  -811  -863  -910  -932  -927  -896  -841  -773  -719  -696  -708  -751  -811  -865  -904  -936  -962  -971  -956  -921  -873  -806  -727  -648  -582  -545  -548  -591  -652  -701  -721  -725  -731  -750  -786  -845  -916  -975  -1010  -1033  -1058  -1092  -1131  -1167  -1191  -1208  -1229  -1258  -1287  -1309  -1318  -1291  -1177  -931  -539  11  695  1444  2200  2851  3197  3104  2606  1826  892  -92  -1039  -1843  -2388  -2563  -2335  -1847  -1353  -1026  -886  -846  -808  -717  -556  -343  -133  17  88  100  89  75  64  62  83  135  211  287  347  403  471  555  643  733  841  970  1119  1284  1458  1629  1782  1912  2039  2213  2448  2681  2837  2915  2968  3063  3234  3456  3644  3740  3759  3735  3682  3605  3514  3375  3124  2767  2402  2094  1811  1489  1095  654  235  -83  -289  -463  -685  -920  -1085  -1168  -1219  -1264  -1294  -1308  -1319  -1335  -1330  -1246  -1044  -759  -470  -222  -38  62  90  84  77  74  69  52  26  0]
