reading_id,reading_time,wire_id,result_classification,heart_rate,heart_rate_alert,firmware_version,device_app_version,hardware_version,waveform_samples
3057eb70-5811-11ed-8080-808080808080,Sun Oct 30 05:10:36 UTC 2022,a10163b41b39,UNCLASSIFIABLE,109,NONE,20001.171.50,2.10.0,Charge 5,[-11486  -32768  -32768  -32768  -32768  -25216  -15060  -11346  -16581  -30916  -32768  -32768  -32768  -32768  -32768  -32195  -14822  -1626  3864  -899  -15697  -32768  -32768  -32768  -32768  -32768  -32768  -32768  -32768  -32768  -32768  -32768  -32768  -32768  -32768  -32768  -28268  -14117  -5241  -1008  1180  3361  5676  7421  8398  8685  7534  3059  -6484  -20151  -32768  -32768  -32768  -32768  -32768  -32768  -32768  -31818  -17915  -4242  5878  11202  12849  12963  13079  13671  14545  15323  15583  14565  11580  7369  3677  521  -4270  -12005  -21169  -28801  -32768  -32712  -28150  -19648  -9477  -401  6250  10571  13149  14399  13892  10201  2956  -5030  -10079  -11586  -11414  -10900  -10653  -12370  -18400  -28126  -32768  -32768  -32768  -32768  -32768  -31381  -21466  -11932  -5396  -2363  -1586  -1601  -1779  -2472  -5060  -11691  -23024  -32768  -32768  -32768  -32768  -32768  -32768  -32768  -32768  -32768  -32386  -21919  -12994  -7497  -5105  -4323  -3852  -3228  -2637  -2387  -2545  -2921  -3337  -3890  -4715  -5439  -5488  -5676  -9129  -18567  -31594  -32768  -32768  -32768  -32768  -32768  -32768  -32768  -32768  -32768  -32768  -32768  -32768  -32768  -32768  -26389  -13810  -3778  2823  6401  8301  9768  11160  12221  12790  12979  12896  12527  11960  11456  11202  11164  11243  11446  11916  12631  12586  9345  988  -10800  -21662  -28641  -31462  -30731  -26797  -20822  -15214  -10663  -3457  11609  32767  32767  32767  32767  32767  32767  32767  32767  32767  32767  32767  32767  32767  32767  32767  32767  32767  32767  32767  32767  32767  -32768  -32768  -32768  -32768  -32768  -32768  -32768  -32768  -32768  -32768  -32768  -32768  -32768  -32768  -32768  -32768  -32768  -32768  -32768  -32768  -32768  -32768  -32768  -32768  -32768  -32768  -32768  -32768  -32768  -32768  -32768  -32768  -32768  -32768  -32768  -32768  -32768  -32768  -32768  -32768  -32768  -32768  -32768  -32768  -32768  -32768  -32768  -32768  -32768  -32768  -32768  -32768  -32768  -32768  -32768  -32768  -32768  -32768  -32768  -32768  -32768  -32768  -32768  -32768  -32768  -32768  -32768  -32768  -32768  -32768  -32768  -32768  -32366  -31857  -31404  -30920  -30240  -29281  -28156  -27117  -26327  -25709  -25186  -24822  -24574  -24237  -23723  -23167  -22620  -21893  -20894  -19871  -19083  -18520  -18058  -17570  -16921  -16101  -15294  -14649  -14138  -13696  -13291  -12888  -12484  -12146  -11922  -11763  -11588  -11383  -11140  -10823  -10394  -9835  -9228  -8758  -8500  -8336  -8150  -7938  -7715  -7476  -7251  -7076  -6924  -6721  -6393  -5915  -5333  -4723  -4166  -3739  -3478  -3414  -3610  -4072  -4660  -5159  -5442  -5532  -5517  -5452  -5341  -5166  -4942  -4715  -4504  -4289  -4063  -3850  -3694  -3615  -3580  -3551  -3522  -3504  -3499  -3514  -3590  -3794  -4151  -4553  -4835  -4945  -4934  -4812  -4538  -4132  -3722  -3442  -3309  -3231  -3046  -2593  -1872  -1082  -467  -152  -74  -81  -76  -23  77  216  375  515  594  587  481  288  55  -199  -497  -800  -1047  -1339  -1894  -2731  -3550  -4037  -4160  -4081  -3926  -3720  -3380  -2796  -2059  -1455  -1140  -1027  -963  -850  -661  -445  -272  -159  -88  -43  -17  -6  -1  2  7  8  3  5  39  136  323  599  879  1048  1068  974  828  697  622  593  593  634  752  961  1223  1427  1467  1367  1255  1206  1202  1209  1224  1261  1314  1369  1459  1637  1866  2035  2100  2113  2159  2365  2911  3843  4853  5505  5617  5204  4304  3034  1633  372  -601  -1273  -1625  -1584  -1086  -217  741  1520  2040  2359  2571  2746  2883  2963  2993  2989  2959  2923  2902  2897  2880  2819  2707  2572  2442  2319  2183  2026  1913  1964  2231  2608  2945  3177  3339  3514  3785  4146  4528  4894  5214  5422  5485  5413  5235  5021  4860  4783  4738  4653  4453  4048  3444  2847  2480  2343  2274  2141  1851  1347  740  255  -8  -113  -149  -140  -33  228  597  920  1098  1166  1203  1231  1231  1201  1162  1123  1090  1094  1179  1355  1586  1802  1939  1984  1961  1898  1824  1761  1717  1694  1708  1795  1968  2161  2282  2292  2205  2060  1879  1636  1298  921  635  512  519  591  677  734  745  708  626  502  353  220  132  100  166  443  1049  1999  3167  4300  5121  5512  5474  4937  3820  2276  670  -602  -1313  -1514  -1396  -1090  -716  -428  -290  -263  -317  -451  -624  -759  -821  -819  -712  -449  -94  183  281  234  140  75  58  75  128  255  490  796  1067  1239  1359  1502  1651  1714  1649  1540  1506  1567  1654  1731  1806  1883  1944  1966  1915  1782  1617  1497  1445  1432  1428  1413  1318  1046  606  146  -182  -338  -365  -312  -196  -47  65  71  -96  -439  -820  -1055  -1084  -972  -821  -717  -667  -632  -609  -634  -702  -759  -759  -714  -676  -684  -714  -719  -682  -609  -502  -353  -173  -11  85  109  70  -35  -192  -346  -443  -475  -457  -385  -254  -101  -4  -39  -228  -489  -676  -714  -639  -530  -453  -431  -450  -502  -583  -665  -629  -252  626  1892  3196  4188  4700  4727  4237  3178  1703  150  -1141  -1950  -2259  -2201  -1873  -1356  -856  -568  -492  -511  -561  -652  -792  -966  -1169  -1384  -1554  -1596  -1391  -862  -194  274  427  410  362  316  267  210  131  -3  -182  -313  -273  14  477  900  1133  1203  1200  1176  1164  1204  1331  1508  1644  1692  1658  1551  1390  1197  971  715  445  175  -72  -273  -417  -522  -620  -739  -876  -991  -1058  -1094  -1123  -1151  -1165  -1155  -1118  -1075  -1067  -1116  -1203  -1283  -1330  -1351  -1364  -1376  -1358  -1251  -1040  -809  -672  -652  -676  -640  -470  -196  53  180  200  165  104  36  -15  -68  -168  -349  -610  -909  -1166  -1314  -1367  -1385  -1385  -1320  -1134  -850  -577  -402  -300  -231  -248  -360  -395  -200  193  740  1493  2537  3831  5025  5522  4926  3384  1467  -175  -1178  -1636  -1797  -1774  -1646  -1467  -1205  -897  -663  -551  -518  -483  -380  -218  -66  12  3  -54  -89  -61  4  58  71  32  -65  -192  -286  -322  -317  -273  -174  -41  53  42  -101  -355  -637  -817  -770  -414  182  763  1109  1195  1072  773  391  75  -140  -362  -630  -854  -969  -1011  -1009  -902  -607  -193  123  167  -116  -659  -1251  -1707  -2026  -2260  -2399  -2412  -2305  -2111  -1820  -1382  -855  -411  -119  113  364  613  802  903  935  918  833  672  530  533  638  667  542  305  -6  -331  -590  -791  -965  -1033  -910  -646  -354  -52  300  654  876  903  775  583  412  292  198  78  -147  -553  -1124  -1658  -1880  -1790  -1680  -1704  -1747  -1558  -859  404  1828  2704  2572  1566  137  -1255  -2265  -2899  -3481  -4161  -4649  -4590  -4060  -3447  -2974  -2574  -2151  -1758  -1472  -1212  -827  -340  82  388  645  853  946  901  769  583  334  55  -147  -157  117  675  1311  1755  1922  1922  1874  1823  1803  1908  2228  2673  3020  3142  3042  2753  2387  2121  2032  2075  2180  2232  1965  1077  -347  -1721  -2507  -2680  -2450  -1927  -1272  -757  -496  -383  -316  -292  -328  -419  -638  -1104  -1727  -2190  -2262  -1921  -1311  -713  -363  -324  -612  -1210  -1901  -2340  -2339  -1949  -1414  -1012  -806  -675  -559  -481  -429  -336  -183  -35  37  12  -77  -159  -180  -142  -94  -76  -48  63  239  379  442  459  459  418  281  56  -162  -278  -236  -8  353  715  999  1335  2002  3067  4165  4845  4915  4288  2963  1321  -1  -667  -814  -732  -578  -384  -151  133  445  697  789  643  244  -259  -609  -644  -352  157  666  1036  1314  1559  1710  1716  1634  1558  1526  1526  1548  1596  1658  1702  1705  1673  1645  1727  2033  2524  3034  3455  3735  3796  3672  3530  3475  3484  3486  3388  3042  2299  1211  146  -478  -555  -269  109  366  457  465  445  401  347  309  287  239  126  -28  -144  -163  -86  55  236  451  673  830  882  858  810  760  670  445  14  -533  -977  -1202  -1282  -1353  -1494  -1685  -1831  -1855  -1712  -1386  -921  -446  -99  79  63  -320  -1203  -2282  -3025  -3306  -3413  -3552  -3711  -3861  -4014  -4121  -4045  -3643  -2960  -2260  -1719  -1267  -785  -279  179  582  937  1200  1385  1693  2339  3193  3823  3887  3258  2033  528  -888  -1936  -2485  -2631  -2557  -2321  -1902  -1378  -920  -620  -442  -338  -324  -427  -663  -1051  -1621  -2328  -2905  -2988  -2499  -1789  -1232  -771  -178  484  973  926  -46  -1729  -3267  -4005  -3858  -3183  -2635  -2623  -2908  -3066  -2975  -2651  -2058  -1149  13  1191  2087  2574  2736  2740  2703  2663  2622  2581  2529  2420  2190  1825  1418  1109  929  821  751  721  737  801  886  958  997  971  874  753  651  572  501  453  450  393  29  -837  -2046  -3127  -3719  -3807  -3494  -2829  -1987  -1251  -745  -409  -191  -62  26  105  169  213  271  388  561  749  886  882  678  391  257  264  97  -518  -1699  -3260  -4523  -4785  -3981  -2657  -1461  -741  -464  -351  -137  220  617  997  1457  2170  3173  4201  4913  5193  5046  4375  3150  1578  36  -1074  -1584  -1653  -1494  -1184  -782  -415  -169  -19  108  242  343  404  455  492  466  356  220  151  162  208  258  303  360  467  604  705  746  763  783  797  802  817  865  940  1007  1048  1070  1097  1148  1213  1269  1328  1431  1593  1766  1870  1871  1796  1694  1603  1533  1480  1454  1431  1306  936  225  -788  -1868  -2689  -3073  -3006  -2491  -1617  -667  102  666  1087  1361  1486  1518  1513  1494  1481  1505  1588  1719  1870  2016  2127  2161  2106  1998  1874  1721  1522  1330  1205  1124  1025  892  753  642  583  586  643  724  781  768  664  493  319  195  139  133  135  112  46  -73  -249  -432  -552  -580  -528  -407  -232  -41  119  273  631  1484  2764  3932  4551  4630  4311  3618  2578  1332  107  -887  -1549  -1875  -1945  -1860  -1652  -1360  -1090  -927  -857  -827  -818  -844  -915  -1030  -1177  -1323  -1418  -1439  -1393  -1289  -1145  -981  -806  -616  -405  -179  35  197  290  349  423  538  695  877  1041  1148  1198  1216  1196  1085  857  593  418  369  386  388  320  180  18  -123  -246  -351  -433  -504  -567  -605  -625  -680  -814  -992  -1127  -1185  -1203  -1218  -1239  -1249  -1210  -1114  -1014  -960  -950  -951  -939  -915  -873  -799  -703  -632  -637  -742  -930  -1152  -1356  -1497  -1560  -1556  -1473  -1286  -1012  -720  -482  -333  -291  -347  -461  -574  -651  -688  -720  -801  -946  -1099  -1193  -1225  -1232  -1235  -1232  -1220  -1219  -1266  -1360  -1459  -1530  -1577  -1608  -1573  -1365  -898  -140  866  1911  2679  3032  3068  2872  2360  1409  123  -1123  -2037  -2589  -2828  -2769  -2454  -2041  -1743  -1626  -1597  -1563  -1506  -1444  -1395  -1362  -1343  -1332  -1280  -1123  -875  -633  -447  -293  -182  -177  -268  -367  -386  -278  -31  312  657  921  1095  1212  1281  1308  1322  1348  1395  1468  1572  1677  1747  1780  1790  1754  1636  1464  1321  1241  1187  1128  1058  951  769  529  286  77  -85  -197  -259  -289  -316  -365  -453  -578  -711  -817  -868  -839  -710  -510  -325  -241  -345  -709  -1261  -1760  -2029  -2073  -1921  -1562  -1060  -574  -225  -44  0  -62  -236  -491  -727  -850  -803  -534  -84  357  593  517  109  -492  -1046  -1413  -1599  -1639  -1552  -1372  -1171  -1024  -930  -849  -758  -672  -619  -604  -606  -602  -592  -606  -709  -922  -1114  -1075  -698  1  967  2101  3312  4522  5545  6081  5888  4928  3390  1634  56  -1067  -1680  -1905  -1924  -1874  -1785  -1608  -1338  -1027  -715  -432  -232  -140  -117  -103  -79  -63  -58  -28  65  204  316  328  184  -114  -455  -664  -601  -219  340  796  987  959  812  625  469  392  474  841  1488  2157  2577  2721  2688  2470  1996  1333  701  288  142  262  652  1174  1559  1622  1334  794  251  -61  -127  -70  12  88  106  -60  -525  -1166  -1678  -1858  -1645  -1046  -289  255  428  295  -60  -504  -823  -868  -604  -102  422  721  647  196  -425  -861  -868  -456  126  535  584  325  -38  -293  -354  -281  -162  -62  -38  -181  -559  -1065  -1463  -1572  -1246  -416  623  1359  1612  1589  1464  1250  974  737  597  506  390  246  90  -173  -648  -1246  -1692  -1677  -1079  -195  501  951  1519  2512  3925  5437  6505  6673  5881  4447  2797  1236  -151  -1413  -2530  -3343  -3560  -3013  -2074  -1381  -1157  -1188  -1253  -1274  -1215  -1042  -804  -629  -601  -724  -947  -1199  -1420  -1599  -1794  -2143  -2725  -3399  -3897  -4054  -3720  -2735  -1283  54  887  1281  1460  1576  1674  1699  1627  1543  1508  1492  1477  1534  1773  2200  2650  2878  2602  1650  354  -581  -816  -549  -131  179  256  4  -626  -1426  -2005  -2144  -1827  -1121  -270  376  669  652  318  -350  -1128  -1657  -1801  -1628  -1227  -757  -446  -400  -567  -815  -983  -928  -583  -68  332  387  77  -393  -714  -643  -163  466  826  553  -503  -2134  -3800  -4981  -5383  -4866  -3540  -1886  -460  460  905  1042  1019  892  696  489  323  215  138  46  -34  -15  117  282  436  611  812  980  1015  757  26  -1166  -2425  -3235  -3473  -3390  -3229  -3093  -2939  -2516  -1502  97  1762  2882  3309  3257  2841  2062  1132  404  -8  -271  -527  -768  -955  -1105  -1278  -1557  -2008  -2605  -3190  -3567  -3684  -3624  -3401  -2897  -2024  -925  77  787  1246  1560  1741  1645  978  -336  -1806  -2756  -2909  -2289  -1029  508  1872  2793  3219  3264  3111  2895  2708  2614  2668  2903  3256  3560  3603  3130  1973  358  -1109  -1971  -2265  -2281  -2209  -2101  -1978  -1851  -1676  -1400  -1043  -674  -349  -94  85  207  316  493  800  1163  1425  1530  1562  1613  1718  1840  1926  1985  2075  2233  2431  2605  2717  2783  2828  2846  2820  2775  2741  2725  2721  2718  2686  2612  2526  2459  2322  1855  864  -381  -1254  -1410  -982  -350  71  -7  -630  -1500  -2162  -2476  -2647  -2855  -3104  -3317  -3439  -3483  -3496  -3458  -3253  -2777  -2082  -1321  -627  -91  252  469  662  931  1325  1722  1963  2105  2384  3113  4413  5859  6691  6358  4796  2632  939  268  286  406  315  95  88  465  1065  1645  2066  2324  2472  2513  2433  2297  2196  2164  2156  2072  1747  1023  -101  -1330  -2229  -2633  -2719  -2707  -2656  -2448  -1861  -763  635  1860  2627  3020  3230  3319  3111  2283  849  -632  -1621  -2082  -2267  -2367  -2439  -2444  -2267  -1816  -1226  -803  -699  -833  -1053  -1245  -1369  -1446  -1502  -1487  -1262  -733  -20  637  1120  1433  1611  1696  1733  1764  1803  1824  1809  1777  1756  1763  1808  1893  1997  2080  2115  2115  2091  1934  1379  229  -1273  -2569  -3357  -3764  -4007  -4178  -4278  -4234  -3844  -2889  -1425  138  1321  1935  2147  2212  2269  2364  2502  2667  2841  2992  3094  3149  3179  3209  3257  3286  3139  2503  1074  -1015  -3089  -4517  -5195  -5400  -5415  -5253  -4657  -3443  -1785  -112  1163  1823  1825  1136  -163  -1579  -2467  -2508  -1701  -324  1020  1802  1842  1063  -490  -2315  -3724  -4505  -4910  -5169  -5321  -5367  -5334  -5212  -4939  -4481  -3909  -3414  -3150  -3085  -3065  -2995  -2837  -2458  -1630  -388  823  1605  1999  2266  2552  2909  3336  3719  3936  4007  4045  4122  4228  4299  4180  3586  2369  906  -165  -569  -336  567  1984  3358  4247  4720  5008  5165  5166  5039  4786  4218  3067  1462  -64  -1173  -1966  -2646  -3167  -3233  -2608  -1509  -681  -851  -2093  -3754  -4970  -5268  -4731  -3837  -3255  -3357  -3880  -4338  -4512  -4387  -3980  -3447  -3068  -2993  -3174  -3467  -3673  -3533  -2839  -1707  -555  309  850  1186  1487  1823  2129  2361  2552  2737  2913  3047  3119  3126  3036  2751  2091  964  -334  -1287  -1699  -1754  -1559  -977  29  1156  2005  2418  2510  2475  2432  2411  2395  2355  2288  2221  2119  1748  850  -413  -1514  -2174  -2610  -3138  -3765  -4243  -4331  -3817  -2564  -747  1133  2544  3219  3183  2544  1449  109  -1337  -2790  -4040  -4917  -5429  -5661  -5711  -5698  -5682  -5586  -5168  -4197  -2757  -1231  40  910  1388  1653  1870  2023  2082  2133  2282  2527  2652  2299  1231  -488  -2496  -4322  -5586  -6039  -5546  -4115  -2036  96  1734  2725  3225  3435  3513  3595  3774  4047  4319  4492  4550  4545  4542  4560  4480  4019  2945  1387  -257  -1676  -2696  -3252  -3424  -3229  -2488  -1183  266  1380  2022  2322  2449  2504  2538  2594  2620  2338  1394  -171  -1829  -3057  -3727  -4012  -4094  -3912  -3229  -2006  -573  624  1323  1566  1578  1542  1515  1487  1444  1394  1350  1317  1312  1347  1394  1411  1375  1305  1226  1121  930  584  -42  -1025  -2117  -2881  -3156  -2975  -2241  -951  465  1467  1903  1981  1942  1902  1881  1867  1848  1819  1790  1766  1724  1642  1540  1468  1448  1461  1468  1403  1154  658  3  -615  -1056  -1287  -1315  -1073  -494  246  805  1010  829  160  -982  -2232  -3120  -3471  -3354  -2854  -2110  -1346  -695  -175  207  466  660  825  937  956  911  819  521  -213  -1266  -2155  -2559  -2572  -2427  -2269  -2152  -2043  -1818  -1336  -589  269  1041  1596  1942  2210  2509  2816  3066  3251  3341  3202  2687  1887  1111  564  242  79  12  -8  -23  -49  -68  -41  51  176  270  323  376  446  503  529  533  530  521  497  459  421  391  371  368  376  286  -104  -863  -1710  -2263  -2406  -2210  -1718  -1006  -249  406  905  1213  1335  1347  1329  1312  1308  1338  1411  1498  1564  1612  1661  1709  1746  1764  1747  1659  1417  847  -156  -1298  -2064  -2304  -2262  -2161  -2067  -1977  -1901  -1860  -1865  -1901  -1943  -1968  -1930  -1736  -1320  -759  -217  220  566  837  1024  1131  1186  1224  1252  1186  856  162  -690  -1318  -1514  -1230  -412  791  1910  2561  2770  2675  2176  1117  -293  -1519  -2182  -2343  -2262  -2112  -1956  -1840  -1788  -1784  -1792  -1792  -1786  -1788  -1803  -1820  -1827  -1837  -1872  -1895  -1753  -1264  -439  470  1218  1736  2080  2320  2510  2676  2793  2840  2858  2930  3115  3372  3600  3749  3847  3946  4059  4063  3653  2566  989  -496  -1461  -1923  -2122  -2227  -2292  -2349  -2450  -2605  -2742  -2704  -2288  -1430  -371  506  1023  1262  1365  1401  1398  1380  1361  1351  1349  1346  1331  1321  1343  1312  892  -276  -2019  -3631  -4581  -4907  -4921  -4773  -4332  -3396  -2053  -705  307  943  1318  1535  1657  1740  1799  1674  1028  -327  -2086  -3651  -4642  -5058  -5039  -4596  -3671  -2361  -934  299  1114  1525  1694  1730  1702  1628  1451  1241  1231  1471  1663  1403  389  -1467  -3784  -5776  -6842  -6841  -5884  -4271  -2533  -1177  -310  222  524  689  966  1611  2575  3489  4001  3854  2765  740  -1594  -3412  -4338  -4566  -4417  -3980  -3254  -2417  -1720  -1272  -1036  -917  -844  -780  -705  -618  -533  -439  -332  -239  -185  -162  -152  -143  -116  -39  95  247  355  402  419  457  546  685  856  1033  1181  1311  1485  1733  2009  2253  2440  2560  2618  2634  2625  2595  2544  2470  2366  2228  2075  1937  1828  1725  1614  1502  1382  1258  1172  1143  1130  1091  1032  980  925  838  752  719  736  773  830  907  988  1064  1127  1162  1162  1126  1064  995  944  928  942  964  976  980  979  978  979  984  993  1007  1019  1019  994  937  864  807  771  732  670  600  552  536  539  540  535  534  547  564  556  487  342  159  11  -72  -108  -110  -97  -98  -140  -234  -364  -491  -577  -601  -571  -531  -516  -527  -563  -558  -330  316  1449  2854  4131  4968  5190  4733  3707  2330  814  -620  -1773  -2519  -2810  -2679  -2269  -1822  -1518  -1352  -1227  -1092  -953  -864  -867  -948  -1093  -1300  -1511  -1648  -1689  -1639  -1494  -1306  -1176  -1132  -1097  -992  -828  -679  -583  -535  -514  -489  -457  -432  -391  -293  -132  35  157  248  368  552  756  893  936  931  921  909  876  800  655  417  97  -249  -571  -855  -1093  -1263  -1347  -1360  -1341  -1317  -1293  -1264  -1240  -1247  -1286  -1313  -1251  -1054  -778  -574  -604  -987  -1660  -2323  -2693  -2740  -2582  -2338  -2112  -1978  -1933  -1923  -1906  -1886  -1903  -1961  -1993  -1907  -1665  -1329  -1029  -856  -785  -734  -653  -534  -349  -102  138  328  499  682  861  1008  1106  1127  1059  943  842  787  762  743  708  649  585  525  463  406  373  359  355  362  424  597  867  1160  1498  2032  2859  3851  4710  5208  5314  5018  4208  2905  1431  177  -653  -1038  -1098  -1019  -916  -832  -844  -1120  -1756  -2543  -3111  -3299  -3183  -2873  -2484  -2154  -1935  -1772  -1614  -1458  -1284  -1069  -833  -580  -275  95  452  683  796  931  1199  1569  1921  2215  2503  2781  2945  2916  2666  2132  1305  448  -78  -211  -154  -82  -48  -46  -64  -102  -163  -228  -262  -249  -199  -137  -77  -2  106  219  289  310  310  305  297  286  292  329  379  413  422  420  418  417  414  408  404  404  407  408  410  412  404  378  340  307  291  286  287  290  284  253  196  129  60  -2  -47  -73  -87  -93  -80  -51  -32  -57  -125  -209  -288  -347  -381  -404  -452  -567  -731  -874  -956  -991  -1005  -1017  -1039  -1086  -1167  -1248  -1290  -1325  -1390  -1398  -1218  -777  1  1149  2456  3562  4138  3973  3100  1771  218  -1359  -2720  -3698  -4219  -4237  -3829  -3254  -2765  -2438  -2211  -1996  -1757  -1536  -1395  -1338  -1327  -1318  -1274  -1162  -945  -620  -276  -44  26  -22  -145  -289  -392  -404  -298  -74  218  496  697  821  919  1025  1126  1216  1317  1458  1623  1756  1826  1856  1871  1860  1816  1753  1667  1533  1343  1119  931  837  825  833  812  738  607  407  98  -367  -966  -1537  -1904  -2059  -2118  -2118  -1999  -1765  -1515  -1303  -1115  -926  -731  -537  -345  -135  79  247  355  425  467  485  499  500  407  117  -324  -713  -909  -960  -955  -905  -781  -620  -503  -426  -317  -160  -15  68  92  75  39  -19  -116  -227  -292  -291  -262  -244  -236  -224  -213  -238  -350  -562  -802  -970  -1019  -1024  -1103  -1214  -1197  -954  -365  704  2166  3668  4785  5172  4739  3706  2396  1024  -287  -1430  -2263  -2616  -2423  -1846  -1191  -686  -370  -189  -64  75  237  371  466  538  585  612  651  726  819  889  919  933  968  1068  1252  1478  1681  1834  1946  2029  2093  2152  2206  2214  2152  2071  2032  2031  2043  2049  2029  1961  1828  1658  1509  1422  1392  1385  1356  1279  1159  1017  856  685  534  432  395  404  401  324  177  35  -37  -49  -52  -84  -143  -201  -247  -289  -336  -368  -341  -217  -19  175  296  249  -112  -817  -1599  -2112  -2275  -2245  -2170  -2098  -2013  -1870  -1656  -1430  -1269  -1188  -1142  -1076  -951  -763  -543  -339  -200  -157  -205  -318  -444  -535  -593  -674  -819  -999  -1127  -1165  -1141  -1090  -1006  -867  -694  -539  -422  -321  -223  -147  -130  -178  -207  -75  355  1165  2291  3545  4658  5301  5263  4574  3388  1858  162  -1512  -3007  -4079  -4489  -4287  -3764  -3219  -2830  -2601  -2442  -2291  -2130  -1982  -1877  -1802  -1711  -1574  -1412  -1279  -1212  -1190  -1143  -1012  -811  -601  -404  -230  -118  -75  -25  123  366  604  772  901  1019  1091  1052  872  623  437  365  364  401  495  650  827  972  1055  1079  1049  954  800  635  487  342  185  47  -45  -116  -198  -290  -369  -423  -450  -451  -437  -421  -403  -389  -377  -354  -302  -215  -105  -2  60  80  85  102  144  206  275  341  401  448  466  423  269  -29  -425  -780  -983  -1045  -1033  -976  -879  -772  -687  -616  -502  -280  54  389  575  581  499  417  323  168  -29  -187  -272  -328  -386  -437  -457  -408  -249  -1  225  341  343  247  134  239  821  1937  3360  4663  5359  5064  3744  1801  -223  -1984  -3352  -4323  -4957  -5271  -5183  -4705  -4085  -3614  -3362  -3234  -3132  -3000  -2813  -2603  -2437  -2333  -2261  -2167  -1955  -1516  -861  -144  486  971  1298  1489  1602  1701  1844  2045  2271  2475  2640  2790  2955  3131  3296  3437  3549  3632  3689  3725  3731  3682  3552  3365  3178  3023  2893  2768  2631  2474  2292  2063  1743  1283  662  -63  -753  -1291  -1677  -1981  -2249  -2492  -2690  -2801  -2821  -2790  -2740  -2645  -2414  -1997  -1498  -1084  -819  -666  -561  -472  -410  -382  -374  -373  -367  -339  -287  -232  -200  -183  -140  -11  242  590  933  1185  1348  1469  1560  1608  1617  1612  1609  1612  1610  1580  1504  1388  1285  1245  1262  1304  1355  1390  1364  1234  989  704  499  406  314  13  -682  -1670  -2546  -3009  -3046  -2703  -1949  -787  599  1870  2629  2541  1556  41  -1535  -2948  -4167  -5189  -5893  -5999  -5335  -4104  -2817  -1934  -1577  -1558  -1633  -1686  -1713  -1746  -1806  -1867  -1873  -1802  -1678  -1540  -1398  -1216  -982  -718  -422  -97  191  373  447  463  475  540  706  998  1362  1685  1904  2043  2158  2294  2441  2541  2562  2535  2493  2441  2381  2315  2231  2117  1960  1774  1611  1496  1391  1242  1019  740  467  243  70  -57  -156  -249  -330  -378  -395  -402  -403  -382  -332  -279  -254  -263  -295  -324  -328  -294  -222  -134  -64  -18  21  62  94  113  129  154  177  170  136  108  108  126  144  167  225  344  491  598  634  603  520  415  342  326  352  391  418  421  396  348  295  260  247  245  239  219  189  177  233  399  609  712  613  335  77  200  934  2177  3533  4455  4542  3754  2343  678  -895  -2113  -2823  -3054  -2922  -2556  -2126  -1763  -1471  -1222  -1043  -964  -956  -962  -938  -856  -703  -514  -362  -276  -230  -221  -259  -315  -350  -359  -352  -333  -290  -212  -125  -69  -53  -53  -41  11  126  283  425  523  606  703  799  839  772  604  408  255  165  115  74  33  -6  -39  -70  -141  -334  -670  -1027  -1261  -1359  -1405  -1454  -1506  -1554  -1585  -1582  -1536  -1461  -1395  -1362  -1340  -1263  -1088  -855  -654  -511  -367  -174  49  256  401  475  504  514  522  534  547  555  559  564  568  574  597  664  788  932  1031  1059  1052  1048  1066  1100  1135  1151  1114  993  813  654  566  533  516  489  462  462  506  572  596  527  397  277  203  155  86  -43  -224  -398  -425  -107  642  1726  2901  3819  4180  3863  2931  1581  56  -1437  -2713  -3558  -3862  -3708  -3293  -2852  -2558  -2439  -2424  -2430  -2413  -2354  -2265  -2183  -2138  -2128  -2138  -2162  -2196  -2228  -2242  -2214  -2149  -2085  -2050  -2025  -1970  -1852  -1629  -1236  -639  95  824  1402  1753  1925  2047  2208  2388  2529  2629  2717  2794  2832  2828  2786  2654  2338  1803  1124  428  -180  -672  -1071  -1424  -1737  -1962  -2087  -2155  -2206  -2271  -2374  -2497  -2589  -2620  -2588  -2492  -2350  -2184  -1975  -1745  -1573  -1480  -1391  -1231  -995  -745  -541  -381  -227  -84  5  31  25  22  41  83  138  207  295  388  469  540  613  701  809  919  1007  1082  1180  1297  1393  1447  1471  1481  1479  1454  1392  1306  1222  1155  1103  1055  1002  963  929  864  783  727  701  677  631  570  498  368  119  -250  -630  -826  -692  -157  822  2145  3492  4460  4720  4175  3027  1548  -38  -1467  -2527  -3125  -3205  -2853  -2327  -1875  -1589  -1402  -1244  -1131  -1094  -1099  -1073  -926  -615  -232  68  251  413  612  798  913  972  1029  1118  1247  1430  1647  1827  1916  1971  2107  2370  2670  2880  2964  2981  3005  3069  3165  3273  3367  3408  3370  3265  3137  3031  2971  2904  2716  2326  1709  893  50  -569  -886  -1022  -1100  -1160  -1195  -1196  -1169  -1131  -1100  -1083  -1075  -1071  -1066  -1065  -1092  -1188  -1359  -1534  -1637  -1653  -1610  -1539  -1474  -1438  -1413  -1363  -1265  -1142  -1028  -947  -908  -911  -957  -1033  -1112  -1158  -1147  -1077  -979  -895  -831  -774  -707  -611  -494  -399  -350  -329  -293  -214  -112  -37  -2  13  14  -18  -88  -166  -221  -252  -287  -337  -390  -425  -434  -429  -435  -499  -700  -1107  -1715  -2364  -2724  -2603  -2171  -1650  -1103  -467  422  1633  2947  3951  4228  3605  2268  540  -1225  -2669  -3648  -4131  -4039  -3518  -2901  -2385  -2026  -1835  -1769  -1730  -1602  -1333  -1006  -759  -626  -546  -467  -345  -132  160  442  629  729  822  989  1239  1507  1719  1848  1914  1953  2028  2193  2432  2658  2836  3015  3201  3304  3247  3022  2660  2231  1848  1568  1366  1218  1106  1005  913  849  793  684  480  187  -162  -510  -786  -952  -1027  -1058  -1080  -1105  -1129  -1142  -1136  -1086  -970  -810  -675  -617  -624  -645  -644  -614  -554  -454  -321  -187  -83  -18  11  6  -37  -119  -207  -261  -275  -270  -262  -256  -253  -261  -289  -323  -345  -358  -368  -361  -312  -201  -53  61  110  123  127  109  39  -80  -214  -328  -404  -448  -487  -548  -645  -759  -850  -902  -941  -1001  -1080  -1155  -1211  -1250  -1285  -1348  -1440  -1466  -1294  -884  -290  408  1142  1876  2542  2958  2883  2206  999  -552  -2181  -3621  -4723  -5390  -5537  -5253  -4774  -4260  -3794  -3470  -3324  -3261  -3162  -3000  -2826  -2688  -2604  -2571  -2576  -2607  -2652  -2691  -2677  -2548  -2286  -1965  -1683  -1466  -1233  -866  -373  81  364  503  585  666  765  882  1015  1173  1344  1485  1582  1656  1747  1901  2110  2297  2396  2391  2291  2113  1893  1682  1522  1403  1291  1173  1070  993  927  839  728  621  534  461  404  364  342  328  313  292  282  327  469  681  872  984  1022  1013  979  957  964  990  1019  1053  1090  1120  1139  1144  1141  1135  1127  1099  1049  1000  970  946  893  799  695  625  605  627  698  823  969  1081  1133  1139  1115  1054  937  756  540  350  244  216  214  187  108  -13  -148  -275  -406  -605  -959  -1434  -1857  -2026  -1808  -1234  -494  311  1282  2504  3873  5093  5798  5711  4823  3427  1878  375  -1031  -2315  -3324  -3811  -3684  -3081  -2214  -1320  -668  -376  -327  -350  -360  -347  -323  -306  -301  -308  -321  -320  -260  -109  88  239  299  306  322  394  549  761  968  1146  1324  1511  1691  1843  1961  2060  2146  2203  2224  2225  2220  2211  2191  2151  2083  1968  1786  1542  1300  1122  990  847  693  553  399  167  -208  -793  -1563  -2292  -2725  -2849  -2832  -2781  -2688  -2525  -2296  -2028  -1773  -1573  -1413  -1242  -1039  -839  -693  -606  -546  -502  -485  -484  -464  -397  -297  -212  -167  -151  -143  -131  -117  -109  -108  -109  -111  -116  -126  -146  -179  -211  -200  -116  15  138  218  252  257  254  252  243  209  143  48  -57  -140  -170  -144  -88  -33  7  24  15  -3  -27  -80  -186  -338  -499  -626  -694  -661  -471  -115  428  1237  2339  3582  4642  5188  4994  4032  2599  1103  -246  -1359  -2165  -2636  -2696  -2323  -1700  -1073  -604  -362  -302  -319  -369  -461  -581  -677  -727  -759  -785  -790  -775  -755  -727  -662  -530  -360  -236  -197  -215  -232  -180  -10  247  498  683  812  928  1085  1330  1646  1938  2110  2165  2167  2157  2113  1997  1834  1694  1574  1385  1091  766  487  255  38  -155  -289  -394  -554  -769  -937  -995  -953  -853  -749  -654  -537  -412  -324  -274  -222  -142  -48  17  44  54  75  112  144  153  151  147  120  60  -6  -76  -203  -443  -760  -1045  -1245  -1392  -1490  -1487  -1388  -1271  -1190  -1150  -1130  -1118  -1119  -1144  -1189  -1229  -1239  -1215  -1154  -1050  -922  -817  -772  -788  -845  -926  -1028  -1166  -1356  -1568  -1740  -1847  -1908  -1957  -2037  -2150  -2239  -2260  -2212  -2106  -1961  -1813  -1704  -1615  -1462  -1201  -864  -476  -8  656  1695  3107  4586  5731  6227  5937  4992  3696  2315  1030  12  -586  -702  -403  119  600  870  991  1135  1374  1628  1792  1858  1895  1962  2056  2144  2208  2239  2228  2180  2111  2028  1905  1693  1400  1134  992  963  978  1004  1071  1229  1467  1702  1855  1914  1901  1838  1742  1623  1470  1284  1120  1034  1008  966  825  562  236  -54  -251  -358  -412  -468  -596  -845  -1172  -1481  -1725  -1891  -1979  -2025  -2104  -2269  -2493  -2685  -2786  -2803  -2767  -2689  -2569  -2436  -2347  -2329  -2367  -2435  -2507  -2558  -2569  -2514  -2387  -2225  -2093  -2024  -2002  -2000  -1994  -1939  -1790  -1571  -1361  -1199  -1085  -1024  -1004  -988  -943  -850  -708  -540  -399  -316  -279  -263  -255  -247  -240  -247  -287  -367  -475  -577  -637  -655  -655  -650  -627  -568  -496  -466  -503  -561  -569  -514  -433  -353  -271  -131  212  871  1833  3003  4212  5169  5533  5095  3916  2254  402  -1349  -2740  -3636  -4061  -4089  -3828  -3469  -3201  -3050  -2925  -2763  -2567  -2366  -2175  -1990  -1795  -1576  -1320  -1016  -697  -447  -308  -246  -184  -59  160  447  703  862  977  1143  1383  1640  1867  2066  2246  2418  2574  2685  2734  2757  2797  2865  2964  3100  3247  3354  3400  3401  3352  3219  2975  2635  2281  1985  1736  1516  1364  1289  1258  1244  1244  1256  1258  1188  986  683  376  128  -45  -134  -157  -152  -137  -101  -46  -14  -37  -88  -129  -158  -208  -346  -660  -1204  -1956  -2751  -3335  -3588  -3613  -3572  -3536  -3501  -3454  -3378  -3237  -3031  -2814  -2605  -2318  -1846  -1255  -787  -584  -557  -553  -510  -433  -340  -262  -226  -251  -367  -572  -790  -940  -1018  -1066  -1108  -1131  -1125  -1102  -1070  -1006  -912  -822  -661  -212  706  2045  3508  4710  5293  5029  3984  2499  902  -583  -1755  -2465  -2698  -2551  -2242  -2032  -2009  -2078  -2150  -2200  -2232  -2256  -2316  -2454  -2624  -2746  -2812  -2858  -2915  -2992  -3063  -3086  -3052  -2975  -2874  -2729  -2467  -2077  -1656  -1277  -920  -568  -250  49  438  1004  1650  2140  2349  2337  2187  1949  1714  1575  1545  1572  1611  1634  1604  1490  1301  1078  832  560  301  107  -3  -53  -68  -72  -79  -70  -14  81  155  152  82  -7  -66  -79  -63  -10  123  330  530  655  706  710  702  735  854  1025  1167  1253  1312  1346  1366  1410  1443  1419  1381  1364  1359  1410  1534  1662  1753  1854  2010  2180  2269  2235  2100  1900  1681  1494  1356  1265  1214  1183  1143  1094  1061  1050  1050  1049  1042  1029  1019  1018  992  865  632  465  535  824  1311  2083  3135  4304  5413  6248  6481  5914  4698  3142  1508  76  -910  -1412  -1498  -1264  -898  -567  -299  -75  88  201  308  426  519  565  570  548  488  373  231  126  84  106  201  372  580  766  900  1016  1152  1283  1354  1365  1361  1364  1368  1371  1370  1339  1243  1087  928  814  725  612  481  393  370  376  352  258  108  -65  -273  -536  -812  -1029  -1165  -1246  -1301  -1371  -1498  -1661  -1794  -1869  -1904  -1925  -1968  -2059  -2171  -2250  -2279  -2264  -2224  -2180  -2140  -2100  -2060  -2017  -1962  -1904  -1857  -1831  -1825  -1830  -1836  -1833  -1808  -1754  -1681  -1613  -1556  -1514  -1496  -1496  -1481  -1399  -1238  -1060  -932  -865  -844  -859  -880  -874  -847  -825  -821  -822  -810  -773  -709  -632  -559  -500  -466  -492  -610  -790  -941  -994  -936  -794  -651  -580  -478  -32  986  2467  3994  5049  5317  4840  3886  2728  1486  131  -1332  -2715  -3685  -3983  -3665  -3049  -2442  -1978  -1632  -1321  -1042  -865  -801  -770  -690  -554  -416  -324  -273  -233  -188  -127  -22  137  312  438  493  521  621  891  1305  1702  1945  2049  2122  2226  2342  2428  2483  2518  2511  2434  2320  2238  2215  2226  2238  2234  2188  2055  1826  1555  1320  1154  1034  902  706  473  297  229  230  227  180  102  39  15  14  14  9  12  57  160  286  373  404  401  385  358  315  257  211  213  278  371  428  401  318  231  151  91  84  143  241  331  387  403  330  64  -420  -977  -1416  -1686  -1839  -1929  -1985  -2006  -1985  -1945  -1912  -1894  -1888  -1885  -1882  -1880  -1883  -1890  -1890  -1849  -1725  -1523  -1310  -1084  -708  -27  1008  2288  3524  4344  4506  4023  3085  1917  720  -354  -1250  -1975  -2482  -2688  -2624  -2449  -2270  -2109  -1979  -1876  -1777  -1676  -1587  -1503  -1409  -1301  -1178  -1043  -909  -772  -593  -362  -140  13  103  171  254  402  667  1002  1269  1412  1502  1602  1704  1813  1969  2173  2364  2505  2607  2691  2756  2785  2718  2480  2105  1753  1520  1359  1223  1132  1071  949  715  446  269  209  197  180  152  128  116  115  117  117  120  127  135  129  104  76  63  62  61  48  24  3  19  104  251  399  478  436  214  -215  -779  -1290  -1582  -1661  -1644  -1621  -1612  -1609  -1603  -1600  -1625  -1702  -1826  -1954  -2067  -2203  -2391  -2591  -2733  -2792  -2810  -2828  -2876  -2972  -3089  -3142  -3053  -2848  -2636  -2436  -2163  -1834  -1532  -1154  -404  894  2529  4004  4828  4730  3774  2346  890  -413  -1604  -2646  -3347  -3517  -3134  -2428  -1730  -1226  -938  -812  -770  -729  -634  -510  -421  -385  -381  -393  -413  -424  -404  -351  -276  -157  31  253  416  479  470  408  281  114  -18  -66  -31  92  327  640  948  1196  1370  1478  1539  1585  1643  1708  1749  1739  1649  1451  1180  942  811  774  754  665  464  191  -82  -291  -401  -423  -403  -374  -340  -293  -239  -192  -165  -159  -163  -164  -170  -184  -202  -243  -330  -441  -510  -518  -500  -489  -482  -467  -433  -379  -302  -210  -128  -71  -29  7  33  42  23  -29  -112  -218  -334  -461  -610  -773  -927  -1043  -1100  -1105  -1086  -1067  -1058  -1057  -1059  -1065  -1076  -1095  -1142  -1215  -1237  -1077  -633  133  1197  2444  3636  4469  4684  4187  3147  1876  607  -525  -1447  -2105  -2404  -2280  -1817  -1230  -760  -504  -362  -226  -87  49  188  319  437  538  601  620  615  635  705  801  879  919  936  963  1038  1169  1334  1510  1694  1880  2053  2226  2410  2574  2679  2728  2741  2735  2717  2697  2672  2619  2514  2353  2155  1962  1836  1793  1784  1750  1668  1545  1380  1157  896  678  561  523  503  447  339  206  87  8  -9  42  138  229  284  303  295  279  270  271  265  245  224  215  216  218  208  178  133  99  104  135  146  112  13  -210  -576  -993  -1385  -1782  -2207  -2602  -2886  -3024  -3057  -3052  -3049  -3051  -3050  -3040  -3014  -2966  -2904  -2855  -2831  -2831  -2854  -2887  -2877  -2764  -2525  -2127  -1481  -548  599  1771  2622  2816  2293  1255  -2  -1181  -2096  -2720  -3069  -3112  -2837  -2331  -1757  -1257  -901  -680  -540  -431  -323  -203  -82  36  180  352  516  662  815  964  1061  1093  1091  1085  1096  1134  1197  1264  1310  1342  1395  1502  1642  1753  1768  1624  1279  773  279  -18  -101  -95  -101  -154  -268  -431  -616  -823  -1057  -1277  -1426  -1486  -1479  -1443  -1403  -1355  -1263  -1109  -910  -697  -501  -339  -221  -140  -86  -47  -17  22  102  234  380  485  527  528  523  536  574  626  671  693  689  669  664  686  720  748  796  923  1147  1387  1545  1607  1627  1620  1525  1280  950  690  570  541  543  550  554  554  543  520  501  502  530  585  656  715  732  699  678  824  1272  2047  3082  4186  5122  5724  5848  5356  4237  2636  755  -1139  -2722  -3748  -4157  -4083  -3750  -3364  -3087  -2955  -2839  -2610  -2310  -2081  -1971  -1900  -1799  -1681  -1592  -1555  -1581  -1707  -1936  -2185  -2345  -2390  -2355  -2256  -2042  -1662  -1169  -713  -382  -108  243  696  1146  1485  1676  1760  1813  1878  1946  1999  2030  2047  2059  2068  2065  2049  2025  1985  1864  1574  1141  722  429  242  114  45  58  153  283  382  423  429  426  433  458  506  565  607  624  628  623  590  510  378  234  131  94  94  57  -126  -537  -1134  -1735  -2174  -2437  -2593  -2659  -2632  -2554  -2483  -2439  -2411  -2384  -2353  -2326  -2324  -2350  -2386  -2432  -2506  -2610  -2728  -2858  -2981  -3059  -3082  -3080  -3077  -3077  -3069  -3039  -2995  -2964  -2948  -2876  -2636  -2198  -1663  -1124  -494  438  1720  3106  4194  4585  4103  2946  1479  31  -1137  -1882  -2183  -2080  -1695  -1222  -816  -528  -319  -130  70  307  568  787  909  954  997  1079  1173  1234  1255  1264  1294  1360  1466  1618  1798  1967  2099  2196  2285  2370  2431  2463  2495  2567  2710  2909  3102  3237  3304  3323  3303  3237  3132  3034  2986  2981  2957  2819  2488  1911  1135  378  -139  -418  -583  -707  -817  -930  -1038  -1135  -1231  -1328  -1408  -1450  -1458  -1451  -1445  -1438  -1426  -1402  -1369  -1351  -1373  -1433  -1518  -1622  -1734  -1843  -1946  -2051  -2148  -2213  -2239  -2245  -2251  -2263  -2262  -2222  -2139  -2022  -1858  -1611  -1279  -932  -651  -438  -255  -108  -43  -78  -192  -344  -492  -609  -692  -755  -803  -834  -842  -819  -767  -701  -614  -485  -334  -232  -221  -268  -269  -123  187  656  1306  2137  3070  3942  4553  4677  4173  3142  1816  400  -887  -1847  -2340  -2340  -1975  -1437  -870  -404  -124  3  74  143  227  320  418  524  649  790  927  1043  1136  1210  1261  1288  1296  1295  1309  1364  1485  1670  1882  2078  2280  2528  2788  2982  3101  3186  3259  3317  3374  3443  3501  3503  3422  3282  3137  3017  2915  2787  2588  2331  2086  1905  1791  1713  1587  1333  980  640  344  27  -307  -563  -681  -697  -648  -517  -309  -87  90  215  300  356  413  501  624  749  847  915  962  990  1005  1009  1008  999  981  939  847  704  536  349  119  -180  -521  -800  -936  -954  -929  -927  -1010  -1217  -1514  -1832  -2145  -2464  -2762  -2983  -3085  -3080  -3001  -2892  -2789  -2687  -2563  -2435  -2342  -2294  -2269  -2264  -2288  -2305  -2217  -1901  -1221  -137  1202  2553  3655  4208  3998  3091  1735  169  -1349  -2548  -3275  -3483  -3201  -2653  -2181  -1920  -1752  -1548  -1283  -1025  -857  -782  -743  -703  -655  -609  -570  -509  -399  -264  -155  -67  57  226  388  538  720  956  1227  1507  1771  1981  2113  2189  2234  2261  2280  2318  2402  2516  2603  2638  2644  2648  2651  2624  2529  2370  2188  2010  1830  1613  1326  948  442  -230  -1036  -1891  -2717  -3379  -3739  -3829  -3804  -3774  -3757  -3730  -3675  -3580  -3427  -3223  -3001  -2797  -2642  -2555  -2513  -2441  -2269  -2023  -1792  -1566  -1237  -788  -351  -44  135  237  295  334  378  453  554  622  608  500  305  62  -170  -361  -501  -595  -651  -671  -663  -649  -643  -640  -628  -609  -582  -527  -429  -323  -266  -262  -286  -325  -348  -343  -294  -30  675  1821  3157  4347  5024  4953  4228  3109  1785  383  -934  -1953  -2456  -2374  -1878  -1286  -894  -795  -834  -847  -803  -728  -619  -473  -320  -241  -281  -371  -424  -432  -425  -420  -416  -400  -358  -304  -260  -237  -224  -191  -103  40  204  357  484  573  636  710  810  903  943  920  868  831  825  833  811  709  521  287  48  -181  -403  -639  -887  -1113  -1286  -1402  -1469  -1500  -1522  -1550  -1573  -1575  -1543  -1481  -1415  -1378  -1365  -1362  -1365  -1382  -1417  -1440  -1413  -1340  -1269  -1239  -1246  -1254  -1243  -1233  -1257  -1315  -1376  -1411  -1406  -1368  -1323  -1293  -1274  -1249  -1211  -1162  -1089  -963  -802  -668  -597  -572  -571  -600  -677  -783  -850  -827  -731  -604  -474  -358  -278  -237  -218  -205  -192  -174  -139  -57  85  309  709  1379  2326  3484  4675  5562  5835  5431  4478  3143  1657  290  -781  -1440  -1600  -1315  -805  -323  13  245  428  566  620  569  455  357  307  299  318  363  428  494  539  565  602  677  793  931  1090  1278  1452  1555  1588  1601  1666  1830  2068  2311  2534  2741  2909  3001  3008  2937  2802  2623  2424  2223  2036  1866  1697  1523  1349  1131  819  473  214  55  -97  -287  -457  -552  -583  -583  -577  -571  -564  -562  -585  -657  -767  -877  -950  -958  -891  -787  -706  -672  -664  -661  -656  -644  -633  -643  -690  -764  -833  -877  -899  -906  -890  -833  -730  -604  -487  -409  -373  -363  -361  -360  -377  -463  -648  -873  -1027  -1065  -1028  -973  -939  -949  -1008  -1094  -1164  -1197  -1183  -1103  -955  -803  -715  -688  -716  -780  -753  -494  61  912  1998  3158  4072  4376  3935  2907  1587  255  -912  -1811  -2361  -2514  -2273  -1741  -1176  -849  -861  -1161  -1590  -1941  -2112  -2140  -2080  -1959  -1802  -1656  -1560  -1505  -1459  -1400  -1301  -1126  -878  -630  -465  -400  -408  -468  -549  -594  -541  -353  -52  312  700  1073  1375  1582  1753  1957  2169  2314  2371  2370  2318  2200  2022  1831  1665  1520  1373  1194  956  695  505  416  378  348  307  233  110  -28  -115  -124  -90  -55  -32  -11  25  71  105  117  109  77  25  -35  -93  -135  -157  -170  -177  -173  -154  -140  -171  -276  -414  -506  -514  -468  -400  -311  -183  -12  164  295  374  423  456  468  435  327  170  45  0  20  58  74  57  23  -4  -18  -21  -13  1  12  -7  -58  -74  -17  116  464  1199  2309  3614  4804  5446  5219  4209  2776  1227  -216  -1373  -2174  -2572  -2448  -1839  -1096  -614  -456  -410  -318  -189  -91  -39  -17  -59  -241  -567  -906  -1104  -1112  -955  -700  -456  -291  -170  -22  179  398  572  698  836  1021  1214  1353  1407  1368  1235  1055  929  939  1090  1301  1458  1525  1549  1557  1528  1416  1197  926  687  488  279  78  -52  -134  -266  -488  -747  -972  -1124  -1199  -1227  -1243  -1263  -1280  -1288  -1287  -1285  -1289  -1305  -1323  -1301  -1206  -1077  -986  -945  -930  -928  -946  -986  -1033  -1073  -1101  -1104  -1068  -996  -923  -882  -873  -875  -879  -884  -884  -868  -816  -713  -576  -446  -349  -293  -279  -332  -482  -682  -828  -877  -864  -835  -809  -793  -798  -833  -914  -1024  -1116  -1148  -1114  -1056  -1026  -978  -776  -297  548  1766  3160  4388  5103  5069  4304  3077  1689  330  -908  -1957  -2686  -2954  -2774  -2311  -1761  -1303  -1028  -892  -806  -714  -592  -443  -274  -98  65  211  354  497  639  795  964  1131  1299  1485  1663  1786  1868  1967  2093  2214  2343  2516  2711  2862  2939  2962  2961  2952  2935  2902  2834  2695  2478  2228  2016  1861  1716  1526  1286  1049  861  689  435  -32  -798  -1751  -2567  -3001  -3082  -2940  -2623  -2181  -1740  -1381  -1080  -820  -632  -531  -474  -407  -322  -244  -216  -316  -639  -1153  -1652  -1947  -2011  -1874  -1526  -1025  -549  -248  -122  -62  23  142  250  315  280  24  -500  -1113  -1564  -1795  -1896  -1913  -1807  -1547  -1217  -966  -855  -842  -875  -913  -914  -843  -705  -553  -438  -394  -491  -812  -1311  -1815  -2183  -2363  -2296  -1894  -1135  -49  1316  2800  4128  4977  5094  4526  3500  2220  880  -406  -1603  -2597  -3231  -3445  -3320  -2990  -2607  -2265  -1947  -1616  -1275  -934  -602  -294  -44  109  190  269  346  353  266  132  -14  -149  -236  -268  -268  -248  -175  12  350  762  1103  1317  1489  1705  1951  2180  2389  2584  2727  2754  2630  2348  1944  1527  1197  930  654  348  38  -235  -437  -557  -605  -601  -578  -566  -585  -646  -759  -914  -1065  -1154  -1150  -1044  -856  -640  -433]
