reading_id,reading_time,wire_id,result_classification,heart_rate,heart_rate_alert,firmware_version,device_app_version,hardware_version,waveform_samples
0ae1cfe0-5812-11ed-8080-808080808080,Sun Oct 30 05:16:43 UTC 2022,a10163b41b39,UNREADABLE,0,NONE,20001.171.50,2.10.0,Charge 5,[-17993  -27312  -32768  -32768  -32768  -32768  -32768  -32768  -25874  -11791  4390  20278  30753  32767  27290  15720  3028  -5710  -10545  -15245  -21612  -28862  -32768  -32768  -32768  -32768  -32768  -32768  -32768  -32768  -32768  -32768  -32768  -32768  -24169  746  23290  32481  25612  7782  -13204  -28215  -31126  -23495  -10671  3383  15338  23963  32268  32767  32767  32767  32767  32767  32767  32767  32767  24228  6356  -7412  -15655  -18989  -18884  -15368  -6885  6422  20118  28604  30805  29791  28522  28801  32098  32767  32767  32767  32767  32767  32767  32767  32341  29349  27456  24714  20242  14248  7505  1648  -1437  -1389  577  2944  4647  5346  5346  5162  5219  5754  6805  8856  12973  19051  25308  30234  32767  32767  32767  32767  32767  28899  18801  4891  -9802  -21152  -27399  -29377  -30003  -32768  -32768  -32768  -32768  -28996  5102  32767  32767  32767  32767  28496  -4756  -28897  -32768  -32768  -32768  -31297  -28537  -29822  -32703  -32768  -26062  -5960  20772  32767  32767  32767  32767  23389  8170  -3635  -10228  -12575  -13040  -13546  -14371  -15125  -16301  -19299  -25124  -32768  -32768  -32768  -32768  -32768  -32768  -32768  -32768  -32768  -32768  -32768  -32768  -32768  -32768  -32422  -28627  -23705  -19799  -17722  -16684  -15808  -14749  -12645  -7796  -50  7892  13178  15562  17036  19410  22451  24668  25294  24491  22650  20556  19153  18629  18461  18171  17608  16901  16183  15277  13946  12101  9621  6704  4006  1918  666  719  2026  3687  4809  5107  4901  4814  5258  6116  6964  7521  7761  7762  7606  7310  6747  5842  5078  5169  5834  5911  4939  3574  2500  1906  1882  2529  3668  4952  6249  7439  8214  8487  8469  8251  7742  6996  6217  5498  4982  4990  5642  6704  7840  8823  9721  10811  12079  13100  13601  13735  13738  13646  13359  12805  11899  10536  8920  7607  6947  6826  6971  7197  7367  7158  5994  3615  739  -1421  -2342  -2456  -2375  -2320  -2275  -2278  -2366  -2435  -2285  -1766  -885  308  1811  3418  4744  5632  6217  6801  7493  7565  5902  2489  -1206  -3713  -4856  -5314  -5553  -5437  -4421  -2563  -1137  -1176  -2886  -6071  -8853  -8591  -4690  1436  7676  12264  14140  12265  6569  -840  -7564  -12221  -14038  -13808  -13286  -12814  -11364  -8377  -4858  -2422  -1581  -2050  -3737  -6106  -7916  -8509  -8200  -7448  -6549  -5716  -4956  -4122  -3146  -2084  -1006  113  1286  2205  2431  1954  1117  134  -953  -1973  -2630  -2854  -2832  -2750  -2697  -2722  -2785  -2355  -148  4616  10515  14926  16574  15643  12625  8803  6121  5397  5968  6876  7419  7039  5487  3369  1851  1464  1820  2136  1317  -1529  -5682  -9045  -10258  -9206  -6270  -2672  -108  878  934  365  -1271  -4042  -6982  -9169  -10601  -11296  -10685  -8757  -6705  -5809  -6356  -7755  -9287  -10570  -11317  -10814  -8116  -3454  1117  3649  4122  3648  3018  2441  1939  1590  1420  1281  936  189  -971  -2239  -3189  -3673  -3929  -4163  -4094  -3353  -2459  -2488  -3492  -4369  -4361  -3735  -3123  -2796  -2653  -2635  -2844  -3329  -3907  -4314  -4529  -4848  -5537  -6440  -7205  -7772  -8237  -8561  -8696  -8669  -8389  -7664  -6581  -5566  -4941  -4674  -4528  -4262  -3872  -3618  -3606  -3527  -2929  -1653  -102  1000  1257  696  -452  -1682  -2460  -2726  -2749  -2529  -1537  624  3005  3374  568  -3405  -4096  2950  17856  32767  32767  28543  7741  -14410  -25920  -23433  -13007  -2308  3465  3356  630  -1153  -431  2985  7719  11308  12036  9166  2977  -4032  -8467  -9065  -6925  -4014  -2040  -1489  -1776  -2265  -2649  -2855  -2967  -3100  -3266  -3399  -3452  -3412  -3255  -2979  -2595  -2122  -1636  -1206  -804  -366  173  900  1878  3013  4003  4544  4366  3140  863  -1835  -4209  -5855  -6637  -6531  -5550  -3936  -2324  -1223  -594  -208  -6  -109  -610  -1311  -1869  -2137  -2192  -2167  -2109  -1969  -1733  -1512  -1269  -643  899  4110  9066  14593  19724  23797  26101  26730  25503  21688  15983  10086  4879  841  -1113  -1039  -700  -1368  -2529  -3239  -3335  -3081  -2441  -1219  276  1349  1754  1819  1819  1763  1638  1513  1380  1093  504  -455  -1840  -3571  -5062  -5655  -5606  -5447  -4947  -3898  -2681  -1398  780  4836  10054  14144  15443  13059  6636  -1539  -7369  -9391  -9376  -8981  -8054  -5682  -2116  986  2417  2328  1392  250  -555  -794  -446  518  1881  2976  3130  2135  144  -2628  -5695  -8172  -9405  -9372  -8289  -6513  -4766  -3722  -3431  -3472  -3436  -3216  -3088  -3411  -4091  -4652  -4873  -4943  -5082  -5312  -5545  -5724  -5731  -5295  -4263  -2984  -2056  -1673  -1596  -1613  -1718  -1947  -2191  -2293  -2307  -2379  -2454  -2347  -1930  -1206  -383  222  451  270  -307  -1020  -1444  -1453  -1419  -2117  -4100  -6688  -8205  -7633  -5343  -2311  456  2047  1975  410  -1808  -3689  -4901  -5430  -4759  -2454  755  3496  5137  5964  6312  5767  3219  -1555  -6701  -9784  -9693  -6644  -1907  2663  6256  10123  16112  23515  28448  26539  16244  1972  -8552  -12215  -11424  -8590  -4626  -805  1367  1528  385  -1065  -2038  -2433  -2749  -3343  -4092  -4662  -4773  -3976  -1399  3468  9884  16434  21743  24883  26187  26746  27021  26774  25851  24824  24551  24495  23854  25189  31375  32767  32767  32767  32767  32188  32767  32767  32767  32767  32767  32767  5541  -23600  -32768  -32768  -32768  -32768  -32768  -32768  -29218  -15453  -7374  -3223  -1347  -942  -1095  -1178  -1210  -1674  -3272  -6495  -10737  -14226  -15608  -15035  -13556  -12113  -11053  -10358  -10034  -10046  -10236  -10569  -11146  -11861  -12399  -12504  -11916  -10170  -7091  -3588  -1083  82  709  1362  1860  1878  1390  708  203  -89  -460  -1132  -1998  -2837  -3644  -4358  -4709  -4833  -5701  -8232  -11756  -14415  -15341  -15067  -14260  -13306  -12469  -11662  -10102  -6750  -1934  2324  4544  5099  5040  4979  5059  5121  4732  3529  1873  641  215  316  649  1096  1493  1440  483  -1123  -2189  -1956  -1031  -260  251  702  1122  1321  847  -699  -2880  -4592  -5206  -4676  -3065  -931  691  1285  1004  78  -1151  -2074  -2035  -528  2320  5397  7487  8200  7368  4606  491  -3065  -4512  -3641  -1000  2447  5420  7040  7416  7159  6561  5486  3855  1874  -48  -1343  -1718  -1583  -1459  -1467  -1841  -3280  -6239  -9872  -12399  -12765  -11204  -8641  -6034  -3855  -2250  -1328  -910  -379  778  2304  3497  4067  4177  3952  3260  1904  151  -1245  -1786  -1576  -957  -202  444  731  540  -82  -1185  -2862  -4734  -6140  -6974  -7614  -8207  -8517  -8300  -7496  -6222  -4843  -3815  -3305  -3207  -3189  -2788  -1993  -1227  -703  -430  -483  -888  -1457  -1922  -2239  -2507  -2585  -1980  -344  1823  3523  4332  4522  4390  3990  3487  3539  4696  6390  7249  6532  4898  3584  3040  2858  2704  2603  2627  2839  3335  4076  4993  6185  7598  8692  8767  7545  5314  2792  893  171  388  819  978  922  822  533  -183  -1123  -1618  -1145  232  1982  3433  3959  3090  881  -1781  -3802  -4766  -4804  -3994  -2056  1270  5244  8225  9246  8765  7888  7354  7288  7840  9450  11954  14201  15145  14731  13571  12238  10892  9305  7328  5422  4257  3860  3760  3661  3332  2119  -475  -3641  -5778  -6180  -5342  -4148  -3296  -2972  -3022  -3305  -3710  -4131  -4426  -4139  -2269  1917  7225  11038  12020  10699  8177  5668  4085  3442  3055  2268  1026  -213  -1067  -1486  -1672  -1929  -2365  -2803  -3042  -3054  -2908  -2668  -2342  -1924  -1533  -1200  -620  291  1036  1290  1474  2344  4179  6327  7634  7083  4269  211  -3118  -4877  -5752  -6426  -6955  -7282  -7530  -7796  -7970  -7782  -7053  -6028  -5272  -5135  -5589  -6392  -7290  -8306  -9626  -11075  -12194  -12769  -12927  -12895  -12783  -12463  -11678  -10304  -8564  -6954  -5855  -5265  -4834  -4197  -3330  -2488  -1889  -1550  -1444  -1806  -3023  -4944  -6714  -7581  -7359  -6197  -4643  -3571  -3592  -4711  -6311  -7544  -8038  -7922  -7323  -6336  -5183  -3997  -2628  -960  849  2600  4144  5339  6208  6915  7466  7628  7236  6484  5739  5157  4662  4185  3760  3437  3260  3318  3788  4833  6229  7385  7993  8081  7381  5418  2552  288  -166  797  1990  2852  3450  3789  3749  3301  2627  2030  1689  1577  1598  1657  1660  1465  967  319  -58  176  1101  2566  4095  5001  4932  4031  2624  1195  280  10  72  151  135  53  -9  38  257  585  841  825  389  -423  -1301  -1918  -2121  -1691  -383  1437  2760  2704  1019  -1627  -3896  -4970  -5108  -4859  -4433  -3858  -3185  -2387  -1278  283  2014  3229  3586  3514  3913  5368  7308  8675  9182  8998  8290  7289  6181  5486  5609  5866  5243  3041  -677  -3947  -4547  -2927  -1134  -172  123  18  -479  -1301  -2178  -2889  -3362  -3499  -2904  -1173  1191  2947  3424  2820  1566  127  -1034  -1676  -1887  -1930  -2004  -2168  -2408  -2660  -2770  -2330  -688  2232  5363  7550  8682  9258  9595  9639  9077  7725  5926  4254  2888  1721  730  -99  -817  -1376  -1709  -1822  -1622  -887  332  1526  2223  2381  2078  1296  269  -477  -705  -676  -753  -949  -810  56  1338  2383  2995  3372  3689  3894  3573  2319  478  -1053  -1767  -1761  -1418  -1141  -1069  -1073  -1008  -855  -703  -645  -789  -1301  -2193  -3182  -3988  -4553  -4838  -4736  -4215  -3322  -2172  -1061  -330  -65  -100  -242  -323  -74  762  2024  3216  4028  4383  4130  2929  615  -2120  -4003  -4379  -3456  -1694  433  2272  3003  2265  673  -679  -1130  -835  -529  -929  -2176  -3678  -4556  -4547  -4146  -3649  -2631  -706  1639  3560  4907  6023  6936  7391  7123  5997  4366  2940  1975  1110  -118  -1942  -3972  -5340  -5591  -4981  -4088  -3493  -3572  -4377  -5550  -6578  -7357  -8258  -9666  -11514  -13168  -13856  -13258  -11670  -9721  -7962  -6688  -5957  -5627  -5473  -5224  -4358  -2369  246  2143  2645  2172  1436  951  967  1521  2399  3179  3574  3594  3349  2940  2496  2147  2004  2123  2459  2855  3070  2967  2586  1998  1338  851  631  571  611  733  765  426  -386  -1479  -2640  -3802  -4792  -5361  -5497  -5352  -5016  -4586  -4165  -3700  -3023  -2055  -866  361  1364  1928  2062  1873  1404  791  318  217  530  1113  1674  1940  1814  1379  785  209  -120  42  789  1811  2592  2987  3242  3526  3785  3892  3822  3688  3561  3388  3155  2939  2785  2616  2321  1931  1592  1357  1194  1158  1367  1841  2399  2801  2870  2401  1253  -270  -1518  -2137  -2291  -2187  -1706  -661  768  2086  2981  3552  4053  4572  5047  5471  5862  6158  6241  6022  5496  4760  3997  3431  3132  2939  2663  2276  1900  1657  1565  1575  1638  1693  1600  1167  373  -578  -1385  -1698  -1432  -990  -686  -309  529  1933  3479  4509  4817  4720  4502  4158  3595  2933  2405  2080  1939  1999  2442  3725  5984  8310  9343  8559  6631  4544  2620  816  -652  -1708  -2686  -3720  -4578  -5059  -5142  -5227  -5388  -4411  -2052  -204  591  1640  3202  5024  6858  6980  3715  -1847  -6506  -7866  -5913  -2591  -511  -547  -1246  -1542  -1906  -2818  -3774  -3901  -3167  -2353  -1953  -1868  -1895  -1955  -2019  -2076  -2062  -1731  -818  456  1364  1233  -102  -2035  -3509  -4015  -3869  -3669  -4026  -5326  -7163  -8561  -9073  -9040  -8890  -8751  -8547  -8180  -7710  -7308  -7047  -6886  -6682  -6270  -5672  -4992  -4200  -3334  -2614  -2197  -2073  -2170  -2366  -2404  -2064  -1307  -162  703  -25  -2273  -3767  -1680  5317  15144  23240  25437  19184  6646  -3870  -6290  -3306  -505  -622  -3639  -6705  -6941  -4929  -2367  299  2583  3485  2663  926  -554  -1274  -1396  -1045  -175  957  1793  2076  2006  1906  2011  2401  2979  3585  4062  4263  4157  3895  3663  3371  2666  1434  -97  -1808  -3681  -5396  -6434  -6530  -5726  -4175  -1878  1326  4831  7009  6870  5052  2960  1604  981  470  -69  95  1676  4228  6499  7771  8214  8250  8081  7624  6798  5725  4593  3534  2644  1905  1209  593  225  136  185  207  -33  -797  -2018  -3242  -4066  -4356  -4185  -3765  -3310  -2959  -2791  -2796  -2890  -2921  -2629  -1832  -785  -53  47  -385  -1023  -1532  -1791  -1874  -1864  -1823  -1905  -2278  -2801  -2943  -2206  -627  1209  2633  3347  3623  3951  4455  4927  5294  5634  5847  5532  4305  2434  797  -32  -112  423  1559  2944  3943  4338  4444  4533  4560  4444  4311  4318  4437  4551  4635  4733  4864  5042  5238  5185  4504  3151  1506  -60  -1537  -3048  -4388  -5215  -5540  -5586  -5368  -4672  -3422  -1879  -403  796  1608  1956  1906  1663  1344  689  -685  -2479  -3795  -4247  -4186  -3990  -3715  -3220  -2416  -1409  -382  521  1224  1730  1861  1262  41  -1079  -1529  -1566  -1969  -2989  -4166  -5211  -6307  -7628  -8898  -9442  -8691  -6726  -4375  -2576  -1648  -1350  -1158  -462  964  2709  4137  4978  5405  5726  6032  5941  4958  3248  1645  767  532  601  812  1073  1256  1310  1286  1216  1061  794  538  461  485  148  -1026  -2809  -4325  -5047  -5167  -4928  -4234  -3050  -1785  -960  -675  -608  -427  -104  130  50  -353  -753  -697  -163  371  480  225  61  272  568  485  31  -416  -747  -1207  -1892  -2622  -3319  -4086  -4870  -5402  -5416  -4749  -3497  -2145  -1205  -818  -836  -1013  -1133  -963  -31  1986  4478  6362  7321  7828  8247  8525  8578  8506  8369  7998  7190  6057  4936  3955  3132  2634  2570  2868  3333  3602  3462  3114  2633  1675  107  -1534  -2609  -2966  -2607  -1288  912  3159  4627  5254  5402  5282  4768  3512  1434  -976  -2947  -3903  -3873  -3403  -2958  -2552  -2042  -1515  -1190  -1094  -1087  -1069  -1110  -1426  -2246  -3600  -5148  -6352  -6876  -6645  -5830  -4906  -4285  -3767  -2674  -689  1552  3058  3555  3434  2999  2339  1648  1211  1144  1367  1761  2410  3585  5203  6663  7528  7919  8115  8058  7319  5619  3516  2046  1621  1918  2602  3530  4444  4920  4790  4342  3977  3812  3740  3704  3740  3769  3563  2865  1583  99  -914  -1205  -1073  -872  -766  -783  -868  -870  -502  436  1599  2256  2101  1434  727  325  262  280  134  -231  -721  -1244  -1913  -2879  -3969  -4802  -5225  -5390  -5453  -5383  -5020  -4303  -3405  -2565  -1935  -1578  -1442  -1372  -1251  -1053  -731  -323  -150  -455  -1009  -1506  -1924  -2297  -2557  -2657  -2577  -2265  -1750  -1243  -947  -860  -879  -999  -1271  -1600  -1711  -1433  -932  -532  -384  -444  -619  -745  -625  -148  662  1825  3537  5625  7454  8844  9688  9350  7945  6804  7047  8507  9747  9124  6122  2012  -880  -1900  -2502  -3119  -3141  -2878  -2621  -2201  -1938  -2093  -2378  -2569  -2708  -2803  -2726  -2366  -1836  -1437  -1320  -1366  -1405  -1338  -1123  -826  -609  -582  -743  -998  -1164  -1128  -860  -51  1656  3807  5336  5687  5004  3660  2171  1068  495  99  -515  -1297  -1908  -2238  -2430  -2533  -2410  -1881  -856  461  1566  2046  1909  1456  982  643  479  451  452  316  -116  -830  -1669  -2648  -3882  -5200  -6169  -6549  -6493  -6385  -6694  -7785  -9477  -11035  -11972  -12501  -12977  -13396  -13544  -13291  -12647  -11653  -10416  -9184  -8231  -7726  -7622  -7719  -7837  -7848  -7687  -7433  -7246  -7260  -7565  -8121  -8648  -8770  -8324  -7568  -6957  -6688  -6589  -6333  -5701  -4899  -4474  -4668  -5187  -5770  -6469  -7174  -7397  -6714  -5148  -2966  -522  1593  2834  3115  2459  821  -1262  -2868  -3877  -4778  -5411  -5302  -4748  -4375  -4337  -4538  -4788  -4794  -4512  -4185  -3962  -3821  -3727  -3661  -3584  -3526  -3700  -4385  -5551  -6695  -7251  -7105  -6592  -6004  -5342  -4589  -3875  -3047  -1440  1575  6320  11962  15924  16628  15633  15285  16259  17635  17628  14539  8495  2152  -1470  -1199  2539  8096  12948  15458  15900  15471  15017  14670  14109  12942  11116  9042  7251  6008  5246  4775  4401  3979  3533  3243  3176  3188  3001  2371  1343  233  -683  -1329  -1720  -1843  -1720  -1349  -430  1387  3849  6091  7449  7967  8040  7921  7681  7384  7077  6698  6218  5774  5478  5192  4670  3928  3240  2791  2564  2500  2677  3482  5469  8631  11920  14174  15251  15695  15913  16046  16153  16203  15994  15293  14207  13068  11882  10441  8861  7416  6140  4935  3844  3056  2665  2528  2484  2644  3338  4692  6364  7842  8831  9361  9682  9927  9943  9597  9004  8090  6297  3490  707  -869  -1050  -298  929  2449  4365  6501  8145  8855  8890  8664  8359  8065  7853  7655  7273  6660  6049  5690  5595  5621  5646  5637  5609  5584  5546  5453  5315  5333  5937  7423  9430  11144  12081  12348  12291  12154  12030  11908  11737  11485  11005  9720  7102  3808  1300  236  235  859  2105  4261  7437  11009  13631  13502  8555  -1624  -13672  -23054  -28436  -31207  -32459  -32263  -30590  -27784  -24443  -21435  -19698  -19558  -20573  -21902  -22827  -23464  -24788  -27531  -31344  -32768  -32768  -32768  -32768  -32768  -32768  -32768  -32768  -32768  -32768  -31199  -20928  -14344  -14816  -19982  -25293  -28416  -29322  -29148  -29811  -32523  -32768  -32768  -32768  -32768  -32768  -32768  -32768  -32768  -32768  -32768  -32768  -32768  -15685  2948  15616  20804  21387  20485  19396  18432  17847  17754  18052  18634  19354  19899  19786  18483  15809  12270  8955  6892  6288  6746  7966  9645  11234  12281  12654  12274  10957  8802  6584  5265  5203  6113  7386  8537  9596  10702  11759  12980  14880  17216  18930  19326  18417  16588  14542  12863  11361  9498  7457  5976  5245  4886  4759  5144  6342  8206  10030  11103  11219  10491  9127  7518  6086  5056  4518  4671  5892  8236  10970  13065  14023  13808  12366  9830  6811  4097  2281  1497  1403  1604  1952  2382  2764  2955  2876  2463  1744  1207  1698  3412  5405  6580  6738  6345  5798  5243  4901  5383  7480  11150  14938  17134  17055  14975  11958  9534  8504  8571  9205  10089  10945  11218  9674  5276  -697  -5245  -6988  -6840  -5831  -4282  -2552  -1234  -703  -858  -1355  -2099  -3232  -4586  -5654  -6166  -6237  -5962  -5276  -4296  -3432  -2944  -2706  -2510  -2218  -1633  -700  247  809  941  863  797  942  1420  2088  2639  2908  2800  2033  442  -1524  -3067  -3797  -3932  -3837  -3708  -3563  -3347  -3087  -2904  -2845  -2836  -2779  -2634  -2453  -2336  -2309  -2282  -2172  -2010  -1897  -1840  -1734  -1468  -1017  -523  -229  -93  536  2328  4839  6434  5360  1154  -4328  -8343  -9347  -6656  -893  4551  5710  1521  -5398  -10302  -9844  -4628  2384  8300  10996  9782  5993  2151  98  97  1529  3447  4703  4346  2145  -878  -3055  -3737  -3534  -3169  -2981  -3158  -3802  -4719  -5519  -5985  -6006  -5459  -4466  -3401  -2464  -1382  246  2201  3693  4281  4042  3084  1610  53  -1207  -2016  -2425  -2594  -2521  -2045  -1229  -472  -39  426  1522  3183  4713  5712  6271  6470  6359  6141  5984  5829  5414  4335  2417  179  -1492  -2157  -1914  -1008  120  904  1157  1128  1060  978  817  564  186  -430  -1231  -1899  -2218  -2162  -1669  -737  302  976  1034  428  -761  -2329  -4077  -5607  -6209  -5536  -4165  -2959  -2047  -976  247  1008  969  512  274  561  1187  1931  2927  3894  3221  -238  -4562  -6764  -6705  -5674  -3449  61  3756  6853  8307  6357  746  -6010  -10541  -11466  -9617  -6540  -3891  -2914  -3708  -5330  -6661  -7215  -7058  -6211  -4524  -2198  -59  1128  1365  1063  426  -527  -1561  -2251  -2473  -2472  -2487  -2550  -2512  -2022  -760  994  2453  3259  3741  4205  4576  4708  4634  4515  4493  4583  4705  4817  4964  5181  5225  4629  3451  2457  2097  1950  1374  257  -928  -1691  -1963  -1997  -2085  -2402  -2957  -3571  -4010  -4226  -4344  -4519  -4895  -5470  -6019  -6332  -6398  -6245  -5692  -4199  -1418  1849  4275  5594  6359  6723  6537  6005  5565  5414  5443  5492  5465  5323  5059  4625  4053  3596  3518  3874  4477  4952  4995  4438  3174  1516  215  -331  -356  -222  -138  -256  -686  -1352  -2075  -2794  -3425  -3788  -3878  -3943  -4215  -4651  -4971  -4882  -4290  -3457  -2854  -2741  -3045  -3543  -3973  -4040  -3333  -1608  669  2601  3728  4184  4276  4177  3969  3795  3795  3971  4179  4254  4093  3494  2099  -21  -2045  -3221  -3531  -3301  -2787  -2261  -2016  -2142  -2460  -2738  -2882  -2857  -2514  -1718  -626  403  1165  1722  2225  2687  3002  3115  2966  2431  1516  442  -500  -1099  -1385  -1641  -2230  -3341  -4707  -5707  -5806  -4653  -2125  1315  4727  7262  8525  8375  6583  3447  675  -35  759  1227  532  -1020  -2407  -2038  915  5250  8628  9082  5781  -113  -5889  -9529  -10941  -11096  -10346  -7750  -2921  2261  5470  6405  6269  6018  5762  5204  4307  3478  3070  2957  2719  2063  1025  1  -438  30  1265  2835  4149  4470  3400  1463  -317  -1414  -2008  -2568  -3416  -4475  -5423  -6027  -6067  -5117  -2861  140  2572  3690  3855  3694  3437  3034  2535  2180  2190  2616  3276  3765  3577  2331  267  -1745  -3185  -4242  -4951  -5084  -4879  -4812  -4838  -4291  -2565  -117  1790  2423  1733  -335  -3559  -6850  -9023  -9948  -10001  -8657  -5021  -28  3812  5286  5051  3788  1752  -443  -1979  -2532  -2103  -641  1473  3266  4084  4051  3573  2965  2388  1840  1427  1409  1884  2734  3533  3662  3090  2452  2143  1954  1371  49  -1685  -3064  -3665  -3489  -2604  -1183  387  1642  2293  2357  2006  1399  716  154  -182  -301  -271  -192  -149  -137  -103  -72  -124  -291  -470  -324  667  2845  5966  9053  11013  11555  10975  9490  7531  5807  4478  2820  -156  -4559  -8812  -10805  -9823  -6669  -2883  13  1613  2805  4254  5086  3859  254  -4890  -9807  -12085  -10642  -6867  -2966  -198  1254  1879  2370  3004  3626  4104  4430  4606  4667  4674  4649  4534  4181  3280  1518  -868  -3043  -4397  -4990  -5081  -4706  -3823  -2590  -1292  -48  1124  2069  2626  2870  2929  2686  1962  1021  457  459  602  549  511  791  1319  1862  2362  2915  3513  3912  3741  2734  1149  -240  -906  -976  -824  -679  -719  -1186  -2214  -3588  -4904  -5868  -6349  -6142  -4918  -2759  -535  831  1203  1012  616  97  -514  -991  -1052  -734  -315  61  489  1066  1688  2113  2113  1458  125  -1382  -2314  -2196  -985  797  2303  3184  3626  3534  2632  1217  -43  -765  -1081  -1090  198  3722  8178  11431  12806  12544  11217  9724  8076  5287  1146  -3180  -6172  -7069  -6393  -5380  -4828  -4871  -5489  -6556  -7774  -8870  -9685  -10129  -9967  -8697  -6213  -3507  -1809  -1189  -840  -348  94  341  501  557  95  -1324  -3328  -4756  -4656  -2938  -536  1228  1908  1993  2016  2237  2839  3997  5395  5910  4624  2048  -363  -1728  -2133  -1791  -608  1255  3028  4023  4253  3984  3212  1895  402  -737  -1417  -1833  -2047  -1981  -1621  -1139  -789  -618  -474  -294  -154  -77  27  211  353  117  -829  -2318  -3632  -4133  -3569  -2064  -298  894  1360  1550  1883  2521  3371  4107  4239  3033  79  -3597  -6100  -6514  -5271  -3409  -1974  -1404  -1436  -1699  -2050  -2443  -2755  -2806  -2492  -1919  -1370  -1050  -964  -1123  -1629  -2414  -3132  -3492  -3493  -3289  -2986  -2608  -2261  -2112  -2041  -1761  -1304  -917  -684  -459  7  792  1606  2070  2122  1964  1594  785  -355  -1313  -1600  -769  1536  4882  7933  9494  9171  7220  4626  2643  1464  66  -2522  -6317  -10424  -13462  -13936  -11256  -6627  -1837  2162  4844  5903  5627  4411  2453  207  -1606  -2509  -2439  -1539  -113  1374  2539  3213  3432  3319  2882  1965  561  -628  -504  1104  3177  4739  5613  6134  6511  6513  5727  3942  1514  -572  -1526  -1403  -684  468  2181  4181  5724  6320  5935  4654  2759  927  -259  -847  -1100  -978  -386  489  1225  1505  1470  1474  1555  1520  1312  1065  928  885  719  222  -510  -1110  -1288  -935  -94  859  1426  1516  1386  1202  1005  853  865  1206  1933  2833  3529  3575  2323  -558  -4151  -6821  -7807  -7341  -5827  -3922  -2452  -1661  -1278  -1057  -634  428  1950  3172  3689  3745  3699  3692  3676  3491  2879  1410  -1280  -4697  -7488  -8716  -8306  -6493  -3932  -1552  275  1552  1997  1419  240  -883  -1670  -2136  -2263  -2011  -1516  -1087  -730  346  2973  6679  10379  13699  16081  16255  13929  10372  6947  4034  1021  -2854  -7492  -11827  -14005  -12295  -7204  -1376  2865  4668  4519  3667  2897  2197  1495  864  243  -352  -604  -269  407  899  989  927  937  770  -226  -2381  -4946  -6607  -6630  -5146  -2991  -1220  -151  591  1238  1770  2101  2002  1356  314  -876  -1896  -2441  -2409  -1834  -883  95  697  691  197  -434  -1007  -1653  -2583  -3759  -5027  -6437  -7925  -8877  -8316  -5626  -1660  1538  2895  3147  3417  3965  4365  4315  3954  3407  2446  980  -469  -1293  -1468  -1361  -1258  -1281  -1481  -1827  -2166  -2188  -1390  510  2963  4991  6228  7023  7753  8422  8700  8085  6317  3965  2045  946  392  92  -83  -111  297  1441  3039  4332  4682  3567  743  -2807  -5196  -5256  -3185  -326  1688  2344  2300  2183  2019  1607  1047  631  206  -781  -2420  -4023  -4947  -5216  -5254  -5422  -5526  -4704  -2572  -57  1747  2552  2808  3732  6461  10406  13160  12604  8596  2389  -4246  -9325  -11598  -11076  -8565  -5257  -2111  537  2472  3449  3620  3431  3156  2742  1969  771  -679  -2201  -3747  -5281  -6550  -7203  -7133  -6459  -5334  -3891  -2253  -526  1162  2544  3346  3561  3274  2462  1298  289  -201  -274  -219  -188  -147  12  376  1058  2201  3615  4706  4851  3539  709  -2602  -4948  -5785  -5208  -3153  -27  2845  4450  4940  4887  4462  3560  2281  950  -329  -1904  -3956  -5868  -6776  -6404  -4916  -2602  275  3670  7650  12217  16208  16708  11804  2689  -7867  -16623  -20619  -19496  -15367  -9859  -3794  1239  3934  4701  4702  4542  4042  2786  990  -464  -997  -760  -217  255  508  539  267  -412  -1294  -1941  -2188  -2260  -2414  -2690  -2958  -3049  -2749  -1826  -276  1614  3442  4781  5293  4944  3965  2537  812  -678  -1154  -351  1091  2278  2943  3296  3331  2806  1686  294  -887  -1533  -1726  -1951  -2724  -4104  -5555  -6451  -6542  -5807  -4401  -2804  -1319  302  2063  3464  4510  5739  7095  7482  5741  2236  -1240  -3270  -3509  -2170  -249  272  -1888  -5804  -9224  -10007  -7408  -2931  737  1595  -167  -2408  -3396  -2844  -1019  1508  3812  5278  6033  6469  6645  6134  4425  1782  -628  -1845  -1812  -951  233  1384  2505  3604  4347  4474  4191  3898  3798  3857  3958  3895  3380  2345  1216  528  304  137  -306  -1072  -1896  -2327  -2206  -1867  -1647  -1524  -1269  -576  633  1937  2799  3080  2941  2448  1541  428  -413  -792  -869  -750  -450  -36  515  1370  2409  2879  1732  -1361  -5146  -7716  -8377  -7642  -6041  -3868  -1670  -175  376  198  -691  -2371  -4338  -5602  -5453  -3882  -1726  -139  547  844  1174  1571  1965  2316  2508  2215  1128  -490  -1855  -2495  -2518  -2068  -1059  498  2132  3160  3332  2909  2317  1914  1866  2140  2417  1745  -1076  -5758  -9595  -9692  -6074  -1569  1002  954  -127  -43  1950  4442  4988  2203  -2770  -6731  -7044  -4234  -1150  246  125  -361  -264  751  2358  3828  4658  4885  4798  4698  4760  4935  5179  5410  5296  4701  3740  2219  -4  -2411  -4239  -5180  -5444  -5270  -4505  -2867  -497  2018  4042  5232  5674  5558  4776  3147  946  -1158  -2580  -3078  -2800  -2180  -1637  -1247  -755  14  921  1855  2950  4118  4893  4922  4253  3301  2638  2619  3230  4137  4913  5415  5861  6525  7390  8146  8447  7837  5906  3156  791  -654  -1452  -1845  -1957  -1946  -1857  -1600  -1151  -655  -251  78  414  814  1308  1816  2145  2114  1650  904  260  -4  -34  -327  -1280  -2634  -3656  -3956  -3650  -2977  -2203  -1629  -1404  -1425  -1494  -1542  -1642  -1821  -2031  -2214  -2254  -1806  -420  1807  3971  5242  5660  5697  5602  5364  4894  4160  3360  2849  2796  3085  3309  2581  21  -3839  -7103  -8633  -8939  -8865  -8617  -8074  -7309  -6457  -5189  -2969  -220  1692  1819  250  -2065  -3814  -4027  -2190  1491  5555  8251  8892  7283  3351  -1559  -5101  -6353  -6021  -4743  -2773  -641  822  1034  312  -190  754  3941  8949  13655  15516  13308  7703  853  -4746  -7536  -7491  -5744  -3587  -1877  -1043  -956  -1147  -1334  -1485  -1489  -833  1013  3586  5604  6417  6274  5428  3965  2219  733  -130  -361  -193  83  360  681  989  1135  1156  1266  1470  1442  919  -89  -1595  -3658  -5841  -7173  -6781  -4463  -1247  1101  1650  616  -1305  -3174  -4281  -4672  -4779  -4914  -5306  -6074  -6977  -7562  -7506  -6731  -5443  -3919  -2235  -598  499  866  829  809  1030  1468  1969  2440  2915  3451  3990  4252  3670  1816  -692  -2486  -2988  -2798  -2835  -3741  -5626  -8122  -10586  -12241  -12298  -9946  -5103  505  4505  6150  6323  5957  5365  4573  3428  1444  -1727  -5417  -7644  -6549  -2503  2223  5302  5343  2916  669  963  3691  6861  8183  6123  1212  -3682  -5738  -4386  -956  2582  5026  6703  8209  9289  9287  7661  4549  1270  -709  -1170  -775  1  1038  2154  3020  3359  2731  607  -2619  -5535  -7290  -8223  -8790  -8748  -7362  -4400  -978  1345  2037  1375  43  -600  289  2123  4196  6307  8093  9337  10546  12154  13079  11417  6310  -1651  -9789  -13906  -11617  -4137  4441  9397  8431  2921  -3336  -6985  -7054  -4335  -416  3075  5556  7301  8528  9266  9564  9530  9221  8574  7491  5969  4206  2650  1692  1255  910  191  -1111  -2613  -3625  -3915  -3792  -3673  -3982  -5026  -6521  -7650  -7711  -6437  -4179  -1968  -757  -764  -1740  -3186  -4425  -5020  -4897  -3909  -1676  1767  5301  7401  7374  5544  3020  1119  330  282  443  424  176  -30  -11  170  328  360  258  -203  -1380  -3115  -4751  -5869  -6444  -6543  -6220  -5268  -3064  482  4107  6422  7394  7609  7101  5794  4254  2929  704  -4162  -10788  -15571  -15793  -11562  -5554  -1320  -500  -2295  -4922  -6678  -6601  -4706  -1991  125  842  -180  -3143  -7087  -10086  -11105  -10093  -7124  -3127  90  1716  2463  3083  3594  3821  3823  3751  3713  3812  4119  4528  4814  4908  4963  5128  5259  4712  2748  -366  -3241  -4830  -5282  -5164  -4638  -3607  -2233  -853  473  1913  3447  4806  5848  6970  8768  10869  11734  10139  6398  2467  888  2644  5850  6642  1725  -8818  -20206  -25278  -20463  -9224  1699  7903  9006  7583  6493  6396  6463  5904  4150  1333  -1486  -3290  -3763  -3139  -2001  -1037  -610  -672  -1041  -1506  -1857  -2024  -2057  -1951  -1550  -716  323  1029  974  106  -1153  -2105  -2227  -1293  571  2694  4245  4936  5080  5045  4838  4174  2865  1100  -585  -1685  -2062  -1713  -482  1555  3888  5869  6958  6872  5697  3985  2507  1611  1057  473  -163  -473  -107  810  1696  2028  1831  1460  1034  262  -1057  -2263  -2272  -1101  126  690  739  624  470  269  213  950  3044  5762  7101  5711  2285  -1325  -3893  -5294  -5855  -5883  -5558  -5002  -4308  -3421  -2315  -1240  -464  -36  -11  -554  -1680  -3082  -4234  -4559  -3664  -1761  220  1387  1608  1225  543  -203  -825  -1239  -1468  -1640  -1858  -2027  -2070  -2113  -2228  -2312  -2295  -2207  -2111  -2076  -2186  -2525  -3061  -3567  -3794  -3720  -3618  -4030  -5388  -7316  -8851  -9445  -8984  -7290  -4561  -1640  614  1808  2077  1830  1186  -52  -1676  -2839  -2626  -621  2521  5266  6641  6948  6879  6559  5375  2829  -294  -2486  -3257  -3206  -2782  -1901  -489  906  1388  732  -518  -1872  -3242  -4741  -6253  -7377  -7814  -7219  -4611  1208  9934  18986  24632  24873  23214  25983  32767  32767  32767  32767  32767  32321  24328  12530  -3309  -18225  -27680  -31807  -32663  -32661  -32768  -32768  -32768  -32768  -29254  -18216  -6144  3155  7707  8649  8264  7912  7842  7816  7471  6566  5282  4002  2877  1985  1451  1091  475  -583  -1920  -3170  -3933  -3942  -3100  -1617  -95  1050  2147  3950  6840  10099  12312  12712  11494  9289  6875  4766  2844  691  -1549  -3014  -2985  -1500  597  2249  3183  3787  4209  4299  4120  3879  3437  2469  1167  189  -191  -209  -1  589  1573  2413  2180  354  -2378  -4917  -7251  -9772  -11925  -12873  -12484  -11077  -8957  -6605  -4794  -4029  -4105  -4480  -4939  -5640  -6550  -7412  -8191  -8999  -9953  -11287  -12915  -14242  -14736  -13912  -11110  -6403  -1424  1835  2912  2729  2175  1653  1393  1466  1687  1826  1786  1615  1495  1546  1767  2302  3360  4754  6056  7329  9033  11123  12903  13633  12459  8739  3681  48  -503  1592  4660  6753  6647  4316  1034  -1271  -1489  155  2512  4254  4850  4504  3438  1972  721  139  268  956  1926  2977  4198  5512  6455  6772  6588  5988  4936  3489  1829  113  -1421  -2352  -2434  -1700  -212  1598  2850  2981  2148  949  -138  -1267  -2728  -4130  -4684  -4021  -2431  -459  1432  2852  3515  3079  1057  -2321  -5635  -7499  -7533  -5847  -2917  12  1740  2186  1909  1125  -264  -2003  -3294  -3500  -2836  -2001  -1411  -1138  -1339  -2336  -4086  -5851  -6848  -6949  -6497  -5894  -5416  -5137  -5049  -5018  -4404  -2357  900  3845  5287  5353  4752  4062  3643  3589  3778  3926  3484  1922  -431  -2390  -3119  -2721  -1770  -856  -314  -180  -474  -1247  -2218  -2830  -2860  -2603  -2418  -2339  -2066  -1308  -221  746  1444  1970  2319  2460  2410  2119  1536  787  261  369  1073  1970  2836  3611  4230  4846  5745  6961  8196  8817  7682  3890  -1380  -5366  -6810  -6707  -6329  -6154  -6178  -6306  -6457  -6567  -6624  -6635  -6543  -6261  -5840  -5361  -4498  -2730  -380  1437  2119  1736  398  -1526  -3347  -4707  -5713  -6480  -7034  -7347  -6836  -4108  1412  7715  11796  12523  10539  7022  3530  1291  345  130  368  1262  3155  5736  8027  9428  10104  10506  10959  11289  10512  7438  2381  -2504  -5399  -6333  -6368  -6278  -6221  -6199  -6367  -6504  -5282  -1403  4030  8185  9718  9233  7651  6379  7007  8975  9651  7003  676  -7288  -11981  -9566  -1590  6968  12226  13106  10733  7155  3970  1651  94  -903  -1744  -2656  -3292  -3024  -1525  682  2417  2650  736  -3220  -7661  -10557  -11036  -9119  -5147  -250  3900  6306  7165  7208  6837  5992  4728  3446  2428  1657  1101  733  275  -814  -2733  -4843  -6214  -6242  -4491  -1052  2736  5132  5330  3373  -49  -3394  -5255  -5518  -4929  -4207  -3755  -3625  -3631  -3503  -2957  -1936  -797  -15  311  550  1099  1838  2203  1872  1151  537  94  -427  -1029  -1435  -1451  -1105  -593  -85  432  954  1314  1436  1435  1424  1387  1221  884  499  227  98  76  166  347  507  468  51  -752  -1633  -2150  -1952  -910  597  1802  2341  2535  2832  3298  3593  3462  3013  2297  1228  77  -659  -862  -795  -678  -523  -278  -13  199  646  1748  3291  4410  4419  3288  1657  454  219  987  2480  4053  5002  4987  3813  1399  -1504  -3532  -4071  -3542  -2589  -1722  -1239  -1198  -1609  -2444  -3360  -3786  -3425  -2495  -1463  -690  -439  -1035  -2617  -4643  -6157  -6463  -5056  -1827  2010  4587  5288  4815  3907  2889  1878  876  -222  -1412  -2407  -2961  -3070  -2654  -1554  -167  420  -625  -2968  -5329  -6515  -5821  -3095  539  3172  4112  4137  4006  3776  3142  1956  486  -817  -1782  -2583  -3240  -3317  -2468  -1133  -217  -119  -484  -816  -944  -950  -921  -820  -514  77  843  1716  2882  4340  5685  6535  6609  5751  4269  2778  1723  1175  710  -233  -1543  -2536  -2933  -3036  -3024  -2531  -1072  1010  2493  2208  -146  -3515  -6136  -7087  -6189  -3260  978  4608  6232  5705  3439  465  -1748  -2455  -1615  659  3534  5532  5862  4825  3242  1930  1334  1638  2905  4751  6350  7177  7360  7158  6371  4381  1059  -2453  -4639  -5184  -4977  -4836  -4847  -4781  -4579  -4355  -4118  -3565  -2386  -830  408  941  929  696  546  943  2327  4371  5786  4998  1276  -3910  -7628  -8286  -6514  -4010  -2272  -1516  -983  -304  260  641  1135  1817  2349  2336  1580  277  -955  -1596  -1637  -1323  -759  24  833  1455  1987  2699  3565  4246  4496  4188  3205  1775  430  -549  -1243  -1756  -2082  -2211  -2207  -2140  -2018  -1759  -1225  -399  468  1038  1142  726  -174  -1170  -1622  -1250  -432  210  422  375  282  147  -128  -526  -881  -1043  -1075  -1395  -2549  -4159  -4526  -2442  1175  3750  3051  -120  -2188  -189  5988  13215  16635  13063  3256  -8506  -16884  -18677  -14541  -8025  -2693  162  1312  2020  2953  4129  5396  6493  6954  6377  4776  2590  356  -1473  -2573  -2840  -2143  -335  1996  3702  4334  4273  3786  2817  1501  327  -240  51  1245  2863  4090  4582  4590  4407  4138  3741  3166  2576  2249  2200  2092  1587  983  1401  3385  5746  6709  5306  1828  -1547  -1710  2129  7206  9642  7047  -102  -7763  -10989  -8966  -5262  -3814  -6372  -11760  -16842  -19366  -19489  -18407  -16794  -14760  -12144  -8683  -4504  -387  2735  4479  5065  4663  2983  37  -3118  -5223  -6009  -5993  -5563  -4630  -2959  -812  947  1757  1883  1880  2038  2511  3452  4667  5603  5889  5420  4194  2565  1193  452  225  365  1219  3212  5765  7587  8200  8145  7935  7620  7138  6624  6259  5765  4323  1360  -2695  -6571  -9090  -10032  -9783  -8451  -6051  -3243  -1074  -38  162  55  -15  199  942  2196  3538  4463  4503  2926  -670  -5088  -7909  -7073  -2089  4786  9722  10900  9303  6740  4546  3168  2407  1835  1001  -156  -1285  -2181  -2938  -3605  -4111  -4485  -4861  -5234  -5429  -5201  -4087  -1734  1163  3214  3911  3820  3572  3482  3632  3891  4020  3883  3503  2762  1262  -1030  -3314  -4737  -5227  -5002  -3809  -1411  1417  3371  4056  3985  3537  2686  1529  446  -337  -924  -1423  -1634  -834  1664  5200  7901  8374  6217  1851  -3238  -7259  -9443  -10219  -10313  -9827  -8207  -5276  -1899  707  1824  1039  -1817  -5698  -8457  -8579  -6040  -2239  769  2007  2039  1710  1365  1059  893  1085  1871  3296  5126  6939  8290  8826  8222  6206  3036  -304  -2726  -3803  -3919  -3731  -3674  -3981  -4736  -5692  -6369  -6457  -5942  -5034  -4123  -3544  -3271  -2888  -1950  -624  219  66  -621  -1243  -1683  -1978  -2002  -1419  -14  1762  3039  3309  2476  606  -1851  -4023  -5235  -5469  -4975  -3748  -1718  624  2335  2947  2798  2427  2040  1517  747  -104  -731  -1017  -930  -211  1315  3204  4809  6020  7001  7661  7725  6935  5347  3535  2227  1852  2303  2897  2780  1521  -442  -2115  -2989  -3351  -3666  -4214  -5228  -6866  -8740  -10025  -10346  -9989  -9407  -8963  -8864  -9094  -9298  -8614  -6173  -2325  1521  4437  6360  7547  8347  8981  9385  9223  8008  5552  2358  -532  -2144  -2091  -597  1542  3095  2871  167  -4413  -8783  -11021  -10494  -7537  -3554  -435  1230  2240  3442  5060  6668  7543  7058  5024  2278  182  -958  -1862  -2821  -3449  -3520  -3248  -2802  -2063  -989  196  1412  2834  4364  5490  5686  4486  1671  -2052  -5200  -6804  -7121  -6959  -6833  -6804  -6693  -6344  -5828  -5257  -4485  -3417  -2398  -1841  -1749  -1835  -1839  -1620  -1182  -657  -189  362  1605  4109  7579  10877  13087  14143  13895  11095  4868  -2747  -8103  -9897  -9579  -8643  -7225  -4659  -731  3523  6587  8015  8458  8430  7843  6550  4900  3512  2477  1263  -512  -2615  -4466  -5598  -5743  -4502  -1598  2150  5102  6347  6130  5040  3723  2840  2631  2867  3230  3535  3743  3796  3437  2424  1022  -104  -589  -587  -439  -394  -572  -935  -1110  -634  674  2909  5840  8482  9843  9857  9384  9017  7898  5084  1104  -3224  -6975  -8728  -9300  -11423  -14312  -13873  -9142  -3161  1861  5641  7918  8645  8476  8007  7226  5706  3271  331  -2526  -4817  -6276  -7127  -7770  -8238  -8220  -7295  -5359  -3023  -1178  -231  -65  -392  -872  -1212  -1342  -1387  -1472  -1532  -1213  111  3075  7488  11670  13512  12466  9967  7897  6997  6890  7020  7120  7167  7201  7176  6932  6381  5709  5133  4358  2768  361  -2291  -4977  -7717  -10157  -11939  -13063  -13627  -13505  -12249  -9719  -6841  -4925  -4310  -4436  -4750  -4976  -4886  -4175  -2550  -47  2604  4243  4059  2046  -759  -2751  -2996  -1644  430  2097  2697  2242  1060  -317  -1333  -1615  -680  2079  6337  10402  12974  14131  13692  11329  8729  8372  10775  14681  17899  17461  11284  703  -9724  -15900  -16857  -14540  -12028  -10926  -10531  -9705  -8549  -7827  -7653  -7548  -7206  -6788  -6393  -5198  -2146  2057  5189  6019  4966  2930  755  -877  -1669  -1638  -855  486  1817  2581  2821  2984  3359  3923  4509  4923  5051  4859  4382  3831  3425  3036  2359  1483  831  556  450  371  388  588  921  1191  1191  938  632  397  194  -66  -393  -685  -837  -813  -711  -765  -1104  -1517  -1631  -1304  -818  -623  -961  -2026  -4043  -6553  -8381  -8577  -6738  -3231  445  2781  3658  3803  3529  2676  1283  -358  -2084  -3581  -4263  -4045  -3417  -2691  -1948  -1345  -1007  -923  -1014  -1164  -1303  -1487  -1753  -1944  -1949  -1924  -1999  -2018  -1662  -677  868  2470  3441  3297  2004  166  -1256  -1814  -1840  -1889  -2193  -2474  -2300  -1731  -1167  -534  628  2207  3523  4317  4795  5001  4955  4954  5174  5434  5559  5592  5639  5684  5505  4821  3609  1890  -837  -4911  -9020  -10780  -9237  -6017  -3559  -2727  -2767  -2862  -2845  -2731  -2076  -285  2270  4351  5264  5083  3768  1335  -1336  -2970  -2947  -1483  530  1934  2120  1251  -42  -952  -796  729  3203  5586  7087  7511  6837  5113  2825  857  -197  -438  -308  -113  115  499  1041  1495  1613  1442  1238  1072  676  -265  -1670  -3050  -3970  -4406  -4518  -4140  -2832  -612  1766  3499  4231  3842  2345  337  -1154  -1689  -1642  -1465  -1343  -1377  -1745  -2522  -3429  -4058  -4307  -4295  -4092  -3773  -3490  -3390  -3568  -3977  -4346  -4317  -3625  -2340  -963  -35  325  422  594  895  1166  1321  1356  1137  471  -533  -1611  -2802  -4118  -5136  -5571  -5586  -5372  -5097  -5085  -5715  -6588  -6000  -3084  852  4451  7005  7846  7111  5761  4613  3590  1850  -1106  -4996  -9007  -12140  -13644  -13233  -11287  -8504  -5474  -2807  -726  1037  2597  3852  4774  5385  5747  5946  6041  6084  6089  5873  5062  3435  1216  -964  -2441  -3006  -2946  -2605  -2111  -1482  -805  -274  1  174  474  797  749  213  -572  -1596  -3111  -4874  -6103  -6392  -5973  -5250  -4525  -3985  -3775  -3914  -4044  -3287  -910  2390  4841  5530  4840  3500  2207  1437  1170  1077  863  397  -257  -870  -1091  -327  1906  4936  7122  7451  6129  4107  2473  1665  1406  1409  1594  1861  2107  2347  2572  2443  1275  -1208  -4086  -6024  -6690  -6497  -5454  -3279  -428  2055  3610  4309  4375  3908  2930  1766  958  613  414  211  144  357  1013  2515  5153  8308  10702  11315  9229  3948  -2734  -7234  -7106  -2446  4094  8929  10528  9403  6258  2363  -369  -1209  -966  -560  -292  -163  -346  -1262  -3016  -4898  -5812  -5065  -2669  883  4979  8737  11025  11118  8922  4989  507  -3356  -6117  -7831  -8266  -6284  -1079  5548  10182  11362  10128  7921  5457  2910  579  -1065  -1920  -2171  -1957  -1333  -366  565  962  837  366  -640  -2147  -3317  -3072  -1301  878  2328  2848  2865  2772  2719  2707  2715  2741  2782  2788  2648  2287  1811  1427  1219  1187  1497  2363  3599  4627  5048  5110  5200  4782  3567  2756  2706  2099  517  -704  144  3339  6963  8127  4414  -4091  -13544  -19529  -20134  -15332  -7176  63  3331  3383  2505  1534  48  -2222  -4717  -6281  -5912  -3374  206  2729  2652  -124  -4117  -7159  -8279  -7866  -6407  -4326  -2191  -386  939  1701  1889  1472  7  -3422  -9037  -15091  -19020  -19439  -16026  -9521  -2600  2023  4265  5519  6380  6749  6654  6219  5404  4194  2948  2123  1792  1717  1674  1559  1375  1285  1723  3076  4959  6378  6757  6162  4875  3333  2023  1130  458  -323  -1319  -2268  -2910  -3266  -3486  -3651  -3602  -2842  -961  1599  3730  4651  4133  2245  -242  -2061  -2659  -2320  -1303  280  2043  3409  4243  4958  5794  6477  6579  5762  4017  2036  732  366  684  1462  2335  2660  2060  889  -219  -1009  -1454  -1400  -792  175  1248  2132  2490  2113  1060  -396  -2024  -3673  -5090  -6051  -6609  -6828  -6258  -4179  -811  2337  3912  3639  1918  -306  -1879  -2414  -2332  -1971  -1332  -497  185  454  418  317  229  121  1  -66  -51  -1  -30  -176  -348  -502  -620  -556  -255  140  513  812  998  1112  1319  1793  2444  2939  3074  2847  2286  1429  445  -505  -1509  -2632  -3758  -4863  -5859  -6269  -5543  -3691  -1505  77  809  1041  1127  1265  1499  1655  1616  1494  1394  1427  1729  2227  2768  3273  3625  3656  3044  1468  -638  -2221  -2756  -2411  -1373  137  1596  2561  3065  3333  3465  3519  3560  3510  3025  1733  -179  -1807  -2440  -2289  -1755  -927  -119  291  325  169  57  364  1442  3226  5049  6148  6167  5019  2792  -218  -3579  -6594  -8458  -8513  -5987  -759  5174  9011  9890  8780  6834  4916  3462  2365  1526  1211  1578  2140  2121  1415  653  297  241  213  124  13  -34  72  329  726  1268  1787  2136  2429  2879  3490  3866  3612  2759  1423  -277  -1822  -2535  -2287  -1596  -1063  -867  -805  -540  427  2443  4933  6813  7751  7991  7293  5085  1544  -1984  -4012  -4072  -2642  -697  766  1381  1129  -363  -3321  -6849  -9416  -10268  -9809  -8671  -6852  -4159  -1284  545  896  212  -851  -1707  -2015  -1822  -1424  -1103  -972  -1111  -1766  -3091  -4668  -5802  -6237  -6159  -5751  -5216  -5121  -5939  -7049  -7313  -6443  -4661  -1959  1681  5877  9668  11681  10785  6979  1275  -4709  -8659  -9289  -8042  -7031  -6357  -4305  287  6013  10283  12139  12173  10594  7002  1691  -4013  -8434  -10209  -9231  -6991  -5269  -4642  -4644  -4653  -3905  -1320  3430  8686  12051  12858  12155  11043  9928  8713  7379  6194  5035  3182  408  -2537  -4773  -6002  -6501  -6642  -6576  -6451  -6464  -6465  -5846  -4160  -1964  -361  352  747  1270  1882  2339  2515  2433  1875  473  -1450  -2830  -2816  -1359  769  2602  3886  4826  5446  5894  6493  7205  7756  7741  5794  400  -7034  -12397  -12904  -8924  -3144  1413  3660  4041  3061  1252  -795  -2391  -2855  -2323  -1637  -1288  -1171  -1176  -1573  -2698  -4253  -5376  -5499  -4729  -3630  -2804  -2403  -2169  -1754  -904  219  1078  1306  830  -263  -1592  -2608  -3040  -2956  -2393  -1216  397  1762  2409  2576  2749  3115  3594  4081  4468  4640  4547  4201  3707  3227  2770  2188  1396  438  -468  -1041  -1307  -1701  -2788  -4750  -6936  -8378  -8726  -8143  -6847  -5185  -3339  -1206  578  1061  936  1629  2962  3747  3120  812  -2275  -4505  -5254  -5142  -4791  -4308  -3555  -2384  -843  646  1642  2241  2821  3423  3787  3700  3122  2304  1738  1849  2727  3950  4847  5147  5026  4670  4154  3516  2687  1544  234  -808  -1296  -1318  -1211  -1254  -1480  -1825  -2290  -2825  -3232  -3293  -2969  -2381  -1709  -1142  -794  -774  -1415  -2982  -5011  -6564  -7165  -6940  -6112  -4803  -3350  -2496  -2599  -3140  -3711  -4627  -6107  -7675  -8788  -9382  -9505  -9177  -8680  -8303  -7877  -6831  -4852  -2561  -1007  -489  -526  -704  -937  -1204  -1426  -1568  -1662  -1792  -2297  -3741  -6121  -8440  -9713  -9948  -9736  -9511  -9408  -9419  -9501  -9571  -9410  -8604  -6749  -4061  -1508  74  652  676  523  327  65  -456  -1572  -3237  -4781  -5582  -5640  -5173  -4250  -3126  -2297  -1929  -1847  -2004  -2373  -2562  -1964  -388  1538  2851  2977  1741  -741  -3859  -6480  -7625  -7453  -6806  -5339  -1409  5263  12027  15706  14710  8449  -663  -6372  -4996  1543  9906  16607  18335  15460  11765  10186  11799  16842  23727  29257  31615  31445  30092  28541  27147  25050  20991  15447  10462  7297  5739  5121  4962  5046  5248  5390  5317  4948  4206  3224  2431  2126  2224  2493  2830  3251  3589  3476  2829  2044  1527  1306  1199  1188  1601  2795  4522  5964  6681  7042  7580  8243  8400  7604  6215  5013  4635  5999  9955  15382  19570  21095  20025  16393  10877  5403  1638  -145  -648  -637  -382  209  1079  1742  1363  -816  -4477  -8071  -10374  -11480  -12002  -12284  -12582  -13406  -15321  -18417  -22002  -24992  -26629  -26165  -22272  -14763  -6606  -1555  -281  -921  -1880  -2568  -2779  -2315  -1133  325  1412  1960  2239  2365  2276  2052  1782  1329  566  -290  -842  -820  -137  1017  2127  2763  2866  2475  1520  33  -1664  -3064  -3760  -3536  -2343  -550  1124  2343  3383  4570  5793  6635  6614  5178  2240  -1084  -3201  -3346  -1641  1255  4320  6681  8023  8572  8774  8814  8370  6949  4749  2735  1525  885  411  -68  -625  -1199  -1546  -1372  -553  598  1515  2012  2422  3075  3861  4388  4427  4044  3485  2948  2405  1804  1265  904  724  673  647  540  315  1  -341  -611  -736  -746  -719  -676  -582  -442  -348  -378  -518  -718  -978  -1331  -1751  -2142  -2412  -2548  -2741  -3563  -5537  -8182  -10226  -11030  -10971  -10591  -10149  -9748  -9481  -9497  -9942  -10764  -11471  -11435  -10677  -9810  -9175  -8591  -7814  -6923  -6330  -6212  -5513  -2087  4927  13327  19934  23592  25021  25220  24783  23851  22213  19294  14327  7394  315  -4592  -6698  -7300  -7941  -9103  -10577  -12454  -14859  -17185  -18643  -19178  -19235  -19062  -18236  -15636  -10779  -5336  -1764  -534  -351  -225  0]
