reading_id,reading_time,wire_id,result_classification,heart_rate,heart_rate_alert,firmware_version,device_app_version,hardware_version,waveform_samples
be635450-59a5-11ed-8080-808080808080,Tue Nov 01 05:26:31 UTC 2022,a10163b41b39,UNREADABLE,0,NONE,20001.171.50,2.10.0,Charge 5,[-17718  -17940  -17760  -16730  -14851  -12843  -11417  -10593  -9980  -9281  -8315  -6936  -5232  -3569  -2208  -1146  -324  244  529  603  600  594  661  1094  2243  3882  5230  5883  6117  6238  6271  6303  6733  7931  9625  11016  11617  11528  11023  10385  9914  9728  9738  9857  10070  10339  10602  10826  11038  11300  11662  12131  12652  13090  13351  13503  13676  13876  13877  13397  12447  11355  10387  9582  8927  8422  8054  7856  7852  7997  8190  8325  8380  8403  8408  8292  7906  7255  6584  6165  6029  6166  7146  10209  15907  22442  26924  28570  28732  28196  26128  21481  14827  8513  4699  3588  4052  5147  6303  7054  7294  7261  7117  6817  6299  5618  4873  4430  5604  10132  17600  24754  28882  30218  30428  30383  29476  26276  20407  13977  9943  9315  11109  13743  15651  15420  11954  5605  -1092  -5543  -7460  -8159  -8628  -9057  -9387  -9636  -9830  -9905  -9703  -9121  -8176  -6654  -4054  -563  2553  4202  4261  2949  614  -1793  -3252  -3648  -3522  -3249  -2961  -2829  -2968  -2944  -1939  25  1843  2849  3623  5465  9588  15714  21412  23921  21862  15605  7725  1652  -1225  -1709  -1242  -1217  -1909  -2099  -325  4196  10702  16702  20289  21791  22431  22816  23035  23188  23148  21745  17136  9288  1304  -3495  -4893  -4797  -4234  -2087  3239  10640  16544  19030  19247  18847  18122  16153  11722  4832  -2314  -7128  -9296  -10302  -11087  -11431  -11009  -10111  -9299  -8829  -8626  -8574  -8734  -9299  -10254  -11180  -11571  -11309  -10744  -10053  -8255  -3705  3267  9624  12860  13189  12004  10174  7947  5471  3136  1237  -399  -2165  -4334  -7165  -10832  -14777  -17803  -18879  -16592  -9429  1035  9951  13933  12889  7966  1426  -3525  -5448  -5441  -4993  -4705  -4585  -4541  -4524  -4520  -4565  -4707  -4928  -5162  -5383  -5492  -5012  -2937  1650  8085  13925  17302  18578  19121  19488  19433  19001  18467  17208  13656  7050  -754  -6495  -8884  -9258  -9349  -9924  -10887  -11787  -12355  -12642  -12747  -12710  -12578  -12387  -12175  -12004  -11931  -12027  -12357  -12840  -13242  -13457  -13598  -13684  -13122  -10656  -5748  -153  3457  4402  3997  3674  4282  6160  8983  11819  13777  14785  15610  16994  18842  20360  20850  20296  19356  18615  17870  16691  15381  14518  13837  12342  8801  1952  -7615  -16395  -21562  -23456  -23071  -20604  -16457  -11066  -4823  837  4033  4057  1409  -2630  -6405  -8930  -10251  -10829  -11065  -11286  -11801  -12714  -13823  -14640  -14026  -10305  -3289  4245  9016  10533  10530  10420  10471  10509  10513  10607  10658  9819  6750  877  -6321  -12123  -14960  -14779  -11409  -4905  2848  9212  12999  14551  14780  14450  13743  12578  11206  10024  9060  8157  7313  6487  5535  4546  3890  3838  4377  5257  6071  6256  4910  1441  -3069  -6585  -8407  -9346  -10296  -11561  -12876  -13823  -14149  -13366  -10672  -6054  -1119  2168  3331  3275  2991  2958  3182  3402  3444  3366  3262  3119  2940  2812  2853  3120  3395  2835  295  -4150  -8564  -11070  -11580  -10940  -9549  -7465  -5217  -3720  -3377  -3962  -5075  -6229  -6998  -7312  -7343  -7168  -6742  -6160  -5661  -5311  -4961  -4500  -3917  -3257  -2729  -2929  -4771  -8544  -13026  -16372  -17862  -18138  -18072  -18047  -18082  -18152  -18276  -18435  -18568  -18690  -18891  -19166  -19365  -19295  -18859  -18185  -17546  -17097  -16837  -16726  -16720  -16782  -16905  -17037  -16955  -16273  -14792  -12744  -10473  -8124  -5834  -3742  -1370  2668  9246  16665  21490  21606  17418  11460  6879  4910  4634  4691  3855  1244  -2567  -5703  -7091  -7267  -7048  -6554  -5496  -3736  -1393  1141  3297  4995  6726  8394  9121  8101  5114  1097  -2343  -4448  -4273  401  9259  17347  19944  16487  10065  5996  8344  15821  23060  25579  21807  12765  2223  -5322  -8290  -8019  -6645  -6129  -6622  -5979  -2526  3284  9508  13927  15895  16467  16606  16555  16507  16988  18406  20321  21740  22252  22122  21497  20155  17613  13635  9207  6032  4713  4561  4851  5321  5847  6208  6188  5691  4787  3636  2416  1412  801  398  -47  -509  -856  -1084  -1295  -1599  -2033  -2538  -3061  -3640  -4355  -5194  -5979  -6522  -6918  -7648  -9237  -11539  -13639  -14652  -14125  -11721  -7232  -1187  4743  8752  10223  9377  6719  3481  1118  72  -156  -198  -539  -1518  -3105  -4759  -5618  -4706  -1269  4172  9317  11559  9882  5155  -771  -5917  -8535  -7090  -1026  7245  13401  15411  13962  10175  5637  1742  -2014  -6485  -10874  -13446  -12496  -7235  843  8440  12751  12542  7657  -727  -9632  -15813  -17742  -15809  -11844  -8452  -7455  -8654  -10651  -12627  -14579  -16505  -18098  -19045  -19422  -19536  -19278  -17997  -15338  -11986  -8801  -5735  -2537  448  2673  3848  4196  4291  4471  4483  3515  932  -2602  -5457  -6514  -5327  -1786  3014  6962  8895  9351  9542  10416  12220  14318  15762  16189  15749  14526  12688  10801  9375  8386  7665  7232  7032  6862  6667  6774  7827  10083  12713  14525  15228  15107  13921  11265  7918  5500  4657  4736  5039  5563  6662  8219  9539  10175  10225  9674  7856  4164  -431  -3657  -3744  -167  5922  11701  14966  15930  15908  15509  14337  11825  8457  5666  4201  3694  3803  4693  6403  8411  10116  11343  12036  11684  9402  5173  747  -1865  -2318  -1545  -492  336  785  684  -100  -1191  -1930  -2110  -2089  -2273  -2686  -3118  -3549  -4151  -4905  -5510  -5522  -4417  -2072  593  2316  2839  2794  2726  2820  3117  3480  3428  2229  -491  -4009  -6906  -8568  -9696  -11258  -13521  -15991  -17911  -18821  -18662  -17506  -15620  -13415  -11089  -8907  -7400  -6726  -6550  -6766  -7768  -9777  -12123  -13558  -12970  -9968  -5719  -2468  -1703  -3875  -8767  -14779  -19489  -21755  -22230  -22037  -21809  -21695  -21593  -21310  -20757  -20124  -19682  -19353  -18809  -18020  -17306  -16698  -15342  -12072  -7306  -3302  -1664  -1940  -2704  -2763  -1491  1148  4316  6363  5623  1510  -4233  -8373  -9066  -6746  -3105  -62  1588  2476  3408  4568  5924  7587  9335  10520  10902  10888  10920  11027  10922  10526  10109  9616  8473  6522  4546  3384  2992  2810  2619  2578  2656  2411  1332  -579  -2558  -3790  -4154  -3858  -2858  -1237  341  1131  996  309  -737  -2411  -4611  -6438  -7393  -7825  -7728  -6122  -2063  3579  8250  10430  10839  10711  10536  10395  10254  9709  8175  5767  3396  1708  540  -500  -1420  -1963  -2029  -1731  -1370  -1760  -4131  -8768  -14010  -17709  -19340  -19681  -18839  -15317  -7799  1655  8572  10976  10308  8379  6354  5089  4718  4661  4443  4137  3950  3675  3074  2360  1734  951  -290  -1763  -2824  -3133  -2779  -1954  -998  -309  121  1033  3722  8849  14980  19525  21092  19716  15919  10963  6660  3803  1846  327  -535  -469  453  1749  2737  3013  2433  948  -1073  -2884  -4054  -4738  -5202  -5534  -5843  -6305  -6888  -7347  -7533  -7406  -6867  -5832  -4338  -2411  148  3749  8348  12831  15667  15754  12194  5019  -3301  -9285  -11661  -11740  -11163  -10569  -9980  -9374  -8647  -7527  -5811  -3003  1816  7922  12405  13539  11923  9194  8056  10042  12793  12202  5527  -6911  -20506  -28908  -28300  -18580  -3676  9622  16514  17096  14555  12082  10926  10655  10621  10575  10475  10287  9859  8733  6121  1434  -4823  -10855  -14852  -16397  -15893  -13280  -8770  -4112  -1265  -378  -437  -1010  -2370  -4448  -6479  -7735  -7967  -6715  -3148  2269  7161  9698  10270  10066  9519  8373  6486  4445  3141  2770  2830  2869  2816  2805  2890  2941  2866  2804  2933  3205  3418  3450  3303  3021  2699  2463  2339  2244  2066  1762  1398  1030  584  69  -235  49  1174  3035  5011  6374  6781  5954  3611  503  -1738  -2285  -1569  -416  507  865  484  -723  -2334  -3479  -3661  -3055  -2186  -1557  -1311  -1252  -1040  -255  1226  2880  3956  3993  2709  143  -2984  -5688  -7485  -8473  -8940  -9085  -8985  -8636  -8018  -7251  -6530  -5906  -5367  -4845  -3981  -2360  -118  2139  4073  5795  7662  10027  12652  14746  15863  16166  15961  15329  13879  11139  7677  4989  3992  4757  7173  10406  12522  11998  8906  4504  467  -2103  -2940  -1860  894  3441  2598  -3648  -14164  -25505  -32768  -32768  -32444  -25732  -19683  -16140  -15052  -15113  -14545  -11629  -5370  2740  9202  12255  13211  14250  16676  20328  23821  25873  25746  22504  15840  7767  1392  -1940  -3044  -3260  -3364  -3548  -3820  -4192  -4411  -3564  -594  4203  9033  12310  13657  13459  12357  11257  10961  11436  12154  12875  13504  13785  13209  10668  5294  -1873  -8705  -14022  -17643  -19961  -21924  -24168  -26310  -27585  -27787  -27272  -26307  -24956  -23205  -21017  -18796  -17321  -16846  -17057  -17734  -18735  -19698  -20224  -20089  -19228  -17885  -16575  -15643  -15103  -14848  -14767  -14784  -14839  -14640  -13423  -9940  -3046  6691  16363  23063  26262  27037  25810  21964  15917  9892  5647  3229  2072  1681  1742  2429  4115  6497  8564  9614  9627  8651  6769  4655  3232  2813  3275  4505  6077  7259  7740  7652  6947  5266  2303  -1763  -6183  -10009  -12536  -13586  -13258  -11472  -8362  -4747  -1601  614  1933  2572  2767  2745  2712  2762  2784  2541  1814  596  -787  -1880  -2369  -2040  -798  912  2198  2445  1504  -480  -3028  -5540  -7625  -9082  -9890  -10242  -10391  -10514  -10644  -10410  -8855  -5290  -703  2776  4180  4286  4202  4440  4998  5652  6192  6540  6734  6856  6950  6997  6990  6962  6937  6909  6844  6717  6566  6403  6022  5112  3724  2424  1733  1675  1975  2354  2631  2815  3036  3296  3464  3496  3482  3514  3616  3766  3923  4051  4114  4038  3745  3293  2895  2704  2680  2716  2749  2771  2784  2786  2788  2820  2901  2929  2570  1318  -1176  -4604  -7815  -9687  -10138  -9746  -8814  -7265  -5145  -2976  -1408  -584  -189  141  682  1523  2437  3026  3154  3045  3065  3558  4761  6834  9615  12252  13687  13340  11254  8403  6411  6335  8086  10567  12314  12586  11615  10129  8852  8023  7424  6514  4495  1198  -2347  -4922  -6167  -6480  -6406  -6262  -6130  -5993  -5792  -5424  -4820  -4052  -3339  -2884  -2713  -2690  -2694  -2758  -3032  -3585  -4211  -4611  -4696  -4583  -4415  -4302  -4357  -4668  -5195  -5775  -6307  -6801  -7288  -7754  -8126  -8344  -8460  -8605  -8833  -8818  -7690  -4682  -260  4150  7628  10021  11329  11658  11090  9578  7598  6200  6077  7119  8619  9735  10097  9726  8665  7206  6033  5717  6291  7359  8733  10787  13544  16017  17226  16973  15572  13772  12494  11977  11634  10531  7834  3502  -1467  -5889  -9195  -11408  -12840  -13803  -14422  -14824  -15360  -16331  -17555  -18554  -19091  -19140  -18428  -16671  -14419  -12802  -12258  -12384  -12776  -13271  -13578  -12968  -10729  -7260  -3947  -1696  -512  -93  -76  -157  -238  -355  -520  -685  -814  -935  -1100  -1298  -1431  -1370  -1049  -583  -238  -260  -750  -1570  -2350  -2757  -2592  -1723  -298  1239  2561  3532  4084  4319  4551  5258  6888  9316  11648  12905  12550  10551  7732  5504  4663  5260  7175  9696  11511  11734  10310  7730  4770  2254  796  542  1334  2914  4678  5867  6271  6249  6169  6117  5982  5649  5169  4692  4194  3487  2613  1882  1454  1256  1140  771  -382  -2640  -5844  -9423  -12470  -14105  -13825  -11514  -7905  -4636  -2830  -2252  -2048  -1313  657  3579  6138  7386  7410  6589  5097  3044  625  -1794  -3701  -4800  -5364  -5899  -6647  -7583  -8600  -9563  -10315  -10734  -10861  -10852  -10825  -10825  -10863  -10947  -11065  -11135  -10959  -10373  -9544  -8864  -8420  -7947  -7308  -6668  -6230  -5971  -5619  -4868  -3676  -2278  -1013  -181  134  -30  -797  -2242  -3960  -5250  -5774  -5774  -5794  -6443  -8002  -9945  -11191  -10764  -8336  -4865  -2121  -933  -866  -1422  -2448  -3645  -4498  -4662  -3975  -2462  -639  723  1290  1245  884  388  -183  -750  -1184  -1481  -1776  -2098  -2333  -2409  -2343  -2167  -1976  -2083  -2943  -4316  -4301  -615  6362  13259  16954  16949  14714  12341  11556  12444  13132  11585  7441  1996  -2323  -2870  828  6394  11223  14220  15447  15621  15563  15641  15781  15836  15744  15475  14963  14080  12778  11327  10219  9725  9708  9665  8716  6155  2520  -649  -2460  -3226  -3558  -3736  -3825  -3994  -4641  -5890  -6946  -6844  -5342  -2313  1786  5051  6240  6465  7377  9340  11308  10873  5894  -1928  -7378  -7037  -1636  5989  11667  11575  6423  297  -4888  -9672  -13803  -16070  -15641  -12408  -7505  -3043  -244  1166  1820  2059  2027  1739  1121  12  -1738  -3893  -5823  -7144  -7923  -8352  -8610  -8816  -9007  -9299  -9874  -10663  -11251  -11081  -9747  -7441  -4967  -2888  -970  1227  3496  5165  5887  5709  4686  3041  1370  143  -644  -1134  -1342  -1278  -1035  -730  -441  -204  -41  59  86  -107  -703  -1599  -2446  -2978  -3271  -3894  -5232  -6577  -6461  -3543  2478  9786  15093  16151  12975  6925  -244  -6998  -12186  -14388  -12088  -5092  4179  11690  15271  15920  15566  15245  15100  15006  14940  14983  15067  14653  12823  9155  4645  1022  -928  -1649  -1848  -1893  -1769  -1171  213  2213  4110  5305  5675  5232  3898  1882  -55  -1189  -1492  -1416  -1549  -2672  -5287  -8724  -11519  -12884  -13168  -13020  -12777  -12422  -11720  -10583  -9290  -7933  -5893  -2454  2191  6922  10616  12843  13825  13899  12931  10435  6618  2896  721  388  1466  3507  5920  7950  9099  9140  7554  3882  -711  -3925  -5057  -5473  -6433  -7838  -8943  -9432  -9513  -9437  -9308  -9196  -9353  -10179  -11756  -13580  -15100  -16204  -16781  -16380  -14784  -12340  -9663  -7478  -6326  -6112  -6352  -6722  -7116  -7474  -7788  -8248  -9182  -10551  -11801  -12505  -12784  -12899  -12870  -12581  -11848  -10233  -7216  -3095  676  2828  3450  3411  3312  3292  3321  3369  3436  3523  3535  3184  2209  868  -91  -58  1054  2725  4127  4859  5123  5265  5458  5693  5908  6069  6176  6242  6286  6322  6346  6354  6354  6353  6349  6338  6317  6293  6273  6261  6258  6258  6261  6270  6291  6331  6398  6467  6499  6497  6499  6522  6553  6552  6459  6238  5943  5658  5386  5125  4944  4875  4831  4691  4437  4182  4043  4037  4119  4235  4345  4441  4536  4618  4637  4552  4389  4203  3970  3571  2953  2299  1871  1719  1709  1731  1736  1656  1421  1086  826  741  790  896  1104  1598  2450  3374  3903  3780  3209  2631  2202  1983  2406  3763  5475  6274  5077  1814  -2533  -6328  -8198  -8820  -10429  -13617  -16752  -18410  -18455  -16984  -13638  -8776  -4106  -995  661  1505  1841  1809  1620  1407  1063  195  -1829  -5344  -9666  -13342  -15217  -14798  -11995  -7680  -3744  -1391  -323  159  419  612  780  891  836  444  -310  -1332  -2693  -4674  -7349  -10179  -12358  -13398  -12777  -9643  -4196  1397  5015  6606  7262  7555  7460  6942  6241  5724  5513  5478  5507  5585  5691  5787  5864  5924  5968  6054  6273  6626  7014  7360  7648  7864  7985  8025  8005  7843  7398  6668  5880  5320  5143  5335  5749  6179  6488  6677  6780  6745  6423  5632  4092  1542  -1573  -4117  -5395  -5639  -5366  -4855  -4137  -3328  -2792  -2850  -3457  -4101  -4169  -3650  -3043  -2573  -1963  -941  245  946  832  167  -710  -1721  -2712  -3349  -3528  -3434  -3243  -3028  -2817  -2657  -2658  -2973  -3672  -4589  -5415  -6031  -6574  -7103  -7436  -7368  -6844  -5935  -4738  -3402  -2212  -1442  -1127  -1083  -1130  -1247  -1490  -1783  -1888  -1653  -1178  -713  -452  -495  -940  -1775  -2759  -3601  -4155  -4320  -3886  -2734  -1211  75  840  1180  1258  1175  1004  811  646  580  630  680  706  893  1311  1764  2214  3059  4670  6647  8056  8415  7813  6466  4719  3055  1720  628  -225  -705  -907  -1151  -1596  -2087  -2385  -2405  -2207  -1922  -1710  -1709  -2018  -2636  -3400  -4080  -4545  -4815  -4984  -5158  -5377  -5624  -5924  -6316  -6724  -7004  -7071  -6873  -6268  -4927  -2493  818  3940  5835  6462  6342  5584  3965  1771  -72  -782  -139  1604  3738  5403  6233  6325  5591  3826  1612  90  -454  -907  -2227  -4428  -6557  -7778  -8192  -8314  -8066  -6511  -2927  1564  4713  5713  5544  5233  5081  5027  5009  4990  4789  4159  3189  2488  2990  5351  8928  11946  13259  12796  10487  6363  1530  -2092  -2806  -81  4132  6074  3638  -1785  -6596  -7579  -4384  201  2797  2557  1407  1353  2716  4573  5801  5797  4621  2951  1698  1236  1299  1621  2181  2872  3341  3301  2745  1858  758  -684  -2592  -4732  -6563  -7631  -7935  -7702  -6804  -4653  -964  3376  6778  8438  8850  8905  8907  8280  6113  2275  -2082  -5394  -6922  -7094  -6768  -6537  -6801  -7829  -9378  -10683  -10869  -9033  -4915  -95  3076  3977  3706  3334  3313  3803  4718  5648  6160  6155  5767  5137  4463  3946  3583  3280  3087  2986  2568  1241  -1127  -4081  -7103  -9691  -11281  -11882  -12146  -12503  -12842  -12900  -12521  -11518  -9382  -5644  -965  2902  4739  4661  3421  1896  875  580  695  880  889  436  -614  -1899  -2811  -3054  -2602  -1509  -181  779  1205  1330  1321  1248  1250  1417  1659  1828  1852  1720  1390  792  31  -572  -796  -677  -364  -5  291  485  549  380  -142  -920  -1631  -1974  -1642  -328  1706  3521  4426  4495  4039  3252  2322  1367  352  -607  -1206  -1297  -956  -332  406  1184  2030  2870  3481  3760  3815  3772  3688  3581  3473  3425  3481  3584  3656  3684  3709  3781  3908  3998  3832  3152  1787  -218  -2352  -3745  -3788  -2420  -210  1803  2906  2975  1852  -681  -4072  -6992  -8530  -8830  -8352  -7285  -5963  -5039  -4958  -5689  -6793  -7536  -7121  -5169  -2393  -183  860  1221  1535  2008  2474  2763  2900  2996  3154  3418  3713  3914  3987  3977  3892  3664  3175  2422  1631  999  362  -721  -2493  -4502  -5914  -6291  -5553  -3623  -829  1793  3308  3720  3632  3437  3182  2874  2663  2786  3388  4312  5251  6144  7034  7741  8085  8151  8130  8034  7650  6797  5678  4697  3869  2890  1791  1012  828  1070  1478  2044  2805  3520  3814  3508  2768  1996  1540  1534  2016  2909  3871  4488  4525  3846  2513  1072  196  6  122  112  -283  -1013  -1720  -2106  -2213  -2256  -2320  -2299  -2052  -1615  -1194  -995  -1151  -1710  -2460  -3009  -3193  -3126  -2937  -2711  -2536  -2475  -2549  -2660  -2605  -2304  -1891  -1475  -1033  -528  -12  363  419  57  -687  -1560  -2176  -2295  -1852  -868  493  1908  3013  3576  3538  2901  1802  676  -41  -298  -321  -319  -348  -283  100  866  1711  2257  2451  2478  2455  2398  2336  2339  2484  2812  3254  3616  3583  2746  974  -1160  -2900  -4159  -5246  -6146  -6624  -6592  -6097  -5292  -4402  -3576  -2883  -2329  -1777  -1115  -379  376  1073  1534  1631  1528  1619  1995  2335  2437  2389  2322  2323  2476  2760  2911  2566  1643  442  -821  -2312  -3892  -4747  -4290  -2898  -1474  -577  -128  101  213  393  831  1509  2294  3011  3498  3737  3823  3804  3664  3438  3119  2458  1032  -1295  -3859  -5622  -6300  -6474  -6755  -7243  -7546  -7306  -6401  -4561  -1744  1165  3088  3880  4152  4398  4645  4762  4782  4822  4904  4973  4993  4988  4958  4694  3625  1192  -2121  -4854  -6216  -6751  -7157  -7379  -7283  -7251  -7455  -7625  -7636  -7485  -7206  -6941  -6669  -6159  -5358  -4541  -4016  -3831  -3824  -3837  -3838  -3879  -3970  -3928  -3351  -1882  328  2523  3942  4494  4650  4814  5085  5450  5905  6398  6810  7043  7112  7079  6929  6643  6353  6207  5941  4683  1713  -2140  -4903  -5617  -4866  -3605  -2471  -1728  -1394  -1353  -1420  -1443  -1301  -928  -431  -20  246  452  595  598  397  -34  -564  -925  -988  -850  -653  -387  50  563  898  1026  1252  1916  2936  3831  4275  4287  3899  3084  2017  1053  431  141  68  207  701  1588  2613  3410  3766  3611  2960  2080  1462  1477  2161  3174  3992  4326  4119  3287  1917  462  -737  -1798  -2825  -3626  -4061  -4197  -4090  -3714  -3112  -2354  -1426  -456  202  371  171  -218  -660  -1020  -1130  -805  -16  947  1665  1923  1640  769  -392  -1260  -1588  -1612  -1607  -1663  -1746  -1727  -1358  -404  978  2208  2841  2931  2723  2322  1738  972  31  -1011  -1991  -2761  -3267  -3548  -3692  -3773  -3832  -3834  -3598  -2936  -1981  -1181  -873  -1122  -1846  -2770  -3441  -3537  -3076  -2265  -1339  -431  665  2174  3635  4096  3007  533  -2650  -5431  -6734  -6415  -5168  -3676  -2107  -282  1598  2887  3366  3459  3565  3699  3705  3519  3200  2757  2141  1481  1047  965  1163  1505  1839  2050  2115  2090  2058  2067  2108  2153  2187  2201  2177  2097  1984  1890  1858  1919  2122  2491  2939  3305  3510  3586  3508  3135  2403  1473  589  -84  -473  -630  -681  -700  -709  -723  -779  -955  -1314  -1819  -2338  -2708  -2740  -2303  -1520  -745  -199  267  950  1911  2941  3784  4244  4140  3425  2381  1374  494  -298  -976  -1539  -1943  -2018  -1761  -1425  -1209  -1110  -1059  -1015  -980  -976  -983  -913  -703  -438  -305  -402  -663  -993  -1363  -1734  -2014  -2157  -2188  -2144  -2042  -1880  -1631  -1268  -815  -382  -96  10  17  16  58  156  317  532  752  924  1052  1196  1438  1823  2250  2538  2620  2535  2317  2005  1687  1452  1332  1290  1245  1131  949  760  609  510  454  401  295  129  -35  -137  -191  -255  -319  -303  -148  104  309  317  145  -52  -176  -221  -187  -41  211  484  700  886  1154  1567  2042  2429  2662  2769  2798  2792  2773  2748  2727  2714  2704  2703  2738  2829  2931  2959  2895  2777  2622  2445  2304  2238  2226  2233  2240  2250  2258  2231  2113  1893  1661  1532  1532  1597  1686  1818  1951  1757  684  -1388  -3650  -5074  -5370  -4778  -3599  -2314  -1438  -1051  -940  -992  -1149  -1284  -1291  -1164  -982  -851  -812  -826  -849  -865  -873  -875  -853  -789  -698  -622  -590  -615  -726  -925  -1167  -1396  -1575  -1695  -1726  -1534  -984  -242  299  484  475  443  431  422  383  177  -406  -1394  -2550  -3651  -4602  -5383  -6048  -6689  -7355  -7991  -8458  -8702  -8804  -8860  -8874  -8741  -8332  -7686  -7048  -6618  -6387  -6249  -6144  -6064  -5991  -5889  -5756  -5629  -5548  -5512  -5477  -5413  -5332  -5252  -5139  -4935  -4632  -4320  -4119  -4054  -4063  -4112  -4206  -4245  -3860  -2639  -724  1187  2618  3621  4374  4896  5201  5423  5647  5824  5885  5800  5556  5227  4952  4725  4334  3640  2798  2111  1726  1579  1558  1605  1693  1801  1906  1965  1909  1673  1279  809  295  -263  -834  -1409  -2040  -2672  -3057  -2796  -1560  434  2467  3992  4934  5453  5726  5867  5930  5944  5924  5853  5687  5399  4991  4568  4435  4790  5313  5515  5376  5344  5808  6636  7175  6646  4651  1532  -1771  -4345  -5716  -5827  -4900  -3253  -1213  769  2198  2856  2951  2838  2711  2581  2417  2152  1664  900  -102  -1253  -2289  -2905  -3099  -3102  -3035  -2824  -2365  -1732  -1141  -638  53  1163  2441  3392  3858  4070  4255  4427  4538  4627  4737  4700  4079  2570  489  -1490  -2949  -3796  -4111  -3965  -3253  -1997  -687  124  397  436  439  452  478  491  402  132  -238  -508  -576  -501  -395  -332  -280  -84  391  1053  1565  1700  1597  1550  1692  1969  2338  2878  3561  4100  4104  3216  1359  -1004  -3110  -4431  -4928  -4886  -4656  -4472  -4390  -4367  -4388  -4474  -4620  -4827  -5145  -5598  -6057  -6319  -6290  -5935  -4980  -3084  -640  1284  2131  2308  2538  3215  4156  4851  5027  4776  4315  3888  3722  3948  4522  5169  5576  5677  5620  5560  5607  5845  6236  6572  6488  5557  3699  1527  -98  -778  -589  263  1398  2293  2691  2587  1831  287  -1571  -2825  -2806  -1375  952  3146  4507  5093  5226  5034  4516  3831  3329  3266  3683  4431  5178  5646  5827  5866  5741  5021  3134  290  -2328  -3841  -4451  -4726  -4952  -5218  -5509  -5734  -5833  -5760  -5424  -4828  -4192  -3753  -3527  -3395  -3329  -3412  -3749  -4360  -5054  -5539  -5755  -5994  -6620  -7665  -8814  -9787  -10494  -10864  -10712  -9831  -8363  -6954  -6214  -6282  -6985  -7944  -8685  -8906  -8418  -7109  -5321  -3639  -2196  -912  1  373  403  309  -231  -1950  -4909  -7926  -9631  -9594  -8213  -6392  -5134  -4755  -4863  -5016  -4976  -4633  -4040  -3390  -2881  -2616  -2558  -2585  -2619  -2645  -2656  -2643  -2655  -2746  -2870  -2950  -2946  -2730  -2055  -842  494  1356  1576  1424  1188  1052  1215  1837  2762  3530  3650  2659  412  -2340  -4391  -4913  -3123  1487  7466  11959  13745  13847  13583  13496  13547  13578  13526  13186  12061  9881  7188  4956  3483  1958  -402  -2829  -3532  -1886  965  3409  4523  4531  4396  4696  4774  3144  -689  -5058  -7505  -6847  -3763  -315  1528  1648  1337  1347  1534  1802  2282  2932  3557  4130  4746  5365  5833  6112  6302  6510  6739  6906  6957  6899  6767  6712  7138  8480  10555  12481  13548  13665  12822  11016  8890  7428  6846  6592  6255  5888  5586  5168  4448  3652  3248  3407  3801  3916  3400  2202  685  -485  -916  -758  -392  -99  -1  -200  -791  -1607  -2263  -2535  -2321  -1363  471  2626  4156  4527  3524  1115  -1934  -4298  -5424  -5747  -5761  -5653  -5527  -5372  -4819  -3392  -1243  873  2431  3363  3736  3657  3290  2644  1509  7  -1221  -1682  -1359  -474  580  1375  1747  1812  1747  1682  1685  1767  1903  2148  2676  3517  4377  4927  5123  5137  5116  5051  4840  4447  3979  3517  2912  1965  859  112  139  1049  2518  3906  4890  5517  5689  5384  5153  5536  6156  6173  4990  1839  -3791  -10751  -16891  -21003  -23076  -23652  -23631  -23844  -24504  -25373  -26231  -27021  -27765  -28419  -28833  -28799  -28099  -26704  -24974  -23444  -22418  -21812  -21313  -20738  -20235  -20050  -20167  -20281  -20067  -19231  -17293  -14096  -10623  -8205  -7106  -6610  -5558  -2680  2061  6717  9289  9620  8735  7611  6822  6495  6517  6804  7270  7727  8008  8052  7783  7148  6352  5778  5616  5861  6480  7338  8168  8771  9134  9351  9492  9550  9505  9391  9252  9091  8899  8707  8571  8527  8564  8630  8640  8531  8297  7969  7608  7346  7351  7649  8074  8464  8792  9171  9864  10918  11649  11002  8267  3423  -2475  -7721  -11276  -13137  -13794  -13895  -14024  -14500  -15308  -16111  -16155  -14184  -9380  -2965  2294  4758  5017  4376  3558  2852  2469  2543  3070  3829  4480  4897  5177  5386  5489  5385  4953  4202  3375  2777  2507  2526  2878  3657  4737  5744  6371  6506  5944  4434  2371  691  -219  -693  -1014  -1203  -1262  -1252  -1146  -764  62  1245  2399  3134  3412  3450  3488  3815  4657  5801  6701  7078  7083  6933  6670  6189  5313  3809  1627  -641  -2027  -2000  -712  1083  2385  2630  1804  230  -1407  -2441  -2772  -2710  -2480  -2106  -1556  -748  454  1988  3480  4607  5289  5488  5181  4558  3968  3621  3502  3605  4076  5015  6249  7381  8095  8375  8403  8344  8316  8438  8765  9150  9367  9356  9211  9041  8901  8867  9185  10150  11676  13163  13974  13831  12785  11273  9936  9047  8467  7959  7350  6705  6278  6188  6352  6645  6965  7191  7150  6697  5858  4874  4073  3617  3424  3357  3351  3367  3382  3416  3495  3551  3311  2388  632  -1657  -3986  -5952  -7277  -7866  -7806  -7144  -6040  -5127  -5186  -6380  -8168  -9730  -10103  -8231  -3646  2666  8423  11221  9782  4750  -1576  -6634  -9195  -9971  -10479  -11330  -11812  -11170  -9818  -8700  -8232  -8395  -9075  -9981  -10759  -11341  -11838  -12170  -12056  -11329  -10271  -9443  -9148  -9396  -10138  -11126  -11970  -12564  -13042  -13416  -13585  -13567  -13592  -13876  -14324  -14701  -15160  -16456  -19134  -22390  -24656  -25369  -25094  -24337  -23196  -21694  -20012  -18549  -17683  -17410  -17416  -17425  -17415  -17562  -17793  -17044  -13551  -6997  180  4998  6754  6713  6018  4978  3883  3433  4050  5277  6276  6675  6555  5935  4816  3416  2010  834  182  312  1222  2455  3340  3617  3514  3304  3200  3538  4607  6100  7237  7638  7516  7169  6765  6441  6280  6252  6273  6294  6311  6336  6377  6444  6521  6497  6251  5821  5344  4850  4227  3329  2002  237  -1476  -2361  -2169  -1395  -680  -288  -135  -33  222  810  1720  2754  3808  4822  5511  5745  5636  5338  5379  6039  7093  8396  8854  7135  4045  1280  -404  -908  -1034  -2062  -3972  -5375  -5020  -2617  937  3946  5351  5420  4865  4163  3600  3320  3292  3424  3662  3941  4169  4294  4331  4307  4215  4046  3811  3522  3181  2817  2506  2319  2276  2431  2875  3552  4188  4541  4622  4589  4549  4514  4470  4430  4452  4610  4775  4302  2298  -1176  -4596  -6492  -6866  -6594  -6293  -6112  -6019  -5982  -5988  -5993  -5912  -5635  -5047  -4103  -3017  -2186  -1684  -1069  140  1994  4128  6054  7489  8519  9351  10035  10598  11160  11829  12723  14072  15991  17819  18112  16375  14037  12643  12254  11778  9588  4388  -3014  -9639  -13083  -13098  -10817  -7889  -5505  -3897  -2993  -2735  -2991  -3697  -4793  -6102  -7405  -8499  -9262  -9723  -9975  -10035  -9815  -9379  -9021  -8920  -9005  -9155  -9279  -9334  -9260  -8807  -7724  -6312  -5272  -4900  -4913  -4977  -5020  -5216  -5775  -6617  -7372  -7784  -7792  -7225  -5942  -4359  -3238  -2824  -2569  -1572  774  4044  6915  8483  8944  8890  8648  8311  7892  7341  6622  5835  5201  4897  4985  5462  6160  6734  6947  6853  6660  6506  6364  6174  5990  5892  5781  5313  4212  2690  1154  -502  -2676  -5024  -6420  -6258  -5024  -3188  -575  2769  6224  9080  10541  9780  6464  1040  -5235  -10702  -14213  -15326  -13877  -10315  -6090  -2923  -1543  -1451  -1883  -2486  -3107  -3584  -3808  -3639  -2810  -1276  425  1593  2054  2047  1632  616  -940  -2491  -3481  -3784  -3463  -2489  -968  700  2067  2871  3149  3164  3189  3440  4065  4906  5559  5816  5705  5211  4375  3490  2861  2511  2289  2076  1886  1822  1846  1912  2202  2788  3409  3781  3792  3456  2871  2222  1682  1226  694  119  -251  -318  -283  -417  -903  -1772  -2773  -3446  -3250  -1692  1015  3688  5417  6396  7176  8171  9511  10832  11725  12046  11766  10809  8756  5448  1849  -1119  -3435  -4967  -5793  -6634  -7609  -8153  -8077  -7633  -7034  -6381  -5843  -5579  -5580  -5727  -5814  -5448  -4295  -2675  -1388  -782  -594  -502  -336  -18  368  584  403  -246  -1235  -2215  -2840  -3013  -2749  -2041  -1111  -390  -59  25  104  571  1936  4217  6634  8346  9194  9458  9290  8583  7354  6060  5272  5339  6429  8373  10472  11963  12614  12759  12846  12966  12593  10907  7677  3645  34  -2191  -2937  -2884  -2688  -2575  -2504  -2413  -2363  -2632  -3584  -5239  -7104  -8577  -9407  -9756  -9892  -9978  -10089  -10217  -10287  -10254  -10102  -9777  -9218  -8452  -7672  -7134  -6884  -6789  -6757  -6682  -6305  -5418  -4208  -3174  -2646  -2546  -2607  -2627  -2523  -2301  -1934  -1340  -621  -128  -163  -759  -1640  -2486  -3300  -4264  -5360  -6340  -6921  -7003  -6665  -6048  -5326  -4644  -3975  -3157  -2226  -1494  -1166  -1182  -1465  -1977  -2569  -3047  -3363  -3584  -3698  -3468  -2581  -1108  402  1435  1875  1930  1876  1835  1760  1578  1340  1171  1056  834  439  72  275  1750  4547  7519  9350  9763  9115  7598  5224  2142  -997  -3204  -4014  -3625  -2367  -806  279  592  427  137  -140  -446  -901  -1535  -2215  -2850  -3553  -4384  -5141  -5591  -5709  -5614  -5456  -5342  -5302  -5328  -5431  -5599  -5709  -5483  -4682  -3490  -2392  -1598  -1043  -718  -584  -513  -461  -359  294  2214  5194  7880  9232  9332  8611  7336  5843  4503  3502  2959  3123  4290  6329  8453  9878  10420  10119  8840  6738  4602  3056  1834  426  -1054  -2116  -2561  -2570  -2351  -1995  -1616  -1387  -1438  -1784  -2262  -2636  -2833  -2932  -3003  -3107  -3303  -3491  -3149  -1457  1685  4982  6931  7292  6774  6045  5426  4960  4559  4163  3792  3503  3319  3213  3134  3033  2915  2858  2862  2788  2556  2175  1584  800  96  -309  -525  -787  -1212  -1782  -2462  -3247  -4027  -4455  -3951  -2100  518  2563  3427  3598  3622  3568  3277  2591  1466  209  -624  -737  -239  548  1287  1794  2064  2180  2194  2019  1528  853  351  251  541  1103  1818  2586  3292  3777  3965  3969  4058  4470  5210  6051  6753  7191  7316  7121  6556  5277  2996  344  -1486  -2075  -1759  -725  920  2513  3085  2060  -670  -4326  -7136  -7772  -5743  -895  5746  11848  15356  15421  12336  7324  2151  -1789  -4395  -6374  -8143  -9646  -10624  -10969  -10901  -10544  -9573  -7641  -5178  -3252  -2449  -2502  -2957  -3521  -3969  -4184  -4203  -4120  -4043  -4168  -4743  -5785  -6946  -7804  -8175  -8034  -7373  -6351  -5356  -4684  -4355  -4253  -4289  -4407  -4543  -4706  -4962  -5272  -5545  -5811  -6111  -6403  -6648  -6793  -6631  -5865  -4540  -3221  -2469  -2417  -2970  -3997  -5265  -6486  -7400  -7882  -8043  -8063  -7972  -7737  -7427  -7183  -7053  -6955  -6822  -6695  -6545  -5981  -4522  -2430  -691  103  160  -212  -953  -1899  -2698  -2995  -2268  93  3871  7675  10145  11068  11106  10869  10485  9850  8994  8169  7633  7413  7363  7366  7387  7410  7418  7405  7388  7408  7504  7668  7839  7989  8227  8701  9420  10216  10866  11269  11447  11374  10894  9968  8944  8303  8216  8573  9115  9456  9383  9185  9428  10529  12497  14761  16401  16609  14864  11222  6598  2193  -1299  -3707  -5142  -6027  -6757  -7192  -7029  -6395  -5636  -5007  -4598  -4272  -3807  -2958  -1501  309  1706  2277  2296  2152  1972  1734  1442  1147  844  395  -282  -1084  -1872  -2573  -3120  -3492  -3764  -4009  -4198  -4267  -4226  -4164  -4146  -4138  -4030  -3714  -3221  -2703  -2230  -1721  -1156  -677  -410  -317  -284  -249  -193  -104  -1  79  121  112  3  -247  -568  -812  -909  -970  -1248  -1976  -3101  -4195  -4837  -5014  -4967  -4805  -4494  -4104  -3817  -3677  -3548  -3276  -2651  -1495  -101  874  1180  1089  889  650  215  -666  -1912  -2993  -3551  -3799  -4178  -4914  -5909  -6848  -7282  -6498  -3938  -408  2196  2742  1393  -1003  -3228  -4416  -4724  -4813  -5016  -5280  -5560  -5890  -6257  -6629  -6944  -6882  -5755  -3127  301  3059  4365  4660  4701  4754  4651  4109  2954  1437  166  -561  -998  -1352  -1527  -1575  -2003  -3291  -5078  -6400  -6846  -6778  -6625  -6550  -6602  -6862  -7384  -8047  -8631  -9077  -9474  -9855  -10130  -10049  -9138  -6951  -3594  100  3017  4517  4870  4775  4682  4698  4797  4915  4968  4893  4699  4477  4304  4136  3898  3661  3529  3419  3215  3064  3429  4634  6296  7726  8715  9481  10300  11063  10865  8789  5080  899  -2533  -4482  -5117  -5119  -4824  -4358  -3894  -3416  -2886  -2371  -1760  -713  951  2807  4104  4555  4295  3360  1865  363  -561  -836  -756  -577  -403  -253  -97  153  695  1684  2891  3802  4184  4203  3999  3556  2975  2522  2408  2738  3535  4605  5636  6444  7071  7745  8666  9798  10884  11509  11216  9820  7890  6513  6312  7111  8277  9165  9503  9238  8194  6367  4207  2251  773  -272  -1336  -3115  -5885  -9079  -11787  -13508  -14253  -14244  -13610  -12425  -10989  -9751  -8883  -8233  -7666  -7142  -6549  -5791  -5021  -4515  -4340  -4355  -4437  -4535  -4532  -4158  -3071  -1117  1307  3409  4678  5141  5026  4542  3941  3503  3343  3445  3884  4735  5744  6448  6686  6644  6470  6149  5653  5088  4657  4482  4594  4984  5513  5943  6173  6238  6087  5503  4308  2778  1531  856  501  131  -276  -545  -640  -744  -1030  -1491  -1993  -2424  -2741  -2945  -2983  -2587  -1465  86  1212  1269  218  -1442  -3004  -4047  -4549  -4679  -4654  -4616  -4594  -4564  -4468  -4270  -4026  -3850  -3786  -3789  -3827  -3900  -3994  -4070  -4106  -4106  -4082  -4052  -4040  -4055  -4089  -4124  -4154  -4167  -4073  -3688  -2863  -1672  -465  430  1032  1514  1898  2120  2183  2109  1832  1232  205  -1224  -2793  -4066  -4741  -4868  -4691  -4347  -3863  -3331  -2915  -2677  -2544  -2448  -2344  -2138  -1739  -1225  -804  -595  -544  -559  -624  -773  -946  -894  -323  735  1813  2454  2615  2467  2112  1632  1150  714  259  -202  -539  -693  -738  -706  -471  174  1229  2324  3032  3248  3056  2493  1716  1063  690  448  202  -10  -147  -278  -478  -722  -946  -1129  -1275  -1377  -1450  -1485  -1397  -1057  -466  147  523  624  548  346  38  -293  -527  -490  82  1304  2841  4170  5098  5745  6180  6388  6428  6407  6353  6184  5811  5306  4865  4589  4418  4215  3892  3500  3132  2820  2584  2467  2466  2511  2487  2256  1793  1280  929  760  641  482  315  217  198  214  232  244  235  174  39  -150  -339  -476  -552  -577  -527  -357  -94  154  318  414  479  513  497  432  294  50  -277  -647  -1063  -1512  -1900  -2133  -2229  -2283  -2346  -2400  -2392  -2277  -2048  -1735  -1386  -1083  -906  -859  -880  -936  -1062  -1301  -1627  -1950  -2206  -2380  -2475  -2491  -2401  -2171  -1851  -1581  -1466  -1537  -1790  -2127  -2362  -2366  -2147  -1834  -1563  -1312  -956  -511  -118  193  574  1159  1883  2517  2909  3079  3121  3071  2873  2469  1951  1536  1349  1332  1378  1432  1458  1359  1030  542  139  -38  -78  -128  -230  -345  -472  -647  -862  -1039  -1088  -893  -308  692  1834  2670  3005  2967  2723  2383  2060  1841  1719  1654  1628  1600  1438  990  280  -446  -1025  -1592  -2332  -3125  -3664  -3852  -3846  -3811  -3777  -3690  -3518  -3331  -3245  -3304  -3443  -3584  -3715  -3841  -3931  -3959  -3936  -3912  -4018  -4403  -5026  -5587  -5598  -4415  -1820  1207  3168  3501  2680  1497  613  213  7  -318  -792  -1231  -1519  -1706  -1878  -2060  -2251  -2439  -2588  -2679  -2740  -2799  -2846  -2811  -2582  -2117  -1533  -1030  -732  -604  -544  -498  -454  -357  -60  570  1520  2631  3655  4340  4607  4571  4379  4133  3922  3846  4088  4812  5804  6552  6781  6618  6343  6152  6088  6060  5904  5614  5345  5137  4916  4522  3629  2082  250  -1241  -2039  -2162  -1812  -1388  -1370  -1717  -1925  -1823  -1618  -1403  -1139  -852  -664  -681  -911  -1237  -1500  -1646  -1715  -1756  -1805  -1882  -1988  -2094  -2141  -2116  -2062  -2019  -1995  -1979  -1953  -1907  -1836  -1709  -1428  -898  -180  472  826  893  902  1097  1584  2277  2946  3379  3538  3450  3046  2276  1271  265  -563  -1194  -1711  -2134  -2377  -2396  -2243  -2032  -1889  -1897  -2064  -2309  -2512  -2619  -2656  -2659  -2621  -2467  -2137  -1707  -1346  -1153  -1110  -1151  -1224  -1321  -1462  -1642  -1805  -1847  -1581  -865  88  830  1163  1257  1349  1519  1692  1792  1833  1872  1962  2139  2379  2635  2914  3219  3483  3648  3703  3655  3517  3284  2904  2318  1595  935  465  164  -18  -110  -156  -221  -345  -509  -661  -761  -789  -744  -659  -587  -549  -526  -500  -497  -600  -866  -1219  -1482  -1566  -1489  -1263  -899  -495  -204  -90  -100  -137  -47  348  1064  1861  2457  2742  2725  2360  1603  628  -207  -671  -818  -825  -810  -801  -800  -813  -838  -862  -874  -871  -844  -778  -689  -615  -564  -530  -562  -782  -1241  -1779  -2153  -2271  -2166  -1873  -1503  -1238  -1149  -1158  -1180  -1197  -1223  -1266  -1280  -1166  -815  -219  496  1132  1521  1652  1647  1618  1588  1528  1432  1331  1226  1061  800  488  216  43  -56  -156  -254  -245  -44  266  508  608  597  462  155  -254  -613  -868  -1062  -1211  -1263  -1070  -493  301  927  1210  1207  968  584  242  70  58  132  257  488  879  1365  1776  1926  1730  1295  864  598  462  337  131  -219  -763  -1437  -2036  -2367  -2428  -2350  -2245  -2162  -2101  -2030  -1953  -1900  -1847  -1716  -1484  -1219  -997  -853  -782  -724  -603  -428  -285  -203  -101  123  469  851  1278  1884  2693  3483  3962  4043  3818  3410  2922  2425  1985  1703  1682  2014  2678  3418  3787  3498  2864  2521  2643  2959  3153  2687  1131  -981  -2666  -3525  -3558  -2908  -2098  -1617  -1456  -1437  -1558  -1890  -2342  -2684  -2772  -2590  -2192  -1740  -1430  -1321  -1327  -1357  -1371  -1373  -1393  -1471  -1655  -1987  -2440  -2868  -3119  -3175  -3094  -2898  -2592  -2190  -1685  -1065  -410  123  467  676  842  1062  1364  1652  1815  1850  1825  1789  1761  1778  1903  2159  2461  2696  2855  3005  3170  3311  3391  3417  3404  3333  3157  2856  2469  2066  1698  1415  1265  1246  1353  1578  1848  2033  2047  1883  1600  1257  821  258  -292  -666  -890  -1060  -1157  -1101  -856  -460  -18  320  436  292  -38  -384  -594  -646  -579  -415  -211  -54  25  67  105  166  256  347  395  337  114  -219  -503  -631  -639  -598  -542  -480  -419  -365  -343  -409  -614  -916  -1179  -1330  -1403  -1422  -1344  -1059  -500  195  761  1064  1158  1131  995  722  328  -180  -821  -1541  -2245  -2854  -3270  -3410  -3232  -2727  -2045  -1464  -1146  -1072  -1253  -1726  -2267  -2412  -1933  -1070  -295  -5  -142  -170  318  1040  1280  705  -334  -1243  -1576  -1218  -505  16  105  -16  -20  230  682  1189  1604  1856  1963  1977  1957  1968  2017  2050  2033  1979  1924  1892  1877  1857  1813  1677  1327  718  -7  -602  -929  -1051  -1092  -1114  -1145  -1224  -1407  -1725  -2108  -2405  -2541  -2575  -2575  -2531  -2366  -2048  -1684  -1439  -1355  -1365  -1418  -1524  -1705  -1926  -2092  -2159  -2178  -2257  -2465  -2749  -2960  -2965  -2706  -2250  -1785  -1455  -1229  -1031  -861  -733  -610  -470  -345  -231  -72  125  292  403  482  545  652  947  1494  2141  2646  2882  2881  2739  2552  2385  2235  2041  1768  1424  1042  646  219  -220  -567  -742  -789  -785  -718  -530  -250  -7  93  47  -98  -314  -580  -842  -1033  -1121  -1126  -1096  -1062  -1018  -942  -845  -764  -707  -644  -515  -268  99  515  865  1066  1132  1133  1108  1075  1047  1037  1048  1084  1159  1298  1514  1781  2041  2240  2330  2268  1973  1398  761  421  497  936  1637  2359  2944  3454  3848  3864  3285  2114  593  -895  -2047  -2837  -3416  -3831  -3990  -3871  -3566  -3193  -2836  -2513  -2222  -1981  -1743  -1394  -926  -501  -286  -285  -385  -469  -489  -470  -451  -451  -476  -521  -584  -648  -680  -646  -537  -378  -218  -106  -53  -40  -50  -64  -29  131  443  810  1096  1263  1361  1431  1482  1511  1524  1529  1524  1493  1427  1337  1236  1082  768  254  -323  -761  -983  -1073  -1139  -1202  -1204  -1104  -908  -651  -415  -284  -278  -356  -460  -542  -598  -628  -559  -316  30  311  435  409  279  134  36  -31  -140  -340  -576  -745  -818  -836  -828  -769  -621  -417  -243  -161  -168  -207  -207  -153  -88  -14  112  297  477  575  527  287  -97  -471  -638  -385  487  2052  4033  5823  6914  7193  6815  5907  4471  2576  418  -1814  -3767  -4937  -5099  -4358  -2975  -1434  -373  -69  -171  -242  -204  -123  2  182  353  445  434  327  169  41  -6  8  29  27  3  -82  -334  -769  -1215  -1475  -1518  -1416  -1235  -1039  -894  -828  -820  -831  -842  -853  -853  -808  -696  -579  -583  -776  -1116  -1477  -1727  -1832  -1838  -1752  -1551  -1296  -1061  -739  -115  788  1684  2367  2882  3378  3968  4633  5210  5556  5682  5706  5702  5619  5290  4557  3504  2463  1659  1059  561  160  75  712  2135  3560  4041  3658  3303  3547  4264  4867  4575  2903  159  -2708  -4925  -6296  -6883  -6862  -6629  -6496  -6431  -6298  -6071  -5775  -5455  -5150  -4839  -4500  -4186  -3957  -3810  -3713  -3675  -3707  -3768  -3742  -3454  -2772  -1799  -884  -321  -114  -68  49  456  1293  2423  3424  3988  4124  3879  3236  2405  1807  1637  1761  1983  2145  2054  1493  491  -542  -1225  -1575  -1802  -1993  -2122  -2178  -2144  -1918  -1342  -373  717  1468  1558  964  94  -263  318  1409  2147  1622  -508  -3156  -4662  -4486  -3179  -1541  -174  835  1555  1789  1569  1222  827  265  -546  -1613  -2740  -3599  -4063  -4268  -4421  -4661  -4968  -5221  -5360  -5373  -5144  -4479  -3328  -1917  -522  727  1698  2251  2378  2003  947  -583  -1901  -2541  -2654  -2577  -2398  -2019  -1461  -880  -379  -9  167  164  92  41  20  16  69  248  555  959  1536  2389  3332  3978  4187  4123  3900  3432  2585  1403  229  -526  -794  -725  -241  889  2539  4106  5072  5424  5455  5407  5361  5350  5529  6091  6936  7675  8069  8200  8208  8043  7471  6373  5103  4251  4013  4133  4339  4510  4545  4234  3378  2156  1092  537  434  523  566  504  435  389  202  -371  -1338  -2307  -2860  -2966  -2860  -2733  -2653  -2607  -2570  -2537  -2497  -2417  -2211  -1788  -1190  -556  85  769  1427  1949  2194  1687  -233  -3387  -6435  -8241  -8837  -8621  -7417  -4911  -1683  887  1784  1143  59  -63  1761  5208  8546  9883  8416  4836  865  -1831  -2426  -1200  690  2127  2716  2619  2145  1539  955  447  -6  -422  -804  -1147  -1374  -1261  -521  835  2274  3208  3569  3693  3841  4014  4090  4009  3807  3420  2524  876  -1203  -2972  -3850  -3688  -2644  -1250  -281  -194  -913  -1970  -2807  -3253  -3552  -3878  -4146  -4243  -4161  -3907  -3506  -3091  -2830  -2799  -3003  -3409  -3882  -4252  -4461  -4518  -4305  -3635  -2633  -1768  -1366  -1422  -1848  -2506  -3129  -3497  -3582  -3366  -2785  -2004  -1458  -1531  -2294  -3389  -4271  -4735  -4901  -4877  -4694  -4250  -3175  -1208  1091  2662  3148  3051  2888  2836  2890  3005  3074  2869  2193  1241  560  579  1320  2365  3120  3329  3126  2678  1999  1212  942  1762  3397  5224  6887  8059  8524  8424  7640  5374  1165  -4127  -8790  -11115  -9955  -5672  -605  2517  2844  1585  230  -644  -1062  -1159  -1150  -1309  -1821  -2548  -3055  -2906  -1975  -685  254  565  483  265  33  -122  -158  -144  -258  -647  -1209  -1660  -1829  -1659  -1083  -180  745  1404  1704  1680  1368  805  106  -544  -1033  -1446  -1894  -2325  -2671  -2983  -3283  -3476  -3483  -3313  -3066  -2828  -2477  -1739  -652  344  934  1184  1300  1382  1399  1315  1211  1190  1251  1313  1415  1766  2443  3195  3751  4066  4187  4084  3635  2771  1746  1025  794  897  1166  1480  1712  1784  1655  1305  858  525  378  355  380  364  201  -147  -597  -1032  -1415  -1744  -1966  -2048  -2018  -1880  -1592  -1216  -928  -850  -1009  -1419  -2062  -2832  -3512  -3894  -3937  -3721  -3364  -3037  -2896  -2958  -3107  -3208  -3201  -3099  -2859  -2363  -1601  -829  -354  -239  -386  -711  -1087  -1345  -1447  -1480  -1463  -1237  -540  726  2222  3398  4042  4331  4490  4589  4592  4497  4335  4006  3285  2107  772  -326  -1068  -1561  -1921  -2209  -2487  -2828  -3216  -3541  -3701  -3573  -2966  -1859  -615  288  685  651  195  -676  -1584  -1911  -1427  -314  1281  3059  4558  5721  6579  6807  6187  4739  2580  100  -2092  -3526  -4237  -4625  -4954  -5325  -5763  -6121  -6274  -6283  -6240  -6132  -5813  -5104  -4051  -2946  -2015  -1292  -751  -352  -46  132  19  -592  -1700  -3099  -4632  -6141  -7341  -8093  -8516  -8730  -8688  -8228  -7304  -6153  -5046  -4041  -3066  -1987  -685  793  2184  3123  3437  3288  2999  2759  2456  1853  980  61  -844  -1689  -2251  -2429  -2349  -2143  -1914  -1747  -1621  -1431  -1187  -1049  -1016  -577  964  3485  5872  7256  7744  7832  7812  7772  7733  7711  7714  7729  7751  7762  7698  7457  6941  6219  5566  5180  4998  4856  4667  4463  4333  4308  4336  4349  4323  4281  4268  4306  4405  4583  4863  5204  5511  5729  5852  5874  5790  5646  5512  5422  5370  5383  5549  5915  6358  6644  6629  6321  5887  5575  5527  5740  6104  6434  6562  6460  6235  6034  5931  5891  5852  5782  5671  5523  5373  5253  5165  5126  5167  5222  5020  4222  2872  1466  411  -282  -811  -1483  -2638  -4335  -6172  -7630  -8579  -9233  -9734  -10079  -10306  -10494  -10655  -10716  -10585  -10224  -9568  -8544  -7363  -6500  -6179  -6224  -6387  -6467  -6171  -5261  -4017  -3096  -2783  -2875  -3172  -3652  -4274  -4815  -5020  -4857  -4519  -4139  -3628  -2858  -1932  -1139  -649  -355  -65  231  414  440  374  306  322  538  1032  1661  2100  2142  1821  1349  994  922  1204  1854  2758  3719  4549  5012  4834  3896  2344  575  -918  -1787  -1821  -1311  -1341  -2693  -5176  -8406  -11594  -13358  -13164  -11530  -9011  -6237  -4004  -2678  -2048  -1838  -2008  -2585  -3356  -3904  -3990  -3688  -3229  -2822  -2519  -2311  -2297  -2588  -3106  -3595  -3881  -3964  -3793  -3216  -2286  -1376  -791  -521  -464  -564  -739  -878  -953  -1025  -1125  -1199  -1138  -870  -475  -154  -13  0  -26  -29  21  94  121  -5  -414  -1062  -1661  -1973  -2018  -1920  -1756  -1584  -1481  -1509  -1677  -1905  -2067  -2107  -2070  -2042  -2138  -2447  -2881  -3189  -3161  -2775  -2236  -1845  -1715  -1744  -1815  -1859  -1776  -1458  -896  -102  941  2050  2855  3220  3285  3057  2311  991  -525  -1736  -2419  -2697  -2811  -2879  -2893  -2841  -2698  -2386  -1890  -1380  -1080  -1116  -1518  -2181  -2853  -3324  -3574  -3692  -3710  -3516  -2992  -2264  -1668  -1396  -1339  -1287  -1121  -819  -419  5  348  556  644  619  472  246  108  339  1094  2226  3515  4828  5929  6548  6667  6418  5834  4866  3557  2205  1225  827  1040  1879  3117  4220  4827  5009  5013  4982  4894  4650  4237  3808  3527  3418  3439  3628  4058  4673  5244  5567  5683  5818  6126  6521  6800  6894  6879  6814  6706  6601  6513  6180  5109  3262]
