reading_id,reading_time,wire_id,result_classification,heart_rate,heart_rate_alert,firmware_version,device_app_version,hardware_version,waveform_samples
cf1d0450-6bc8-11ed-8080-808080808080,Thu Nov 24 07:22:53 UTC 2022,a10163b41b39,NSR,73,NONE,20001.171.50,2.10.0,Charge 5,[-9485  -9548  -9461  -9100  -8477  -7638  -6537  -5321  -4287  -3379  -2318  -1055  305  1677  2942  3979  4775  5439  6112  6898  7820  8779  9628  10301  10871  11513  12383  13489  14711  15883  16871  17674  18344  18959  19702  20660  21714  22763  23800  24866  26043  27393  28779  29860  30448  30699  30822  30846  30709  30441  30155  29930  29768  29642  29528  29368  29083  28688  28351  28287  28602  29191  29787  30112  30051  29696  29124  28294  27194  25817  24173  22403  20655  18955  17296  15733  14326  13072  11932  10825  9653  8418  7239  6211  5331  4547  3789  2998  2203  1425  654  -38  -529  -784  -912  -1067  -1300  -1577  -1927  -2443  -3091  -3685  -4133  -4519  -4871  -5107  -5180  -5100  -4923  -4795  -4897  -5249  -5690  -6096  -6436  -6700  -6924  -7136  -7283  -7311  -7274  -7262  -7306  -7439  -7705  -8060  -8387  -8628  -8809  -8986  -9206  -9485  -9803  -10149  -10518  -10849  -11064  -11178  -11255  -11312  -11337  -11298  -11163  -10942  -10671  -10339  -9929  -9420  -8727  -7850  -6880  -5788  -4541  -3336  -2421  -1876  -1617  -1514  -1482  -1486  -1503  -1511  -1497  -1449  -1329  -1102  -790  -480  -246  -107  -31  25  72  116  218  490  969  1520  1924  2088  2090  2033  1899  1545  879  35  -738  -1364  -1947  -2578  -3248  -3833  -4196  -4327  -4334  -4315  -4308  -4316  -4329  -4316  -4225  -4044  -3844  -3697  -3566  -3350  -3021  -2640  -2257  -1866  -1489  -1213  -1087  -1109  -1309  -1721  -2270  -2809  -3242  -3547  -3735  -3841  -3926  -4049  -4230  -4420  -4537  -4542  -4448  -4311  -4217  -4258  -4482  -4813  -5081  -5180  -5103  -4881  -4597  -4377  -4276  -4251  -4236  -4203  -4147  -4052  -3917  -3771  -3640  -3521  -3422  -3368  -3355  -3337  -3247  -3040  -2724  -2346  -1966  -1638  -1395  -1242  -1156  -1093  -1036  -999  -988  -989  -978  -936  -861  -779  -734  -774  -935  -1168  -1328  -1241  -833  -268  146  291  279  239  209  179  141  101  74  67  74  85  84  36  -89  -256  -380  -421  -411  -393  -410  -485  -600  -695  -736  -755  -800  -880  -956  -1002  -1027  -1064  -1132  -1220  -1297  -1339  -1330  -1259  -1123  -939  -711  -452  -205  52  422  937  1494  1956  2182  2035  1505  749  -102  -980  -1755  -2268  -2390  -2037  -1311  -504  135  558  809  951  1029  1065  1077  1096  1136  1196  1274  1376  1499  1630  1763  1888  1982  2029  2037  2026  2012  2002  1997  1999  2020  2070  2132  2176  2197  2214  2253  2323  2412  2504  2635  2859  3177  3517  3782  3918  3953  3950  3944  3936  3920  3894  3859  3791  3651  3446  3241  3081  2944  2777  2535  2216  1891  1626  1399  1176  992  885  840  823  810  796  787  788  790  776  730  669  628  626  646  664  671  671  667  658  643  630  627  648  704  779  836  849  816  740  622  483  368  313  305  318  326  298  196  12  -204  -387  -501  -556  -590  -640  -703  -753  -778  -781  -753  -650  -446  -200  -23  58  111  173  225  248  252  262  303  388  507  637  746  813  843  854  836  738  535  291  98  -19  -85  -119  -143  -192  -294  -430  -537  -584  -592  -589  -592  -602  -628  -687  -777  -857  -860  -714  -377  156  840  1565  2210  2652  2730  2325  1488  397  -744  -1749  -2464  -2825  -2861  -2613  -2145  -1587  -1061  -625  -287  -32  145  238  261  246  210  156  103  85  122  216  334  436  497  523  532  533  512  449  348  253  202  222  338  537  744  886  952  990  1059  1206  1424  1659  1859  1992  2050  2044  1983  1881  1773  1683  1602  1522  1457  1402  1314  1134  840  466  90  -196  -339  -351  -294  -224  -179  -164  -170  -189  -220  -249  -253  -229  -188  -140  -89  -39  -8  -12  -47  -83  -97  -79  -23  57  127  163  174  183  201  228  261  294  320  338  347  354  368  391  419  455  505  561  603  628  641  644  631  605  573  539  515  514  534  555  569  602  688  809  917  985  1007  979  906  795  652  503  375  281  209  152  117  107  107  96  44  -73  -250  -448  -616  -714  -738  -724  -706  -710  -760  -886  -1094  -1349  -1585  -1743  -1815  -1847  -1879  -1936  -2007  -2013  -1853  -1520  -1056  -478  132  590  765  630  196  -463  -1219  -1975  -2666  -3242  -3676  -3956  -4065  -3977  -3684  -3257  -2837  -2540  -2395  -2343  -2296  -2184  -1980  -1734  -1538  -1418  -1310  -1172  -1035  -955  -934  -937  -932  -898  -818  -705  -602  -548  -534  -519  -458  -322  -99  192  491  720  856  933  995  1073  1204  1448  1796  2128  2331  2436  2547  2706  2870  2987  3041  3014  2874  2628  2351  2089  1805  1481  1183  985  884  820  764  717  644  480  200  -127  -385  -512  -547  -567  -605  -641  -655  -675  -741  -849  -941  -978  -972  -945  -915  -890  -860  -794  -680  -555  -460  -400  -348  -289  -224  -163  -116  -92  -99  -133  -180  -213  -210  -170  -113  -71  -65  -90  -134  -182  -239  -317  -403  -461  -465  -420  -360  -316  -295  -284  -280  -292  -341  -441  -573  -682  -731  -702  -579  -387  -206  -91  -27  28  89  135  144  105  21  -80  -174  -266  -370  -495  -637  -776  -881  -929  -892  -762  -599  -487  -456  -468  -488  -511  -552  -607  -631  -528  -236  208  702  1167  1601  2006  2307  2401  2232  1747  920  -99  -1041  -1767  -2258  -2491  -2482  -2303  -1991  -1576  -1187  -965  -909  -924  -935  -894  -778  -610  -461  -370  -330  -314  -306  -299  -295  -292  -290  -289  -284  -271  -247  -214  -176  -141  -120  -99  -34  102  274  417  514  608  732  880  1035  1187  1313  1392  1427  1436  1439  1452  1486  1532  1566  1576  1571  1539  1438  1213  862  476  171  -26  -167  -293  -409  -496  -553  -589  -608  -609  -604  -618  -671  -752  -827  -871  -871  -810  -688  -533  -393  -307  -275  -274  -287  -325  -395  -478  -542  -574  -583  -581  -581  -592  -612  -617  -576  -486  -379  -298  -258  -249  -248  -231  -189  -142  -117  -118  -126  -131  -144  -177  -223  -256  -262  -247  -230  -231  -264  -326  -397  -445  -458  -440  -395  -324  -235  -145  -77  -32  5  50  96  127  141  144  139  128  124  161  268  417  536  596  605  531  321  16  -243  -374  -403  -378  -295  -131  113  437  869  1440  2101  2737  3221  3413  3214  2634  1777  793  -169  -990  -1583  -1895  -1903  -1632  -1213  -838  -610  -470  -316  -130  24  112  158  193  216  205  146  59  0  6  79  179  265  335  403  468  526  595  684  793  916  1058  1230  1415  1576  1704  1807  1889  1987  2150  2364  2559  2694  2784  2879  3003  3125  3204  3231  3221  3189  3151  3118  3081  2998  2822  2538  2193  1865  1576  1271  891  462  80  -190  -355  -459  -534  -590  -640  -711  -817  -949  -1104  -1270  -1417  -1506  -1527  -1491  -1404  -1285  -1171  -1089  -1040  -1015  -1005  -997  -981  -959  -942  -935  -940  -960  -999  -1065  -1177  -1348  -1567  -1790  -1968  -2090  -2158  -2164  -2101  -1999  -1895  -1786  -1656  -1517  -1406  -1353  -1365  -1421  -1484  -1522  -1524  -1492  -1436  -1370  -1295  -1206  -1111  -1038  -1001  -990  -994  -1033  -1135  -1303  -1485  -1620  -1692  -1719  -1723  -1719  -1717  -1728  -1754  -1781  -1787  -1781  -1786  -1793  -1781  -1755  -1728  -1691  -1653  -1642  -1663  -1648  -1463  -1008  -306  506  1250  1733  1790  1398  718  -74  -923  -1780  -2527  -3044  -3241  -3089  -2695  -2267  -1943  -1725  -1561  -1420  -1292  -1170  -1044  -926  -832  -763  -708  -661  -618  -569  -501  -407  -275  -110  57  188  272  320  347  360  365  378  422  490  551  601  661  740  846  989  1165  1359  1572  1799  2030  2252  2440  2568  2645  2685  2695  2676  2635  2586  2537  2456  2298  2055  1764  1483  1245  1039  846  668  495  329  175  15  -166  -328  -425  -467  -479  -484  -489  -494  -497  -493  -480  -461  -426  -363  -288  -241  -240  -266  -297  -327  -356  -367  -353  -324  -299  -287  -276  -256  -234  -225  -227  -223  -213  -207  -210  -221  -235  -250  -262  -267  -256  -224  -179  -139  -115  -115  -139  -180  -224  -251  -244  -199  -130  -60  6  75  144  211  267  296  292  263  220  167  100  21  -53  -105  -122  -99  -39  36  104  154  188  209  219  225  234  242  243  249  295  428  683  1094  1659  2329  3029  3630  3954  3886  3431  2667  1709  705  -203  -899  -1307  -1408  -1244  -936  -615  -323  -68  109  198  247  305  387  473  537  573  585  582  579  589  619  679  761  834  884  917  943  965  975  982  1011  1093  1228  1369  1462  1518  1612  1776  1956  2093  2195  2310  2458  2621  2787  2940  3066  3161  3229  3262  3251  3196  3104  2991  2861  2688  2458  2204  1958  1708  1432  1117  780  471  248  132  92  46  -72  -234  -350  -383  -374  -361  -354  -352  -363  -389  -416  -434  -441  -440  -430  -415  -396  -380  -371  -360  -335  -304  -282  -273  -266  -244  -197  -138  -97  -88  -106  -141  -181  -207  -215  -212  -209  -216  -237  -274  -321  -365  -403  -434  -462  -496  -532  -550  -538  -503  -468  -443  -428  -417  -409  -405  -414  -445  -491  -530  -549  -545  -525  -494  -454  -401  -349  -328  -347  -382  -419  -457  -512  -593  -685  -769  -849  -931  -994  -1027  -1040  -1048  -1056  -1068  -1091  -1127  -1162  -1179  -1167  -1130  -1081  -1034  -972  -854  -642  -265  342  1128  1928  2547  2800  2581  1935  1035  48  -933  -1831  -2532  -2955  -3082  -2935  -2590  -2163  -1749  -1412  -1197  -1100  -1069  -1061  -1057  -1039  -992  -926  -874  -845  -831  -828  -842  -865  -874  -856  -809  -739  -659  -588  -542  -509  -474  -428  -356  -232  -56  131  297  418  489  531  601  750  991  1279  1527  1689  1797  1885  1950  1992  2031  2079  2123  2137  2086  1929  1641  1218  693  158  -306  -658  -872  -962  -991  -1019  -1049  -1053  -1026  -983  -955  -957  -975  -982  -951  -871  -767  -683  -631  -582  -512  -436  -386  -375  -397  -439  -482  -507  -506  -490  -480  -489  -511  -533  -548  -556  -558  -553  -541  -527  -509  -481  -447  -429  -441  -458  -450  -421  -396  -387  -387  -389  -384  -373  -361  -353  -349  -342  -329  -316  -307  -304  -302  -284  -242  -185  -136  -98  -55  -5  38  65  78  84  86  68  2  -116  -244  -335  -405  -512  -674  -847  -974  -1023  -995  -905  -775  -646  -567  -543  -546  -551  -559  -580  -624  -691  -774  -829  -797  -672  -491  -237  167  762  1455  2045  2330  2193  1674  925  71  -796  -1591  -2276  -2821  -3126  -3096  -2766  -2294  -1848  -1510  -1287  -1156  -1087  -1037  -960  -855  -756  -678  -629  -626  -648  -646  -599  -535  -472  -401  -306  -197  -111  -70  -63  -70  -59  9  159  352  526  669  806  941  1047  1115  1171  1262  1410  1604  1826  2058  2274  2444  2569  2674  2769  2844  2875  2856  2797  2690  2502  2237  1947  1645  1304  937  602  354  181  13  -206  -481  -744  -902  -941  -915  -876  -831  -765  -687  -631  -615  -626  -645  -665  -689  -715  -732  -738  -739  -738  -735  -727  -711  -677  -610  -499  -360  -232  -156  -131  -122  -105  -81  -46  11  89  156  190  193  176  139  90  41  0  -37  -75  -95  -60  20  98  139  149  146  141  135  124  112  103  97  92  93  104  123  145  164  172  176  191  244  337  436  499  522  530  537  544  551  551  513  394  207  39  -47  -66  -65  -71  -85  -106  -137  -179  -230  -290  -353  -407  -446  -483  -515  -493  -374  -184  18  249  611  1159  1811  2390  2707  2628  2155  1442  668  -96  -858  -1580  -2164  -2511  -2539  -2228  -1705  -1184  -809  -586  -460  -380  -329  -300  -283  -265  -242  -219  -207  -214  -236  -249  -237  -217  -203  -164  -60  110  314  494  600  633  637  645  663  686  722  779  845  901  955  1043  1205  1451  1743  2004  2190  2323  2445  2569  2669  2724  2736  2730  2722  2709  2666  2552  2327  1989  1589  1185  799  434  121  -106  -256  -356  -435  -518  -605  -674  -712  -734  -756  -777  -791  -794  -792  -800  -828  -867  -900  -913  -909  -891  -862  -825  -791  -764  -741  -705  -638  -555  -493  -464  -450  -434  -415  -402  -398  -399  -400  -398  -384  -352  -306  -247  -178  -125  -109  -115  -125  -142  -192  -301  -439  -538  -568  -558  -543  -550  -598  -685  -785  -875  -955  -1020  -1055  -1062  -1055  -1052  -1066  -1101  -1144  -1176  -1185  -1165  -1101  -976  -802  -632  -508  -434  -391  -369  -363  -365  -355  -317  -253  -184  -122  -57  12  78  127  159  177  187  195  197  173  101  0  -85  -135  -160  -172  -174  -171  -171  -179  -201  -238  -282  -325  -368  -412  -453  -479  -488  -486  -479  -452  -364  -173  134  577  1156  1793  2377  2812  2986  2825  2354  1637  735  -263  -1247  -2066  -2564  -2644  -2328  -1793  -1283  -944  -773  -697  -643  -570  -480  -398  -341  -301  -259  -209  -159  -119  -83  -39  18  76  126  177  244  319  379  407  424  459  536  655  785  890  968  1039  1115  1206  1312  1416  1509  1625  1803  2036  2280  2487  2628  2707  2748  2774  2794  2804  2793  2746  2657  2514  2281  1941  1561  1219  925  663  457  328  255  193  118  34  -44  -119  -194  -267  -337  -403  -466  -522  -572  -619  -666  -717  -764  -792  -790  -759  -714  -677  -662  -680  -740  -835  -928  -998  -1049  -1088  -1111  -1118  -1107  -1076  -1028  -985  -967  -966  -963  -954  -944  -931  -910  -878  -845  -817  -796  -785  -779  -763  -725  -674  -636  -638  -683  -749  -800  -822  -822  -812  -795  -780  -769  -762  -754  -740  -723  -705  -687  -670  -668  -693  -734  -771  -792  -799  -795  -776  -739  -689  -642  -607  -582  -564  -554  -552  -556  -559  -553  -527  -473  -405  -357  -335  -313  -268  -201  -132  -81  -55  -46  -58  -133  -302  -513  -657  -680  -612  -515  -443  -413  -408  -410  -403  -377  -337  -299  -270  -254  -250  -247  -240  -244  -284  -322  -215  175  852  1698  2534  3160  3410  3225  2690  1947  1092  192  -675  -1402  -1865  -1970  -1727  -1294  -881  -580  -374  -250  -209  -220  -237  -224  -161  -69  8  43  46  39  32  32  47  87  142  193  235  282  350  438  524  589  648  737  867  1008  1128  1227  1318  1407  1492  1594  1737  1903  2049  2189  2370  2576  2740  2823  2843  2839  2828  2801  2727  2583  2382  2158  1933  1713  1487  1222  914  599  319  107  -16  -82  -157  -280  -420  -527  -591  -646  -725  -829  -926  -985  -1007  -1019  -1035  -1047  -1048  -1032  -994  -955  -927  -906  -884  -859  -840  -839  -855  -872  -882  -883  -872  -842  -801  -767  -749  -736  -715  -679  -635  -602  -585  -577  -566  -546  -517  -490  -473  -468  -471  -480  -494  -519  -565  -625  -678  -708  -714  -704  -690  -675  -635  -549  -434  -340  -306  -327  -369  -403  -417  -409  -369  -298  -223  -178  -179  -226  -301  -370  -404  -410  -406  -404  -400  -381  -335  -276  -235  -222  -223  -223  -223  -237  -278  -342  -400  -426  -417  -391  -362  -330  -291  -239  -170  -96  -42  -16  -6  0  -2  -45  -154  -300  -413  -460  -466  -466  -473  -486  -496  -501  -503  -504  -498  -472  -428  -385  -360  -349  -353  -396  -479  -528  -426  -130  326  891  1525  2196  2847  3344  3513  3269  2671  1836  902  0  -795  -1413  -1775  -1875  -1747  -1425  -1025  -710  -531  -433  -377  -350  -334  -298  -221  -116  -15  63  118  159  203  266  352  452  543  605  647  702  780  862  931  985  1033  1097  1210  1371  1531  1652  1730  1785  1848  1947  2100  2305  2538  2755  2912  3011  3073  3109  3118  3098  3042  2962  2862  2711  2492  2213  1863  1473  1121  823  536  258  10  -218  -448  -663  -830  -937  -1000  -1065  -1157  -1253  -1315  -1336  -1337  -1330  -1304  -1252  -1190  -1143  -1120  -1114  -1117  -1125  -1132  -1133  -1127  -1116  -1099  -1072  -1046  -1037  -1040  -1037  -1028  -1015  -989  -946  -895  -852  -826  -818  -819  -824  -823  -814  -805  -809  -835  -867  -891  -902  -897  -864  -791  -681  -566  -479  -437  -433  -454  -503  -569  -632  -675  -698  -714  -731  -751  -764  -771  -775  -778  -763  -709  -626  -551  -514  -509  -505  -473  -398  -304  -235  -207  -205  -210  -210  -206  -200  -195  -196  -204  -216  -225  -219  -184  -122  -57  -10  19  40  49  30  -35  -140  -247  -327  -377  -404  -422  -438  -458  -480  -500  -514  -520  -520  -512  -502  -496  -497  -502  -508  -514  -522  -535  -541  -494  -327  3  529  1228  1974  2591  2962  3001  2675  2068  1314  499  -316  -1045  -1609  -1964  -2063  -1893  -1541  -1147  -818  -612  -525  -500  -469  -406  -332  -271  -219  -161  -99  -45  2  44  75  96  127  182  257  325  366  375  375  410  508  639  745  826  928  1071  1223  1347  1462  1609  1795  1989  2184  2389  2584  2733  2830  2894  2940  2970  2981  2979  2969  2940  2859  2699  2463  2183  1906  1628  1291  908  563  289  73  -88  -211  -316  -401  -467  -528  -588  -630  -648  -651  -651  -651  -649  -647  -656  -686  -727  -758  -769  -763  -759  -777  -806  -818  -809  -793  -796  -820  -845  -846  -822  -785  -754  -732  -709  -684  -664  -652  -641  -627  -610  -593  -582  -576  -571  -562  -547  -539  -554  -600  -671  -750  -812  -842  -850  -852  -856  -853  -832  -802  -778  -762  -746  -724  -702  -686  -671  -650  -618  -584  -557  -536  -512  -484  -461  -454  -467  -502  -545  -570  -563  -529  -489  -464  -454  -442  -415  -375  -320  -246  -159  -78  -22  11  37  63  86  100  96  47  -62  -201  -316  -381  -403  -404  -398  -393  -390  -393  -411  -444  -480  -501  -506  -505  -503  -501  -502  -518  -528  -470  -309  -36  378  936  1557  2141  2597  2820  2719  2282  1607  837  51  -711  -1394  -1938  -2253  -2241  -1930  -1483  -1063  -773  -640  -605  -585  -536  -468  -412  -379  -349  -285  -184  -77  4  54  72  74  78  101  149  209  275  346  413  463  482  481  506  605  776  955  1094  1198  1300  1419  1562  1737  1955  2199  2423  2596  2738  2882  3022  3117  3151  3140  3092  3004  2875  2700  2461  2152  1799  1440  1107  803  520  270  53  -145  -308  -399  -428  -442  -467  -507  -557  -615  -672  -710  -723  -720  -717  -722  -738  -759  -784  -818  -853  -872  -868  -844  -813  -783  -761  -745  -729  -720  -723  -731  -732  -723  -705  -675  -622  -536  -438  -361  -322  -310  -310  -317  -326  -329  -313  -268  -205  -154  -137  -152  -187  -236  -292  -346  -394  -429  -445  -464  -504  -551  -588  -610  -617  -604  -571  -531  -510  -522  -550  -575  -594  -607  -613  -613  -609  -600  -586  -564  -544  -546  -582  -645  -712  -756  -768  -761  -750  -733  -696  -645  -602  -580  -575  -577  -579  -581  -589  -606  -629  -650  -660  -646  -584  -473  -356  -277  -247  -247  -255  -260  -262  -265  -273  -305  -385  -507  -617  -660  -628  -567  -533  -543  -572  -597  -616  -623  -601  -554  -505  -470  -460  -475  -509  -551  -580  -542  -358  12  556  1242  1984  2634  3068  3201  2976  2422  1655  785  -120  -976  -1684  -2147  -2270  -2039  -1597  -1147  -822  -645  -554  -486  -423  -367  -311  -242  -153  -45  60  138  180  200  212  227  255  304  370  439  488  507  506  493  492  537  641  783  926  1040  1138  1249  1374  1488  1607  1772  1990  2233  2472  2675  2818  2910  2976  3030  3079  3127  3148  3107  2986  2810  2616  2408  2160  1868  1550  1219  884  561  268  27  -164  -327  -463  -557  -613  -644  -665  -676  -679  -680  -693  -715  -721  -706  -694  -697  -709  -725  -740  -748  -748  -740  -730  -724  -723  -720  -705  -670  -627  -598  -597  -609  -618  -617  -612  -609  -601  -570  -508  -438  -385  -354  -337  -332  -337  -348  -361  -370  -381  -403  -433  -455  -463  -461  -458  -455  -454  -459  -480  -517  -557  -588  -608  -621  -634  -657  -688  -714  -729  -735  -731  -720  -712  -720  -746  -776  -800  -814  -813  -797  -772  -742  -707  -641  -523  -384  -289  -260  -267  -278  -284  -285  -282  -267  -236  -197  -175  -182  -206  -233  -267  -311  -356  -394  -418  -424  -412  -375  -313  -235  -157  -89  -40  -14  -6  -15  -38  -77  -141  -225  -313  -389  -451  -500  -549  -598  -630  -636  -625  -613  -608  -618  -647  -684  -701  -681  -629  -566  -495  -397  -261  -69  262  842  1656  2547  3310  3750  3727  3234  2417  1451  459  -463  -1237  -1806  -2093  -2040  -1723  -1313  -950  -699  -563  -483  -400  -307  -242  -220  -217  -206  -181  -156  -144  -145  -145  -125  -75  -6  62  121  168  198  221  261  353  507  680  817  920  1015  1113  1214  1332  1490  1696  1935  2170  2355  2477  2565  2650  2750  2862  2966  3041  3081  3089  3051  2952  2808  2646  2459  2208  1878  1487  1094  782  588  453  298  91  -131  -305  -400  -439  -455  -469  -497  -558  -648  -738  -804  -844  -866  -880  -889  -894  -896  -889  -862  -821  -794  -798  -818  -834  -832  -816  -795  -769  -734  -691  -641  -581  -526  -487  -464  -450  -448  -467  -515  -574  -605  -590  -547  -506  -468  -421  -367  -330  -334  -385  -459  -517  -543  -546  -544  -545  -553  -568  -591  -616  -641  -659  -665  -645  -597  -541  -508  -500  -504  -511  -515  -520  -527  -536  -543  -543  -530  -504  -470  -440  -421  -409  -397  -382  -370  -365  -373  -396  -427  -450  -458  -457  -453  -447  -440  -442  -458  -487  -516  -538  -553  -559  -535  -458  -333  -194  -74  12  67  103  138  175  198  189  134  22  -133  -283  -387  -444  -470  -480  -483  -489  -498  -503  -504  -506  -518  -548  -590  -632  -656  -661  -654  -632  -583  -504  -398  -207  182  815  1596  2351  2882  3030  2773  2216  1483  662  -174  -979  -1701  -2237  -2471  -2385  -2081  -1698  -1335  -1046  -843  -712  -635  -591  -550  -496  -429  -355  -285  -230  -195  -171  -149  -126  -104  -86  -63  -21  48  140  227  296  369  453  521  562  603  680  796  921  1039  1162  1308  1495  1713  1922  2105  2285  2455  2584  2671  2741  2804  2846  2852  2825  2789  2750  2663  2471  2191  1888  1606  1332  1044  759  503  275  61  -125  -252  -315  -338  -354  -383  -434  -515  -621  -722  -792  -831  -853  -863  -856  -831  -797  -771  -764  -769  -779  -785  -787  -786  -783  -780  -776  -772  -770  -778  -801  -833  -859  -872  -874  -862  -824  -761  -698  -664  -664  -684  -710  -728  -734  -732  -728  -722  -710  -693  -671  -641  -603  -561  -523  -500  -493  -494  -496  -499  -506  -514  -514  -501  -483  -474  -477  -483  -484  -476  -456  -422  -382  -348  -325  -315  -326  -367  -429  -483  -509  -512  -507  -495  -475  -451  -435  -425  -404  -363  -310  -257  -204  -158  -130  -124  -138  -172  -221  -274  -315  -337  -349  -366  -402  -462  -526  -569  -583  -582  -578  -572  -559  -540  -519  -492  -460  -428  -408  -399  -370  -271  -73  243  727  1368  2050  2653  3089  3233  3000  2430  1614  664  -266  -1052  -1634  -1969  -2031  -1852  -1507  -1090  -706  -428  -266  -186  -144  -99  -31  42  88  99  102  124  170  229  279  307  324  353  397  445  482  504  511  514  544  628  762  911  1039  1122  1172  1221  1296  1411  1581  1813  2073  2317  2533  2729  2885  2979  3020  3031  3033  3031  3018  2988  2922  2803  2629  2407  2137  1828  1504  1180  870  593  352  126  -86  -247  -350  -429  -495  -536  -566  -615  -690  -759  -796  -801  -779  -728  -663  -616  -606  -631  -675  -720  -750  -761  -756  -745  -735  -730  -730  -738  -760  -790  -815  -830  -836  -836  -825  -794  -746  -707  -691  -687  -683  -679  -679  -674  -642  -558  -446  -364  -333  -333  -343  -366  -409  -464  -511  -550  -585  -611  -621  -622  -621  -621  -622  -614  -592  -553  -508  -483  -493  -527  -572  -618  -649  -660  -656  -642  -623  -606  -597  -593  -593  -593  -590  -586  -585  -589  -595  -593  -582  -566  -552  -536  -518  -504  -501  -505  -507  -506  -505  -503  -503  -504  -507  -513  -517  -508  -476  -432  -400  -391  -397  -405  -411  -409  -388  -341  -282  -235  -210  -205  -220  -249  -281  -300  -303  -296  -286  -279  -270  -252  -227  -204  -176  -131  -68  -5  47  88  116  143  189  251  301  322  311  266  186  86  -9  -86  -146  -191  -215  -215  -203  -191  -184  -179  -172  -166  -175  -213  -269  -312  -314  -261  -154  0  236  637  1231  1924  2576  3076  3283  3079  2511  1738  863  -50  -923  -1675  -2192  -2340  -2098  -1625  -1157  -859  -742  -706  -670  -626  -590  -564  -537  -501  -450  -398  -369  -358  -323  -232  -109  -11  35  44  44  60  110  194  299  420  550  660  739  825  962  1142  1313  1451  1556  1621  1648  1674  1762  1944  2195  2453  2662  2808  2902  2964  3005  3028  3037  3025  2972  2856  2677  2457  2200  1893  1525  1126  770  517  350  217  93  -7  -75  -139  -232  -345  -433  -481  -513  -541  -553  -541  -516  -495  -486  -483  -473  -444  -400  -366  -366  -396  -427  -443  -448  -447  -440  -422  -399  -383  -378  -379  -378  -370  -357  -346  -339  -331  -317  -297  -275  -252  -228  -197  -164  -161  -217  -322  -426  -489  -513  -520  -522  -522  -522  -523  -537  -574  -627  -675  -703  -710  -708  -707  -711  -716  -723  -732  -748  -768  -782  -786  -785  -784  -785  -791  -807  -833  -864  -885  -892  -896  -905  -924  -948  -969  -975  -963  -938  -899  -847  -796  -751  -699  -635  -572  -529  -507  -491  -465  -440  -444  -480  -515  -521  -490  -441  -403  -389  -391  -396  -401  -405  -408  -409  -399  -372  -336  -305  -277  -233  -169  -91  -10  58  98  99  47  -76  -254  -423  -532  -583  -603  -609  -594  -554  -509  -476  -459  -455  -470  -500  -537  -564  -582  -604  -624  -627  -606  -545  -416  -189  202  819  1628  2493  3222  3621  3565  3073  2304  1424  516  -373  -1169  -1769  -2071  -2014  -1676  -1267  -940  -710  -540  -411  -310  -224  -150  -98  -73  -69  -68  -55  -24  17  55  80  101  134  183  239  303  380  462  531  575  601  625  669  751  860  960  1049  1154  1277  1387  1480  1606  1821  2129  2478  2791  2995  3079  3090  3069  3020  2950  2885  2842  2800  2718  2566  2340  2047  1703  1365  1098  905  732  534  308  63  -186  -412  -589  -718  -805  -849  -866  -883  -916  -956  -993  -1020  -1037  -1046  -1050  -1052  -1053  -1058  -1073  -1093  -1111  -1121  -1128  -1135  -1139  -1141  -1146  -1150  -1128  -1050  -919  -792  -718  -698  -716  -766  -834  -887  -907  -910  -918  -941  -977  -1010  -1027  -1027  -1034  -1075  -1156  -1249  -1312  -1332  -1309  -1249  -1167  -1094  -1051  -1038  -1042  -1050  -1058  -1061  -1058  -1053  -1044  -1024  -978  -901  -813  -741  -695  -669  -640  -577  -468  -341  -238  -179  -155  -153  -158  -163  -162  -146  -106  -41  28  82  117  145  174  203  227  237  228  199  169  156  157  161  167  184  228  305  389  449  487  536  597  644  660  651  627  589  548  517  486  439  374  309  258  217  184  159  147  141  138  137  141  148  152  163  215  355  642  1122  1781  2528  3241  3802  4098  4022  3538  2748  1789  757  -247  -1117  -1768  -2123  -2123  -1813  -1342  -865  -499  -296  -206  -140  -50  53  137  201  268  339  387  392  364  329  313  318  330  341  348  350  351  350  358  400  508  679  891  1110  1316  1507  1667  1759  1784  1785  1798  1826  1864  1917  1996  2104  2238  2389  2549  2698  2805  2845  2824  2762  2666  2518  2292  1976  1583  1144  715  358  89  -122  -329  -573  -838  -1055  -1192  -1270  -1308  -1319  -1318  -1313  -1305  -1292  -1278  -1266  -1257  -1259  -1282  -1322  -1354  -1366  -1369  -1380  -1404  -1433  -1455  -1465  -1460  -1441  -1417  -1400  -1390  -1379  -1351  -1297  -1232  -1183  -1162  -1145  -1103  -1028  -944  -882  -859  -868  -896  -928  -952  -963  -964  -962  -957  -950  -942  -936  -935  -934  -932  -928  -931  -944  -962  -975  -980  -982  -985  -993  -1001  -1005  -1002  -996  -993  -979  -922  -799  -649  -543  -505  -503  -501  -484  -458  -440  -435  -436  -435  -427  -416  -411  -416  -426  -441  -465  -505  -550  -589  -618  -634  -636  -621  -585  -535  -479  -420  -360  -321  -308  -311  -316  -318  -309  -265  -158  -7  124  203  252  298  340  367  378  373  353  321  290  266  244  214  164  83  -24  -138  -229  -281  -304  -314  -324  -337  -343  -327  -269  -168  -59  25  119  294  606  1080  1710  2435  3134  3646  3781  3425  2653  1639  549  -448  -1221  -1721  -1941  -1868  -1575  -1191  -819  -536  -373  -270  -159  -31  85  169  214  225  206  163  106  54  22  10  8  17  54  129  235  362  505  644  754  826  857  861  857  879  953  1074  1196  1294  1398  1547  1731  1925  2122  2297  2422  2508  2596  2712  2850  2979  3065  3100  3083  3014  2902  2745  2490  2114  1700  1344  1061  831  630  415  186  -12  -178  -354  -536  -669  -730  -750  -764  -784  -807  -835  -868  -889  -883  -843  -787  -746  -732  -740  -761  -789  -822  -853  -874  -880  -878  -875  -875  -870  -831  -733  -593  -470  -410  -412  -451  -497  -525  -535  -555  -605  -671  -721  -739  -739  -725  -693  -650  -614  -596  -593  -595  -599  -608  -620  -628  -625  -609  -581  -551  -532  -532  -550  -575  -593  -600  -593  -572  -543  -511  -471  -416  -358  -319  -307  -310  -315  -317  -318  -324  -333  -339  -341  -354  -392  -440  -472  -483  -483  -486  -491  -497  -500  -510  -534  -567  -590  -598  -598  -597  -597  -589  -563  -524  -484  -446  -404  -361  -329  -316  -317  -325  -341  -356  -356  -342  -335  -338  -343  -347  -348  -339  -310  -259  -199  -143  -104  -85  -79  -77  -71  -67  -85  -151  -256  -358  -434  -502  -574  -629  -650  -635  -594  -540  -491  -454  -427  -406  -392  -385  -384  -381  -372  -351  -308  -193  100  657  1408  2178  2822  3237  3322  3052  2494  1720  802  -159  -1047  -1744  -2147  -2193  -1918  -1461  -978  -593  -376  -309  -306  -301  -281  -250  -199  -125  -55  -9  20  54  89  112  120  130  152  183  213  255  335  444  533  585  631  701  786  863  919  969  1036  1156  1348  1577  1788  1971  2135  2285  2434  2573  2687  2796  2916  3024  3088  3108  3099  3063  2998  2882  2678  2382  2027  1651  1292  989  743  514  276  43  -149  -291  -403  -500  -583  -642  -676  -696  -710  -719  -721  -705  -665  -621  -605  -617  -641  -669  -701  -723  -727  -717  -702  -681  -643  -593  -543  -505  -485  -478  -471  -455  -430  -398  -360  -317  -275  -245  -230  -233  -257  -289  -310  -318  -326  -340  -355  -370  -393  -425  -458  -484  -506  -534  -572  -614  -641  -650  -645  -632  -612  -586  -553  -515  -484  -465  -455  -449  -445  -441  -437  -429  -416  -401  -391  -388  -389  -398  -421  -471  -549  -633  -687  -705  -700  -681  -645  -600  -561  -547  -558  -578  -594  -601  -603  -604  -603  -603  -601  -594  -588  -598  -628  -659  -671  -665  -647  -629  -617  -614  -622  -626  -607  -573  -543  -516  -479  -420  -337  -243  -168  -139  -173  -274  -416  -548  -635  -674  -685  -687  -697  -726  -770  -805  -810  -784  -745  -715  -700  -687  -662  -631  -610  -605  -577  -463  -276  -106  75  433  1042  1822  2624  3233  3427  3131  2460  1588  635  -307  -1139  -1791  -2223  -2352  -2120  -1636  -1128  -741  -490  -344  -268  -230  -206  -174  -119  -47  22  83  136  178  205  217  226  242  263  276  277  271  266  275  311  384  482  582  673  764  879  1035  1215  1391  1549  1695  1838  1994  2177  2369  2547  2710  2857  2972  3048  3088  3101  3103  3089  3039  2932  2764  2561  2352  2125  1841  1500  1134  766  435  179  -4  -147  -263  -348  -403  -441  -475  -507  -534  -554  -577  -615  -661  -695  -711  -722  -742  -775  -812  -837  -845  -828  -779  -702  -628  -585  -580  -607  -657  -722  -789  -842  -866  -854  -803  -729  -662  -623  -610  -607  -589  -541  -478  -426  -403  -421  -482  -564  -625  -647  -643  -635  -631  -629  -622  -602  -564  -522  -501  -506  -515  -519  -538  -573  -598  -595  -572  -543  -517  -485  -445  -418  -430  -491  -576  -638  -656  -640  -608  -575  -553  -541  -537  -546  -573  -610  -636  -634  -598  -544  -491  -443  -390  -340  -315  -328  -369  -425  -504  -606  -703  -773  -815  -835  -845  -858  -876  -873  -824  -743  -678  -651  -650  -656  -660  -665  -673  -679  -676  -651  -609  -558  -447  -155  372  1072  1796  2380  2723  2785  2543  2023  1303  458  -439  -1272  -1914  -2306  -2422  -2247  -1847  -1375  -971  -704  -573  -527  -508  -480  -428  -366  -318  -289  -256  -198  -132  -82  -44  -2  50  124  226  355  492  610  703  801  933  1100  1266  1379  1424  1429  1428  1453  1532  1684  1879  2043  2149  2238  2347  2466  2587  2726  2874  2993  3071  3125  3160  3171  3136  3024  2828  2565  2226  1805  1363  970  634  349  130  -28  -149  -228  -259  -268  -307  -418  -571  -683  -718  -705  -684  -671  -675  -694  -722  -747  -767  -781  -789  -791  -790  -789  -789  -789  -788  -776  -738  -676  -617  -579  -553  -526  -510  -517  -530  -533  -519  -486  -446  -418  -407  -406  -404  -398  -392  -390  -388  -387  -386  -388  -386  -374  -351  -331  -327  -345  -376  -408  -431  -445  -456  -463  -461  -443  -421  -418  -433  -449  -455  -454  -453  -459  -470  -480  -489  -503  -513  -517  -519  -517  -507  -493  -483  -482  -495  -527  -567  -598  -609  -596  -558  -505  -458  -428  -413  -408  -405  -398  -388  -383  -388  -398  -396  -372  -335  -298  -269  -242  -207  -170  -153  -175  -227  -292  -360  -426  -483  -530  -578  -640  -701  -738  -747  -740  -731  -725  -719  -709  -699  -698  -706  -706  -682  -635  -580  -515  -386  -123  302  873  1556  2279  2899  3229  3141  2653  1899  1025  131  -712  -1440  -1987  -2266  -2214  -1889  -1451  -1030  -702  -512  -441  -425  -402  -354  -294  -245  -213  -188  -169  -150  -118  -61  19  101  152  165  165  174  205  266  363  473  567  662  788  927  1024  1069  1108  1187  1308  1444  1582  1740  1928  2132  2323  2476  2600  2720  2839  2943  3014  3049  3060  3062  3041  2954  2747  2420  2043  1686  1378  1112  852  568  286  60  -91  -187  -266  -347  -426  -497  -557  -601  -625  -637  -652  -690  -743  -786  -801  -794  -770  -725  -661  -599  -564  -565  -593  -632  -659  -670  -670  -668  -667  -663  -651  -629  -597  -562  -532  -514  -507  -506  -507  -513  -528  -554  -584  -605  -605  -581  -539  -492  -453  -427  -409  -400  -401  -418  -447  -478  -498  -502  -496  -487  -480  -478  -479  -484  -491  -488  -463  -425  -396  -386  -386  -391  -403  -426  -453  -477  -494  -514  -546  -590  -630  -651  -652  -640  -630  -633  -645  -658  -671  -684  -692  -681  -632  -551  -469  -409  -374  -356  -352  -358  -364  -363  -353  -337  -309  -249  -147  -30  51  86  89  68  18  -56  -135  -201  -245  -267  -278  -293  -314  -336  -371  -435  -512  -565  -579  -566  -544  -524  -513  -512  -516  -523  -528  -519  -473  -358  -115  328  981  1740  2480  3084  3404  3335  2903  2195  1295  291  -724  -1638  -2303  -2602  -2520  -2156  -1681  -1275  -1026  -908  -846  -790  -721  -643  -573  -524  -498  -484  -464  -431  -390  -344  -296  -239  -163  -75  -7  23  32  47  91  186  347  537  681  749  784  841  950  1098  1270  1466  1681  1884  2059  2234  2418  2583  2725  2873  3042  3207  3327  3378  3381  3363  3319  3208  2988  2671  2316  1957  1585  1217  895  637  441  292  144  -20  -158  -241  -292  -342  -396  -438  -465  -480  -486  -488  -487  -483  -480  -485  -511  -558  -607  -636  -643  -641  -636  -629  -616  -600  -586  -575  -564  -555  -554  -568  -595  -625  -650  -659  -638  -579  -500  -443  -436  -469  -518  -553  -557  -531  -488  -448  -428  -426  -432  -440  -446  -448  -443  -429  -410  -397  -404  -436  -480  -511  -521  -520  -521  -531  -547  -559  -565  -568  -575  -581  -578  -557  -514  -464  -430  -420  -421  -425  -433  -454  -493  -532  -550  -545  -534  -528  -526  -525  -521  -520  -530  -563  -623  -678  -688  -647  -594  -556  -533  -518  -502  -486  -479  -498  -556  -637  -702  -725  -712  -682  -654  -634  -609  -551  -457  -350  -260  -203  -179  -187  -229  -296  -366  -424  -460  -481  -502  -527  -545  -549  -546  -546  -554  -570  -592  -614  -634  -651  -677  -714  -757  -802  -836  -814  -661  -352  55  530  1110  1807  2541  3159  3470  3327  2751  1924  1014  106  -728  -1416  -1908  -2140  -2062  -1745  -1346  -966  -660  -467  -376  -331  -287  -230  -153  -62  17  71  113  153  180  188  186  184  189  207  245  309  384  445  475  492  531  629  806  1025  1215  1331  1389  1426  1464  1519  1615  1781  2004  2237  2449  2628  2756  2838  2926  3064  3221  3333  3379  3372  3299  3117  2829  2498  2179  1879  1590  1295  968  616  278  0  -204  -355  -465  -531  -561  -577  -599  -643  -706  -767  -800  -806  -801  -809  -839  -879  -898  -887  -873  -878  -895  -916  -947  -987  -1021  -1044  -1060  -1065  -1054  -1034  -1017  -1006  -995  -981  -965  -952  -949  -962  -980  -992  -987  -955  -895  -832  -792  -777  -768  -746  -712  -680  -664  -659  -657  -662  -684  -726  -773  -804  -814  -794  -738  -665  -612  -595  -598  -603  -600  -587  -565  -540  -515  -494  -472  -444  -414  -394  -391  -405  -425  -443  -458  -475  -487  -466  -384  -260  -148  -79  -34  6  37  35  -15  -108  -214  -308  -386  -448  -493  -526  -545  -549  -548  -548  -555  -565  -573  -576  -574  -567  -555  -548  -556  -578  -578  -489  -285  -6  336  788  1352  1951  2480  2824  2862  2539  1922  1127  248  -620  -1391  -1995  -2381  -2500  -2348  -1982  -1500  -1014  -616  -351  -217  -167  -147  -133  -128  -125  -110  -87  -63  -33  3  44  75  93  113  150  205  259  307  369  476  625  772  872  931  989  1079  1212  1369  1513  1626  1736  1871  2039  2239  2464  2679  2850  2973  3059  3109  3127  3122  3084  3005  2903  2796  2645  2388  2021  1592  1173  845  637  502  373  213  30  -126  -216  -253  -270  -280  -280  -283  -310  -368  -436  -480  -491  -484  -478  -488  -523  -567  -586  -555  -487  -413  -353  -314  -295  -285  -273  -250  -213  -174  -149  -144  -152  -166  -181  -194  -207  -215  -211  -186  -149  -120  -107  -93  -54  16  101  171  197  176  133  100  86  74  56  37  18  -12  -59  -105  -134  -144  -139  -117  -77  -42  -38  -63  -90  -112  -140  -188  -256  -335  -414  -493  -589  -710  -836  -930  -972  -980  -995  -1031  -1070  -1093  -1100  -1086  -1046  -996  -953  -924  -912  -923  -950  -982  -1009  -1025  -1033  -1040  -1049  -1057  -1065  -1068  -1032  -909  -704  -503  -387  -351  -350  -364  -403  -486  -610  -740  -834  -877  -886  -885  -884  -876  -849  -801  -751  -722  -736  -805  -914  -1024  -1114  -1183  -1227  -1258  -1313  -1399  -1439  -1331  -1027  -517  169  939  1675  2257  2553  2470  2020  1289  385  -546  -1358  -1983  -2404  -2591  -2543  -2309  -1939  -1487  -1038  -672  -429  -281  -158  -34  71  156  239  312  346  314  211  62  -84  -184  -230  -249  -260  -266  -262  -259  -270  -291  -307  -301  -260  -163  14  277  562  784  920  1015  1102  1176  1241  1319  1435  1613  1878  2225  2600  2940  3198  3346  3398  3395  3371  3335  3268  3123  2855  2469  2032  1634  1327  1090  869  645  437  270  169  125  95  43  -27  -85  -103  -87  -71  -78  -98  -116  -131  -149  -171  -205  -255  -305  -336  -347  -353  -366  -385  -392  -377  -353  -334  -320  -309  -294  -261  -196  -101  1  88  144  166  164  145  113  76  50  40  42  55  83  123  164  205  238  257  264  263  236  165  70  0  -21  -14  0  11  11  -13  -70  -144  -203  -229  -226  -213  -208  -222  -251  -280  -308  -345  -395  -452  -501  -529  -534  -527  -517  -503  -487  -477  -477  -484  -492  -498  -504  -517  -544  -581  -611  -615  -597  -576  -564  -565  -588  -640  -704  -750  -761  -745  -711  -666  -611  -553  -504  -469  -443  -426  -420  -427  -447  -479  -535  -642  -796  -958  -1098  -1207  -1276  -1314  -1350  -1405  -1467  -1508  -1520  -1517  -1509  -1492  -1453  -1388  -1315  -1257  -1221  -1169  -1026  -756  -412  -38  415  1028  1800  2620  3265  3480  3178  2496  1612  642  -307  -1154  -1829  -2236  -2301  -2067  -1684  -1303  -1001  -790  -653  -572  -536  -528  -527  -525  -520  -511  -504  -510  -542  -596  -656  -696  -709  -688  -611  -465  -274  -76  122  314  463  550  595  641  729  866  1011  1131  1228  1312  1384  1464  1601  1819  2091  2379  2659  2917  3151  3348  3478  3531  3531  3501  3440  3334  3162  2919  2637  2341  2035  1727  1434  1169  941  735  529  329  161  26  -92  -191  -266  -332  -405  -480  -538  -570  -574  -553  -513  -478  -474  -516  -590  -662  -706  -722  -727  -733  -722  -687  -653  -638  -635  -637  -645  -665  -694  -715  -709  -664  -591  -515  -454  -410  -385  -371  -352  -311  -245  -169  -107  -66  -39  -10  31  79  118  147  176  210  245  265  246  170  63  -20  -62  -78  -83  -71  -39  13  81  142  174  180  175  170  162  142  114  85  58  33  15  9  8  6  0  -17  -45  -79  -109  -127  -131  -120  -98  -73  -52  -41  -42  -48  -51  -39  13  123  265  381  423  388  319  263  209  103  -68  -248  -370  -422  -431  -437  -454  -470  -483  -516  -587  -674  -735  -755  -753  -746  -737  -730  -731  -738  -727  -634  -359  173  921  1707  2323  2621  2537  2113  1460  684  -140  -954  -1670  -2182  -2447  -2506  -2400  -2157  -1825  -1461  -1140  -925  -810  -740  -689  -656  -642  -643  -648  -636  -591  -517  -444  -391  -341  -274  -197  -134  -90  -55  -13  42  107  177  259  357  466  603  770  932  1060  1175  1300  1430  1574  1761  1998  2244  2452  2600  2702  2800  2922  3044  3114  3107  3022  2897  2786  2702  2587  2354  1961  1452  945  543  243  -41  -364  -699  -988  -1193  -1314  -1380  -1419  -1441  -1444  -1432  -1409  -1378  -1346  -1321  -1307  -1303  -1301  -1299  -1292  -1266  -1211  -1145  -1096  -1076  -1076  -1085  -1091  -1089  -1083  -1082  -1084  -1084  -1079  -1059  -1016  -958  -908  -880  -868  -848  -802  -724  -633  -553  -501  -476  -463  -448  -430  -412  -414  -441  -467  -476  -475  -473  -469  -459  -441  -424  -420  -434  -467  -510  -543  -555  -551  -533  -503  -468  -439  -415  -386  -339  -275  -212  -172  -157  -160  -170  -182  -192  -195  -188  -161  -100  -9  85  151  186  208  227  239  225  172  80  -28  -122  -186  -225  -249  -265  -277  -291  -310  -331  -351  -357  -344  -340  -372  -433  -485  -515  -542  -574  -560  -432  -187  139  562  1100  1712  2324  2806  2957  2666  2005  1114  132  -791  -1564  -2150  -2501  -2557  -2347  -1970  -1524  -1122  -853  -714  -649  -616  -594  -572  -545  -502  -427  -333  -258  -221  -206  -196  -179  -149  -105  -52  18  124  265  426  581  711  822  928  1016  1072  1106  1146  1217  1311  1410  1514  1639  1803  2009  2225  2398  2520  2615  2688  2738  2776  2812  2839  2844  2828  2805  2775  2687  2473  2145  1789  1462  1165  899  676  514  418  371  333  262  144  -1  -147  -274  -365  -431  -506  -595  -660  -680  -670  -652  -637  -634  -655  -714  -806  -918  -1033  -1130  -1191  -1217  -1223  -1218  -1201  -1163  -1106  -1052  -1019  -1005  -1005  -1015  -1039  -1069  -1083  -1069  -1035  -1000  -970  -936  -889  -833  -782  -752  -741  -733  -721  -705  -684  -657  -626  -594  -559  -524  -495  -466  -417  -338  -243  -164  -117  -94  -88  -90  -94  -98  -102  -105  -92  -48  4  24  3  -27  -45  -53  -54  -51  -39  -17  7  24  23  -8  -73  -155  -228  -277  -317  -370  -439  -500  -533  -543  -545  -546  -548  -548  -546  -547  -561  -596  -643  -683  -707  -729  -745  -691  -488  -141  297  827  1456  2150  2835  3367  3533  3221  2519  1595  601  -321  -1091  -1694  -2091  -2210  -2049  -1694  -1283  -955  -782  -722  -680  -602  -499  -408  -343  -275  -174  -51  47  93  94  69  34  3  -10  10  89  208  310  360  375  396  454  554  679  807  917  995  1046  1098  1187  1324  1507  1731  1970  2198  2430  2670  2861  2963  3004  3029  3047  3050  3027  2971  2879  2734  2524  2254  1934  1582  1249  970  743  537  320  94  -97  -213  -263  -286  -303  -312  -299  -253  -194  -154  -140  -139  -136  -127  -118  -111  -106  -100  -90  -77  -64  -55  -62  -100  -170  -244  -290  -301  -294  -287  -289  -308  -347  -398  -455  -516  -575  -600  -569  -500  -423  -355  -299  -246  -189  -138  -116  -127  -145  -140  -107  -63  -28  -12  1  47  138  245  317  339  335  323  304  281  257  216  146  61  -6  -44  -60  -63  -61  -57  -54  -43  -21  -2  3  4  11  18  23  27  33  44  60  76  85  88  85  83  88  108  139  167  180  179  173  164  156  151  149  151  153  150  134  105  66  10  -65  -148  -218  -267  -302  -331  -375  -447  -535  -606  -646  -671  -708  -761  -808  -836  -853  -869  -868  -806  -648  -375  43  632  1353  2094  2708  3034  2929  2378  1538  605  -304  -1142  -1862  -2399  -2679  -2651  -2370  -1988  -1636  -1368  -1189  -1095  -1063  -1057  -1041  -1010  -988  -984  -980  -963  -941  -928  -934  -957  -979  -994  -1013  -1040  -1064  -1074  -1063  -1028  -976  -930  -899  -862  -787  -660  -507  -380  -312  -294  -287  -262  -210  -128  -3  169  353  493  577  630  666  668  590  392  98]
