reading_id,reading_time,wire_id,result_classification,heart_rate,heart_rate_alert,firmware_version,device_app_version,hardware_version,waveform_samples
0390d0a0-6263-11ed-8080-808080808080,Sat Nov 12 08:21:31 UTC 2022,a10163b41b39,NSR,84,NONE,20001.171.50,2.10.0,Charge 5,[50  223  418  616  791  925  1012  1068  1111  1149  1191  1235  1266  1283  1304  1336  1332  1168  765  259  -99  -236  -289  -399  -591  -794  -938  -1017  -1048  -1052  -1047  -1044  -1045  -1049  -1052  -1050  -1039  -1017  -992  -973  -967  -987  -1044  -1123  -1186  -1203  -1183  -1152  -1131  -1135  -1176  -1245  -1311  -1356  -1373  -1350  -1283  -1184  -1084  -1023  -1008  -1020  -1030  -1011  -938  -826  -721  -647  -594  -544  -514  -544  -639  -762  -875  -951  -980  -942  -790  -531  -274  -127  -93  -106  -120  -120  -108  -88  -57  -11  41  78  86  77  65  48  19  -26  -103  -241  -420  -560  -610  -573  -468  -337  -234  -173  -124  -61  18  78  104  236  594  1040  1419  1731  1978  2197  2449  2640  2566  2111  1327  363  -587  -1296  -1607  -1599  -1465  -1297  -1119  -944  -723  -433  -161  4  69  89  131  262  494  747  914  988  1043  1117  1189  1237  1274  1317  1381  1500  1686  1894  2072  2222  2387  2581  2789  2995  3167  3277  3332  3372  3436  3517  3584  3634  3696  3778  3864  3938  3986  3987  3916  3772  3603  3485  3438  3405  3314  3133  2872  2583  2347  2215  2161  2139  2118  2078  2006  1914  1847  1822  1826  1844  1874  1909  1936  1950  1958  1986  2048  2142  2261  2389  2509  2638  2806  2989  3132  3220  3277  3323  3367  3412  3477  3580  3713  3847  3962  4058  4149  4228  4275  4287  4285  4292  4322  4381  4461  4545  4610  4651  4683  4711  4722  4717  4735  4822  4939  4963  4852  4779  4972  5391  5647  5210  3687  1174  -1601  -3824  -5181  -5808  -6047  -6247  -6528  -6765  -6868  -6906  -6951  -7000  -7037  -7066  -7097  -7133  -7157  -7147  -7114  -7097  -7097  -7048  -6852  -6470  -5966  -5413  -4834  -4287  -3889  -3704  -3686  -3783  -4020  -4460  -5088  -5776  -6378  -6799  -7010  -7050  -6938  -6627  -6119  -5558  -5122  -4875  -4746  -4646  -4537  -4424  -4327  -4256  -4207  -4163  -4103  -3995  -3810  -3579  -3362  -3151  -2914  -2686  -2524  -2418  -2318  -2203  -2077  -1934  -1747  -1489  -1134  -711  -331  -88  43  143  260  403  551  675  766  841  907  951  970  971  950  895  795  658  510  379  267  147  -39  -305  -575  -754  -818  -807  -766  -696  -578  -432  -328  -297  -316  -356  -399  -431  -439  -425  -413  -432  -495  -579  -637  -652  -647  -649  -658  -650  -620  -598  -618  -673  -715  -700  -630  -532  -420  -312  -241  -229  -255  -292  -339  -414  -513  -596  -611  -564  -512  -481  -438  -349  -222  -90  21  98  166  277  425  546  614  652  676  683  677  670  650  588  498  419  369  344  339  346  365  401  449  488  507  511  499  467  419  373  347  338  332  328  365  499  763  1192  1809  2499  3034  3307  3356  3172  2724  2079  1315  476  -318  -932  -1303  -1422  -1312  -1083  -855  -649  -413  -126  172  419  567  626  651  679  713  746  772  790  801  807  809  805  798  796  812  848  922  1071  1283  1467  1556  1562  1529  1510  1591  1847  2231  2570  2744  2785  2779  2772  2777  2811  2885  2954  2931  2793  2615  2476  2382  2285  2137  1934  1706  1474  1231  966  692  471  344  291  249  170  60  -45  -146  -237  -295  -315  -323  -335  -353  -369  -389  -421  -451  -448  -413  -383  -388  -424  -454  -453  -425  -382  -333  -298  -298  -334  -383  -419  -431  -427  -419  -408  -391  -358  -310  -270  -252  -251  -245  -232  -233  -255  -283  -302  -310  -311  -309  -307  -306  -311  -327  -353  -370  -353  -287  -190  -118  -110  -180  -309  -438  -514  -539  -550  -568  -590  -611  -649  -724  -816  -855  -792  -655  -530  -479  -524  -643  -744  -709  -493  -102  471  1168  1826  2355  2740  2899  2741  2251  1466  481  -534  -1366  -1874  -2080  -2071  -1891  -1607  -1322  -1047  -763  -541  -459  -489  -533  -530  -488  -418  -312  -192  -108  -80  -93  -110  -82  23  179  313  384  404  402  397  414  477  594  740  875  986  1107  1275  1486  1705  1894  2046  2164  2242  2281  2303  2316  2304  2251  2181  2142  2135  2098  1946  1636  1203  741  344  54  -133  -249  -350  -502  -705  -889  -1004  -1060  -1078  -1068  -1055  -1061  -1074  -1085  -1104  -1134  -1170  -1205  -1229  -1240  -1242  -1242  -1234  -1205  -1141  -1058  -991  -957  -932  -887  -838  -835  -900  -1008  -1125  -1215  -1239  -1179  -1055  -904  -759  -649  -589  -564  -552  -544  -543  -546  -559  -583  -607  -616  -615  -615  -612  -598  -561  -488  -398  -339  -326  -343  -370  -395  -415  -435  -461  -499  -556  -619  -663  -679  -669  -636  -596  -590  -647  -738  -787  -735  -582  -407  -325  -347  -325  -113  309  907  1616  2345  2995  3441  3525  3130  2311  1300  336  -476  -1142  -1670  -2055  -2278  -2249  -1911  -1412  -958  -623  -400  -283  -243  -217  -156  -59  41  138  245  359  452  510  544  559  565  587  655  784  944  1083  1187  1292  1414  1544  1679  1819  1938  2011  2075  2214  2473  2788  3037  3163  3198  3198  3194  3194  3199  3202  3188  3136  3039  2905  2740  2544  2296  1972  1612  1290  1019  775  585  486  461  469  472  436  338  188  30  -86  -146  -178  -216  -261  -291  -295  -285  -274  -270  -271  -276  -279  -273  -249  -206  -162  -131  -113  -93  -60  -15  29  80  150  224  268  271  245  212  171  110  37  -20  -26  41  150  234  265  264  255  247  245  260  309  393  492  572  596  539  417  271  125  0  -73  -87  -72  -57  -49  -47  -47  -34  13  87  142  148  112  66  31  14  10  37  141  375  761  1277  1878  2521  3111  3519  3662  3490  2980  2223  1330  340  -662  -1512  -2059  -2219  -1980  -1487  -1021  -747  -608  -505  -417  -359  -327  -302  -271  -233  -184  -137  -117  -117  -114  -104  -98  -99  -103  -95  -60  5  84  156  208  262  347  457  558  630  693  791  939  1102  1224  1282  1295  1294  1308  1353  1423  1484  1484  1366  1110  794  533  372  259  99  -165  -527  -931  -1312  -1629  -1885  -2110  -2328  -2554  -2782  -2986  -3153  -3293  -3410  -3487  -3516  -3507  -3482  -3470  -3504  -3609  -3776  -3951  -4065  -4116  -4164  -4254  -4376  -4485  -4552  -4598  -4654  -4720  -4788  -4857  -4925  -4979  -5020  -5056  -5086  -5108  -5123  -5137  -5170  -5246  -5353  -5454  -5546  -5659  -5813  -5998  -6169  -6289  -6369  -6455  -6565  -6678  -6774  -6862  -6954  -7042  -7106  -7157  -7240  -7392  -7613  -7871  -8118  -8315  -8453  -8556  -8659  -8786  -8934  -9107  -9293  -9454  -9556  -9619  -9686  -9789  -9920  -10057  -10184  -10303  -10412  -10491  -10513  -10424  -10158  -9673  -8990  -8208  -7442  -6749  -6207  -5979  -6156  -6680  -7493  -8481  -9397  -10062  -10427  -10436  -10143  -9799  -9616  -9552  -9276  -8145  -5420  -814  5080  10894  15248  17643  18497  18563  18442  18374  18338  18239  18033  17761  17461  17137  16836  16637  16537  16433  16230  15942  15655  15420  15236  15097  14990  14897  14819  14745  14643  14489  14279  14037  13787  13556  13373  13231  13070  12811  12414  11933  11464  11032  10605  10148  9613  8999  8403  7898  7468  7079  6733  6423  6143  5907  5703  5464  5171  4893  4692  4541  4368  4144  3920  3741  3575  3348  3067  2835  2716  2667  2615  2525  2392  2232  2077  1975  1939  1931  1874  1699  1429  1187  1050  984  924  843  737  625  536  476  410  295  128  -29  -123  -159  -173  -191  -225  -289  -379  -469  -525  -541  -542  -548  -561  -593  -681  -847  -1052  -1228  -1348  -1416  -1451  -1476  -1510  -1559  -1622  -1699  -1773  -1827  -1866  -1914  -1978  -2051  -2125  -2205  -2278  -2274  -2136  -1889  -1573  -1170  -643  6  713  1343  1745  1770  1362  635  -257  -1221  -2183  -3083  -3830  -4281  -4333  -4010  -3496  -3026  -2729  -2595  -2543  -2502  -2454  -2405  -2367  -2346  -2341  -2339  -2327  -2280  -2172  -2023  -1900  -1829  -1791  -1756  -1706  -1626  -1511  -1375  -1247  -1130  -1014  -899  -786  -679  -582  -467  -286  -37  204  364  456  550  665  755  812  878  969  1040  1010  812  477  152  -49  -151  -250  -427  -717  -1073  -1385  -1582  -1680  -1732  -1775  -1822  -1879  -1964  -2076  -2183  -2270  -2354  -2410  -2390  -2295  -2175  -2086  -2047  -2044  -2060  -2088  -2118  -2140  -2149  -2136  -2082  -1980  -1864  -1785  -1769  -1788  -1796  -1769  -1717  -1673  -1647  -1626  -1599  -1569  -1537  -1497  -1451  -1411  -1389  -1381  -1378  -1373  -1370  -1367  -1360  -1346  -1330  -1321  -1315  -1300  -1264  -1196  -1092  -971  -874  -832  -843  -875  -896  -901  -913  -955  -1022  -1078  -1098  -1102  -1117  -1142  -1158  -1156  -1148  -1142  -1132  -1119  -1116  -1126  -1130  -1129  -1143  -1129  -985  -656  -172  397  1005  1673  2382  2983  3298  3177  2571  1612  521  -548  -1496  -2247  -2788  -3113  -3133  -2804  -2265  -1693  -1196  -859  -706  -660  -628  -570  -498  -431  -374  -319  -265  -215  -167  -97  23  200  381  492  526  546  615  743  885  1011  1134  1275  1417  1536  1639  1743  1863  2009  2173  2325  2436  2506  2549  2570  2574  2572  2566  2545  2492  2386  2204  1956  1678  1421  1216  1041  845  603  299  -22  -262  -370  -400  -418  -444  -476  -525  -613  -727  -821  -864  -867  -856  -853  -862  -870  -867  -861  -857  -847  -831  -816  -808  -805  -788  -745  -695  -678  -709  -760  -810  -863  -909  -916  -871  -790  -714  -672  -663  -669  -676  -674  -648  -586  -504  -447  -456  -539  -659  -751  -785  -775  -738  -678  -604  -534  -486  -467  -468  -480  -499  -536  -611  -731  -859  -946  -990  -1014  -1032  -1051  -1073  -1089  -1068  -982  -848  -731  -672  -661  -675  -718  -781  -780  -575  -88  639  1499  2314  2873  3058  2864  2345  1614  789  -90  -1001  -1854  -2542  -2961  -3041  -2842  -2504  -2120  -1754  -1473  -1302  -1203  -1125  -1047  -958  -854  -747  -658  -599  -568  -555  -545  -525  -494  -463  -443  -429  -408  -363  -284  -166  -32  88  186  285  414  558  674  752  829  966  1191  1435  1589  1624  1592  1559  1547  1544  1536  1522  1494  1444  1368  1263  1109  846  447  3  -347  -538  -600  -620  -680  -832  -1088  -1376  -1585  -1670  -1671  -1637  -1576  -1496  -1420  -1362  -1318  -1289  -1267  -1229  -1169  -1099  -1030  -974  -944  -936  -924  -884  -801  -676  -524  -365  -211  -76  12  41  33  31  55  102  166  238  302  355  394  402  375  335  296  252  200  173  210  317  458  598  717  805  869  929  986  1004  954  867  800  781  794  820  848  869  884  891  882  856  845  906  1055  1242  1393  1471  1482  1453  1434  1506  1729  2083  2535  3113  3846  4715  5613  6325  6632  6433  5787  4910  4043  3292  2677  2232  1954  1844  1968  2297  2699  3083  3396  3607  3751  3894  4054  4212  4344  4447  4546  4668  4818  4981  5131  5243  5311  5363  5435  5557  5728  5916  6076  6191  6279  6399  6612  6903  7217  7552  7906  8228  8488  8688  8854  9038  9264  9489  9666  9800  9915  10014  10089  10109  9862  8789  6361  2888  -554  -3137  -4681  -5397  -5725  -6051  -6433  -6736  -6878  -6913  -6951  -7068  -7245  -7402  -7487  -7512  -7504  -7475  -7424  -7360  -7293  -7227  -7166  -7116  -7070  -7011  -6931  -6845  -6775  -6725  -6656  -6531  -6374  -6225  -6086  -5944  -5816  -5715  -5620  -5498  -5356  -5227  -5110  -4973  -4807  -4642  -4515  -4439  -4401  -4382  -4371  -4357  -4319  -4212  -4010  -3763  -3565  -3441  -3346  -3249  -3173  -3125  -3064  -2928  -2701  -2459  -2309  -2280  -2312  -2338  -2332  -2300  -2260  -2221  -2183  -2142  -2091  -2006  -1880  -1742  -1632  -1569  -1540  -1515  -1487  -1469  -1437  -1319  -1063  -685  -209  391  1121  1913  2668  3228  3411  3147  2505  1634  698  -220  -1073  -1763  -2171  -2184  -1823  -1306  -849  -534  -344  -222  -130  -48  38  121  179  237  349  514  665  756  802  839  897  983  1085  1184  1273  1356  1443  1546  1673  1837  2042  2247  2405  2549  2741  2956  3118  3215  3289  3366  3468  3609  3750  3842  3878  3882  3846  3729  3532  3307  3076  2808  2512  2235  1975  1699  1390  1065  789  625  542  454  341  247  200  194  213  227  203  133  47  -21  -55  -60  -50  -52  -85  -151  -244  -349  -445  -513  -548  -559  -558  -555  -556  -559  -562  -558  -548  -534  -522  -515  -513  -518  -533  -551  -563  -569  -588  -634  -702  -766  -812  -842  -863  -870  -860  -853  -849  -834  -814  -812  -849  -932  -1045  -1168  -1275  -1342  -1370  -1379  -1393  -1447  -1583  -1803  -2042  -2213  -2283  -2292  -2291  -2294  -2292  -2288  -2322  -2436  -2611  -2762  -2803  -2703  -2494  -2243  -1962  -1550  -928  -188  473  828  694  73  -862  -1925  -2981  -3933  -4719  -5306  -5657  -5761  -5657  -5423  -5158  -4937  -4760  -4618  -4536  -4525  -4570  -4645  -4728  -4815  -4906  -4987  -5044  -5098  -5182  -5284  -5360  -5393  -5404  -5408  -5408  -5406  -5400  -5395  -5396  -5403  -5409  -5406  -5399  -5401  -5409  -5402  -5354  -5265  -5177  -5143  -5184  -5280  -5398  -5506  -5580  -5610  -5628  -5714  -5947  -6317  -6726  -7111  -7467  -7808  -8165  -8551  -8936  -9300  -9625  -9882  -10079  -10250  -10399  -10497  -10533  -10529  -10502  -10426  -10262  -10045  -9771  -9180  -7844  -5508  -2498  335  2470  4223  6165  8601  11486  14301  16333  17330  17538  17312  16964  16701  16489  16195  15815  15416  15020  14626  14240  13908  13669  13488  13301  13058  12759  12468  12213  11946  11624  11229  10791  10396  10118  9961  9879  9794  9635  9411  9192  9018  8869  8702  8459  8106  7691  7303  7006  6806  6648  6458  6198  5904  5651  5474  5337  5182  4980  4744  4512  4324  4210  4158  4106  3973  3735  3472  3286  3237  3364  3668  4146  4798  5535  6140  6370  6094  5356  4356  3345  2473  1709  976  301  -204  -410  -307  -83  90  192  247  267  269  264  251  220  157  38  -148  -358  -494  -481  -317  -89  72  108  53  -27  -81  -82  -33  41  115  182  249  335  465  625  747  795  804  852  979  1144  1260  1297  1287  1261  1229  1193  1149  1084  987  864  705  470  149  -210  -587  -984  -1343  -1569  -1663  -1719  -1812  -1946  -2099  -2259  -2403  -2490  -2510  -2488  -2444  -2389  -2344  -2341  -2382  -2448  -2519  -2581  -2620  -2635  -2638  -2639  -2643  -2643  -2620  -2552  -2446  -2336  -2263  -2246  -2269  -2306  -2348  -2375  -2377  -2369  -2360  -2339  -2296  -2254  -2241  -2260  -2281  -2267  -2226  -2204  -2200  -2182  -2152  -2134  -2131  -2137  -2143  -2141  -2118  -2061  -1975  -1883  -1811  -1762  -1721  -1667  -1620  -1635  -1727  -1841  -1919  -1962  -2009  -2074  -2135  -2174  -2195  -2209  -2226  -2248  -2261  -2254  -2229  -2207  -2205  -2217  -2222  -2223  -2239  -2275  -2269  -2105  -1762  -1346  -861  -202  611  1420  2056  2348  2135  1468  589  -334  -1243  -2063  -2722  -3186  -3410  -3347  -3054  -2701  -2428  -2249  -2099  -1941  -1781  -1647  -1548  -1445  -1307  -1181  -1126  -1126  -1125  -1092  -1042  -1005  -992  -983  -948  -874  -769  -646  -492  -304  -130  -23  27  111  309  596  867  1053  1183  1313  1452  1563  1637  1700  1759  1797  1809  1809  1802  1764  1655  1468  1251  1056  882  703  518  340  149  -60  -245  -369  -439  -489  -547  -632  -765  -927  -1053  -1104  -1089  -1030  -950  -882  -845  -829  -805  -747  -663  -581  -506  -409  -291  -191  -132  -99  -51  30  129  207  246  244  214  172  123  75  35  3  -12  -9  5  18  22  21  23  41  82  150  240  326  374  379  366  339  285  204  124  70  57  83  126  159  171  169  160  141  109  78  73  117  212  330  404  346  109  -219  -459  -515  -420  -260  -123  -56  -51  -65  -58  -6  80  177  285  431  617  861  1255  1856  2587  3310  3831  3921  3511  2783  1957  1118  276  -556  -1333  -1925  -2160  -1991  -1564  -1080  -682  -455  -385  -385  -396  -402  -405  -397  -357  -279  -188  -119  -82  -50  18  149  311  447  523  554  570  595  641  721  847  1011  1175  1309  1433  1609  1862  2160  2451  2683  2825  2892  2926  2957  2996  3039  3074  3094  3081  3022  2926  2823  2720  2601  2423  2126  1692  1211  832  626  531  460  387  331  284  198  37  -161  -328  -431  -475  -485  -485  -493  -526  -590  -674  -752  -811  -869  -939  -998  -1021  -1011  -981  -935  -878  -810  -735  -667  -621  -595  -565  -497  -372  -211  -58  57  122  121  73  22  -21  -86  -177  -271  -353  -422  -471  -493  -493  -493  -528  -622  -748  -849  -901  -904  -877  -870  -932  -1038  -1121  -1151  -1147  -1128  -1096  -1059  -1049  -1099  -1206  -1343  -1484  -1611  -1708  -1761  -1770  -1754  -1732  -1713  -1697  -1689  -1695  -1717  -1758  -1813  -1864  -1893  -1909  -1921  -1892  -1741  -1411  -931  -378  225  903  1572  2078  2331  2268  1860  1213  453  -413  -1359  -2242  -2891  -3186  -3102  -2724  -2228  -1796  -1492  -1259  -1029  -808  -638  -539  -487  -452  -429  -422  -420  -406  -372  -323  -263  -194  -114  -15  90  179  262  395  601  818  964  1037  1120  1291  1525  1726  1859  1963  2061  2148  2235  2336  2431  2491  2522  2545  2566  2571  2548  2487  2358  2147  1882  1615  1383  1177  945  677  415  191  9  -135  -254  -360  -456  -541  -625  -720  -812  -875  -899  -897  -878  -842  -792  -752  -754  -797  -848  -882  -895  -890  -862  -804  -733  -681  -664  -673  -703  -748  -796  -821  -808  -763  -696  -621  -571  -562  -587  -621  -644  -646  -627  -599  -571  -549  -541  -552  -579  -614  -649  -674  -687  -691  -696  -707  -718  -727  -731  -730  -718  -690  -653  -621  -595  -571  -545  -524  -520  -558  -652  -773  -864  -905  -917  -920  -923  -931  -947  -980  -1036  -1104  -1154  -1163  -1140  -1106  -1076  -1051  -1049  -1106  -1218  -1247  -1005  -433  356  1189  1934  2508  2805  2774  2430  1796  948  28  -857  -1625  -2175  -2457  -2508  -2376  -2093  -1744  -1450  -1259  -1125  -970  -767  -549  -360  -234  -174  -149  -130  -111  -99  -93  -91  -96  -111  -130  -139  -106  8  206  417  564  644  715  833  1015  1220  1387  1485  1540  1608  1726  1889  2075  2261  2420  2524  2563  2565  2563  2571  2577  2538  2401  2140  1772  1366  1013  750  566  448  366  291  224  177  149  135  133  130  112  87  74  78  84  76  67  73  91  109  129  147  166  194  223  239  242  245  256  272  303  355  403  402  341  247  145  62  23  50  156  304  423  478  496  515  547  584  609  613  600  582  564  548  537  544  575  613  603  514  383  275  216  200  219  267  334  401  444  463  476  488  491  473  434  389  344  294  237  170  84  -14  -102  -159  -180  -182  -196  -251  -336  -421  -493  -549  -581  -596  -626  -685  -759  -836  -932  -1034  -1007  -661  75  1076  2083  2832  3127  2897  2249  1413  560  -296  -1181  -2022  -2661  -2862  -2468  -1607  -599  253  788  1036  1127  1171  1222  1281  1331  1363  1388  1423  1465  1505  1541  1557  1494  1285  974  706  563  496  443  403  396  419  453  501  597  764  952  1083  1145  1200  1311  1484  1678  1843  1949  1997  2010  1998  1962  1902  1826  1725  1552  1270  925  606  353  125  -119  -367  -568  -708  -815  -914  -1018  -1123  -1210  -1260  -1295  -1362  -1475  -1594  -1680  -1733  -1763  -1776  -1774  -1768  -1770  -1782  -1789  -1781  -1774  -1786  -1810  -1824  -1811  -1781  -1758  -1745  -1726  -1694  -1673  -1682  -1716  -1751  -1747  -1683  -1593  -1527  -1494  -1476  -1462  -1446  -1428  -1411  -1403  -1403  -1408  -1412  -1412  -1411  -1409  -1408  -1410  -1411  -1400  -1358  -1287  -1213  -1170  -1175  -1217  -1267  -1312  -1348  -1370  -1372  -1336  -1248  -1132  -1033  -951  -851  -728  -616  -543  -499  -458  -412  -366  -322  -301  -323  -374  -432  -476  -485  -463  -426  -369  -288  -204  -151  -139  -149  -154  -140  -84  39  237  506  877  1422  2158  2982  3718  4178  4222  3843  3181  2391  1554  679  -205  -980  -1480  -1595  -1381  -1004  -598  -248  -4  144  233  279  306  348  411  469  505  523  533  541  542  531  507  484  485  515  554  586  608  618  628  667  775  952  1150  1338  1530  1724  1892  2010  2074  2098  2108  2125  2164  2243  2375  2529  2638  2647  2522  2278  1990  1723  1474  1235  1019  807  592  392  185  -41  -244  -400  -530  -646  -741  -825  -908  -985  -1040  -1058  -1046  -1030  -1025  -1026  -1020  -999  -969  -939  -918  -908  -908  -910  -912  -914  -914  -914  -912  -911  -910  -912  -916  -918  -907  -867  -801  -731  -681  -653  -641  -634  -617  -579  -527  -477  -441  -421  -422  -446  -495  -555  -607  -644  -670  -687  -692  -684  -653  -584  -496  -430  -400  -389  -379  -362  -341  -321  -298  -263  -222  -192  -183  -185  -183  -169  -154  -147  -152  -177  -233  -326  -445  -562  -647  -691  -702  -683  -627  -545  -481  -463  -479  -506  -533  -558  -569  -555  -511  -427  -268  -1  358  821  1440  2179  2857  3298  3375  3000  2236  1262  243  -682  -1387  -1818  -2034  -2086  -1961  -1685  -1328  -973  -709  -564  -477  -382  -263  -157  -93  -66  -59  -60  -57  -32  19  76  119  153  200  268  343  400  445  516  646  817  979  1106  1235  1407  1586  1716  1809  1937  2124  2311  2449  2545  2621  2675  2693  2674  2625  2539  2429  2330  2254  2183  2061  1805  1415  998  655  424  288  177  12  -203  -388  -482  -499  -487  -469  -447  -430  -444  -516  -625  -711  -746  -756  -764  -766  -762  -755  -752  -752  -743  -715  -673  -632  -600  -580  -569  -560  -549  -547  -557  -574  -590  -598  -599  -598  -596  -593  -586  -574  -556  -539  -540  -568  -611  -636  -620  -578  -544  -528  -522  -521  -524  -534  -551  -574  -599  -615  -615  -600  -584  -573  -567  -566  -569  -574  -581  -583  -569  -529  -465  -392  -328  -285  -266  -266  -277  -298  -341  -415  -503  -573  -613  -637  -658  -685  -721  -758  -784  -794  -797  -799  -807  -826  -850  -860  -843  -806  -762  -695  -553  -256  266  994  1802  2553  3096  3247  2962  2368  1583  665  -314  -1266  -2090  -2644  -2783  -2538  -2135  -1778  -1546  -1429  -1340  -1198  -1015  -849  -713  -585  -467  -395  -375  -383  -392  -391  -379  -361  -331  -282  -220  -163  -122  -82  -16  105  290  493  663  802  940  1079  1229  1401  1579  1746  1918  2094  2222  2275  2281  2278  2276  2256  2201  2101  1950  1769  1609  1464  1265  986  675  372  99  -117  -289  -467  -665  -834  -938  -997  -1039  -1055  -1037  -1006  -998  -1020  -1047  -1056  -1036  -984  -901  -793  -691  -628  -609  -624  -661  -711  -762  -795  -800  -777  -742  -714  -700  -696  -697  -704  -720  -742  -770  -809  -854  -890  -912  -932  -969  -1044  -1147  -1233  -1258  -1216  -1146  -1095  -1079  -1082  -1088  -1093  -1101  -1105  -1086  -1029  -942  -856  -787  -716  -613  -482  -350  -230  -105  30  173  307  413  494  565  626  677  734  819  919  990  1017  1024  1029  1015  937  770  573  431  356  304  247  183  121  80  64  64  69  75  79  78  65  33  -38  -149  -197  13  541  1248  1978  2643  3186  3579  3777  3670  3183  2397  1461  515  -307  -958  -1440  -1712  -1713  -1456  -1062  -666  -335  -101  23  72  84  84  84  95  134  213  318  415  475  493  493  521  610  750  900  1018  1086  1120  1169  1270  1418  1577  1708  1817  1957  2148  2338  2470  2562  2689  2873  3049  3142  3141  3066  2950  2814  2652  2441  2181  1872  1492  1083  764  586  498  449  434  465  547  654  743  799  826  829  817  802  787  769  737  683  631  610  618  635  655  672  637  476  175  -181  -472  -628  -667  -647  -616  -599  -616  -677  -767  -850  -900  -931  -971  -1016  -1041  -1041  -1044  -1078  -1136  -1195  -1234  -1250  -1251  -1246  -1226  -1181  -1122  -1079  -1076  -1112  -1165  -1220  -1290  -1387  -1492  -1574  -1620  -1641  -1667  -1722  -1799  -1860  -1883  -1873  -1830  -1745  -1640  -1565  -1540  -1549  -1569  -1589  -1599  -1594  -1581  -1565  -1540  -1498  -1437  -1376  -1350  -1388  -1489  -1611  -1712  -1789  -1858  -1928  -2004  -2078  -2122  -2128  -2113  -2089  -2052  -1996  -1928  -1864  -1820  -1811  -1850  -1920  -1988  -2035  -2039  -1922  -1566  -886  134  1402  2692  3755  4395  4501  4132  3478  2663  1736  803  -18  -675  -1090  -1181  -1021  -763  -467  -157  103  288  443  605  748  828  844  819  774  722  685  683  738  850  981  1077  1116  1116  1104  1107  1144  1211  1287  1359  1429  1502  1583  1715  1951  2256  2503  2623  2670  2724  2810  2905  2977  2984  2906  2784  2672  2570  2447  2292  2128  1981  1810  1526  1131  738  438  241  90  -80  -267  -396  -442  -466  -537  -666  -806  -918  -1000  -1058  -1096  -1121  -1132  -1121  -1097  -1080  -1075  -1077  -1083  -1089  -1091  -1081  -1059  -1029  -996  -967  -945  -928  -915  -899  -869  -832  -805  -795  -797  -798  -792  -782  -770  -760  -759  -766  -765  -738  -686  -634  -599  -574  -553  -539  -544  -579  -644  -724  -796  -837  -845  -835  -822  -805  -774  -734  -703  -693  -700  -720  -746  -765  -771  -770  -770  -778  -788  -782  -734  -629  -483  -345  -263  -241  -244  -245  -245  -267  -321  -393  -471  -562  -684  -836  -981  -1059  -1047  -987  -935  -914  -910  -908  -900  -891  -887  -893  -909  -933  -976  -1025  -1014  -874  -589  -145  472  1209  1928  2467  2714  2588  2064  1284  440  -384  -1155  -1817  -2321  -2624  -2682  -2512  -2224  -1921  -1653  -1446  -1291  -1149  -1005  -872  -762  -674  -600  -523  -420  -271  -100  49  192  386  629  835  935  951  937  924  914  903  902  949  1088  1304  1523  1697  1862  2054  2250  2401  2491  2536  2558  2581  2612  2634  2634  2615  2587  2533  2399  2158  1859  1567  1292  1023  751  469  210  31  -60  -116  -185  -290  -428  -565  -652  -676  -665  -654  -666  -715  -783  -833  -845  -822  -772  -706  -640  -587  -541  -493  -450  -428  -426  -437  -450  -460  -457  -431  -382  -319  -261  -229  -230  -257  -295  -320  -320  -294  -255  -220  -196  -180  -166  -148  -120  -82  -46  -28  -29  -34  -34  -35  -42  -45  -39  -32  -36  -52  -77  -125  -196  -252  -267  -256  -248  -248  -232  -184  -125  -85  -74  -81  -95  -104  -72  35  202  365  477  528  531  505  459  397  328  260  189  101  6  -59  -83  -84  -85  -103  -151  -216  -267  -291  -293  -278  -246  -211  -196  -190  -118  112  512  1013  1581  2207  2826  3290  3435  3166  2501  1557  502  -510  -1380  -2027  -2387  -2435  -2224  -1886  -1573  -1356  -1193  -1022  -841  -680  -537  -398  -281  -214  -193  -186  -158  -93  12  155  312  452  554  614  658  716  792  872  947  1018  1092  1185  1314  1468  1609  1705  1766  1830  1916  2023  2159  2338  2517  2628  2658  2649  2631  2601  2538  2418  2242  2044  1868  1732  1611  1459  1240  970  697  466  304  205  134  64  -14  -98  -178  -264  -377  -500  -595  -644  -653  -646  -663  -709  -742  -744  -737  -745  -768  -786  -784  -772  -762  -755  -751  -751  -753  -751  -728  -673  -597  -530  -484  -453  -436  -443  -480  -532  -568  -578  -571  -562  -550  -532  -515  -501  -483  -448  -385  -313  -257  -220  -207  -218  -246  -284  -313  -323  -328  -339  -350  -362  -397  -469  -575  -694  -809  -915  -993  -1028  -1038  -1034  -1008  -975  -964  -971  -972  -946  -900  -864  -849  -843  -828  -803  -773  -749  -753  -804  -881  -955  -1032  -1134  -1249  -1340  -1395  -1425  -1445  -1475  -1531  -1600  -1634  -1603  -1529  -1454  -1405  -1390  -1405  -1429  -1403  -1246  -935  -488  85  745  1410  2021  2527  2861  2938  2707  2180  1381  411  -519  -1250  -1730  -1924  -1822  -1488  -1030  -577  -249  -78  6  84  192  324  445  522  559  581  601  619  640  662  680  682  664  649  662  699  740  772  796  827  876  957  1082  1240  1386  1506  1638  1803  1956  2056  2120  2184  2255  2315  2356  2378  2384  2375  2342  2286  2224  2167  2104  2021  1918  1790  1591  1269  856  455  137  -115  -347  -552  -698  -785  -842  -894  -949  -1007  -1069  -1129  -1184  -1227  -1252  -1260  -1260  -1255  -1242  -1226  -1215  -1207  -1201  -1195  -1185  -1149  -1063  -940  -824  -750  -712  -682  -644  -601  -559  -522  -493  -474  -461  -448  -437  -428  -416  -391  -357  -320  -285  -239  -167  -65  55  169  241  260  237  180  102  26  -29  -74  -126  -198  -291  -388  -464  -505  -517  -515  -505  -483  -447  -403  -368  -356  -364  -381  -397  -402  -387  -356  -339  -360  -409  -486  -607  -752  -849  -836  -702  -514  -376  -332  -361  -436  -548  -686  -851  -1037  -1211  -1324  -1367  -1373  -1368  -1359  -1355  -1364  -1392  -1442  -1498  -1534  -1534  -1512  -1472  -1379  -1182  -875  -472  31  641  1305  1927  2388  2534  2264  1631  778  -125  -910  -1495  -1924  -2221  -2335  -2251  -2035  -1746  -1406  -1080  -859  -775  -771  -779  -765  -725  -664  -592  -525  -471  -430  -403  -395  -405  -419  -398  -291  -88  156  380  562  715  856  1015  1258  1606  1976  2267  2457  2596  2738  2887  3011  3097  3164  3225  3269  3285  3277  3265  3255  3224  3136  2987  2796  2575  2311  1991  1621  1245  923  671  447  229  29  -141  -281  -383  -440  -464  -484  -511  -532  -526  -480  -395  -305  -250  -249  -295  -365  -427  -474  -512  -543  -565  -587  -624  -671  -707  -716  -688  -628  -569  -519  -467  -423  -404  -391  -369  -342  -307  -261  -227  -226  -246  -262  -271  -276  -286  -308  -346  -390  -414  -402  -367  -333  -314  -316  -346  -418  -528  -646  -742  -813  -859  -872  -846  -794  -744  -715  -709  -715  -731  -758  -794  -834  -864  -878  -877  -872  -877  -904  -950  -1000  -1047  -1094  -1127  -1095  -928  -630  -326  -137  -75  -78  -98  -123  -166  -257  -397  -545  -650  -702  -714  -704  -695  -699  -718  -750  -779  -782  -743  -654  -536  -422  -288  -83  153  353  570  904  1386  1988  2595  2971  2894  2361  1525  548  -415  -1244  -1910  -2410  -2689  -2701  -2513  -2261  -2033  -1843  -1635  -1331  -939  -572  -329  -203  -122  -50  -1  16  24  59  146  279  429  561  664  754  836  901  945  977  1021  1097  1191  1280  1387  1557  1759  1917  2013  2087  2166  2250  2326  2386  2432  2472  2505  2515  2493  2460  2439  2414  2315  2084  1746  1370  995  640  336  93  -82  -206  -351  -587  -860  -1046  -1102  -1090  -1068  -1057  -1060  -1092  -1158  -1241  -1312  -1365  -1405  -1428  -1433  -1432  -1434  -1440  -1450  -1462  -1473  -1487  -1501  -1511  -1517  -1518  -1507  -1476  -1435  -1428  -1500  -1646  -1802  -1900  -1935  -1947  -1974  -2013  -2042  -2051  -2060  -2090  -2135  -2174  -2196  -2205  -2194  -2124  -1946  -1665  -1360  -1116  -967  -908  -931  -1025  -1149  -1236  -1235  -1140  -966  -738  -500  -302  -166  -76  -7  48  99  153  207  257  300  335  362  398  462  559  660  729  751  736  688  617  538  471  425  404  401  409  419  428  432  429  417  396  371  341  300  259  257  327  454  590  741  962  1287  1741  2350  3109  3908  4574  4956  4928  4437  3595  2597  1611  763  106  -363  -614  -592  -324  72  445  689  813  895  967  1019  1054  1103  1203  1363  1598  1958  2454  2954  3291  3442  3502  3568  3705  3939  4254  4582  4832  4977  5068  5161  5288  5458  5653  5857  6087  6355  6618  6810  6913  6991  7130  7361  7619  7809  7918  7982  8018  8030  8023  7986  7894  7734  7534  7331  7132  6920  6685  6428  6175  5985  5880  5823  5778  5744  5721  5701  5688  5701  5759  5849  5936  6011  6080  6025  5448  3822  1047  -2217  -5039  -6891  -7786  -8071  -8149  -8236  -8361  -8482  -8564  -8618  -8669  -8711  -8722  -8672  -8506  -8210  -7876  -7630  -7508  -7452  -7398  -7333  -7261  -7150  -6972  -6774  -6640  -6582  -6552  -6508  -6434  -6323  -6181  -6045  -5954  -5906  -5864  -5794  -5665  -5469  -5247  -5064  -4935  -4824  -4721  -4650  -4615  -4582  -4521  -4438  -4353  -4286  -4222  -4119  -3941  -3701  -3463  -3292  -3192  -3118  -3052  -3013  -3012  -3033  -3053  -3062  -3061  -3042  -2994  -2919  -2831  -2743  -2660  -2573  -2460  -2315  -2176  -2087  -2044  -2002  -1929  -1821  -1673  -1451  -1127  -741  -316  234  997  1884  2668  3121  3085  2539  1662  698  -233  -1097  -1793  -2203  -2315  -2185  -1917  -1612  -1295  -991  -780  -697  -689  -684  -643  -563  -476  -424  -414  -426  -441  -456  -470  -476  -472  -459  -441  -424  -413  -412  -423  -442  -461  -468  -448  -370  -209  9  215  364  501  735  1151  1714  2274  2699  2984  3182  3313  3381  3411  3426  3427  3415  3391  3327  3171  2922  2653  2422  2216  1996  1749  1493  1280  1151  1082  1016  942  890  874  875  873  863  845  819  795  782  776  763  739  707  677  649  620  591  560  517  464  426  407  372  309  242  169  62  -82  -212  -284  -303  -313  -349  -422  -516  -613  -694  -738  -752  -781  -866  -991  -1097  -1146  -1151  -1143  -1143  -1158  -1184  -1211  -1232  -1246  -1256  -1267  -1273  -1269  -1255  -1203  -1043  -755  -427  -183  -63  -19  17  86  193  307  399  489  620  794  964  1082  1136  1145  1138  1130  1127  1126  1122  1099  1051  992  938  890  856  836  801  722  610  517  470  455  455  469  505  550  544  450  346  365  595  1067  1722  2415  3005  3414  3555  3310  2663  1752  775  -144  -972  -1666  -2177  -2495  -2593  -2447  -2128  -1730  -1295  -875  -575  -450  -449  -509  -603  -708  -784  -815  -820  -834  -891  -993  -1098  -1165  -1188  -1177  -1132  -1045  -921  -760  -531  -208  160  493  777  1061  1363  1658  1906  2090  2241  2403  2627  2937  3263  3479  3551  3553  3544  3523  3457  3328  3143  2913  2660  2428  2238  2043  1792  1494  1185  903  693  569  491  410  305  197  121  78  45  0  -66  -147  -218  -255  -264  -268  -289  -334  -397  -465  -535  -599  -660  -732  -824  -920  -998  -1047  -1066  -1059  -1036  -1001  -957  -916  -893  -895  -910  -924  -945  -985  -1038  -1088  -1137  -1212  -1321  -1431  -1511  -1558  -1588  -1608  -1637  -1700  -1803  -1921  -2013  -2062  -2074  -2046  -1958  -1795  -1576  -1350  -1167  -1040  -924  -769  -574  -381  -229  -126  -60  -18  12  41  77  121  164  197  225  266  337  426  491  506  460  363  249  151  70  0  -42  -49  -37  -25  -17  -14  -24  -60  -125  -205  -277  -327  -347  -319  -208  3  323  801  1473  2253  3006  3626  3984  3953  3499  2684  1647  558  -423  -1166  -1624  -1845  -1889  -1796  -1621  -1412  -1198  -972  -737  -549  -459  -445  -464  -498  -547  -611  -690  -766  -808  -806  -789  -782  -789  -798  -789  -763  -745  -735  -673  -469  -106  300  618  834  1028  1252  1499  1752  2010  2259  2469  2616  2723  2843  2987  3116  3195  3227  3230  3207  3130  2970  2732  2449  2146  1836  1536  1238  925  629  422  323  279  231  149  31  -92  -184  -233  -257  -274  -291  -299  -304  -331  -372  -395  -404  -418  -451  -525  -640  -752  -816  -830  -818  -800  -781  -767  -762  -767  -773  -784  -809  -845  -880  -911  -940  -971  -1008  -1058  -1117  -1176  -1223  -1256  -1290  -1341  -1419  -1502  -1555  -1552  -1487  -1382  -1265  -1134  -977  -825  -721  -663  -597  -472  -299  -145  -61  -38  -43  -49  -44  -21  10  35  43  40  32  33  79  194  337  439  487  497  472  418  351  283  218  148  63  -38  -134  -197  -226  -246  -277  -316  -344  -348  -340  -336  -346  -359  -363  -362  -360  -327  -214  1  322  771  1385  2131  2865  3383  3528  3220  2500  1568  607  -333  -1210  -1931  -2445  -2704  -2635  -2285  -1854  -1520  -1351  -1317  -1343  -1381  -1414  -1427  -1397  -1317  -1215  -1134  -1092  -1067  -1039  -986  -876  -696  -495  -323  -166  -1  155  281  384  498  651  841  1044  1239  1430  1617  1772  1856  1878  1904  1997  2157  2321  2435  2487  2497  2493  2495  2500  2490  2453  2380  2237  1969  1587  1192  870  600  291  -64  -358  -508  -545  -550  -580  -646  -733  -829  -916  -972  -998  -1036  -1116  -1225  -1331  -1428  -1524  -1627  -1754  -1898  -2018  -2085  -2119  -2157  -2204  -2237  -2245  -2235  -2223  -2215  -2201  -2159  -2088  -2003  -1918  -1840  -1761  -1659  -1515  -1366  -1278  -1260  -1270  -1275  -1264  -1225  -1141  -1017  -888  -803  -772  -772  -776  -781  -796  -832  -887  -945  -988  -1009  -1013  -1020  -1045  -1088  -1133  -1174  -1218  -1252  -1247  -1198  -1135  -1087  -1064  -1061  -1066  -1070  -1066  -1045  -1008  -970  -948  -946  -965  -1009  -1074  -1157  -1249  -1330  -1389  -1424  -1444  -1466  -1510  -1574  -1646  -1741  -1885  -2064  -2222  -2325  -2388  -2455  -2552  -2659  -2738  -2780  -2778  -2674  -2388  -1891  -1213  -460  199  670  967  1121  1097  778  80  -906  -1969  -2904  -3585  -4014  -4262  -4374  -4320  -4045  -3589  -3125  -2793  -2609  -2531  -2508  -2492  -2457  -2403  -2347  -2307  -2286  -2283  -2293  -2325  -2377  -2414  -2396  -2319  -2180  -1966  -1745  -1689  -1690  -767  2820  10390  21369  32767  32767  32767  32767  32767  32767  32767  32767  31206  22162  14060  8473  5532  4375  3890  3342  2629  1977  1488  1025  462  -147  -690  -1139  -1515  -1815  -2055  -2301  -2570  -2789  -2905  -2967  -3051  -3168  -3273  -3360  -3465  -3592  -3695  -3734  -3713  -3661  -3605  -3561  -3531  -3517  -3513  -3513  -3516  -3516  -3513  -3512  -3512  -3510  -3500  -3487  -3471  -3452  -3421  -3369  -3304  -3248  -3218  -3211  -3216  -3225  -3239  -3246  -3207  -3079  -2892  -2738  -2670  -2664  -2687  -2739  -2818  -2904  -2981  -3040  -3071  -3072  -3064  -3081  -3146  -3245  -3326  -3361  -3353  -3318  -3271  -3228  -3197  -3174  -3142  -3082  -2988  -2869  -2737  -2608  -2507  -2454  -2440  -2420  -2354  -2250  -2154  -2099  -2088  -2102  -2123  -2150  -2194  -2244  -2278  -2283  -2257  -2209  -2156  -2107  -2063  -2026  -1994  -1965  -1941  -1934  -1948  -1966  -1964  -1939  -1908  -1837  -1652  -1324  -870  -318  283  873  1421  1880  2102  1926  1353  503  -460  -1370  -2153  -2788  -3221  -3412  -3323  -2969  -2500  -2072  -1736  -1508  -1390  -1330  -1259  -1153  -1030  -913  -815  -747  -706  -669  -616  -530  -395  -237  -126  -87  -78  -58  -25  13  73  174  319  497  690  875  1050  1226  1398  1552  1687  1835  2058  2372  2693  2923  3061  3149  3180  3131  3033  2947  2899  2853  2755  2581  2337  2027  1647  1256  942  729  572  430  292  168  64  -12  -53  -77  -122  -205  -306  -386  -426  -441  -445  -441  -432  -420  -402  -382  -373  -387  -419  -437  -420  -379  -328  -271  -225  -205  -221  -276  -356  -429  -469  -478  -476  -473  -466  -445  -394  -305  -200  -110  -33  40  100  123  105  69  39  21  6  -8  -13  5  40  61  56  39  19  0  -23  -46  -60  -57  -31  3  31  46  53  56  54  48  45  51  70  95  113  116  110  91  38  -73  -247  -435  -572  -633  -647  -648  -648  -644  -639  -653  -710  -804  -898  -956  -967  -926  -837  -710  -528  -222  225  738  1235  1711  2181  2623  2941  3003  2726  2147  1389  531  -381  -1204  -1763  -2030  -2048  -1846  -1496  -1131  -825  -582  -413  -338  -337  -359  -352  -275  -137  7  108  138  97  18  -48  -66  1  181  414  583  650  675  708  751  793  832  872  921  1002  1133  1304  1491  1686  1880  2067  2253  2424  2541  2600  2628  2643  2640  2605  2536  2446  2345  2243  2138  1999  1791  1502  1142  787  547  434  349  184  -81  -358  -536  -594  -589  -575  -570  -579  -606  -646  -684  -713  -735  -755  -775  -797  -823  -850  -869  -870  -856  -835  -820  -811  -810  -823  -860  -909  -938  -916  -851  -799  -784  -757  -682  -599  -543  -505  -473  -455  -454  -467  -493  -534  -581  -621  -643  -648  -643  -637  -641  -667  -724  -814  -922  -1018  -1065  -1031  -901  -723  -583  -521  -519  -556  -615  -686  -766  -850  -926  -967  -962  -927  -873  -797  -715  -649  -598  -546  -487  -434  -395  -379  -404  -485  -595  -679  -714  -714  -698  -689  -692  -700  -708  -717  -724  -724  -721  -729  -773  -848  -873  -761  -504  -129  363  961  1626  2337  3012  3426  3389  2917  2152  1274  405  -462  -1331  -2078  -2545  -2603  -2245  -1668  -1168  -897  -812  -798  -780  -740  -692  -650  -610  -550  -469  -400  -366  -350  -299  -170  26  221  344  391  414  463  559  689  820  941  1055  1166  1267  1349  1430  1572  1820  2121  2358  2478  2534  2602  2703  2812  2893  2932  2940  2936  2925  2886  2763  2504  2159  1843  1613  1446  1297  1108  845  531  223  -16  -161  -234  -269  -275  -265  -249  -223  -214  -256  -330  -400  -459  -514  -559  -583  -581  -562  -539  -524  -520  -520  -515  -497  -469  -439  -404  -361  -313  -267  -239  -258  -303  -313  -278  -233  -196  -174  -163  -149  -131  -120  -113  -107  -103  -102  -102  -105  -111  -115  -96  -37  51  131  176  186  165  113  41  -37  -94  -101  -51  25  86  119  139  157  171  177  170  153  132  118  112  109  108  121  163  230  286  288  239  185  146  101  14  -117  -256  -365  -430  -469  -511  -586  -705  -857  -997  -1087  -1131  -1154  -1169  -1176  -1163  -1122  -1065  -990  -823  -443  205  1058  1987  2872  3599  4036  4091  3789  3205  2398  1445  465  -403  -1021  -1281  -1165  -794  -363  7  286  481  623  726  792  824  837  852  877  903  919  937  983  1061  1148  1220  1278  1334  1402  1489  1588  1688  1802  1951  2138  2335  2505  2624  2691  2725  2756  2834  3013  3289  3572  3769  3855  3872  3873  3882  3901  3919  3924  3901  3821  3663  3445  3217  3040  2915  2746  2426  1962  1486  1142  970  896  833  754  690  656  628  572  470  345  250  213  214  231  252  269  277  276  270  263  249  229  215  212  210  203  195  192  191  183  157  118  85  70  82  105  119  123  119  98  47  -25  -92  -133  -147  -144  -138  -151  -200  -274  -338  -360  -317  -226  -142  -95  -75  -65  -61  -58  -55  -54  -54  -55  -55  -53  -51  -51  -64  -96  -141  -197  -271  -364  -465  -547  -585  -585  -572  -558  -551  -585  -700  -876  -1039  -1163  -1303  -1498  -1697  -1836  -1924  -2010  -2108  -2199  -2261  -2290  -2305  -2333  -2404  -2544  -2760  -3002  -3190  -3295  -3324  -3270  -3108  -2808  -2334  -1684  -991  -458  -216  -355  -913  -1771  -2774  -3851  -4934  -5892  -6606  -7036  -7174  -7045  -6792  -6601  -6530  -6524  -6535  -6541  -6539  -6545  -6588  -6696  -6851  -7014  -7172  -7315  -7409  -7454  -7504  -7621  -7818  -8033  -8190  -8278  -8337  -8394  -8464  -8556  -8648  -8708  -8726  -8724  -8719  -8721  -8735  -8759  -8794  -8842  -8895  -8933  -8948  -8959  -8988  -9065  -9216  -9432  -9672  -9909  -10150  -10456  -10893  -11422  -11943  -12429  -12911  -13404  -13918  -14446  -14904  -15241  -15551  -15929  -16346  -16731  -17040  -17270  -17439  -17589  -17799  -18116  -18461  -18725  -18928  -19166  -19470  -19767  -19976  -20123  -20286  -20467  -20620  -20754  -20944  -21234  -21569  -21849  -22034  -22172  -22391  -22796  -23061  -22106  -18576  -11846  -2479  7820  16831  23221  27122  29141  29602  28731  26911  24647  22532  21259  21110  21589  22069  22372  22670  23227  24163  25527  27244  28832  29755  29992  29859  29554  29098  28521  27923  27358  26795  26232  25682  25115  24520  23951  23443  22963  22474  21953  21385  20832  20414  20134  19845  19416  18842  18160  17393  16596  15838  15218  14824  14596  14367  14027  13565  13040  12515  12006  11547  11160  10789  10402  10048  9746  9473  9258  9151  9162  9290  9513  9748  9914  9986  9933  9656  9093  8262  7212  6026  4854  3840  3075  2596  2385  2358  2400  2441  2463  2459  2414  2319  2191  2063  1969  1922  1892  1821  1690  1541  1422  1333  1237  1101  944  828  781  776  781  789  810  852  919  999  1063  1097  1109  1112  1110  1118  1156  1218  1290  1365  1440  1503  1540  1534  1477  1386  1305  1255  1188  1004  635  111  -510  -1196  -1898  -2533  -3022  -3347  -3563  -3745  -3942  -4191  -4481  -4740  -4899  -4978  -5051  -5161  -5287  -5372  -5400  -5395  -5389  -5401  -5440  -5504  -5580  -5650  -5699  -5714  -5666  -5527  -5328  -5153  -5063  -5063  -5101  -5115  -5096  -5078  -5079  -5089  -5091  -5091  -5101  -5106  -5087  -5056  -5023  -4981  -4916  -4842  -4790  -4776  -4788  -4807  -4823  -4831  -4820  -4775  -4694  -4605  -4546  -4531  -4535  -4521  -4465  -4381  -4301  -4247  -4221  -4215  -4213  -4203  -4183  -4153  -4104  -4021  -3917  -3833  -3796  -3777  -3732  -3646  -3543  -3450  -3375  -3310  -3257  -3220  -3199  -3184  -3174  -3173  -3185  -3212  -3250  -3305  -3373  -3436  -3477  -3489  -3477  -3455  -3440  -3431  -3408  -3350  -3251  -3135  -3034  -2947  -2874  -2833  -2800  -2666  -2330  -1812  -1224  -647  -69  545  1155  1594  1679  1340  639  -288  -1315  -2313  -3147  -3716  -3943  -3803  -3411  -2958  -2556  -2240  -2032  -1931  -1892  -1858  -1811  -1750  -1666  -1568  -1483  -1422  -1361  -1275  -1163  -1044  -922  -809  -735  -687  -591  -405  -183  -13  100  210  339  473  602  747  944  1226  1607  2071  2571  3019  3328  3504  3619  3695  3719  3703  3688  3687  3676  3595  3398  3112  2816  2563  2357  2151  1869  1492  1114  802  526  273  100  19  -26  -91  -184  -286  -378  -449  -492  -508  -521  -551  -597  -631  -625  -572  -490  -419  -380  -367  -364  -360  -351  -343  -339  -340  -340  -339  -344  -369  -426  -500  -556  -578  -570  -533  -469  -403  -363  -348  -334  -311  -295  -304  -315  -303  -282  -269  -259  -245  -228  -207  -180  -150  -124  -104  -93  -96  -106  -106  -92  -70  -42  -8  21  41  57  68  71  70  74  90  123  176  240  297  331  346  360  388  424  451  451  404  299  154  16  -84  -145  -182  -203  -210  -203  -190  -181  -178  -181  -183  -185  -182  -166  -126  -62  16  125  297  541  851  1275  1851  2526  3195  3757  4070  3996  3489  2637  1622  632  -204  -800  -1126  -1182  -949  -474  82  546  842  998  1072  1099  1099  1089  1077  1073  1108  1209  1346  1447  1488  1500  1509  1511  1500  1482  1466  1458  1471  1543  1713  1958  2179  2319  2417  2544  2726  2923  3068  3145  3197  3284  3420  3564  3660  3695  3692  3667  3620  3552  3469  3376  3269  3136  2969  2744  2418  1991  1546  1180  927  751  598  453  316  177  30  -104  -198  -240  -247  -246  -265  -321  -397  -465  -514  -551  -583  -616  -651  -680  -697  -702  -700  -698  -696  -696  -706  -730  -757  -776  -781  -783  -803  -858  -931  -985  -1002  -995  -987  -1010  -1100  -1256  -1412  -1502  -1529  -1541  -1564  -1591  -1606  -1606  -1609  -1648  -1745  -1875  -1982  -2051  -2107  -2159  -2195  -2212  -2216  -2217  -2221  -2229  -2239  -2252  -2272  -2303  -2344  -2388  -2439  -2500  -2568  -2637  -2702  -2761  -2809  -2847  -2871  -2872  -2827  -2690  -2393  -1906  -1286]
