reading_id,reading_time,wire_id,result_classification,heart_rate,heart_rate_alert,firmware_version,device_app_version,hardware_version,waveform_samples
a20eb930-5c01-11ed-8080-808080808080,Fri Nov 04 05:29:20 UTC 2022,a10163b41b39,UNREADABLE,0,NONE,20001.171.50,2.10.0,Charge 5,[0  2249  5181  8136  10168  11455  12857  14603  16100  16885  16983  16331  14718  12520  10718  9875  9773  10104  10876  12065  13345  14364  15069  15736  16910  19082  22087  25110  27139  27349  25999  24436  23355  22620  22605  23231  23064  21235  17874  12631  5986  582  -1319  576  5435  11028  14711  15805  15351  14582  14198  14187  14200  13829  12445  9539  5786  2824  1559  1866  3603  6489  9497  11553  12513  12884  13050  13095  12970  12483  11275  9135  6412  3966  2506  2084  2508  3806  5809  7766  8982  9366  8948  7500  5191  2954  1599  1145  1302  1952  3060  4453  5782  6787  7501  8055  8517  8910  9109  8639  6988  4418  1952  396  4  709  2060  3318  4004  4167  4084  4022  4271  5039  6149  7152  7796  8126  8268  8325  8318  8135  7626  6744  5554  4235  3122  2482  2274  2270  2269  2069  1439  287  -1184  -2625  -3699  -4239  -4466  -4879  -5806  -7192  -8759  -10240  -11266  -10634  -6243  2409  11968  17898  18500  14725  8516  1745  -5000  -11714  -16988  -18036  -12174  865  16323  26747  27819  19767  6398  -5993  -12919  -14432  -12631  -9375  -6494  -5048  -4446  -3911  -3510  -3392  -3382  -3095  -2139  -316  2565  6591  10969  14223  15383  14261  11135  6790  2124  -2336  -6066  -8497  -9497  -8900  -6038  -1039  4065  6964  7009  4966  2283  408  -269  -352  -395  -520  -674  -836  -1001  -1118  -1129  -1006  -769  -570  -786  -1872  -3951  -6753  -9826  -12555  -14176  -14263  -13333  -11946  -9093  -3500  3328  7943  8530  5790  1762  -1440  -3029  -3545  -3719  -3957  -4357  -4810  -5192  -5319  -4693  -2838  -302  1534  1910  1155  65  -676  -888  -815  -723  -766  -1022  -1439  -1847  -2044  -1785  -981  -523  -2399  -7121  -12317  -15832  -16377  -11666  -1760  9486  18759  23985  22922  14704  1236  -13334  -24187  -27378  -21703  -10232  1650  9922  13307  12941  10966  8849  7200  6141  5387  4780  4480  3995  1654  -3930  -11756  -18691  -22261  -22181  -19378  -15346  -11948  -10199  -9888  -10784  -13038  -16138  -18812  -20349  -20684  -18947  -13791  -5862  2083  7952  11326  12633  12730  12478  12294  12255  12327  12451  12566  12648  12754  12958  13229  13466  13634  13707  13422  12330  10322  7875  5543  3615  2173  1093  223  -489  -1156  -1887  -2597  -3058  -3134  -3024  -3119  -3486  -3792  -3784  -3596  -3505  -3544  -3539  -3452  -3331  -2646  -85  4925  10603  14327  15475  15317  14990  14668  14046  13066  12147  11680  11548  11182  9634  5544  -1879  -11076  -18612  -22338  -22571  -20048  -14847  -7659  -772  3427  4593  3746  1480  -1718  -4809  -7047  -8546  -9604  -10254  -10577  -10826  -11116  -11329  -11329  -11109  -10809  -10613  -10552  -10478  -10247  -9839  -8809  -5462  1802  11369  19093  22858  23675  22479  18582  11827  4308  -1388  -4399  -5371  -5305  -4853  -4195  -3411  -2721  -2348  -2450  -3166  -4381  -5570  -6260  -6533  -6966  -8156  -10149  -12372  -14239  -15522  -16209  -16441  -16478  -16536  -16715  -16998  -17264  -17370  -17033  -15648  -12480  -7154  -518  5282  8794  10484  11391  11919  12107  12046  11849  11390  10179  7611  3608  -959  -4807  -7208  -8185  -7819  -5797  -2185  1748  4255  4816  5175  8172  14842  22980  29058  31387  31003  29897  28922  27172  23132  16143  7189  -1240  -6891  -9340  -9407  -8193  -6903  -6385  -6900  -8187  -9353  -9332  -7684  -5003  -2444  -607  763  2336  4659  7387  9473  10342  9958  8177  5241  2365  790  761  1793  3127  4030  4270  4112  3878  3741  3754  3903  4115  4300  4417  4406  4043  3053  1405  -568  -2293  -3230  -3122  -2043  -496  728  1178  900  101  -934  -1896  -2664  -3268  -3698  -3902  -3732  -2921  -1499  -63  752  854  531  97  -238  -418  -509  -600  -719  -844  -976  -1068  -834  137  1801  3439  4313  4178  3165  1749  581  -58  -370  -724  -1364  -2158  -2735  -2946  -2917  -2716  -2214  -1298  -204  589  819  458  -446  -1565  -2393  -2757  -2865  -2912  -2932  -2903  -2879  -3019  -3474  -4134  -4683  -4909  -4664  -3775  -2402  -1160  -510  -344  -297  -169  -5  99  162  274  453  605  572  197  -508  -1268  -1784  -1944  -1602  -503  1260  3010  4107  4525  4612  4610  4559  4456  4351  4290  4233  4111  3927  3718  3411  2854  2029  1150  445  -74  -514  -897  -1168  -1287  -1179  -724  48  893  1569  2067  2642  3607  4887  5978  6531  6617  6330  5617  4619  3754  3304  3201  3242  3278  3206  2954  2519  1909  1134  371  -101  -222  -158  -67  -17  -38  -152  -352  -589  -791  -862  -701  -288  255  740  1038  1145  1113  952  651  292  42  10  203  552  913  1165  1288  1328  1362  1505  1865  2421  2976  3293  3192  2601  1745  1151  1384  2703  4676  6421  7292  6502  2795  -3832  -10928  -15689  -17399  -16914  -15074  -12598  -10347  -8863  -8158  -8056  -8580  -9848  -11454  -12585  -12956  -12982  -13091  -13350  -13692  -14200  -14969  -15873  -16723  -17526  -18198  -18057  -16410  -13861  -12228  -12986  -15769  -17987  -15968  -7727  4116  13628  16355  11605  2209  -6904  -12130  -13140  -11612  -9336  -7268  -5358  -3283  -1342  -83  419  403  27  -655  -1501  -2246  -2714  -2845  -2432  -1222  478  1862  2553  2834  3006  3076  2971  2721  2423  2115  1703  1068  287  -440  -1050  -1536  -1776  -1635  -1064  -140  821  1401  1478  1272  934  333  -695  -1942  -2843  -3073  -2558  -1034  1333  3497  4350  3185  -203  -4768  -8433  -9897  -9401  -7956  -6989  -7545  -9109  -10432  -10875  -9997  -7400  -3900  -1334  -717  -1764  -3723  -5757  -7194  -7834  -7812  -7220  -6137  -4919  -3905  -2772  -644  3116  8333  14073  19133  22578  24204  24447  23494  21083  17636  14543  12818  12336  12469  12775  13098  13484  14114  15023  15941  16621  17115  17546  17892  18055  18005  17796  17519  17245  16991  16735  16497  16299  15956  15139  13757  12167  10875  9976  8978  7248  4656  1765  -553  -1751  -1991  -1847  -1710  -1665  -1690  -1768  -1890  -2040  -2174  -2090  -1390  143  2162  4108  5789  7178  8083  8416  8230  7471  6218  4977  4257  4088  4228  4537  4917  5100  4660  3295  1137  -1320  -3551  -5160  -5920  -5485  -3277  533  4399  6802  7614  7501  6889  5725  3739  988  -1732  -3395  -3704  -3122  -2248  -1515  -1085  -884  -790  -702  -521  -194  293  990  1746  2054  1673  1115  1167  2427  5190  9008  12387  13537  11336  5398  -3959  -15351  -25905  -31661  -29416  -18749  -3385  9459  13666  8937  358  -6345  -9069  -9363  -9915  -12628  -17293  -21768  -24335  -25106  -25055  -24834  -24537  -23965  -22915  -21305  -19340  -17585  -16550  -16142  -15671  -14370  -12072  -9370  -6981  -5274  -4358  -4105  -4196  -4414  -4691  -4941  -5037  -4919  -4668  -4438  -4312  -4249  -4182  -4103  -4042  -4004  -3977  -3993  -4145  -4577  -5457  -6839  -8444  -9782  -10548  -10799  -10787  -10719  -10659  -10583  -10483  -10380  -10236  -9953  -9509  -9004  -8537  -8095  -7467  -6313  -4589  -2846  -1739  -1388  -1644  -2541  -3988  -5431  -6348  -6750  -6915  -6965  -6911  -6766  -6402  -5428  -3430  -109  4591  9898  14394  17179  18308  18426  18229  18047  17848  17528  17078  16553  15930  15046  13866  12704  11910  11395  10807  10115  9617  9454  9495  9584  9629  9499  9077  8472  7991  7799  7797  7840  7868  7876  7862  7782  7540  7067  6492  6060  5838  5700  5535  5294  4972  4635  4312  3863  3154  2327  1641  1027  177  -882  -1680  -1694  -556  1630  3986  5499  5946  5771  5444  5203  5066  4849  4300  3473  2856  2806  3212  3881  4756  5754  6679  7290  7471  7113  6025  4398  2959  2254  2274  2838  3756  4722  5445  5836  5959  5919  5807  5741  5951  6651  7681  8459  8320  7089  5738  5522  6404  7601  8588  9056  9274  10024  11324  11869  10111  5454  -1437  -8459  -12669  -12893  -11018  -9546  -9425  -10283  -11279  -11764  -11324  -9654  -7123  -4702  -2854  -1432  -460  -103  -323  -843  -1184  -1016  -422  474  1602  2667  3362  3671  3668  3228  2181  774  -489  -1667  -3322  -5421  -7152  -7996  -8138  -7954  -7702  -7562  -7735  -8446  -9722  -11148  -12151  -12583  -12699  -12629  -12144  -11021  -9595  -8542  -8147  -8323  -9086  -10405  -11817  -12745  -13041  -12877  -12390  -11746  -11225  -10942  -10512  -8898  -4729  2295  10158  15901  18315  18273  16995  15216  13502  12097  10439  7759  4341  1397  -146  -368  -634  -2625  -6310  -10109  -12669  -13320  -12079  -9955  -8295  -7608  -7401  -7029  -6368  -5653  -5034  -4460  -3819  -3062  -2039  -450  1528  3098  3813  3961  3892  3668  3470  4103  6636  10975  15382  18229  19441  19837  19964  19575  17603  13009  6408  221  -3520  -4754  -4601  -3966  -3203  -2501  -2055  -2049  -2736  -4191  -5877  -6984  -7196  -6704  -5837  -4961  -4347  -4012  -3850  -3801  -3829  -3849  -3710  -3299  -2715  -2206  -1873  -1583  -1176  -655  -191  57  50  -201  -627  -1027  -1226  -1303  -1539  -2196  -3318  -4571  -5399  -5504  -4993  -4198  -3413  -2664  -1812  -835  99  754  1028  1032  906  707  451  190  24  -9  -94  -568  -1587  -2902  -4148  -5165  -5891  -5978  -4509  -849  3788  7164  8577  8931  8984  8956  8983  9236  9756  10348  10745  10808  10462  9702  8851  8415  8357  8078  7424  6944  7341  9163  12004  14057  13503  9845  3861  -2929  -9035  -13696  -16810  -18285  -17964  -16231  -13997  -12065  -10579  -8892  -6463  -3894  -2298  -1992  -2495  -3206  -3640  -3424  -2430  -1081  -115  198  179  201  413  783  1235  1767  2329  2748  2939  2990  3006  3024  3059  3102  3081  2942  2744  2372  1125  -1792  -6075  -10159  -12649  -13473  -13474  -13360  -13346  -13453  -13700  -13906  -13351  -11134  -7311  -3119  169  2109  2971  3246  3304  3316  3234  2810  1862  773  578  2103  4887  7474  8806  8565  6486  2794  -1031  -3382  -4079  -3988  -3840  -3866  -3958  -3772  -2929  -1357  697  2888  4789  6053  6569  6168  4536  1965  -381  -1602  -1864  -1789  -1699  -1614  -1526  -1478  -1403  -1025  -114  1085  2012  2271  1581  -241  -2713  -4817  -5814  -5296  -3208  -163  3188  6876  10964  14757  17212  17345  14200  7743  194  -4951  -6211  -5025  -3565  -3416  -4688  -5461  -4205  -1686  792  2699  3846  4365  4607  4759  4916  5259  5902  6780  7800  8914  10030  10974  11585  11889  12096  12342  12526  12294  11020  8036  3226  -2296  -6559  -8488  -8730  -8432  -8055  -7526  -6913  -6528  -6443  -6266  -5524  -4223  -2899  -1997  -1525  -1264  -983  -507  202  1072  1976  2724  3153  3268  3079  2453  1361  178  -587  -803  -685  -454  -237  -105  -65  -94  -191  -376  -732  -1442  -2570  -3779  -4570  -4764  -4476  -3847  -3089  -2454  -2050  -1826  -1622  -1262  -766  -358  -273  -716  -1836  -3512  -5337  -6925  -8077  -8745  -9008  -8866  -8004  -6065  -3241  -486  1143  1320  381  -1072  -2352  -2976  -2699  -1348  816  2978  4440  4987  4529  3038  1095  -300  -841  -1008  -1156  -1149  -797  -262  157  551  1283  2303  3046  2993  2068  755  -223  -564  -427  7  584  1058  1274  1295  1263  1257  1280  1267  1090  621  -123  -904  -1440  -1678  -1754  -1784  -1800  -1780  -1668  -1434  -1152  -955  -888  -897  -916  -908  -855  -773  -693  -622  -544  -443  -310  -158  -72  -235  -780  -1526  -2068  -2231  -2155  -2033  -1954  -1919  -1872  -1676  -1149  -339  416  873  1091  1228  1405  1703  2078  2374  2517  2574  2656  2837  3092  3321  3445  3428  3212  2744  2048  1283  677  334  215  304  718  1590  2812  4003  4820  5226  5384  5405  5306  5103  4816  4419  3914  3440  3172  3158  3334  3594  3854  4189  4872  6068  7448  8363  8413  7627  6381  5203  4390  3855  3350  2792  2329  2103  2139  2444  2996  3659  4222  4532  4564  4366  4002  3586  3225  2924  2641  2372  2153  2019  1969  1989  2070  2173  2235  2224  2164  2124  2142  2178  2211  2315  2582  3030  3613  4238  4762  5092  5212  4976  4043  2375  712  -187  -646  -1353  -2350  -3601  -4982  -5749  -5676  -6052  -8657  -14356  -22338  -30305  -32768  -32768  -32768  -32768  -32768  -31074  -26660  -20808  -14328  -8272  -3911  -1341  1128  4988  9870  14244  17077  18464  18979  19006  18568  17568  16301  15402  15153  15330  15438  14505  11385  6432  1910  -415  -893  -746  -630  -630  -703  -817  -909  -822  -354  497  1434  2109  2347  2019  1012  -464  -1862  -2798  -3272  -3430  -3450  -3502  -3644  -3831  -4007  -4130  -4139  -3869  -3094  -1757  -108  1382  2229  2203  1432  362  -543  -1211  -1761  -2153  -2438  -2903  -3711  -4715  -5651  -6377  -6970  -7551  -8093  -8570  -9119  -9860  -10674  -11362  -11872  -12215  -12378  -12416  -12453  -12560  -12693  -12694  -12311  -11360  -10075  -9043  -8596  -8635  -9012  -9646  -10361  -10938  -11302  -11496  -11388  -10526  -8540  -5533  -1916  1695  4719  7200  9369  10937  11609  11448  10530  9059  7620  6708  6314  6271  6501  6844  7129  7377  7732  8232  8600  8187  6349  3400  696  -853  -1614  -2283  -3045  -3701  -4086  -4255  -4262  -3887  -2907  -1623  -718  -547  -957  -1580  -2083  -2298  -2064  -1140  492  2699  5463  8306  10196  10710  10307  9550  8786  8200  7853  7672  7337  6487  5297  4396  4167  4548  5316  6186  6824  6687  4906  1193  -3069  -5844  -6288  -4710  -1857  1166  3451  4873  5751  6381  6960  7551  8050  8300  8198  7773  7245  6847  6540  6124  5517  4655  3306  1199  -1623  -4529  -6621  -7544  -7687  -7600  -7477  -7023  -5552  -2529  1547  5259  7556  8432  8479  8273  8082  7954  7893  7914  8030  8214  8388  8498  8534  8447  8139  7622  7097  6799  6907  7548  8602  9615  10114  9778  8504  6787  5524  5118  5358  5942  6275  4833  -83  -7850  -15012  -18758  -19433  -18893  -18288  -17895  -17718  -17688  -17683  -17624  -17516  -17383  -17172  -16846  -16425  -15622  -13672  -10092  -5640  -1911  190  1087  1661  2354  3068  3509  3422  2639  1231  -477  -2157  -3555  -4495  -5037  -5499  -6240  -7425  -8860  -10068  -10635  -10350  -9199  -7638  -6399  -5626  -4534  -2262  804  3270  4534  5243  6086  7074  7837  8188  8033  6900  4293  539  -3345  -6573  -8960  -10589  -11538  -11943  -11960  -11491  -10262  -8371  -6474  -5217  -4679  -4529  -4460  -4367  -4326  -4484  -4872  -5177  -4725  -2957  192  4325  8286  10356  9663  6742  2676  -1484  -4841  -6902  -7798  -7694  -6216  -3388  -152  2812  5474  7616  8847  9265  9234  8719  7454  5751  4440  3931  4063  4592  5276  6010  7001  8318  9580  10395  10740  10844  10906  10969  11012  11031  11063  11142  11147  10640  9045  6183  2527  -914  -3125  -3929  -3908  -3402  -2284  -724  586  1171  1114  697  187  -157  -185  117  671  1336  1957  2478  2996  3513  3879  4148  4623  5472  6689  8273  10126  12001  13556  14444  14582  14181  13524  12870  12406  12252  12382  12491  12247  11813  11703  12007  12152  11356  8776  3812  -2906  -9467  -13983  -15712  -15003  -12260  -7666  -2227  2186  4372  4524  3372  1438  -880  -3181  -5089  -6429  -7308  -7914  -8318  -8600  -8969  -9621  -10491  -11290  -11831  -12126  -12208  -11970  -11274  -10297  -9389  -8587  -7662  -6413  -4759  -2924  -1363  -327  337  969  1694  2405  3065  3716  4310  4779  5108  5295  5373  5403  5418  5366  5111  4561  3814  3137  2794  2968  3700  4675  5371  5601  5594  5567  5430  4852  3702  2417  1547  1045  457  -445  -1616  -2882  -3961  -4738  -5438  -6194  -6822  -7201  -7392  -7412  -7291  -7252  -7511  -7964  -8302  -8398  -8402  -8681  -9794  -12052  -14795  -16847  -17727  -17371  -15167  -10769  -5571  -1772  -123  178  -70  -629  -1297  -1738  -1807  -1623  -1284  -775  -203  196  332  277  84  -187  -269  392  2150  4407  5983  6304  5620  4390  2791  532  -2908  -7594  -12381  -15432  -15572  -12573  -7373  -2346  436  946  307  -666  -1603  -2251  -2480  -2362  -2124  -2009  -2140  -2442  -2668  -2549  -1969  -923  835  3621  6868  9287  10114  9078  6034  2035  -813  -1430  -376  1165  2191  2293  1661  884  767  1766  3557  5365  6613  7483  8988  11636  14229  14956  12643  6982  -420  -6454  -9339  -9496  -8167  -6860  -6646  -7060  -6867  -5402  -2595  1498  6545  11197  13877  14523  14289  14053  13976  13815  13241  12096  10344  7784  4318  388  -3311  -6223  -8067  -8952  -9224  -9115  -8624  -7672  -6217  -4351  -2543  -1478  -1524  -2566  -4042  -5257  -6026  -6695  -7479  -8130  -8301  -7982  -7355  -6356  -4523  -1234  3394  7873  10595  11376  10825  9170  6637  3843  1113  -1657  -4528  -7525  -10563  -13141  -14687  -15144  -14739  -13552  -11884  -10453  -9724  -9542  -9405  -8651  -6845  -4446  -2526  -1629  -1466  -1533  -1562  -1535  -1516  -1521  -1518  -1453  -1271  -892  -228  724  1927  3329  4692  5668  6149  6274  6184  5868  5092  3647  1909  694  326  472  708  665  -81  -1659  -3456  -4613  -4910  -4695  -4256  -3487  -1729  2115  8331  14950  19184  20398  19962  19065  18161  17491  17129  16848  16333  15524  14675  14081  13792  13662  13596  13539  13081  11481  8478  4787  1645  -70  -441  -121  450  1105  1732  2401  3159  3776  4351  5535  7509  9376  9821  7526  1317  -8140  -17747  -24470  -27046  -25807  -22447  -19078  -16895  -15877  -15463  -15193  -14841  -14414  -14120  -14109  -14308  -14535  -14454  -13445  -10916  -6760  -1441  3750  7056  7579  5526  1766  -2083  -4475  -5276  -5642  -6724  -8568  -10270  -11070  -10827  -9715  -8262  -7227  -6979  -7378  -7984  -7657  -4479  2404  10812  17224  20323  21270  21391  21125  20582  20022  19673  19421  18883  17688  15580  12508  8971  5837  3582  2211  1548  1313  1288  1369  1468  1551  1639  1724  1776  1810  1830  1759  1469  928  263  -325  -788  -1458  -2796  -4790  -6825  -8253  -8944  -9050  -8345  -6305  -3146  -149  1461  1231  -851  -4160  -7320  -9368  -10440  -11065  -11520  -11833  -11971  -11958  -11862  -11753  -11596  -11104  -9925  -8183  -6493  -5157  -3650  -1236  1876  4475  5695  5753  5301  4805  4485  4342  4280  4247  4214  4128  3982  3862  3974  4533  5493  6479  7128  7354  7292  7137  7018  6963  6928  6861  6757  6648  6562  6504  6450  6359  6241  6182  6242  6291  5794  3693  -668  -5933  -9596  -10909  -11132  -11451  -12119  -12986  -13917  -14720  -15162  -15185  -14908  -14473  -13828  -12620  -10660  -8422  -6618  -5545  -5119  -5168  -5520  -5969  -6301  -6415  -6336  -6110  -5800  -5463  -5012  -4267  -3180  -1755  226  2884  5590  7418  8136  8186  8054  7980  7935  7606  6493  4448  2194  726  115  -478  -1909  -4449  -7552  -10330  -12383  -13716  -14351  -14445  -14222  -13582  -12274  -10580  -9237  -8548  -8225  -7801  -6592  -3941  -269  2752  4048  4582  5916  8157  10396  11665  10818  7264  1907  -3720  -8187  -9901  -8279  -5040  -2616  -1705  -1168  173  2199  4058  5273  5741  5437  4557  3698  3470  3837  4388  4955  5509  6018  6639  7645  9038  10390  11231  11502  11460  11307  11041  10613  10134  9770  9450  8881  7888  6723  5870  5544  5725  6472  7816  9514  11138  12337  13041  13357  13388  13261  12914  11602  8301  3297  -1495  -4555  -5922  -6299  -6230  -6020  -5818  -5702  -5735  -5943  -6262  -6546  -6618  -6234  -5167  -3409  -1128  1304  3245  4301  4795  5267  5813  6146  6112  5875  5621  5397  5198  4962  4494  3572  2298  1184  754  1205  2349  3639  4530  4876  4727  3953  2503  810  -530  -1276  -1540  -1548  -1495  -1467  -1463  -1461  -1507  -1917  -3273  -5867  -9225  -12391  -14570  -15519  -15383  -14277  -12457  -10705  -9780  -9576  -9121  -7420  -4600  -1973  -584  -291  -392  -416  -254  9  267  488  658  606  -33  -1439  -3151  -4424  -5043  -5294  -5214  -4182  -1578  1923  4631  5720  5756  5518  5222  4744  4166  3898  4210  4889  5470  5718  5731  5675  5614  5566  5603  5825  6181  6371  5966  4766  3169  1892  1144  563  -124  -900  -1781  -2880  -4083  -4813  -4155  -1562  2052  4786  5672  4897  2673  -702  -4206  -6603  -7432  -6768  -4709  -1964  160  1063  1211  1208  1205  1011  348  -886  -2363  -3557  -4250  -4390  -3696  -1951  357  2243  3128  3116  2616  1959  1245  559  100  -67  -55  104  542  1311  2184  2888  3422  3869  4166  4257  4167  3919  3591  3422  3793  4957  6647  8268  9471  10252  10707  10973  11252  11750  12634  13928  15288  16131  15914  14299  11574  8709  6554  5335  4847  4728  4620  4213  3251  1538  -947  -3718  -5968  -7385  -8271  -8915  -9332  -9463  -9354  -9151  -8982  -8875  -8792  -8707  -8620  -8545  -8502  -8505  -8555  -8631  -8693  -8682  -8543  -8286  -8030  -7837  -7591  -7138  -6456  -5674  -4960  -4434  -4167  -4224  -4688  -5456  -6011  -5801  -5080  -5226  -7482  -11018  -13208  -11975  -7167  -822  3415  2901  -1604  -6593  -8673  -6974  -3050  677  1962  -163  -4097  -7010  -7821  -7101  -5149  -2020  1391  3690  3942  1605  -3201  -8731  -12588  -13982  -13815  -13112  -12301  -11155  -8773  -4490  850  5494  8451  9868  10330  10221  9606  8615  7635  6945  6505  6125  5639  4955  4068  3163  2547  2316  2358  2762  3730  5005  5959  6307  6173  5607  4510  2921  1156  -425  -1679  -2603  -3196  -3464  -3445  -3174  -2666  -1839  -573  995  2462  3502  4038  4215  4268  4367  4637  5200  6093  7208  8262  8923  9055  8661  7761  6487  5105  3806  2502  1006  -458  -1382  -1622  -1454  -1151  -877  -729  -685  -621  -369  235  1215  2306  3141  3595  3837  4045  4219  4302  4309  4304  4329  4342  4198  3769  3191  2770  2580  2403  2071  1668  1440  1687  2580  3796  4679  4953  4851  4662  4515  4470  4659  5217  6002  6564  6412  5310  3598  2035  1051  529  219  -91  -532  -1021  -1386  -1630  -1869  -2056  -2040  -1845  -1584  -1058  78  1601  2678  2633  1420  -294  -1580  -2131  -2266  -2219  -2120  -2215  -2534  -2819  -2950  -2946  -2663  -1882  -737  246  717  790  724  621  483  359  350  475  685  956  1238  1420  1452  1404  1417  1655  2172  2795  3262  3474  3512  3470  3380  3236  2999  2646  2347  2397  2813  3273  3513  3496  3116  1834  -924  -4703  -8207  -10653  -12050  -12663  -12749  -12284  -11000  -9028  -7142  -6024  -5707  -5892  -6373  -6968  -7460  -7820  -8184  -8577  -8910  -9162  -9365  -9441  -9055  -7813  -5894  -4162  -3299  -3195  -3305  -3110  -2349  -1278  -479  -197  -214  -289  -377  -541  -794  -1026  -1109  -1150  -1566  -2769  -4684  -6743  -8402  -9500  -10174  -10646  -11054  -11366  -11484  -11406  -11235  -11062  -10882  -10655  -10374  -10083  -9837  -9646  -9488  -9328  -9124  -8880  -8629  -8269  -7592  -6583  -5580  -4960  -4819  -5122  -5877  -6929  -7875  -8424  -8648  -8780  -8948  -9084  -8918  -8058  -6341  -4138  -2180  -1005  -606  -631  -821  -1094  -1124  36  3316  8206  12736  15396  16327  16470  16442  16405  16374  16377  16437  16532  16613  16662  16693  16705  16669  16562  16425  16298  16028  15308  14112  12903  12158  11902  11856  11757  11507  11310  11555  12391  13572  14710  15386  14943  12648  8740  4795  2251  1188  880  761  630  337  -383  -1578  -2759  -3261  -2776  -1532  -147  877  1536  2036  2437  2730  2925  3000  2997  3060  3177  3147  2894  2557  2260  2021  1824  1699  1613  1346  788  259  302  1056  1920  2378  2698  3027  2669  964  -2236  -7342  -13888  -18567  -18114  -13426  -7835  -3868  -2758  -3924  -5695  -7576  -9880  -12208  -13876  -14773  -15086  -14620  -12919  -10144  -7150  -4503  -2040  629  3387  5449  6243  5965  5073  3607  1352  -1209  -2985  -3604  -3736  -4387  -6262  -8963  -11021  -10927  -7825  -2369  2971  6036  6867  6726  6453  6223  6011  5819  5619  5336  4948  4515  3963  2871  841  -1835  -4196  -5443  -5377  -4068  -1831  634  2659  4014  4840  5394  5821  6115  6252  6275  6253  6218  6153  5985  5482  4261  2198  -142  -1916  -2890  -3491  -4120  -4762  -5178  -5304  -5301  -5313  -5253  -4705  -3095  -292  2914  5332  6466  6738  6760  6796  6837  6851  6909  7159  7681  8319  8764  8848  8596  8137  7667  7296  6876  6126  4987  3811  3084  3060  3762  4964  6126  6756  6764  6335  5753  5313  5101  4924  4539  3882  3053  2222  1603  1309  1271  1307  1136  488  -569  -1677  -2599  -3220  -3489  -3981  -6001  -10169  -15042  -18160  -18021  -14572  -9243  -4258  -797  1428  3100  4540  5612  6164  6350  6329  6086  5719  5539  5727  6092  6307  6284  6170  6076  6006  6013  6289  6985  7888  8560  8778  8535  7806  6687  5486  4493  3794  3152  2076  418  -1284  -2407  -2820  -2768  -2501  -2175  -1891  -1671  -1408  -961  -397  11  100  -86  -411  -743  -1032  -1276  -1387  -1198  -697  -225  -259  -896  -1615  -1647  -941  -738  -2792  -8235  -16903  -26940  -32768  -32768  -32768  -32768  -32768  -32768  -30501  -18912  -8525  -1816  1334  2632  3621  5105  7032  8829  10088  10720  10621  9501  7360  5006  3447  2830  2596  2395  2263  2208  2105  1930  1825  1948  2354  2935  3508  4019  4656  5674  7057  8416  9348  9800  9889  9449  8065  5761  3409  1990  1731  2360  3650  5398  7273  8761  8683  4815  -3987  -14662  -21904  -23091  -18781  -11185  -3911  149  1168  1034  844  523  -101  -644  -580  11  578  814  808  687  493  308  242  168  -418  -1975  -4176  -6130  -7393  -8090  -8330  -8072  -7241  -5820  -3995  -2176  -790  -10  316  467  598  752  935  1087  1069  652  -344  -1651  -2592  -2756  -2246  -1448  -847  -932  -2104  -4306  -6776  -8592  -9398  -9433  -9102  -8710  -8408  -8181  -7884  -7357  -6582  -5774  -5166  -4667  -3888  -2560  -740  1461  3886  6027  7389  8028  8242  7892  6450  3865  971  -1354  -2857  -3660  -3941  -3626  -2317  20  2572  4306  4811  4368  3603  3080  2995  3354  4561  7141  10430  12832  13812  14135  14336  14298  13904  13123  11837  10227  8844  8042  7752  7742  7815  7886  7912  7782  7366  6726  6143  5833  5784  5930  6267  6758  7269  7454  6506  3403  -1974  -7983  -12296  -14046  -14125  -13634  -12910  -11863  -10581  -9383  -8465  -7885  -7670  -7725  -8011  -8554  -9060  -9149  -8787  -8184  -7503  -6576  -4959  -2650  -405  1069  1742  1960  2038  2090  1885  964  -799  -2793  -4176  -4688  -4614  -4246  -3732  -3201  -2696  -2157  -1633  -1292  -1179  -1193  -1277  -1452  -1694  -1909  -2026  -2014  -1849  -1587  -1435  -1737  -2745  -4273  -5810  -7004  -7821  -8451  -9208  -10009  -9969  -8351  -5626  -2627  475  3634  6552  9308  12007  13626  12628  8662  3135  -1620  -3672  -2506  641  3998  6723  8574  9439  9669  9863  10302  10838  11206  11329  11297  11201  11098  11098  11385  12073  13007  13882  14515  14884  15048  15073  14877  14303  13439  12630  12163  12206  12798  13627  14127  14009  13442  12655  11711  10774  10149  9912  9881  9880  9839  9761  9670  9587  9563  9657  9858  10049  10029  9583  8557  6721  3837  328  -2720  -4637  -5582  -6041  -6484  -7199  -8067  -8710  -8964  -8908  -8536  -7816  -6983  -6417  -6231  -6200  -5875  -4724  -2678  -533  779  1143  991  558  -166  -1068  -1836  -2251  -2353  -2303  -2223  -2172  -2155  -2153  -2161  -2192  -2266  -2393  -2573  -2774  -2944  -3048  -3102  -3181  -3417  -3913  -4621  -5357  -6013  -6642  -7236  -7624  -7708  -7557  -7291  -7035  -6869  -6796  -6789  -6829  -6877  -6830  -6488  -5710  -4669  -3740  -3154  -2914  -2928  -3106  -3366  -3619  -3841  -4111  -4521  -5053  -5567  -5949  -6238  -6484  -6629  -6640  -6596  -6564  -6432  -5989  -5223  -4433  -3868  -3450  -3010  -2587  -2326  -2246  -2268  -2383  -2663  -3098  -3517  -3746  -3787  -3751  -3711  -3686  -3725  -3938  -4388  -4956  -5421  -5672  -5720  -5597  -5548  -6321  -8610  -11775  -14137  -14802  -14067  -12577  -11072  -10155  -9863  -9859  -9913  -9964  -9986  -9970  -9947  -9927  -9844  -9582  -9021  -8013  -6446  -4535  -2908  -2064  -1887  -1931  -1938  -1903  -1874  -1856  -1838  -1846  -1956  -2210  -2517  -2718  -2756  -2692  -2612  -2562  -2564  -2634  -2731  -2591  -1628  589  3461  5634  6476  6463  6237  6044  5900  5829  5956  6426  7203  7986  8478  8653  8655  8553  8270  7721  6884  5830  4805  4112  3807  3706  3652  3604  3565  3546  3573  3676  3844  4018  4140  4175  4119  4012  3921  3881  3896  3969  4096  4245  4362  4375  4224  3888  3409  2892  2455  2174  2068  2114  2280  2485  2636  2740  2922  3272  3716  4092  4322  4436  4512  4611  4724  4769  4697  4574  4537  4667  4884  5025  5016  4917  4801  4662  4455  4147  3693  3105  2554  2216  2064  1932  1735  1523  1393  1396  1482  1533  1474  1335  1195  1074  939  780  632  529  487  534  679  865  999  1052  1059  1052  1037  999  911  740  471  175  -39  -145  -204  -268  -341  -368  -219  210  824  1339  1560  1532  1417  1330  1301  1318  1376  1467  1542  1482  1152  568  -15  -353  -410  -255  50  388  609  678  671  657  659  679  694  632  412  60  -281  -498  -574  -548  -437  -137  547  1629  2723  3380  3561  3526  3474  3458  3473  3520  3588  3636  3588  3376  3043  2714  2398  1906  1111  202  -485  -820  -862  -688  -392  -114  72  217  368  498  582  634  641  572  441  296  165  29  -159  -379  -534  -583  -579  -578  -593  -597  -567  -482  -244  304  1205  2280  3259  3971  4420  4681  4803  4826  4812  4856  5100  5658  6425  7115  7550  7763  7764  7341  6187  4230  1846  -217  -1335  -1463  -964  -237  371  647  495  -118  -1004  -1782  -2252  -2477  -2571  -2603  -2631  -2689  -2754  -2757  -2629  -2317  -1853  -1392  -1081  -931  -883  -871  -798  -551  -145  193  168  -291  -811  -960  -693  -23  1084  2261  2843  2479  987  -1852  -5472  -8704  -11032  -12380  -12440  -11088  -8691  -5772  -2843  -387  1355  2404  2815  2480  1172  -868  -2732  -3678  -3640  -2843  -1635  -543  58  180  -118  -1064  -2982  -5643  -8059  -9405  -9727  -9463  -8879  -8189  -7672  -7418  -7160  -6448  -5018  -3061  -1208  -130  -36  -651  -1473  -2037  -2208  -2148  -2007  -1839  -1788  -2252  -3574  -5393  -6816  -7349  -6991  -5809  -4188  -2899  -2374  -2419  -2629  -2513  -1393  1004  3782  5615  6172  5987  5428  4427  2764  385  -2217  -4156  -4988  -5048  -4878  -4753  -4713  -4737  -4818  -4940  -5056  -5128  -5157  -5155  -5103  -4978  -4769  -4315  -3148  -957  1638  3449  3869  2983  1104  -1134  -2978  -4125  -4714  -4962  -5053  -5133  -5264  -5435  -5589  -5662  -5647  -5600  -5625  -5856  -6359  -6980  -7405  -7328  -6541  -5175  -3788  -2906  -2586  -2557  -2586  -2635  -2677  -2409  -1347  549  2549  3896  4590  5121  5813  6568  7107  7332  7361  7334  7315  7309  7297  7266  7217  7135  6991  6817  6699  6661  6619  6487  6297  6173  6080  5641  4416  2500  579  -828  -1807  -2563  -3086  -3290  -2951  -1737  223  2201  3601  4403  4818  4940  4783  4376  3740  2920  2144  1720  1755  2074  2280  1986  1170  41  -1276  -2357  -2418  -1352  174  1564  2303  1846  165  -1958  -3557  -4096  -3319  -1423  683  2142  2845  3123  3252  3354  3500  3760  4110  4408  4560  4596  4529  4285  3842  3355  3012  2831  2709  2584  2457  2343  2219  1963  1473  864  394  202  205  258  295  345  458  660  941  1225  1397  1381  1175  873  622  500  463  409  234  -88  -481  -853  -1186  -1492  -1734  -1854  -1802  -1542  -1130  -720  -414  -218  -126  -109  -85  18  187  329  337  117  -356  -960  -1467  -1733  -1790  -1740  -1641  -1506  -1349  -1184  -1007  -806  -602  -473  -468  -566  -725  -887  -987  -1019  -995  -912  -800  -697  -596  -488  -417  -463  -672  -978  -1233  -1349  -1331  -1221  -1066  -913  -793  -726  -700  -691  -703  -751  -811  -811  -687  -459  -232  -78  11  41  -3  -100  -221  -333  -393  -383  -326  -274  -277  -335  -386  -376  -312  -236  -158  -59  42  89  19  -172  -414  -603  -701  -731  -717  -634  -409  57  800  1681  2448  2933  3151  3204  3112  2757  2052  1097  140  -589  -1020  -1214  -1245  -1152  -967  -760  -612  -544  -522  -528  -560  -589  -551  -405  -200  -46  19  70  188  396  652  867  982  1010  989  931  825  676  520  402  374  522  934  1575  2268  2823  3180  3426  3627  3726  3681  3584  3559  3607  3625  3518  3231  2701  1843  702  -389  -992  -856  -14  1110  1916  2200  2212  2193  2197  2206  2213  2228  2251  2259  2228  2165  2098  2060  2069  2139  2287  2491  2644  2570  2110  1325  527  -16  -311  -502  -672  -822  -962  -1108  -1244  -1311  -1148  -567  367  1292  1894  2127  2062  1727  1198  699  427  372  410  462  516  600  750  952  1148  1300  1405  1448  1381  1163  863  643  615  784  1069  1326  1322  724  -605  -2208  -3350  -3769  -3697  -3361  -2844  -2252  -1702  -1236  -875  -664  -562  -450  -289  -122  28  139  104  -270  -1129  -2236  -2985  -2825  -1633  43  1313  1841  1899  1559  227  -2655  -6019  -7361  -5319  -819  4163  7890  9440  8780  6400  2613  -2345  -7245  -10486  -11707  -10613  -6614  -1742  790  932  583  599  876  1209  1555  1964  2423  2909  3464  4144  4936  5703  6278  6614  6734  6483  5525  3796  1802  240  -530  -560  24  1100  2322  3305  3965  4410  4712  4813  4393  3096  1188  -502  -1508  -2023  -2413  -2890  -3461  -3971  -4295  -4524  -4937  -5765  -6914  -8037  -8905  -9495  -9834  -9987  -10035  -9909  -9398  -8434  -7291  -6380  -5903  -5763  -5822  -6152  -6874  -7785  -8448  -8565  -8030  -6834  -5104  -3061  -1072  371  1037  1081  662  -182  -1194  -1847  -1660  -492  1171  2498  3104  3213  3161  3133  3160  3142  2907  2325  1449  498  -386  -1307  -2377  -3420  -4132  -4405  -4232  -3519  -2356  -1221  -621  -779  -1655  -2844  -3726  -4041  -3976  -3728  -3285  -2478  -1120  707  2459  3482  3563  2926  2005  1268  924  871  991  1297  1792  2376  2943  3434  3779  3937  3949  3892  3842  3830  3834  3822  3768  3611  3302  2922  2635  2497  2447  2435  2435  2396  2264  2056  1865  1765  1732  1635  1334  858  387  52  -138  -238  -306  -404  -640  -1104  -1714  -2283  -2711  -2985  -3125  -3179  -3163  -2978  -2533  -1965  -1556  -1423  -1482  -1633  -1803  -1906  -1863  -1646  -1348  -1129  -1048  -1044  -1067  -1155  -1363  -1658  -1910  -2038  -2060  -2005  -1860  -1634  -1355  -1045  -760  -588  -540  -548  -539  -465  -310  -79  254  754  1438  2216  2907  3334  3476  3453  3332  3022  2403  1534  622  -147  -669  -943  -979  -636  157  1075  1572  1386  741  152  77  696  1733  2508  2536  1873  856  -68  -516  -463  -226  -28  203  525  808  980  1119  1294  1449  1450  1257  957  673  519  596  944  1417  1758  1851  1771  1641  1562  1635  1920  2319  2648  2840  2956  3047  3132  3220  3315  3426  3543  3643  3702  3642  3324  2722  2065  1621  1421  1303  1118  816  468  200  45  -80  -229  -357  -369  -155  315  861  1222  1326  1272  1154  1029  940  874  792  695  614  546  468  403  404  483  598  710  804  851  774  504  120  -182  -299  -263  -137  10  111  150  161  157  106  -19  -168  -256  -284  -314  -353  -356  -290  -146  53  257  378  291  -154  -989  -1955  -2689  -3115  -3438  -3776  -4052  -4197  -4219  -4070  -3670  -3127  -2689  -2447  -2333  -2293  -2235  -1985  -1458  -815  -328  -116  -83  -56  73  265  400  428  440  653  1279  2207  3004  3376  3358  3064  2580  2039  1595  1335  1224  1131  944  696  514  450  443  442  472  626  968  1413  1756  1878  1817  1599  1207  752  434  319  358  560  941  1402  1827  2236  2642  2928  2939  2564  1812  847  -158  -1120  -2014  -2859  -3587  -4010  -3987  -3506  -2736  -1999  -1531  -1351  -1315  -1245  -1178  -1324  -1668  -1903  -1730  -1208  -840  -1106  -2034  -3208  -3969  -3953  -3446  -3016  -3045  -3460  -3865  -4033  -4038  -3976  -3816  -3453  -2871  -2235  -1767  -1539  -1449  -1400  -1371  -1330  -1213  -1014  -785  -576  -424  -336  -250  -50  328  794  1159  1298  1049  204  -1126  -2397  -3156  -3444  -3505  -3386  -2859  -1500  793  3117  3943  2338  -1393  -5644  -8014  -6831  -2490  2902  7133  8897  7845  4543  170  -3962  -6810  -8086  -8350  -8351  -8476  -8824  -9339  -9827  -10158  -10426  -10781  -11181  -11467  -11611  -11733  -11893  -12011  -12021  -11990  -12099  -12514  -13162  -13774  -14183  -14274  -13553  -11165  -6879  -2021  1493  3148  3895  4527  5087  5789  7398  10159  13095  15022  15647  15239  14054  12573  11517  11167  11267  11533  11816  12007  12016  11775  11281  10672  10140  9639  8799  7420  5933  4966  4646  4677  4827  5054  5342  5657  6019  6395  6654  6728  6674  6553  6383  6232  6422  7535  9809  12466  14266  14601  13478  11192  8515  6320  4929  4184  3802  3585  3487  3477  3512  3582  3683  3847  4141  4558  4939  4813  3334  52  -3982  -6918  -7955  -7376  -5536  -3021  -668  1176  2542  3351  3546  3067  1791  99  -862  -195  1668  3389  3987  3330  1533  -1603  -6255  -12113  -18474  -23966  -26497  -25342  -22478  -19924  -17931  -16478  -15427  -13719  -10699  -7291  -4626  -2515  -382  1489  2570  2887  2823  2691  2655  2840  3314  3962  4655  5406  6017  6057  5508  4760  3920  2867  1784  1124  1333  2698  4971  7351  9103  9901  9654  8440  6782  5491  4899  4763  4852  5163  5750  6528  7224  7620  7745  7682  7340  6619  5717  5027  4728  4674  4578  4236  3730  3361  3342  3651  3912  3127  155  -4965  -10970  -16505  -20501  -22473  -22800  -21803  -19375  -16209  -13964  -13769  -15499  -18035  -19862  -19921  -17917  -14297  -10096  -6576  -4650  -4052  -3503  -2153  -392  956  1712  2187  2653  3285  4058  4728  5220  5791  6727  8015  9481  11047  12467  13355  13688  13734  13634  13399  12951  11781  9085  4824  39  -4134  -7043  -8489  -8755  -8378  -7817  -7377  -7179  -7167  -7242  -7365  -7563  -7882  -8296  -8721  -9156  -9668  -10176  -10461  -10412  -10088  -9525  -8425  -5955  -1477  4043  8378  10296  10452  10058  9755  9641  9639  9688  9778  9892  9987  10050  10117  10246  10474  10753  10969  11055  10963  10604  9955  9181  8517  7960  7063  5295  2624  -444  -3127  -4732  -5316  -5740  -6848  -8614  -10031  -9685  -6506  -874  4975  8652  9513  8781  8136  8089  7759  6041  2627  -1484  -4139  -3828  -1555  -5  -1014  -3883  -6040  -5707  -3377  -712  971  1198  -14  -2485  -5664  -8530  -10199  -10628  -10291  -9479  -8364  -7205  -6169  -5349  -4962  -5261  -6166  -7125  -7497  -7099  -6308  -5390  -3791  -855  2678  5159  5953  5611  4703  3629  2827  2505  2540  2773  3136  3540  3798  3595  2613  1010  -468  -1259  -1552  -1898  -2633  -3733  -4963  -6016  -6635  -6799  -6635  -6221  -5721  -5523  -6032  -7272  -8764  -9944  -10567  -10293  -8213  -3615  2656  8355  11845  13349  13925  14180  14249  14200  14135  14105  14059  13940  13778  13627  13449  13154  12813  12683  12909  13122  12194  8970  3987  -658  -3736  -5595  -6750  -7312  -7272  -6529  -5091  -3441  -2253  -1849  -2380  -4028  -6399  -8445  -9488  -9544  -8560  -6400  -3664  -1447  -242  197  289  309  297  82  -493  -1281  -1909  -2221  -2331  -2286  -1838  -515  1979  5235  8046  9047  7675  4758  1877  -34  -872  -606  512  1438  791  -2664  -9604  -18607  -26049  -28929  -26634  -20321  -12497  -6463  -4149  -4654  -5832  -6496  -6597  -6513  -6653  -7130  -7729  -8245  -8643  -8885  -8603  -7120  -4216  -670  2344  4245  5226  5743  6048  6133  5840  4970  3440  1355  -969  -2982  -4105  -4047  -2826  -826  1228  2735  3529  3819  3911  3818  3109  1280  -1603  -4592  -6582  -7415  -7707  -7923  -8135  -8298  -8374  -8208  -7379  -5365  -2114  1427  3867  4665  4104  2515  513  -937  -1341  -785  470  1922  2964  3355  3039  1803  -241  -2290  -3540  -3700  -2526  357  4724  9156  11981  12867  12747  12495  12368  12215  11739  10682  9046  7308  6140  5735  5777  5914  5922  5710  5345  4979  4737  4591  4406  4114  3692  3019  2022  965  275  65  148  381  723  1080  1183  590  -937  -2908  -4430  -5139  -5275  -5028  -4350  -3356  -2482  -2046  -1994  -2150  -2428  -2760  -3061  -3301  -3481  -3576  -3572  -3510  -3466  -3522  -3743  -4115  -4564  -5036  -5462  -5731  -5809  -5752  -5601  -5346  -4865  -3965  -2706  -1418  -230  921  1928  2609  2971  3142  3177  2895  2008  580  -809  -1639  -1924  -1951  -1891  -1797  -1735  -1794  -1962  -2231  -2848  -4044  -5496  -6566  -6895  -6270  -4470  -1914  250  1262  1338  1071  906  1240  2345  3881  5047  5439  5189  4540  3885  3674  3878  4169  4506  4978  5897  8034  11204  13458  12545  6993  -3033  -14797  -24062  -27644  -24864  -17258  -8104  -1155  1935  2329  2046  2096  2371  2544  2534  2415  2437  3227  5391  8553  11485  13326  14069  14148  13971  13598  12666  10841  8594  6955  6312  6215  6203  6096  5607  4209  1741  -1209  -3737  -4966  -3910  -25  5261  9208  10606  10046  7981  4652  1208  -897  -1360  -908  -275  120  15  -775  -2100  -3334  -3827  -3385  -2319  -1237  -605  -469  -717  -1303  -2055  -2707  -3207  -3642  -3991  -4164  -4056  -3510  -2508  -1424  -747  -592  -726  -842  -588  282  1494  2406  2725  2597  2167  1544  972  663  600  650  735  834  912  883  633  233  152  948  2834  5625  8666  11004  12154  12417  12211  11453  9691  6406  1426  -4465  -9608  -12543  -12904  -11053  -7411  -2260  3946  9513  11805  8824  384  -10337  -17959  -19288  -14978  -7778  -1035  2270  1253  -2404  -6593  -10052  -12071  -12740  -12734  -12291  -11068  -8968  -6515  -4400  -3052  -2544  -2720  -3388  -4240  -4844  -4937  -4509  -3721  -2866  -2173  -1650  -1229  -926  -767  -684  -556  -354  -168  -73  -50  -48  -45  -62  -130  -256  -426  -609  -722  -681  -425  182  1274  2606  3620  3940  3619  3358  4139  6090  8426  10193  10823  11034  12338  14753  16348  14800  8896  -375  -10285  -18183  -22739  -24150  -23636  -22434  -21240  -20430  -20104  -20001  -19874  -19510  -18168  -14755  -9123  -2878  1761  3878  4271  4200  4247  4368  4455  4495  4403  3965  3025  1735  552  -130  -315  -266  -199  -172  -121  90  588  1497  2964  4905  6778  7793  7229  4835  1584  -808  -1655  -1494  -862  73  1186  2212  2871  3125  3098  2767  2026  1088  406  167  221  437  818  1421  2349  3664  5266  6945  8552  10052  11355  12292  12901  13403  13851  14127  14173  14028  13762  13485  13297  13214  13192  13135  12772  11486  8640  4673  1267  -380  -578  -159  472  1223  1974  2539  2827  2927  3050  3348  3783  4208  4510  4647  4647  4530  4236  3771  3359  3288  3573  3854  3700  2741  710  -1899  -3889  -4506  -3608  -1279  1604  3581  3928  2972  1502  302  -279  -396  -325  -228  -184  -325  -781  -1478  -2218  -2924  -3507  -3703  -3362  -2679  -1813  -401  1946  4683  6721  7689  7881  7229  5301  2430  -111  -1450  -1795  -1777  -1798  -1952  -2191  -2448  -2692  -2916  -3095  -3198  -3224  -3193  -3136  -3081  -3038  -3002  -2956  -2853  -2645  -2375  -2156  -2041  -1988  -1923  -1823  -1734  -1744  -1955  -2398  -2943  -3395  -3671  -3836  -3961  -4014  -3913  -3645  -3295  -2990  -2809  -2743  -2722  -2680  -2617  -2583  -2569  -2396  -1815  -813  225  874  1059  887  314  -766  -2182  -3526  -4544  -5234  -5647  -5856  -6013  -6252  -6550  -6749  -6689  -6297  -5709  -5225  -5014  -5003  -5053  -5093  -5089  -4991  -4757  -4410  -4047  -3757  -3534  -3300  -2985  -2581  -2174  -1894  -1789  -1831  -2038  -2413  -2828  -3092  -3045  -2593  -1820  -1023  -442  -42  341  767  1170  1498  1734  1863  1965  2300  3099  4149  4907  5128  4983  4692  4383  4122  3880  3614  3371  3197  3035  2775  2391  1947  1442  785  69  -414  -555  -520  -517  -638  -842  -1046  -1239  -1456  -1683  -1869  -1971  -1960  -1819  -1569  -1291  -1064  -908  -802  -690  -489  -183  106  262  293  273  261  263  242  138  -89  -435  -843  -1220  -1476  -1593  -1627  -1637  -1652  -1682  -1730  -1772  -1696  -1341  -635  302  1190  1762  2005  2116  2222  2307  2349  2376  2411  2390  2150  1577  767  -39  -699  -1226  -1674  -2129  -2725  -3509  -4319  -4919  -5212  -5260  -5177  -5069  -4949  -4629  -3885  -2808  -1795  -1151  -892  -881  -999  -1205  -1488  -1816  -2152  -2446  -2635  -2697  -2664  -2574  -2464  -2372  -2299  -2198  -1998  -1657  -1235  -838  -514  -277  -128  17  277  626  901  1031  1057  1011  929  993  1544  2778  4354  5604  6173  6092  5373  4083  2647  1520  640  -305  -1245  -1830  -1945  -1746  -1420  -1077  -767  -526  -385  -346  -412  -621  -965  -1311  -1508  -1512  -1370  -1151  -866  -391  433  1584  2744  3471  3510  2840  1697  613  30  -81  -12  41  77  229  668  1426  2245  2757  2832  2600  2276  2031  1898  1826  1822  1963  2289  2794  3556  4680  5984  7166  8220  9153  9680  9598  9070  8398  7667  6651  5243  3783  2657  1950  1630  1703  2143  2762  3257  3395  2988  1854  85  -1803  -3194  -3781  -3533  -2515  -1075  229  1153  1784  2235  2563  2740  2588  1908  812  -211  -718  -480  583  2163  3656  4785  5569  5890  5644  5010  4221  3287  2118  799  -342  -1006  -1203  -1168  -1115  -1176  -1409  -1750  -2047  -2196  -2168  -1976  -1685  -1412  -1254  -1220  -1261  -1342  -1444  -1543  -1599  -1598  -1566  -1536  -1520  -1514  -1527  -1571  -1645  -1723  -1784  -1820  -1832  -1827  -1817  -1799  -1749  -1675  -1604  -1520  -1368  -1152  -940  -767  -630  -545  -519  -524  -531  -537  -559  -619  -736  -937  -1212  -1475  -1625  -1652  -1616  -1581  -1626  -1834  -2195  -2535  -2484  -1510  556  2942  4541  5031  4780  4137  3389  2877  2795  3121  3709  4324  4770  4998  5068  5047  4931  4610  3948  2933  1799  890  312  -92  -418  -610  -610  -449  -238  -82  58  313  695  1070  1342  1487  1384  785  -349  -1476  -1753  -868  742  2367  3129  2230  -228  -3428  -6733  -9541  -11224  -11789  -11618  -10922  -9954  -8965  -7921  -6799  -5809  -5046  -4343  -3602  -2942  -2459  -2115  -1851  -1660  -1587  -1658  -1837  -2064  -2310  -2512  -2424  -1614  93  2195  3883  4791  5054  4868  4284  3422  2568  1939  1558  1337  1120  717  51  -766  -1567  -2229  -2748  -3325  -4142  -5087  -5887  -6348  -6407  -6169  -5832  -5480  -5061  -4525  -3903  -3321  -2920  -2755  -2759  -2770  -2428  -1312  461  2103  3036  3492  4088  5172  6504  7403  7115  5205  2167  -676  -2422  -3164  -3383  -3396  -3270  -2940  -2386  -1802  -1539  -1772  -2315  -2842  -3179  -3330  -3355  -3294  -3161  -2993  -2882  -2933  -3205  -3621  -4015  -4236  -4003  -2727  30  3621  6643  8419  8895  7950  6200  4868  4528  5232  6838  8474  8754  6988  3844  598  -1724  -2393  -1472  -61  936  1441  1587  1543  1559  1707  1861  1949  2002  2048  2077  2074  2026  1909  1695  1377  1013  705  512  378  136  -372  -1142  -1933  -2400  -2296  -1605  -644  132  590  834  890  789  663  600  595  612  634  644  578  331  -125  -656  -1125  -1543  -1923  -2167  -2200  -2039  -1702  -1246  -822  -524  -292  -83  53  111  194  394  664  870  942  896  759  585  470  458  501  508  444  378  402  538  786  1170  1676  2247  2858  3505  4142  4681  5031  5192  5268  5306  5148  4520  3419  2303  1672  1651  2089  2713  3214  3429  3339  2939  2302  1611  976  444  88  -89  -186  -266  -333  -373  -381  -348  -255  -102  39  60  -51  -186  -249  -236  -188  -141  -98  -23  88  185  198  99  -52  -180  -268  -321  -343  -369  -432  -522  -587  -581  -494  -363  -236  -134  -88  -204  -571  -1065  -1429  -1566  -1574  -1532  -1394  -1085  -629  -181  101  207  196  83  -117  -295  -303  -135  92  313  512  649  701  700  694  750  930  1202  1428  1419  996  132  -897  -1739  -2297  -2652  -2806  -2710  -2405  -2060  -1838  -1764  -1780  -1798  -1709  -1511  -1340  -1276  -1284  -1302  -1287  -1204  -1042  -850  -733  -820  -1209  -1795  -2290  -2514  -2534  -2484  -2423  -2365  -2325  -2329  -2395  -2494  -2554  -2509  -2409  -2416  -2506  -2394  -1942  -1244  -377  569  1560  2633  3477  3507  2492  705  -1246  -2702  -3362  -3357  -3053  -2757  -2548  -2366  -2146  -1926  -1767  -1647  -1523  -1399  -1315  -1297  -1323  -1335  -1242  -944  -409  226  764  1135  1381  1546  1662  1753  1792  1667  1280  747  349  222  305  524  861  1338  1957  2598  3099  3429  3647  3806  3980  4249  4608  5005  5419  5799  6065  6209  6285  6321  6315  6268  6197  6125  6056  5937  5621  4938  3937  2930  2199  1808  1660  1624  1610  1566  1473  1359  1257  1181  1118  1003  752  413  150  58  141  420  931  1610  2238  2604  2705  2676  2580  2390  2105  1798  1561  1444  1423  1438  1447  1441  1425  1409  1391  1382  1421  1554  1756  1921  1978  1957  1886  1666  1176  521  -5  -254  -307  -290  -276  -281  -298  -328  -359  -338  -198  44  272  372  329  199  20  -214  -466  -637  -659  -498  -172  200  467  579  596  584  557  456  212  -125  -385  -383  18  796  1663  2290  2594  2685  2647  2504  2276  1962  1542  1037  602  433  603  991  1373  1597  1674  1634  1413  967  442  56  -135  -218  -290  -452  -773  -1226  -1748  -2285  -2773  -3138  -3345  -3413  -3386  -3284  -3089  -2659  -1816  -749  17  223  39  -260  -494  -648  -863  -1301  -2065  -3138  -4276  -5125  -5528  -5609  -5562  -5500  -5466  -5468  -5493  -5513  -5470  -5316  -5062  -4775  -4517  -4327  -4205  -4083  -3877  -3555  -3135  -2662  -2227  -1916  -1716  -1544  -1366  -1198  -1058  -953  -869  -784  -694]
