reading_id,reading_time,wire_id,result_classification,heart_rate,heart_rate_alert,firmware_version,device_app_version,hardware_version,waveform_samples
e041c280-5fec-11ed-8080-808080808080,Wed Nov 09 05:10:49 UTC 2022,a10163b41b39,UNCLASSIFIABLE,85,NONE,20001.171.50,2.10.0,Charge 5,[-885  -1579  -2058  -2374  -2675  -2953  -3132  -3223  -3242  -3049  -2463  -1610  -908  -586  -542  -676  -1043  -1651  -2315  -2813  -3073  -3184  -3166  -2736  -1554  89  1365  1841  1710  1227  518  -206  -699  -952  -1200  -1608  -2069  -2369  -2434  -2330  -2136  -1934  -1802  -1764  -1794  -1845  -1877  -1865  -1793  -1651  -1451  -1215  -930  -601  -301  -85  54  132  152  107  -10  -158  -244  -232  -202  -350  -828  -1498  -1988  -2085  -1855  -1485  -1143  -955  -1118  -1793  -2742  -3447  -3615  -3236  -2336  -1007  382  1353  1798  1920  1844  1654  1499  1456  1465  1416  1197  740  116  -439  -670  -511  -122  310  667  842  804  602  178  -650  -1875  -3110  -3890  -4058  -3639  -2701  -1561  -665  -139  131  218  207  333  834  1627  2270  2389  2005  1474  1279  1671  2423  3125  3530  3606  3525  3454  3298  2837  2120  1498  1183  1075  1008  880  674  479  435  556  654  567  367  222  221  291  241  18  -249  -536  -927  -1376  -1712  -1852  -1862  -1840  -1828  -1815  -1790  -1787  -1804  -1750  -1581  -1380  -1204  -1017  -810  -645  -558  -523  -532  -663  -992  -1432  -1723  -1588  -917  22  757  1077  1050  710  77  -674  -1201  -1257  -1065  -1082  -1389  -1678  -1702  -1467  -1170  -1001  -903  -733  -537  -525  -889  -1617  -2278  -2196  -1200  24  778  835  157  -472  371  2532  4010  3060  -450  -4751  -7257  -6728  -4126  -1426  -73  -275  -1112  -1608  -1623  -1412  -1046  -556  -118  120  197  187  26  -390  -962  -1452  -1795  -2057  -2217  -2197  -1985  -1677  -1394  -1167  -997  -910  -902  -887  -625  121  1201  2094  2459  2274  1626  791  165  -179  -512  -935  -1253  -1347  -1326  -1302  -1212  -908  -376  211  656  858  798  509  132  -151  -299  -377  -369  -248  -97  3  92  249  497  747  887  918  956  1124  1436  1721  1805  1733  1648  1598  1580  1654  1918  2345  2766  3080  3388  3833  4368  4721  4571  3783  2673  1840  1542  1540  1509  1304  975  660  429  230  -59  -513  -1003  -1310  -1436  -1535  -1619  -1597  -1452  -1188  -780  -275  189  502  608  477  166  -113  -145  54  286  432  455  208  -461  -1361  -2036  -2314  -2361  -2272  -1883  -1100  -359  -341  -1043  -1797  -2174  -2258  -2229  -2091  -1765  -1306  -870  -477  -77  293  599  855  1051  1152  1059  600  -224  -1072  -1557  -1574  -1261  -842  -509  -290  -113  33  137  209  256  201  -113  -764  -1607  -2415  -3117  -3745  -4151  -3953  -2913  -1371  -176  115  -184  -418  -283  329  1301  1639  395  -1711  -3146  -3254  -2329  -1037  -181  -258  -908  -1393  -1453  -1260  -1012  -770  -487  -177  78  310  650  1141  1630  1891  1867  1633  1229  750  341  -55  -638  -1356  -1904  -2074  -1896  -1513  -1061  -613  -114  580  1358  1757  1543  996  356  -374  -1056  -1493  -1714  -1826  -1757  -1344  -676  -98  185  221  139  58  99  379  913  1605  2360  3043  3472  3618  3605  3476  3161  2677  2162  1713  1344  1126  1201  1569  2011  2310  2392  2190  1623  868  319  179  349  646  923  1094  1073  687  -204  -1461  -2626  -3272  -3303  -2890  -2317  -1885  -1817  -2276  -3161  -3740  -3203  -1591  527  2609  3678  3001  1728  1706  2971  3953  3152  214  -3603  -6105  -5893  -3587  -1413  -1102  -2244  -3230  -3176  -2343  -1388  -740  -448  -305  2  714  1658  2341  2510  2293  1936  1615  1274  574  -758  -2380  -3511  -3685  -2937  -1639  -423  236  388  339  276  227  188  181  215  245  221  105  -133  -435  -631  -603  -402  -211  -121  -57  26  78  55  -43  -170  -254  -273  -282  -355  -483  -476  -118  473  915  1039  1056  1284  1836  2512  3005  3178  2991  2390  1518  668  -114  -957  -1773  -2377  -2743  -2886  -2682  -2006  -1076  -367  -85  -96  -308  -763  -1373  -1880  -2089  -1885  -1189  -183  720  1264  1394  1174  848  656  648  799  1202  1976  2929  3608  3811  3693  3444  3148  2870  2686  2630  2698  2892  3173  3499  3908  4376  4725  4757  4303  3330  2103  951  -60  -921  -1474  -1644  -1504  -1128  -662  -336  -256  -347  -496  -642  -826  -1121  -1454  -1628  -1557  -1300  -932  -569  -339  -253  -251  -354  -650  -1120  -1617  -2002  -2186  -2156  -1996  -1825  -1709  -1647  -1648  -1808  -2241  -2889  -3493  -3789  -3584  -2810  -1769  -1020  -820  -1005  -1306  -1490  -1333  -713  155  820  1028  774  87  -885  -1817  -2431  -2704  -2787  -2775  -2570  -2048  -1359  -852  -689  -794  -1072  -1402  -1629  -1701  -1690  -1666  -1646  -1627  -1623  -1641  -1612  -1379  -851  -194  290  472  461  407  379  378  373  307  66  -441  -1080  -1473  -1360  -919  -645  -753  -1051  -1494  -1859  -1318  405  2081  2014  -188  -3058  -4417  -2979  601  3654  3788  1780  334  522  1454  2338  3134  3879  4368  4331  3684  2536  945  -885  -2461  -3411  -3651  -3222  -2323  -1323  -631  -433  -555  -755  -995  -1273  -1495  -1550  -1342  -796  79  1180  2245  2882  2787  1953  794  -62  -369  -332  -167  61  322  598  938  1399  1951  2456  2750  2811  2769  2787  2970  3314  3724  4086  4282  4193  3776  3192  2680  2203  1502  579  -235  -753  -1088  -1366  -1569  -1692  -1784  -1858  -1906  -1900  -1666  -973  66  971  1409  1418  1083  403  -433  -1071  -1383  -1504  -1514  -1404  -1235  -1107  -1009  -855  -610  -231  377  1121  1643  1622  846  -738  -2643  -4010  -4443  -4074  -3103  -1924  -1109  -845  -872  -952  -1091  -1392  -1802  -2125  -2254  -2200  -1987  -1677  -1382  -1186  -1105  -1102  -1117  -1132  -1165  -1206  -1190  -1057  -844  -666  -600  -634  -706  -761  -792  -826  -894  -935  -806  -496  -209  -96  -101  -105  -41  77  200  285  241  -119  -881  -1768  -2330  -2342  -1876  -1234  -786  -697  -886  -1178  -1410  -1454  -1174  -532  188  642  782  785  872  1092  1373  1923  2948  4121  4861  4647  3013  246  -2227  -3218  -2739  -1426  -167  299  44  -343  -552  -628  -641  -581  -441  -255  -75  76  212  327  385  375  325  261  214  279  534  896  1165  1207  1046  845  747  775  893  1059  1278  1650  2184  2680  2910  2822  2558  2351  2342  2512  2785  3064  3265  3377  3394  3168  2531  1649  913  456  186  86  146  254  283  135  -213  -622  -867  -850  -652  -421  -254  -165  -118  -88  -72  -85  -139  -236  -354  -441  -486  -513  -534  -520  -414  -204  39  234  362  437  442  353  166  -66  -299  -560  -844  -1037  -1011  -745  -373  -75  113  272  387  288  -185  -886  -1395  -1400  -902  -202  323  587  739  770  498  -145  -988  -1735  -2177  -2282  -2056  -1520  -872  -403  -208  -199  -319  -550  -819  -1012  -1093  -1148  -1264  -1369  -1221  -651  159  817  1135  1219  1187  993  549  -25  -460  -644  -687  -701  -728  -837  -1113  -1473  -1649  -1440  -922  -364  71  509  1144  1906  2502  2754  2743  2651  2533  2304  1911  1392  793  207  -191  -322  -190  204  768  1288  1624  1749  1654  1296  518  -918  -2870  -4659  -5747  -6058  -5610  -4276  -1663  2401  6779  9332  8657  4950  -274  -4901  -7367  -7295  -5181  -2100  621  2265  3024  3326  3396  3367  3327  3311  3332  3372  3400  3402  3394  3412  3482  3552  3447  3020  2251  1196  82  -696  -978  -953  -833  -694  -562  -474  -465  -517  -560  -567  -615  -807  -1217  -1838  -2490  -2913  -2988  -2793  -2510  -2268  -1997  -1568  -1054  -646  -369  -90  281  697  1019  1156  1110  920  661  408  175  -22  -134  -174  -180  -154  -84  63  305  559  706  710  634  561  477  330  261  438  735  900  826  595  482  640  787  583  118  -261  -397  -378  -318  -273  -313  -520  -848  -1119  -1215  -1127  -894  -614  -379  -165  65  246  239  21  -184  -109  285  834  1309  1574  1633  1479  1053  451  -76  -399  -531  -487  -331  -209  -233  -411  -626  -737  -771  -711  -277  433  679  98  -845  -1538  -1414  46  2562  5066  6741  7046  5628  3150  994  -132  -511  -826  -1608  -2577  -2841  -2195  -1369  -935  -864  -916  -909  -733  -379  15  280  375  375  360  378  456  598  760  852  797  562  168  -241  -429  -269  123  575  1049  1532  1934  2175  2273  2293  2276  2224  2133  2011  1864  1697  1534  1367  1123  759  372  88  -98  -253  -371  -425  -441  -509  -709  -1006  -1283  -1470  -1558  -1573  -1561  -1563  -1596  -1646  -1682  -1682  -1647  -1615  -1698  -2029  -2578  -3121  -3473  -3653  -3760  -3832  -3844  -3774  -3601  -3308  -2969  -2727  -2627  -2596  -2552  -2454  -2325  -2224  -2165  -2129  -2133  -2208  -2316  -2370  -2342  -2298  -2318  -2406  -2505  -2567  -2585  -2578  -2553  -2516  -2480  -2463  -2465  -2472  -2455  -2388  -2282  -2188  -2155  -2174  -2111  -1735  -937  82  1006  1655  1989  2064  1988  1843  1687  1595  1685  2056  2650  3289  3892  4436  4837  5041  5074  5009  4945  4951  4987  4868  4328  3282  2012  907  122  -414  -835  -1218  -1536  -1716  -1755  -1734  -1736  -1805  -1929  -2064  -2187  -2325  -2521  -2708  -2739  -2575  -2325  -2091  -1899  -1745  -1608  -1499  -1550  -2013  -3018  -4343  -5552  -6337  -6654  -6601  -6249  -5661  -4971  -4350  -3880  -3501  -3186  -3060  -3201  -3476  -3700  -3863  -4071  -4341  -4486  -4276  -3794  -3475  -3462  -3232  -2169  -77  2645  4868  5425  4112  1775  -291  -1247  -1247  -930  -650  -332  210  1045  2067  3055  3781  4209  4509  4790  4996  5090  5126  5160  5203  5188  4968  4374  3338  2090  1106  635  509  469  395  195  -283  -1081  -1982  -2730  -3266  -3634  -3852  -3907  -3788  -3540  -3286  -3141  -3134  -3234  -3340  -3177  -2360  -859  763  1874  2344  2418  2315  2155  2057  2140  2477  3043  3710  4304  4699  4859  4819  4624  4342  4049  3754  3436  3103  2761  2437  2201  2081  2066  2201  2593  3215  3815  4147  4205  4127  4027  3974  4033  4249  4547  4767  4811  4690  4446  4062  3494  2846  2328  2003  1795  1652  1505  1254  886  489  134  -139  -321  -467  -531  -240  501  1300  1631  1156  23  -997  -1245  -748  79  625  307  -821  -2026  -2614  -2470  -1877  -1295  -1140  -1251  -1087  -549  75  663  1239  1804  2340  2816  3183  3402  3461  3302  2806  1975  1061  392  103  88  187  308  413  488  543  614  728  869  984  1014  909  666  365  125  8  3  103  304  535  694  758  781  801  800  732  555  287  22  -125  -71  209  622  1010  1318  1565  1745  1842  1873  1869  1866  1883  1888  1794  1521  1119  747  506  359  231  92  -70  -303  -647  -1023  -1267  -1289  -1126  -896  -739  -744  -907  -1137  -1317  -1414  -1463  -1488  -1487  -1463  -1422  -1344  -1180  -930  -652  -389  -158  5  49  -51  -259  -487  -670  -808  -941  -1077  -1210  -1380  -1624  -1927  -2214  -2388  -2406  -2304  -2153  -2057  -2076  -2191  -2413  -2776  -3200  -3549  -3792  -3956  -4050  -4084  -4075  -3996  -3815  -3565  -3303  -2998  -2573  -2021  -1455  -1046  -855  -800  -752  -613  -365  -109  43  80  61  45  52  88  169  288  402  474  492  415  185  -166  -504  -706  -755  -706  -625  -551  -468  -337  -177  -68  -83  -233  -483  -772  -1030  -1191  -1243  -1235  -1226  -1251  -1314  -1389  -1449  -1540  -1743  -2073  -2391  -2393  -1801  -704  463  1349  1898  2168  2197  2057  1801  1318  457  -728  -2016  -3141  -3836  -3957  -3580  -2930  -2197  -1466  -832  -388  -125  31  125  154  83  -108  -364  -573  -673  -672  -614  -532  -420  -278  -147  -30  163  524  985  1388  1682  1897  2038  2136  2255  2399  2518  2614  2719  2826  2930  3088  3337  3605  3778  3817  3721  3482  3102  2635  2190  1866  1659  1516  1417  1339  1244  1131  1030  938  826  682  543  461  445  462  467  409  259  85  3  27  106  207  294  347  390  440  490  543  611  689  748  778  793  801  793  775  764  771  767  721  672  701  807  904  935  920  899  896  906  914  913  900  875  842  805  777  762  760  765  781  816  864  871  780  617  474  399  372  357  336  292  189  -7  -276  -531  -703  -794  -841  -863  -879  -907  -947  -971  -958  -915  -887  -910  -976  -1053  -1109  -1129  -1134  -1147  -1152  -1135  -1169  -1392  -1855  -2383  -2741  -2880  -2903  -2884  -2837  -2745  -2578  -2363  -2184  -2075  -2017  -2000  -2025  -2055  -2007  -1797  -1456  -1133  -830  -295  577  1554  2383  2918  2984  2539  1813  1041  290  -442  -1142  -1720  -2019  -1913  -1485  -1006  -704  -635  -709  -787  -795  -712  -537  -310  -105  44  160  269  360  421  457  480  484  450  359  237  143  102  101  142  238  361  454  508  580  723  937  1187  1450  1697  1873  1947  1955  1949  1950  1954  1923  1790  1521  1187  909  737  602  385  50  -321  -627  -824  -935  -1002  -1050  -1096  -1142  -1173  -1187  -1195  -1191  -1148  -1042  -902  -799  -767  -777  -782  -761  -749  -782  -840  -886  -923  -959  -983  -961  -855  -676  -492  -359  -279  -243  -242  -271  -321  -374  -406  -398  -331  -212  -86  3  45  45  18  -26  -95  -169  -203  -172  -117  -85  -84  -91  -105  -136  -179  -215  -223  -189  -120  -57  -31  -4  51  115  168  216  255  276  286  288  268  201  93  -36  -202  -421  -637  -768  -793  -737  -613  -428  -228  -80  -10  -12  -89  -215  -349  -525  -786  -1024  -1090  -986  -746  -312  388  1316  2288  3086  3556  3555  3026  2168  1270  423  -380  -1085  -1619  -1885  -1808  -1511  -1221  -1047  -945  -830  -653  -408  -143  83  248  359  439  505  555  579  584  581  580  578  572  570  608  717  875  1025  1152  1299  1507  1755  1971  2101  2181  2290  2457  2623  2705  2674  2557  2420  2302  2187  2061  1933  1772  1530  1202  821  435  91  -208  -475  -684  -806  -836  -789  -696  -601  -540  -515  -514  -561  -698  -923  -1168  -1367  -1507  -1600  -1631  -1555  -1344  -1054  -782  -554  -363  -237  -185  -166  -145  -112  -51  20  54  20  -57  -130  -179  -215  -250  -282  -312  -365  -477  -633  -769  -847  -878  -898  -944  -1022  -1095  -1109  -1064  -1004  -965  -943  -928  -921  -947  -1031  -1157  -1292  -1430  -1547  -1569  -1451  -1238  -1023  -883  -830  -823  -826  -831  -833  -796  -633  -274  215  665  958  1097  1120  1051  909  743  591  437  239  22  -138  -203  -211  -215  -234  -241  -210  -166  -170  -275  -467  -661  -747  -709  -615  -476  -239  120  689  1564  2638  3618  4138  3945  3119  1980  858  12  -457  -690  -876  -1034  -1062  -914  -676  -478  -360  -275  -153  39  268  456  564  602  601  578  527  441  333  226  145  135  229  397  557  677  809  990  1176  1304  1393  1519  1725  1964  2138  2198  2174  2118  2066  2032  2010  1947  1772  1490  1203  992  819  581  264  -33  -237  -358  -471  -649  -877  -1064  -1155  -1176  -1170  -1153  -1127  -1095  -1072  -1074  -1092  -1096  -1081  -1064  -1050  -1029  -996  -954  -910  -864  -826  -813  -828  -846  -840  -810  -783  -782  -798  -804  -791  -771  -737  -657  -524  -379  -271  -209  -179  -182  -229  -314  -404  -461  -479  -484  -485  -466  -423  -386  -377  -386  -390  -381  -363  -344  -328  -316  -310  -304  -289  -279  -299  -344  -389  -429  -473  -513  -527  -510  -480  -458  -444  -437  -437  -441  -455  -482  -502  -442  -226  110  429  626  670  566  358  134  -40  -173  -295  -406  -496  -563  -607  -630  -646  -680  -746  -810  -831  -796  -707  -593  -459  -297  -174  -90  129  633  1456  2558  3678  4350  4263  3477  2347  1268  441  -160  -644  -1040  -1265  -1240  -1012  -736  -554  -494  -499  -514  -519  -507  -471  -409  -337  -279  -227  -102  165  500  742  834  838  819  804  814  881  1014  1171  1309  1433  1554  1679  1850  2104  2384  2594  2712  2774  2806  2793  2728  2649  2561  2416  2218  2032  1885  1733  1519  1237  934  650  381  125  -83  -230  -350  -513  -727  -922  -1038  -1084  -1096  -1098  -1096  -1083  -1057  -1030  -1018  -1041  -1113  -1215  -1302  -1351  -1369  -1349  -1260  -1102  -923  -774  -669  -608  -586  -569  -520  -437  -354  -293  -260  -255  -279  -325  -372  -420  -503  -623  -728  -720  -544  -291  -116  -85  -156  -257  -328  -351  -329  -268  -187  -131  -142  -236  -377  -495  -553  -563  -519  -403  -245  -121  -63  -57  -117  -280  -505  -663  -644  -431  -135  78  147  137  117  112  121  140  158  98  -167  -658  -1186  -1530  -1656  -1674  -1664  -1643  -1622  -1617  -1623  -1617  -1565  -1460  -1340  -1256  -1230  -1219  -1103  -756  -180  501  1192  1899  2648  3339  3771  3797  3409  2696  1728  569  -615  -1592  -2161  -2197  -1765  -1168  -700  -412  -212  -48  73  160  246  344  417  416  325  172  2  -139  -224  -249  -215  -109  58  233  357  422  455  509  625  790  964  1146  1391  1747  2166  2520  2730  2824  2842  2800  2705  2567  2402  2209  1972  1694  1381  997  558  180  -53  -167  -213  -219  -213  -220  -260  -330  -404  -454  -470  -457  -426  -384  -335  -285  -249  -253  -314  -413  -508  -582  -650  -717  -757  -729  -645  -555  -480  -413  -384  -468  -717  -1063  -1352  -1512  -1581  -1599  -1547  -1407  -1246  -1165  -1167  -1183  -1186  -1185  -1185  -1188  -1185  -1163  -1112  -1020  -909  -831  -804  -809  -837  -891  -955  -997  -1004  -992  -981  -980  -981  -968  -924  -850  -774  -718  -670  -611  -558  -522  -444  -247  32  273  423  491  469  376  280  202  104  -36  -189  -298  -326  -264  -177  -176  -278  -387  -445  -469  -503  -538  -530  -490  -465  -427  -314  -140  35  192  412  901  1781  2874  3842  4352  4160  3300  2085  843  -229  -1047  -1577  -1838  -1870  -1707  -1462  -1239  -1002  -740  -542  -451  -417  -393  -362  -313  -246  -174  -102  -16  102  247  378  453  472  464  454  451  457  476  504  561  707  994  1378  1751  2060  2323  2543  2699  2819  2957  3101  3204  3257  3276  3223  2991  2541  2022  1638  1421  1231  940  546  159  -110  -242  -282  -283  -278  -290  -335  -399  -453  -485  -519  -584  -667  -722  -736  -728  -709  -669  -587  -453  -293  -161  -104  -133  -211  -315  -461  -650  -832  -955  -993  -949  -861  -774  -690  -584  -455  -332  -240  -180  -141  -129  -159  -231  -329  -437  -537  -596  -589  -513  -422  -395  -443  -516  -587  -663  -747  -825  -884  -921  -932  -915  -885  -860  -843  -834  -830  -829  -835  -865  -919  -953  -902  -742  -517  -308  -176  -122  -97  -54  -7  -8  -68  -139  -187  -232  -324  -471  -618  -706  -723  -682  -616  -562  -530  -510  -518  -612  -832  -1126  -1379  -1535  -1570  -1421  -1089  -694  -292  224  931  1790  2762  3665  4119  3901  3135  2070  936  -11  -649  -1073  -1352  -1456  -1410  -1261  -1024  -765  -595  -545  -559  -584  -599  -597  -573  -531  -479  -400  -282  -150  -51  13  83  167  234  284  362  503  686  831  908  1020  1299  1702  2036  2202  2271  2324  2365  2380  2378  2371  2372  2391  2427  2463  2485  2468  2323  1942  1374  837  485  278  128  16  -64  -144  -240  -346  -448  -534  -609  -686  -761  -810  -813  -775  -714  -660  -622  -579  -514  -440  -392  -378  -381  -386  -389  -395  -406  -423  -445  -463  -473  -497  -555  -629  -696  -765  -833  -890  -940  -974  -971  -927  -871  -842  -845  -866  -922  -1051  -1235  -1395  -1464  -1419  -1260  -1014  -769  -613  -564  -571  -587  -588  -570  -538  -497  -452  -404  -357  -314  -269  -207  -134  -85  -86  -134  -195  -232  -234  -220  -205  -202  -217  -257  -310  -343  -294  -122  114  292  361  353  279  121  -88  -259  -328  -321  -292  -277  -274  -274  -273  -283  -321  -383  -440  -474  -496  -508  -479  -335  24  640  1466  2428  3372  4040  4223  3891  3188  2261  1198  132  -748  -1285  -1405  -1146  -661  -182  102  193  211  219  190  80  -85  -225  -294  -311  -298  -255  -174  -38  176  461  740  923  988  980  960  995  1139  1371  1613  1809  1939  2012  2065  2118  2155  2166  2162  2156  2162  2190  2238  2300  2360  2370  2276  2070  1794  1489  1154  740  229  -300  -728  -970  -1072  -1145  -1227  -1286  -1306  -1309  -1321  -1350  -1383  -1404  -1408  -1410  -1427  -1454  -1461  -1411  -1312  -1209  -1137  -1109  -1123  -1159  -1189  -1205  -1207  -1204  -1201  -1201  -1209  -1230  -1265  -1303  -1323  -1297  -1209  -1074  -934  -827  -765  -741  -738  -754  -802  -880  -953  -994  -1001  -988  -973  -963  -965  -984  -1019  -1071  -1137  -1211  -1272  -1298  -1289  -1264  -1237  -1213  -1185  -1146  -1097  -1036  -959  -877  -789  -683  -575  -506  -485  -491  -503  -514  -516  -486  -400  -257  -104  -6  5  -60  -183  -330  -480  -622  -719  -727  -658  -584  -550  -549  -565  -584  -583  -540  -455  -349  -240  -144  -87  -83  -77  58  404  883  1356  1796  2285  2942  3769  4488  4729  4370  3521  2402  1251  179  -763  -1417  -1607  -1369  -949  -612  -472  -473  -515  -532  -467  -288  -34  185  296  315  296  276  284  354  509  741  1013  1242  1354  1355  1309  1267  1247  1259  1329  1474  1683  1946  2228  2460  2604  2680  2714  2721  2717  2716  2716  2711  2682  2593  2399  2089  1725  1405  1121  757  294  -131  -415  -561  -610  -605  -592  -610  -681  -788  -900  -1003  -1076  -1102  -1100  -1115  -1198  -1337  -1466  -1543  -1572  -1552  -1467  -1326  -1191  -1116  -1102  -1116  -1136  -1147  -1135  -1089  -1032  -1008  -1032  -1047  -993  -871  -732  -625  -572  -569  -596  -612  -572  -476  -388  -350  -357  -394  -454  -527  -594  -631  -627  -593  -525  -407  -268  -172  -141  -145  -154  -163  -178  -194  -196  -179  -165  -174  -182  -175  -190  -232  -247  -216  -150  -38  120  275  347  297  143  -64  -264  -395  -440  -437  -423  -416  -414  -416  -428  -453  -478  -480  -446  -401  -405  -481  -577  -656  -735  -799  -753  -464  188  1177  2261  3156  3636  3569  3052  2299  1440  563  -262  -981  -1492  -1712  -1666  -1482  -1258  -986  -683  -427  -263  -183  -140  -76  33  144  188  135  30  -61  -109  -127  -133  -127  -67  86  288  427  474  531  716  1014  1317  1611  1971  2390  2753  2973  3070  3123  3188  3269  3348  3399  3398  3307  3081  2705  2211  1684  1206  810  512  341  243  99  -131  -357  -484  -517  -518  -521  -528  -551  -616  -728  -854  -956  -1027  -1101  -1204  -1303  -1330  -1251  -1121  -1023  -988  -989  -995  -990  -964  -898  -789  -663  -564  -515  -520  -593  -744  -950  -1153  -1294  -1363  -1380  -1347  -1237  -1067  -914  -842  -850  -906  -974  -1027  -1055  -1060  -1048  -1038  -1052  -1093  -1144  -1184  -1210  -1228  -1246  -1260  -1267  -1267  -1263  -1253  -1216  -1116  -926  -678  -460  -319  -230  -159  -103  -65  -32  3  13  -38  -150  -299  -477  -655  -780  -856  -941  -1048  -1125  -1108  -966  -736  -507  -345  -265  -250  -283  -360  -444  -450  -345  -182  12  330  890  1699  2562  3184  3350  3026  2339  1496  626  -244  -1052  -1717  -2172  -2273  -1975  -1512  -1143  -915  -772  -677  -624  -610  -606  -562  -429  -217  -19  81  98  96  104  127  174  242  313  387  480  591  687  760  876  1112  1428  1725  1993  2261  2482  2596  2616  2603  2628  2733  2891  2987  2923  2734  2532  2337  2068  1710  1364  1108  918  731  501  225  -52  -283  -454  -578  -651  -676  -667  -620  -516  -381  -282  -244  -226  -179  -91  4  68  93  82  15  -132  -351  -593  -766  -774  -647  -510  -428  -392  -386  -403  -433  -451  -432  -383  -321  -249  -171  -99  -54  -51  -82  -116  -135  -143  -160  -202  -252  -293  -324  -343  -347  -360  -422  -549  -694  -791  -820  -810  -792  -776  -767  -767  -771  -765  -727  -656  -586  -532  -478  -424  -385  -351  -290  -187  -64  24  55  22  -86  -261  -444  -560  -584  -557  -529  -516  -515  -536  -596  -685  -766  -811  -823  -814  -780  -728  -700  -712  -691  -477  112  1106  2304  3440  4262  4555  4261  3552  2642  1676  780  -3  -677  -1122  -1234  -1107  -861  -526  -167  100  242  299  300  276  260  256  249  231  225  272  406  606  796  905  934  948  1011  1144  1316  1468  1577  1660  1727  1775  1814  1865  1939  2062  2256  2447  2503  2416  2303  2212  2083  1889  1683  1526  1419  1278  1019  687  404  209  6  -294  -634  -867  -957  -998  -1062  -1147  -1225  -1281  -1308  -1313  -1309  -1305  -1305  -1310  -1324  -1343  -1356  -1342  -1289  -1214  -1151  -1109  -1083  -1074  -1078  -1066  -992  -848  -699  -629  -653  -712  -767  -823  -878  -921  -949  -950  -922  -882  -851  -836  -834  -836  -841  -849  -847  -812  -715  -549  -371  -266  -251  -288  -349  -422  -503  -596  -712  -845  -967  -1047  -1075  -1038  -930  -790  -691  -658  -660  -664  -657  -631  -559  -420  -257  -165  -178  -251  -328  -392  -466  -586  -739  -857  -894  -870  -826  -755  -617  -403  -182  -49  -38  -127  -255  -360  -444  -551  -643  -589  -294  250  1024  1964  2918  3686  4031  3751  2898  1821  870  180  -295  -673  -1012  -1246  -1280  -1124  -884  -660  -502  -418  -386  -382  -391  -406  -419  -407  -337  -203  -34  120  217  260  292  345  424  523  636  764  919  1082  1232  1384  1550  1699  1821  1938  2062  2171  2245  2293  2344  2408  2467  2495  2478  2426  2347  2235  2066  1781  1350  870  481  201  -74  -421  -767  -986  -1059  -1057  -1013  -917  -784  -677  -638  -655  -684  -689  -668  -648  -661  -706  -763  -831  -916  -1011  -1106  -1188  -1229  -1222  -1183  -1143  -1115  -1079  -1015  -911  -785  -686  -657  -701  -777  -835  -869  -921  -1030  -1170  -1273  -1318  -1336  -1367  -1413  -1434  -1396  -1329  -1281  -1269  -1289  -1327  -1370  -1416  -1473  -1545  -1617  -1657  -1646  -1591  -1521  -1463  -1429  -1417  -1428  -1461  -1512  -1554  -1548  -1499  -1449  -1426  -1426  -1450  -1511  -1603  -1714  -1887  -2172  -2500  -2729  -2795  -2711  -2499  -2238  -2052  -1983  -1978  -1988  -2021  -2104  -2223  -2317  -2353  -2289  -2069  -1754  -1409  -946  -248  677  1635  2224  2088  1231  -2  -1204  -2129  -2725  -3076  -3319  -3448  -3368  -3145  -2923  -2712  -2501  -2353  -2318  -2371  -2460  -2534  -2578  -2613  -2647  -2658  -2626  -2553  -2461  -2369  -2282  -2194  -2105  -2006  -1839  -1434  -379  1678  4297  6371  7326  7531  7555  7645  7815  8013  8167  8236  8229  8170  8073  7951  7800  7625  7470  7380  7326  7211  6973  6657  6334  5968  5476  4947  4591  4450  4343  4103  3737  3385  3151  3001  2834  2599  2311  2017  1767  1579  1425  1271  1123  995  885  780  664  543  441  367  312  253  171  75  -5  -71  -151  -241  -299  -308  -295  -297  -336  -401  -455  -481  -484  -477  -482  -528  -647  -839  -1056  -1231  -1322  -1339  -1307  -1234  -1148  -1110  -1165  -1289  -1411  -1484  -1506  -1472  -1358  -1174  -997  -898  -870  -874  -907  -1004  -1171  -1356  -1496  -1570  -1610  -1671  -1770  -1886  -2005  -2128  -2234  -2301  -2329  -2308  -2195  -1985  -1770  -1683  -1773  -1937  -1995  -1913  -1794  -1615  -1258  -689  101  1071  2056  2852  3242  3086  2485  1684  852  48  -661  -1189  -1523  -1640  -1425  -925  -459  -254  -244  -292  -347  -402  -440  -444  -431  -439  -474  -500  -495  -465  -399  -252  -22  203  343  404  428  440  455  491  558  640  708  757  825  966  1195  1442  1612  1686  1707  1713  1709  1692  1671  1641  1566  1409  1184  912  553  103  -329  -646  -845  -989  -1139  -1307  -1454  -1544  -1575  -1572  -1563  -1572  -1592  -1595  -1574  -1544  -1518  -1505  -1501  -1498  -1507  -1539  -1580  -1625  -1670  -1701  -1710  -1703  -1691  -1686  -1717  -1808  -1937  -2038  -2075  -2059  -2026  -1998  -1982  -1970  -1955  -1940  -1934  -1929  -1899  -1834  -1767  -1735  -1734  -1732  -1711  -1685  -1681  -1704  -1729  -1737  -1716  -1659  -1566  -1444  -1274  -1009  -684  -425  -299  -273  -290  -320  -341  -335  -307  -279  -262  -253  -267  -340  -486  -674  -846  -972  -1060  -1122  -1149  -1133  -1102  -1118  -1230  -1397  -1527  -1583  -1598  -1581  -1467  -1206  -904  -677  -421  103  1041  2312  3645  4661  4988  4532  3534  2275  976  -126  -935  -1493  -1741  -1621  -1329  -1125  -1054  -1006  -898  -749  -612  -467  -259  -6  196  268  208  93  3  -39  -39  26  192  410  573  642  676  747  884  1069  1269  1456  1622  1793  2010  2270  2529  2742  2904  3037  3137  3196  3226  3239  3218  3122  2947  2744  2571  2452  2352  2170  1815  1315  840  552  467  482  508  521  530  540  546  545  540  544  582  674  821  984  1102  1145  1137  1125  1163  1284  1447  1566  1603  1589  1563  1546  1560  1625  1736  1860  1957  2010  2046  2119  2236  2353  2442  2506  2556  2591  2610  2620  2651  2743  2900  3062  3162  3204  3232  3290  3399  3547  3691  3804  3893  3984  4107  4271  4433  4544  4609  4678  4797  4977  5176  5340  5444  5491  5498  5488  5475  5459  5440  5429  5445  5502  5590  5677  5728  5707  5582  5364  5169  5188  5492  5895  6169  6321  6612  7320  8383  9314  9412  8046  5201  1713  -1442  -3804  -5379  -6440  -7317  -8139  -8812  -9219  -9338  -9222  -8953  -8612  -8296  -8098  -8041  -8086  -8202  -8350  -8472  -8513  -8400  -8068  -7582  -7095  -6678  -6352  -6180  -6170  -6235  -6273  -6230  -6068  -5763  -5334  -4867  -4450  -4086  -3698  -3241  -2780  -2405  -2125  -1881  -1615  -1307  -1011  -826  -797  -903  -1102  -1354  -1628  -1873  -2017  -2046  -2004  -1945  -1904  -1908  -1982  -2123  -2273  -2361  -2363  -2296  -2202  -2138  -2146  -2240  -2385  -2498  -2479  -2239  -1778  -1223  -716  -320  -47  100  146  117  -2  -220  -476  -695  -859  -1010  -1201  -1439  -1673  -1846  -1944  -1963  -1843  -1527  -1119  -822  -694  -635  -583  -574  -621  -674  -686  -655  -610  -577  -541  -462  -350  -262  -253  -330  -442  -510  -503  -455  -404  -358  -322  -345  -484  -691  -850  -913  -923  -922  -909  -850  -719  -530  -332  -178  -93  -78  -158  -371  -699  -1055  -1342  -1511  -1575  -1576  -1533  -1448  -1324  -1115  -693  4  877  1807  2707  3411  3755  3740  3480  3029  2382  1593  768  43  -399  -445  -171  211  496  565  469  372  351  371  396  415  419  374  253  85  -73  -205  -277  -199  60  379  597  679  685  666  639  612  627  751  1008  1310  1541  1681  1789  1917  2112  2433  2856  3248  3500  3596  3557  3400  3173  2935  2725  2577  2451  2232  1890  1550  1364  1387  1593  1871  2026  1898  1399  502  -622  -1603  -2100  -2001  -1412  -545  387  1242  1933  2410  2660  2717  2620  2382  2060  1755  1529  1411  1419  1489  1517  1440  1256  1006  767  612  554  547  562  621  754  931  1091  1198  1233  1197  1144  1127  1133  1108  1002  834  677  561  479  419  342  172  -140  -526  -847  -1032  -1097  -1075  -988  -871  -789  -804  -946  -1217  -1539  -1781  -1892  -1929  -1975  -2073  -2210  -2337  -2410  -2427  -2412  -2390  -2400  -2514  -2791  -3162  -3462  -3602  -3542  -3168  -2391  -1276  -3  1175  2026  2488  2641  2491  1925  988  16  -671  -1079  -1476  -2079  -2819  -3474  -3903  -4089  -4085  -3956  -3770  -3611  -3533  -3522  -3537  -3547  -3532  -3472  -3362  -3247  -3195  -3228  -3310  -3404  -3510  -3620  -3688  -3691  -3660  -3638  -3636  -3637  -3633  -3626  -3618  -3611  -3612  -3636  -3683  -3683  -3468  -2918  -2178  -1562  -1211  -1082  -1251  -1963  -3218  -4529  -5379  -5698  -5742  -5778  -5974  -6380  -6907  -7394  -7725  -7910  -8052  -8235  -8446  -8628  -8760  -8886  -9088  -9420  -9830  -10177  -10362  -10318  -9924  -9116  -8079  -7196  -6740  -6597  -6454  -6227  -5989  -5669  -5214  -4880  -5084  -6134  -7982  -9988  -11234  -11276  -10517  -9916  -10164  -10950  -11228  -10099  -7220  -2923  1616  5041  6948  7977  8938  10035  10927  11446  11829  12343  13031  13786  14497  15064  15373  15308  14736  13712  12670  12053  11881  11903  11938  11923  11820  11625  11449  11449  11602  11703  11631  11488  11413  11365  11222  10961  10637  10379  10311  10379  10427  10394  10288  9994  9245  8007  6715  5859  5526  5476  5467  5396  5231  5010  4842  4850  5122  5639  6226  6676  6896  6938  6915  6843  6545  5824  4811  3893  3252  2774  2314  1807  1303  926  699  519  342  218  162  123  73  34  21  19  9  -9  3  143  497  1032  1601  2062  2351  2517  2643  2782  2967  3191  3417  3650  3879  4009  3937  3633  3190  2791  2544  2428  2322  2068  1612  1053  560  235  12  -325  -937  -1723  -2401  -2784  -2909  -2919  -2912  -2893  -2820  -2697  -2597  -2572  -2587  -2559  -2377  -1938  -1292  -656  -223  -79  -267  -792  -1532  -2243  -2698  -2826  -2660  -2282  -1843  -1484  -1201  -929  -673  -499  -462  -581  -883  -1395  -2023  -2558  -2870  -3003  -3024  -2962  -2889  -2880  -2913  -2828  -2396  -1512  -321  809  1521  1786  1885  2021  2034  1508  361  -914  -1784  -1911  -946  1153  3628  5383  5755  4616  2381  -74  -1901  -2768  -3002  -3046  -2938  -2688  -2510  -2460  -2511  -2711  -3019  -3448  -4149  -5061  -5845  -6262  -6336  -6141  -5669  -4979  -4169  -3159  -1823  -356  800  1379  1506  1447  1278  929  484  218  329  666  721  140  -768  -1445  -1760  -1997  -2443  -3038  -3408  -3350  -3019  -2666  -2429  -2319  -2313  -2502  -3004  -3686  -4205  -4352  -4104  -3483  -2640  -1908  -1540  -1474  -1446  -1266  -982  -775  -707  -666  -538  -337  -169  -77  -26  15  44  55  50  48  74  136  213  308  455  617  717  755  782  816  822  762  647  492  272  14  -138  -106  12  102  146  166  144  32  -198  -503  -730  -682  -310  190  542  593  394  94  -177  -344  -397  -379  -322  -211  -14  234  417  359  -93  -886  -1672  -2128  -2247  -2198  -2074  -1816  -1336  -689  -89  233  170  -147  -429  -512  -437  -313  -213  -154  -132  -196  -422  -813  -1324  -1913  -2454  -2779  -2878  -2859  -2758  -2540  -2259  -2055  -1989  -2005  -2027  -2018  -1961  -1879  -1819  -1810  -1856  -1944  -2065  -2217  -2374  -2511  -2657  -2854  -3103  -3372  -3645  -3899  -4027  -3806  -3039  -1812  -492  572  1236  1487  1273  486  -704  -1789  -2412  -2638  -2672  -2498  -1891  -822  274  921  1070  961  750  466  159  -104  -339  -629  -1059  -1651  -2257  -2664  -2796  -2617  -1947  -650  897  2011  2471  2579  2592  2579  2554  2543  2549  2537  2480  2385  2281  2221  2342  2836  3731  4734  5369  5156  3976  2487  1627  1802  2880  4286  5101  4738  3322  1399  -336  -1310  -1399  -903  -185  607  1517  2572  3617  4397  4800  4912  4831  4596  4283  3971  3618  3136  2563  2027  1613  1341  1206  1176  1193  1219  1245  1284  1372  1563  1874  2218  2481  2677  2905  3175  3392  3500  3514  3419  3126  2516  1616  722  127  -231  -606  -1024  -1325  -1505  -1792  -2374  -3107  -3650  -3877  -3916  -3892  -3870  -3924  -4079  -4283  -4496  -4718  -4931  -5064  -4944  -4330  -3191  -1827  -574  399  1017  1245  1039  379  -483  -1100  -1294  -1247  -1179  -1206  -1365  -1591  -1762  -1825  -1831  -1832  -1817  -1715  -1437  -950  -373  44  28  -659  -2010  -3505  -4376  -4190  -3131  -1925  -1315  -1395  -1599  -1191  203  2192  3809  4171  2913  438  -2086  -3561  -3818  -3290  -2449  -1762  -1466  -1372  -1210  -963  -773  -712  -746  -822  -864  -709  -202  529  1116  1251  744  -465  -2052  -3360  -3992  -4101  -4061  -4072  -4119  -4106  -3986  -3813  -3641  -3398  -2987  -2501  -2133  -1952  -1902  -1926  -2001  -2104  -2188  -2192  -2048  -1656  -899  237  1539  2626  3214  3330  3198  2986  2781  2642  2585  2552  2382  1864  941  -144  -1020  -1481  -1505  -1010  51  1302  2162  2496  2597  2670  2656  2430  2023  1581  1219  991  899  893  914  929  921  878  795  690  590  526  491  405  195  -87  -293  -302  -75  328  748  1035  1154  1170  1148  1098  1004  888  797  736  669  589  546  588  733  963  1236  1496  1701  1833  1882  1871  1844  1823  1802  1773  1746  1728  1716  1694  1645  1560  1433  1262  1079  951  890  844  788  745  734  731  696  604  468  334  249  220  221  227  214  128  -80  -359  -561  -608  -534  -413  -302  -229  -198  -201  -228  -261  -291  -324  -380  -465  -561  -633  -671  -686  -677  -649  -616  -573  -507  -430  -368  -331  -253  -9  472  1103  1670  2023  2184  2214  1995  1323  279  -743  -1461  -1887  -2115  -2157  -2000  -1736  -1516  -1412  -1386  -1390  -1414  -1461  -1516  -1552  -1568  -1582  -1599  -1612  -1617  -1619  -1623  -1624  -1605  -1546  -1442  -1291  -1090  -873  -705  -609  -544  -461  -347  -217  -86  40  146  211  246  267  251  128  -106  -240  48  908  2286  3933  5408  6419  6914  6821  6170  5186  4171  3439  3108  3020  2974  2803  2380  1787  1236  791  402  70  -175  -328  -398  -409  -392  -372  -363  -376  -420  -490  -571  -667  -784  -917  -1056  -1183  -1264  -1287  -1269  -1226  -1175  -1139  -1120  -1099  -1072  -1051  -1041  -1030  -1011  -989  -980  -987  -1005  -1035  -1098  -1223  -1375  -1481  -1513  -1503  -1490  -1498  -1536  -1592  -1634  -1632  -1569  -1458  -1336  -1218  -1085  -936  -811  -735  -705  -705  -722  -747  -761  -748  -705  -639  -571  -527  -511  -509  -519  -555  -625  -701  -749  -764  -761  -748  -719  -681  -650  -639  -654  -697  -753  -787  -770  -720  -705  -785  -902  -917  -725  -324  232  947  1852  2923  4031  4836  4950  4335  3273  2114  1185  587  139  -266  -504  -500  -333  -87  166  354  457  495  487  466  470  516  617  756  871  921  934  961  1031  1161  1358  1587  1786  1939  2061  2157  2213  2252  2348  2548  2807  3064  3342  3672  3999  4257  4457  4654  4864  5041  5121  5087  4973  4803  4561  4268  3997  3759  3459  3062  2694  2486  2434  2449  2468  2482  2502  2528  2547  2556  2569  2596  2642  2699  2754  2797  2846  2921  3020  3130  3256  3408  3553  3642  3665  3658  3656  3683  3763  3906  4062  4170  4246  4368  4583  4851  5082  5213  5261  5301  5400  5554  5703  5806  5876  5944  6015  6065  6087  6131  6266  6415  6124  4637  1639  -2089  -5287  -7295  -8201  -8436  -8434  -8416  -8408  -8357  -8214  -8007  -7811  -7634  -7391  -7040  -6684  -6456  -6376  -6375  -6381  -6336  -6205  -6025  -5871  -5758  -5660  -5570  -5483  -5396  -5314  -5242  -5181  -5133  -5106  -5114  -5189  -5347  -5514  -5560  -5455  -5279  -5074  -4825  -4553  -4333  -4197  -4112  -4039  -3954  -3859  -3820  -3898  -3979  -3819  -3257  -2292  -1046  215  1142  1496  1221  396  -705  -1759  -2669  -3444  -3992  -4280  -4352  -4187  -3808  -3391  -3106  -2964  -2860  -2722  -2564  -2422  -2313  -2235  -2180  -2124  -2046  -1958  -1884  -1806  -1664  -1418  -1065  -653  -294  -82  7  53  93  137  207  315  446  594  760  936  1095  1215  1319  1460  1627  1758  1825  1841  1814  1729  1574  1344  1024  606  165  -169  -350  -469  -649  -873  -1046  -1181  -1380  -1641  -1842  -1917  -1892  -1792  -1633  -1476  -1383  -1364  -1386  -1415  -1433  -1428  -1394  -1329  -1243  -1147  -1051  -972  -927  -934  -1001  -1104  -1171  -1150  -1064  -940  -761  -534  -331  -222  -209  -255  -329  -412  -480  -506  -472  -395  -324  -302  -355  -493  -685  -850  -939  -981  -1020  -1059  -1079  -1085  -1128  -1258  -1457  -1654  -1809  -1918  -1986  -2027  -2048  -2041  -1987  -1850  -1620  -1368  -1177  -1038  -832  -468  -42  247  287  68  -365  -913  -1416  -1744  -1870  -1865  -1832  -1833  -1862  -1893  -1918  -1932  -1936  -1945  -1973  -2014  -2042  -2046  -2037  -2030  -2011  -1927  -1681  -1178  -424  384  964  1204  1150  797  147  -615  -1212  -1517  -1572  -1414  -1038  -540  -115  139  254  290  287  244  143  1  -121  -172  -80  281  959  1755  2526  3684  5846  8851  11585  13075  13405  13276  13125  13000  12876  12804  12790  12717  12446  12006  11596  11387  11468  11951  12890  14068  15117  15849  16266  16436  16436  16265  15959  15658  15465  15437  15549  15549  14963  13321  10636  7542  4733  2522  871  -415  -1483  -2351  -3029  -3561  -3944  -4153  -4248  -4379  -4658  -5034  -5350  -5547  -5682  -5810  -5935  -6054  -6224  -6499  -6810  -7026  -7103  -7100  -7085  -7090  -7117  -7150  -7172  -7187  -7206  -7232  -7260  -7298  -7354  -7405  -7430  -7431  -7443  -7504  -7607  -7695  -7740  -7770  -7811  -7813  -7637  -7180  -6588  -6151  -5982  -5977  -6020  -6074  -6136  -6210  -6289  -6357  -6406  -6458  -6538  -6649  -6773  -6873  -6911  -6876  -6790  -6696  -6633  -6616  -6626  -6640  -6644  -6597  -6417  -6035  -5489  -4874  -4207  -3427  -2548  -1746  -1202  -787  -159  770  1687  2220  2201  1607  604  -369  -941  -1122  -1165  -1345  -1808  -2389  -2745  -2743  -2595  -2729  -3385  -4235  -4682  -4363  -3278  -2042  -1729  -2765  -4553  -6294  -7407  -7673  -7508  -7472  -7449  -6891  -5583  -3796  -2096  -924  -267  85  289  539  1014  1614  2039  2170  2128  2050  1999  2029  2203  2520  2873  3158  3403  3691  3989  4156  4123  3958  3766  3619  3570  3664  3887  4141  4325  4418  4465  4550  4850  5546  6531  7378  7790  7848  7754  7591  7327  6889  6273  5604  5056  4714  4557  4526  4543  4479  4215  3781  3353  3074  2948  2899  2863  2829  2797  2757  2696  2608  2504  2413  2379  2493  2895  3667  4706  5649  6098  5965  5499  5095  5100  5525  5941  5828  4892  3160  1152  -276  -688  -382  55  139  -186  -417  -24  1050  2484  3764  4488  4685  4659  4653  4760  4939  5076  5090  4961  4732  4494  4308  4166  4024  3824  3497  2952  2078  869  -420  -1393  -1844  -1905  -1832  -1780  -1793  -1901  -2189  -2731  -3424  -4006  -4316  -4386  -4229  -3769  -3052  -2297  -1682  -1154  -474  438  1351  2013  2379  2523  2500  2272  1772  1041  246  -386  -709  -727  -519  -166  241  631  1000  1437  2032  2700  3200  3415  3454  3451  3446  3434  3459  3614  3946  4367  4724  4934  4986  4846  4480  3994  3604  3452  3599  4077  4734  5264  5537  5656  5768  5997  6459  7141  7867  8431  8716  8716  8502  8178  7801  7324  6760  6276  5991  5852  5756  5654  5545  5450  5385  5359  5370  5388  5332  5048  4387  3316  1909  308  -1314  -2813  -4097  -5196  -6191  -7042  -7633  -7929  -8035  -8110  -8226  -8368  -8506  -8611  -8661  -8675  -8650  -8556  -8390  -8180  -7960  -7790  -7724  -7766  -7886  -8056  -8245  -8421  -8559  -8661  -8738  -8784  -8783  -8716  -8581  -8431  -8332  -8299  -8280  -8200  -8006  -7716  -7416  -7179  -7010  -6891  -6816  -6767  -6714  -6662  -6622  -6572  -6504  -6432  -6336  -6180  -5998  -5884  -5876  -5923  -5961  -5964  -5906  -5761  -5530  -5228  -4878  -4534  -4268  -4113  -4079  -4120  -4062  -3803  -3507  -3327  -3172  -2903  -2455  -1925  -1689  -2115  -3113  -4178  -4832  -4920  -4590  -4165  -3874  -3568  -2853  -1543  98  1512  2293  2485  2302  1801  1004  59  -839  -1508  -1863  -1991  -2035  -2045  -1971  -1736  -1367  -1009  -778  -646  -497  -242  128  543  895  1171  1491  1920  2353  2675  2901  3117  3346  3534  3669  3924  4548  5524  6502  7152  7451  7622  8000  8925  10478  12224  13510  14079  14117  13847  13407  13005  12839  12808  12660  12354  11957  11402  10531  9226  7548  5743  4028  2565  1412  429  -426  -998  -1264  -1360  -1403  -1463  -1555  -1580  -1287  -465  640  1448  1673  1473  1090  661  236  -206  -775  -1577  -2532  -3351  -3776  -3794  -3553  -3243  -3029  -2975  -3052  -3217  -3399  -3540  -3663  -3840  -4075  -4304  -4459  -4531  -4553  -4546  -4474  -4276  -3906  -3361  -2754  -2298  -2131  -2219  -2442  -2698  -2921  -3047  -3004  -2741  -2333  -1981  -1844  -1915  -2081  -2238  -2338  -2377  -2354  -2271  -2155  -2015  -1778  -1366  -853  -432  -225  -190  -170  68  755  1905  3156  4030  4393  4432  4239  3646  2481  876  -668  -1656  -2058  -2220  -2401  -2620  -2795  -2899  -2971  -3046  -3115  -3152  -3159  -3154  -3097  -2864  -2399  -1862  -1478  -1306  -1318  -1630  -2417  -3592  -4740  -5476  -5754  -5779  -5749  -5730  -5716  -5701  -5698  -5716  -5749  -5789  -5810  -5700  -5270  -4506  -3729  -3288  -3206  -3271  -3277  -3105  -2770  -2427  -2206  -2089  -1996  -1908  -1836  -1774  -1737  -1755  -1718  -1262  20  2018  3935  4993  5065  4479  3674  3059  2783  2717  2718  2787  3040  3591  4479  5708  7162  8478  9356  9935  10700  12209  14622  17318  19430  20579  20969  21132  21401  21516  20845  18849  15571  11874  8938  7492  7468  8111  8480  8049  6926  5672  4797  4311  3877  3322  2774  2435  2394  2658  3228  4082  5084  6015  6764  7353  7735  7646  6645  4579  2000  -281  -1902  -2936  -3559  -3917  -4112  -4195  -4187  -4108  -3985  -3868  -3856  -4117  -4777  -5736  -6700  -7439  -7945  -8393  -8940  -9572  -10160  -10607  -10881  -11015  -11088  -11161  -11244  -11343  -11454  -11564  -11691  -11866  -12085  -12301  -12488  -12681  -12928  -13201  -13405  -13502  -13554  -13629  -13742  -13876  -14007  -14114  -14198  -14286  -14390  -14494  -14587  -14672  -14742  -14755  -14664  -14474  -14248  -13976  -13508  -12736  -11794  -10976  -10494  -10325  -10328  -10461  -10789  -11268  -11700  -11896  -11686  -10908  -9613  -8035  -6334  -4751  -3704  -3340  -3306  -3045  -2199  -888  332  907  839  678  933  1650  2448  2773  2228  856  -784  -1981  -2392  -2097  -1330  -356  617  1603  2851  4568  6674  8839  10649  11814  12414  12851  13385  13890  14154  14141  13916  13594  13328  13210  13234  13356  13518  13643  13689  13658  13563  13442  13344  13253  13102  12865  12579  12282  12022  11852  11755  11634  11377  10942  10418  9952  9597  9285  8997  8807  8652  8202  7226  6044  5249  5038  5166  5349  5469  5537  5601  5698  5877  6184  6583  6980  7309  7528  7600  7518  7350  7176  7020  6862  6711  6593  6477  6299  6041  5754  5520  5396  5367  5383  5427  5501  5587  5647  5667  5662  5653  5652  5660  5652  5593  5500  5424  5358  5241  5067  4938  5010  5386  5970  6514  6910  7257  7632  8032  8427  8761  9000  9207  9466  9742  9932  10004  9990  9883  9652  9316  8913  8399  7638  6594  5529  4801  4505  4491  4499  4142  3059  1329  -455  -1747  -2350  -2243  -1687  -1286  -1432  -1992  -2669  -3410  -4295  -5312  -6443  -7655  -8690  -9177  -8940  -8143  -7159  -6278  -5568  -4975  -4448  -4006  -3723  -3640  -3738  -3980  -4273  -4498  -4604  -4633  -4638  -4635  -4573  -4376  -4003  -3469  -2710  -1499  271  2257  3901  4902  5319  5387  5234  4779  3970  2963  2005  1305  937  786  676  521  336  169  25  -142  -353  -565  -720  -791  -758  -584  -273  126  711  1755  3378  5266  6839  7664  7646  6848  5517  4216  3424  3139  3092  3103  3118  3128  3126  3094  3005  2818  2477  1991  1525  1261  1236  1379  1610  1867  2123  2360  2548  2671  2716  2608  2273  1811  1454  1327  1421  1733  2244  2910  3731  4663  5574  6370  7022  7475  7709  7741  7493  6832  5810  4665  3600  2725  2103  1703  1408  1153  966  879  856  859  903  1038  1270  1545  1804  2042  2305  2603  2852  2976  3001  2994  2998  3027  3072  3101  3058  2908  2703  2555  2508  2515  2517  2492  2441  2348  2166  1908  1675  1558  1540  1544  1479  1261  910  650  952  2257  4321  6168  7105  7242  6882  6110  5108  4276  3792  3376  2559  1143  -676  -2619  -4532  -6253  -7587  -8468  -8951  -9131  -9140  -9085  -9001  -8898  -8844  -8993  -9466  -10104  -10544  -10641  -10622  -10934  -11892  -13205  -14194  -14641  -14871  -15166  -15675  -16627  -18062  -19548  -20570  -21033  -21200  -21356  -21636  -22041  -22536  -23097  -23665  -24172  -24601  -24970  -25317  -25689  -26040  -26022  -24914  -22053  -17447  -11810]
