reading_id,reading_time,wire_id,result_classification,heart_rate,heart_rate_alert,firmware_version,device_app_version,hardware_version,waveform_samples
ab83d830-55a6-11ed-8080-808080808080,Thu Oct 27 03:23:04 UTC 2022,a10163b41b39,NSR,80,NONE,20001.171.50,2.10.0,Charge 5,[-5633  -9925  -14044  -17890  -21428  -24591  -27170  -28928  -29893  -30317  -30470  -30546  -30614  -30698  -30817  -30825  -30560  -30157  -29867  -29682  -29391  -28885  -28268  -27725  -27372  -27205  -27203  -27423  -27956  -28836  -29869  -30623  -30897  -30960  -31183  -31600  -31428  -28699  -21115  -7887  8991  25276  32767  32767  32767  32767  23254  13576  5551  27  -2848  -3811  -4109  -4574  -5369  -6456  -7658  -8637  -9234  -9533  -9642  -9587  -9338  -8889  -8254  -7448  -6571  -5796  -5202  -4784  -4537  -4423  -4385  -4364  -4339  -4330  -4359  -4409  -4460  -4493  -4506  -4525  -4581  -4647  -4651  -4580  -4509  -4516  -4621  -4766  -4878  -4976  -5142  -5400  -5656  -5785  -5756  -5651  -5564  -5550  -5613  -5689  -5664  -5481  -5215  -5015  -4920  -4861  -4772  -4597  -4261  -3788  -3341  -3029  -2820  -2683  -2660  -2773  -2947  -3064  -3091  -3112  -3234  -3469  -3684  -3712  -3513  -3194  -2852  -2465  -2056  -1755  -1571  -1374  -1121  -889  -741  -680  -674  -689  -699  -686  -635  -557  -503  -548  -738  -1021  -1280  -1463  -1562  -1566  -1520  -1485  -1380  -976  -130  1032  2178  2996  3447  3773  4185  4667  5184  5863  6714  7440  7722  7464  6804  6194  6238  6992  7702  7614  6635  5228  4216  4233  5022  5781  5982  5520  4608  3612  2809  2312  2154  2468  3443  4964  6582  7882  8662  8964  8980  8789  8282  7384  6214  5033  4103  3538  3257  3088  2920  2743  2584  2435  2247  1993  1706  1451  1281  1202  1180  1184  1202  1226  1241  1219  1131  977  786  611  509  485  493  513  598  852  1310  1877  2416  2850  3210  3636  4220  4850  5328  5580  5672  5648  5456  5056  4517  3960  3461  3040  2691  2407  2176  2007  1951  2005  2060  2022  1908  1780  1669  1578  1454  1177  665  -39  -843  -1606  -2166  -2475  -2664  -2860  -3031  -3030  -2755  -2247  -1714  -1385  -1313  -1357  -1310  -1013  -509  -51  160  154  73  9  -49  -194  -502  -999  -1599  -2072  -2196  -1909  -1351  -818  -540  -492  -490  -400  -235  -135  -231  -490  -719  -802  -821  -895  -1062  -1297  -1524  -1665  -1703  -1656  -1532  -1357  -1159  -890  -510  -127  101  162  155  144  104  -40  -320  -640  -870  -1038  -1275  -1578  -1802  -1879  -1871  -1852  -1839  -1792  -1650  -1402  -1104  -856  -757  -814  -932  -1042  -1145  -1227  -1285  -1387  -1586  -1821  -1994  -2079  -2109  -2109  -2081  -2032  -1963  -1825  -1606  -1439  -1371  -1294  -1165  -920  -342  677  2014  3514  4923  5739  5612  4656  3185  1627  342  -715  -1665  -2344  -2625  -2575  -2285  -1891  -1554  -1327  -1155  -962  -710  -430  -194  -32  89  208  312  371  383  363  327  298  285  291  324  384  453  496  491  449  440  624  1136  1865  2483  2791  2880  2941  3131  3549  4100  4546  4786  4879  4867  4741  4519  4294  4119  3931  3687  3415  3132  2839  2553  2246  1886  1539  1320  1238  1203  1150  1073  961  789  569  365  221  125  23  -135  -335  -505  -599  -633  -668  -757  -875  -922  -830  -647  -486  -411  -405  -424  -428  -388  -322  -284  -288  -300  -293  -268  -249  -266  -324  -395  -406  -325  -236  -230  -289  -347  -373  -370  -366  -416  -566  -754  -827  -708  -495  -305  -135  3  0  -185  -468  -763  -1018  -1186  -1256  -1268  -1268  -1271  -1258  -1209  -1138  -1091  -1117  -1219  -1325  -1332  -1227  -1054  -832  -595  -403  -286  -236  -259  -361  -535  -783  -1138  -1542  -1815  -1831  -1606  -1281  -1030  -921  -901  -918  -972  -1074  -1200  -1299  -1347  -1330  -1212  -1016  -874  -805  -638  -261  348  1182  2178  3295  4308  4813  4648  3810  2379  822  -389  -1213  -1822  -2376  -2815  -2940  -2753  -2415  -2072  -1796  -1550  -1284  -1043  -902  -864  -861  -835  -767  -686  -625  -543  -386  -155  117  371  530  569  538  519  562  629  666  697  786  952  1147  1327  1539  1850  2251  2664  3007  3223  3323  3359  3378  3399  3406  3335  3131  2838  2549  2275  2003  1773  1610  1499  1425  1369  1324  1297  1296  1322  1358  1374  1316  1127  797  402  69  -146  -334  -623  -980  -1242  -1341  -1348  -1340  -1345  -1363  -1365  -1278  -1043  -731  -499  -419  -433  -447  -388  -235  -29  152  249  268  252  223  171  84  -16  -94  -137  -154  -147  -120  -86  -51  -12  16  7  -40  -89  -99  -73  -52  -65  -106  -154  -207  -278  -394  -577  -787  -940  -1007  -1027  -1012  -902  -657  -409  -387  -601  -821  -844  -639  -332  -107  -54  -131  -249  -350  -451  -594  -762  -898  -973  -1017  -1102  -1289  -1564  -1850  -2059  -2146  -2111  -1966  -1753  -1516  -1258  -1047  -1039  -1241  -1445  -1473  -1418  -1530  -1597  -984  304  1653  2746  3544  3941  3853  3292  2299  967  -444  -1552  -2160  -2413  -2482  -2413  -2298  -2143  -1886  -1634  -1522  -1544  -1648  -1790  -1925  -2031  -2083  -2027  -1848  -1629  -1476  -1396  -1302  -1128  -911  -733  -629  -603  -635  -674  -675  -595  -398  -130  95  245  393  573  715  755  728  714  801  1037  1375  1721  2035  2308  2546  2794  3088  3365  3537  3573  3445  3127  2708  2360  2161  2066  1989  1861  1660  1438  1281  1219  1212  1216  1216  1212  1207  1202  1201  1209  1242  1341  1528  1750  1892  1855  1613  1264  977  804  619  297  -46  -147  33  272  405  426  374  286  206  188  280  467  675  834  916  911  822  672  495  319  170  106  157  248  275  213  90  -50  -181  -287  -352  -370  -358  -333  -318  -373  -557  -841  -1091  -1188  -1095  -856  -590  -429  -433  -579  -776  -916  -965  -964  -951  -938  -941  -985  -1087  -1211  -1291  -1297  -1258  -1232  -1276  -1400  -1549  -1650  -1687  -1704  -1735  -1778  -1823  -1857  -1872  -1866  -1841  -1790  -1686  -1524  -1355  -1239  -1187  -1175  -1214  -1308  -1318  -1062  -526  200  1029  1910  2796  3554  4006  4002  3457  2453  1192  -130  -1312  -2124  -2410  -2239  -1822  -1307  -894  -810  -976  -1137  -1198  -1186  -1108  -944  -739  -595  -548  -542  -519  -473  -428  -390  -342  -270  -185  -141  -178  -258  -312  -291  -146  115  388  568  673  773  885  994  1129  1347  1669  2056  2412  2643  2738  2773  2824  2901  2976  3025  3028  2969  2842  2656  2443  2251  2100  1938  1687  1346  1004  729  470  112  -325  -661  -796  -796  -757  -734  -746  -798  -882  -987  -1090  -1148  -1084  -848  -522  -287  -246  -363  -533  -670  -759  -822  -861  -871  -867  -873  -908  -978  -1040  -1003  -801  -490  -215  -65  -37  -96  -183  -243  -257  -247  -236  -227  -217  -207  -207  -234  -307  -428  -576  -720  -821  -868  -898  -949  -1012  -1078  -1159  -1222  -1196  -1061  -903  -829  -816  -778  -724  -726  -792  -853  -870  -883  -927  -989  -1032  -1001  -889  -759  -652  -569  -518  -504  -505  -481  -407  -321  -313  -457  -707  -928  -1026  -981  -805  -566  -374  -286  -273  -271  -214  -92  -2  -67  -259  -431  -503  -490  -375  -106  251  513  619  766  1223  2092  3279  4636  5887  6641  6718  6221  5227  3727  1930  243  -1070  -1882  -2085  -1812  -1444  -1192  -1002  -850  -784  -788  -750  -510  -18  540  889  892  600  203  -78  -173  -160  -120  -66  0  59  90  91  77  64  62  116  281  538  802  1017  1181  1294  1354  1424  1604  1900  2182  2332  2362  2348  2332  2315  2291  2269  2263  2258  2228  2177  2094  1898  1547  1160  921  853  820  670  356  -64  -505  -880  -1128  -1271  -1376  -1466  -1526  -1543  -1520  -1483  -1457  -1441  -1427  -1405  -1363  -1313  -1281  -1279  -1297  -1322  -1347  -1387  -1447  -1483  -1471  -1448  -1449  -1494  -1579  -1627  -1556  -1376  -1177  -1051  -1012  -985  -868  -616  -311  -97  -16  5  36  76  115  167  248  359  481  584  662  717  741  734  713  694  690  704  713  654  472  224  42  -18  -8  12  28  50  94  147  171  137  59  -40  -204  -512  -906  -1189  -1241  -1099  -890  -749  -760  -926  -1158  -1322  -1350  -1270  -1154  -1071  -1048  -1084  -1169  -1281  -1387  -1462  -1499  -1497  -1466  -1424  -1391  -1372  -1360  -1343  -1319  -1301  -1304  -1329  -1318  -1167  -886  -587  -167  627  1826  3193  4329  4838  4604  3812  2744  1660  658  -316  -1205  -1770  -1918  -1793  -1539  -1226  -923  -686  -541  -498  -541  -613  -642  -597  -514  -456  -436  -394  -274  -106  21  71  70  54  80  199  375  533  647  740  865  1015  1107  1131  1180  1299  1478  1686  1856  1948  2004  2127  2373  2661  2852  2924  2948  2959  2927  2835  2709  2576  2416  2184  1907  1677  1508  1335  1130  907  671  433  239  115  27  -60  -156  -253  -338  -431  -561  -696  -774  -793  -787  -781  -778  -770  -751  -736  -746  -780  -799  -768  -685  -591  -533  -526  -566  -643  -737  -811  -819  -744  -616  -488  -405  -382  -420  -524  -659  -756  -788  -781  -763  -745  -732  -733  -747  -762  -774  -792  -807  -803  -771  -720  -684  -685  -691  -675  -667  -701  -754  -782  -780  -802  -872  -942  -957  -911  -844  -803  -795  -794  -776  -733  -667  -573  -428  -253  -132  -139  -279  -472  -608  -651  -655  -677  -720  -758  -776  -778  -757  -705  -635  -584  -565  -566  -571  -562  -493  -331  -131  13  138  405  970  1896  3122  4386  5244  5310  4492  3009  1253  -326  -1286  -1513  -1385  -1283  -1280  -1308  -1280  -1158  -961  -740  -572  -502  -493  -482  -431  -340  -237  -161  -120  -94  -70  -47  -34  -37  -43  -5  125  333  559  772  958  1091  1166  1218  1317  1542  1901  2272  2513  2603  2598  2525  2402  2295  2292  2402  2572  2775  2980  3121  3178  3192  3167  3019  2666  2176  1766  1561  1439  1171  693  176  -170  -308  -352  -434  -594  -776  -894  -932  -942  -963  -986  -1006  -1051  -1119  -1197  -1289  -1370  -1401  -1384  -1348  -1306  -1249  -1184  -1135  -1116  -1103  -1047  -909  -726  -590  -540  -541  -569  -634  -724  -782  -776  -739  -709  -669  -599  -518  -467  -469  -522  -599  -663  -695  -669  -555  -382  -257  -263  -402  -583  -690  -693  -645  -590  -542  -524  -580  -726  -907  -1036  -1094  -1121  -1131  -1091  -965  -790  -651  -574  -530  -485  -424  -353  -304  -288  -286  -274  -250  -229  -234  -294  -447  -701  -981  -1167  -1218  -1153  -997  -811  -686  -651  -667  -684  -659  -569  -444  -354  -332  -357  -396  -444  -514  -571  -537  -283  359  1383  2555  3660  4511  4849  4534  3656  2394  979  -251  -1018  -1361  -1484  -1456  -1328  -1195  -1072  -950  -848  -775  -734  -729  -743  -746  -694  -551  -351  -170  -45  39  98  159  252  346  387  354  271  186  134  103  84  116  264  548  930  1329  1635  1794  1884  2030  2279  2546  2714  2768  2794  2842  2869  2810  2690  2598  2576  2559  2456  2279  2103  1949  1777  1559  1313  1047  724  349  28  -138  -172  -171  -203  -314  -548  -856  -1097  -1197  -1209  -1203  -1193  -1158  -1091  -1000  -887  -779  -736  -792  -904  -999  -1049  -1067  -1061  -1044  -1027  -1002  -964  -923  -884  -836  -775  -720  -687  -681  -698  -718  -713  -675  -622  -581  -567  -576  -593  -602  -603  -601  -595  -575  -535  -490  -450  -430  -452  -516  -578  -614  -638  -668  -709  -759  -815  -878  -944  -1010  -1070  -1110  -1132  -1153  -1166  -1122  -971  -729  -496  -358  -316  -326  -359  -406  -454  -487  -491  -468  -439  -433  -471  -556  -667  -770  -844  -884  -902  -907  -902  -897  -909  -937  -961  -968  -964  -961  -966  -973  -956  -865  -661  -334  226  1197  2518  3936  5136  5664  5287  4308  3082  1711  350  -789  -1630  -2122  -2194  -1917  -1537  -1279  -1152  -1047  -928  -848  -825  -801  -716  -584  -465  -374  -297  -239  -215  -219  -240  -276  -321  -342  -291  -139  105  374  574  678  747  846  998  1164  1275  1310  1334  1487  1872  2375  2739  2860  2846  2824  2839  2888  2948  2993  3009  3006  3003  2997  2933  2731  2383  1958  1495  1024  646  448  384  317  145  -110  -342  -465  -475  -441  -450  -525  -625  -720  -807  -890  -965  -1022  -1062  -1086  -1094  -1087  -1073  -1053  -1016  -954  -897  -879  -898  -933  -963  -981  -996  -996  -929  -747  -497  -303  -235  -276  -382  -507  -595  -594  -509  -400  -317  -271  -250  -236  -214  -188  -214  -332  -537  -831  -1161  -1393  -1454  -1386  -1249  -1085  -941  -864  -852  -833  -739  -595  -500  -487  -504  -510  -512  -523  -547  -581  -622  -667  -709  -735  -737  -728  -724  -711  -677  -630  -563  -458  -332  -238  -207  -229  -301  -433  -597  -725  -780  -777  -748  -711  -667  -622  -599  -620  -681  -737  -737  -713  -738  -814  -910  -1039  -1132  -967  -339  715  1873  2807  3505  4139  4649  4761  4314  3359  2058  615  -626  -1356  -1691  -1844  -1802  -1665  -1577  -1485  -1367  -1264  -1118  -854  -512  -219  -68  -48  -84  -119  -137  -147  -151  -153  -157  -164  -169  -171  -154  -82  78  299  503  647  755  887  1060  1228  1360  1492  1661  1852  2038  2196  2298  2355  2407  2463  2514  2598  2760  2954  3052  2973  2773  2565  2373  2136  1809  1420  1077  895  851  777  516  122  -197  -356  -445  -545  -639  -695  -729  -761  -784  -793  -793  -792  -791  -789  -785  -779  -775  -780  -801  -832  -856  -850  -792  -685  -566  -490  -485  -528  -570  -596  -626  -667  -695  -687  -654  -616  -577  -529  -475  -437  -435  -474  -549  -637  -709  -736  -711  -666  -638  -625  -618  -631  -697  -826  -962  -1005  -893  -662  -426  -279  -243  -323  -527  -783  -961  -1004  -948  -849  -729  -592  -454  -355  -321  -338  -363  -371  -371  -382  -407  -435  -465  -506  -560  -615  -656  -670  -666  -669  -697  -756  -829  -877  -872  -829  -796  -816  -901  -1061  -1338  -1680  -1784  -1374  -610  123  651  1074  1643  2522  3627  4622  5034  4612  3557  2228  910  -157  -975  -1737  -2328  -2459  -2156  -1709  -1357  -1128  -915  -689  -520  -422  -349  -322  -387  -514  -623  -679  -696  -704  -698  -630  -465  -258  -113  -61  -37  32  166  332  491  600  640  670  774  953  1141  1304  1474  1687  1956  2282  2611  2866  3021  3099  3129  3115  3048  2937  2796  2631  2445  2222  1926  1585  1279  1037  844  714  638  527  296  -21  -293  -447  -515  -580  -697  -850  -982  -1068  -1114  -1127  -1112  -1084  -1049  -1003  -950  -912  -900  -900  -901  -895  -893  -920  -992  -1078  -1108  -1053  -956  -873  -817  -770  -731  -709  -698  -675  -617  -535  -472  -451  -463  -506  -583  -685  -778  -837  -858  -860  -859  -865  -874  -875  -867  -859  -853  -848  -843  -846  -855  -857  -825  -733  -606  -515  -497  -541  -613  -682  -736  -768  -767  -740  -716  -710  -713  -709  -682  -628  -572  -541  -522  -483  -430  -384  -344  -298  -252  -226  -225  -237  -250  -262  -310  -448  -644  -792  -845  -843  -841  -863  -903  -937  -945  -910  -812  -634  -376  -106  58  79  27  50  387  1241  2544  3925  4936  5295  4939  4079  3093  2170  1275  379  -552  -1443  -2001  -2037  -1684  -1200  -760  -454  -332  -363  -428  -442  -422  -413  -417  -405  -336  -193  6  209  348  403  410  405  384  321  216  107  36  48  188  447  739  1003  1243  1463  1644  1791  1933  2086  2247  2398  2523  2618  2692  2749  2784  2799  2804  2798  2754  2643  2466  2259  2055  1842  1585  1296  1030  793  552  301  33  -258  -530  -714  -811  -891  -1019  -1192  -1356  -1466  -1516  -1518  -1464  -1338  -1146  -948  -811  -758  -774  -851  -1011  -1243  -1458  -1549  -1481  -1284  -1039  -841  -750  -761  -822  -865  -872  -871  -864  -833  -801  -761  -664  -532  -435  -400  -403  -429  -491  -595  -726  -846  -917  -929  -905  -871  -843  -823  -809  -792  -749  -669  -575  -495  -454  -472  -562  -710  -864  -964  -996  -998  -1010  -1053  -1136  -1243  -1341  -1390  -1301  -988  -534  -142  77  114  5  -147  -258  -316  -351  -390  -440  -497  -577  -689  -802  -882  -929  -950  -924  -854  -791  -764  -761  -764  -766  -765  -764  -768  -787  -816  -796  -631  -266  347  1292  2485  3654  4589  5175  5283  4841  3900  2561  976  -558  -1716  -2305  -2306  -1893  -1352  -918  -679  -576  -510  -415  -283  -163  -100  -103  -161  -224  -254  -272  -316  -381  -421  -386  -263  -101  21  88  144  244  418  625  772  835  876  952  1066  1184  1274  1335  1381  1410  1452  1624  2041  2613  3083  3310  3351  3299  3198  3082  2981  2893  2784  2606  2322  1942  1498  1017  574  271  111  -8  -145  -278  -399  -528  -652  -752  -830  -851  -783  -675  -597  -571  -593  -649  -713  -765  -804  -834  -865  -909  -958  -985  -986  -999  -1069  -1200  -1342  -1441  -1469  -1434  -1360  -1250  -1067  -830  -637  -555  -551  -567  -573  -572  -581  -615  -671  -725  -760  -783  -813  -849  -873  -886  -899  -915  -932  -973  -1065  -1192  -1290  -1303  -1226  -1100  -989  -920  -858  -753  -614  -501  -442  -404  -366  -329  -293  -255  -220  -210  -242  -304  -377  -451  -507  -533  -536  -514  -481  -475  -511  -573  -658  -753  -819  -816  -733  -602  -485  -424  -404  -391  -390  -459  -641  -859  -965  -934  -899  -983  -1115  -1011  -405  735  2198  3615  4627  5035  4853  4268  3408  2189  594  -1018  -2164  -2565  -2193  -1425  -872  -759  -878  -1013  -1061  -997  -868  -727  -584  -445  -338  -262  -190  -121  -57  29  145  251  315  340  363  414  483  534  567  636  776  941  1054  1121  1207  1337  1487  1633  1765  1902  2061  2219  2388  2645  2980  3261  3402  3442  3438  3351  3101  2728  2380  2139  1959  1771  1536  1256  962  699  488  292  50  -236  -500  -694  -818  -885  -906  -910  -925  -960  -1001  -1027  -1037  -1038  -1039  -1037  -1019  -978  -930  -888  -819  -672  -479  -338  -290  -290  -295  -313  -393  -560  -750  -835  -750  -565  -408  -341  -335  -346  -366  -405  -454  -490  -500  -495  -486  -487  -519  -585  -618  -532  -349  -197  -164  -245  -394  -560  -708  -801  -823  -800  -771  -767  -806  -874  -936  -978  -1003  -1001  -958  -872  -761  -646  -536  -441  -361  -308  -295  -307  -314  -308  -305  -334  -407  -475  -492  -465  -421  -395  -413  -471  -574  -741  -933  -1068  -1112  -1064  -916  -696  -498  -388  -332  -263  -179  -118  -74  12  162  308  454  809  1581  2731  3953  4856  5219  5044  4433  3522  2363  931  -600  -1809  -2338  -2148  -1533  -960  -736  -800  -925  -986  -949  -807  -609  -455  -395  -393  -383  -319  -201  -70  30  98  166  292  514  747  841  777  660  575  577  666  794  951  1151  1349  1470  1499  1481  1461  1476  1559  1708  1901  2141  2442  2742  2933  2997  2998  2974  2893  2721  2464  2167  1892  1643  1326  889  407  -2  -283  -467  -623  -778  -945  -1134  -1308  -1416  -1461  -1468  -1443  -1375  -1282  -1220  -1244  -1358  -1490  -1530  -1467  -1381  -1326  -1283  -1205  -1099  -1018  -998  -1030  -1079  -1115  -1128  -1129  -1117  -1078  -1015  -954  -919  -909  -905  -894  -861  -794  -683  -551  -479  -507  -578  -660  -772  -880  -952  -1003  -1033  -1008  -916  -769  -610  -496  -457  -483  -555  -650  -741  -810  -864  -934  -1028  -1119  -1168  -1150  -1056  -910  -767  -664  -619  -624  -652  -677  -694  -704  -718  -751  -795  -829  -847  -860  -864  -811  -656  -446  -291  -236  -239  -248  -249  -249  -276  -357  -472  -573  -645  -700  -737  -759  -779  -804  -838  -890  -958  -1009  -1000  -899  -714  -509  -332  -83  415  1198  2151  3101  3901  4502  4864  4863  4397  3490  2225  750  -663  -1747  -2327  -2360  -1987  -1453  -991  -735  -639  -561  -429  -284  -193  -167  -187  -249  -341  -436  -509  -551  -546  -466  -290  -38  205  346  371  354  385  515  715  899  1016  1082  1099  1075  1068  1119  1220  1367  1577  1872  2253  2620  2843  2921  2964  3056  3152  3145  3035  2915  2823  2736  2605  2391  2110  1824  1545  1222  824  411  77  -133  -242  -301  -360  -425  -468  -481  -506  -583  -683  -765  -824  -834  -778  -686  -595  -524  -486  -462  -420  -363  -340  -389  -488  -606  -732  -849  -922  -935  -908  -866  -816  -749  -673  -620  -602  -591  -557  -500  -449  -425  -423  -428  -426  -412  -388  -375  -413  -525  -679  -803  -870  -903  -913  -883  -805  -724  -698  -700  -676  -636  -619  -624  -638  -654  -682  -736  -807  -862  -883  -865  -801  -709  -642  -640  -703  -791  -853  -869  -864  -880  -942  -1023  -1052  -972  -802  -610  -434  -263  -92  49  124  90  -113  -479  -863  -1117  -1242  -1316  -1361  -1363  -1319  -1234  -1116  -996  -896  -810  -711  -583  -452  -373  -366  -384  -345  -181  66  295  583  1191  2165  3210  4030  4489  4452  3909  3101  2171  1037  -251  -1409  -2178  -2414  -2052  -1315  -669  -369  -358  -500  -665  -772  -819  -831  -827  -805  -732  -582  -405  -288  -261  -294  -344  -382  -381  -316  -184  -37  68  147  262  429  623  837  1049  1195  1246  1283  1435  1751  2111  2347  2434  2475  2556  2668  2750  2766  2734  2685  2646  2623  2604  2576  2481  2228  1841  1492  1315  1276  1197  884  323  -245  -571  -641  -600  -562  -572  -642  -754  -862  -931  -956  -954  -944  -926  -887  -834  -813  -857  -933  -990  -1021  -1033  -1013  -937  -806  -651  -518  -473  -554  -698  -809  -819  -695  -498  -350  -301  -305  -313  -318  -348  -426  -527  -606  -641  -625  -572  -511  -453  -396  -359  -362  -415  -496  -567  -594  -564  -485  -388  -317  -288  -287  -302  -336  -403  -504  -621  -720  -778  -793  -771  -714  -638  -578  -538  -485  -393  -272  -165  -110  -97  -92  -95  -131  -211  -296  -355  -399  -430  -438  -439  -467  -543  -641  -716  -758  -783  -793  -777  -737  -691  -658  -644  -652  -688  -739  -769  -749  -694  -640  -599  -571  -592  -701  -759  -376  684  2129  3421  4229  4468  4271  3881  3319  2382  1037  -449  -1706  -2390  -2358  -1886  -1438  -1202  -1082  -951  -771  -599  -502  -480  -473  -404  -235  -25  122  168  148  113  98  144  282  477  638  698  661  567  469  421  494  737  1067  1305  1372  1332  1292  1370  1658  2088  2475  2709  2818  2875  2936  3001  3046  3066  3072  3047  2955  2795  2619  2460  2270  1997  1685  1431  1272  1174  1087  951  690  295  -116  -420  -622  -794  -933  -993  -996  -1022  -1103  -1218  -1332  -1418  -1472  -1507  -1510  -1428  -1267  -1130  -1086  -1099  -1085  -973  -769  -574  -492  -537  -642  -722  -748  -743  -729  -716  -724  -797  -961  -1166  -1310  -1322  -1217  -1082  -944  -760  -560  -421  -370  -419  -546  -670  -754  -827  -912  -1000  -1074  -1117  -1104  -1025  -930  -877  -866  -861  -834  -782  -731  -703  -679  -606  -461  -298  -197  -185  -257  -421  -664  -906  -1069  -1127  -1066  -873  -612  -404  -302  -264  -252  -277  -369  -554  -810  -1046  -1180  -1214  -1205  -1197  -1201  -1205  -1192  -1161  -1122  -1078  -1024  -984  -986  -1015  -1026  -980  -873  -706  -478  -249  -131  -156  -121  372  1492  2912  4162  4905  4977  4470  3652  2677  1501  207  -887  -1586  -1852  -1677  -1264  -917  -689  -520  -423  -400  -408  -413  -415  -432  -471  -492  -433  -287  -105  42  124  173  243  370  543  706  781  739  635  550  523  547  622  776  1000  1228  1430  1621  1811  1989  2161  2328  2468  2584  2697  2786  2841  2904  2995  3081  3117  3087  3021  2917  2712  2348  1874  1393  949  553  254  75  -50  -190  -333  -442  -510  -565  -631  -714  -799  -833  -784  -710  -692  -751  -842  -908  -929  -931  -939  -962  -990  -994  -956  -895  -847  -823  -812  -804  -782  -716  -600  -475  -401  -403  -465  -550  -610  -629  -621  -603  -586  -580  -590  -607  -630  -673  -737  -770  -721  -622  -540  -505  -503  -505  -499  -497  -527  -606  -707  -779  -799  -786  -767  -756  -752  -750  -743  -742  -771  -832  -870  -856  -839  -863  -924  -1014  -1089  -1081  -961  -775  -616  -543  -543  -571  -590  -588  -578  -573  -565  -541  -509  -491  -512  -602  -766  -938  -1037  -1040  -977  -896  -840  -816  -805  -787  -758  -745  -789  -892  -1008  -1086  -1122  -1145  -1148  -1041  -753  -417  -244  -164  80  614  1452  2603  3909  4936  5298  4926  3894  2382  803  -455  -1304  -1789  -1943  -1885  -1714  -1426  -1086  -835  -723  -704  -721  -740  -739  -687  -556  -353  -141  -7  32  26  16  15  24  49  94  162  236  267  222  145  115  187  385  694  1029  1299  1524  1770  1998  2135  2205  2304  2469  2659  2820  2917  2951  2960  2993  3043  3052  2969  2819  2679  2563  2402  2123  1723  1260  807  449  240  125  -34  -301  -590  -774  -827  -822  -843  -913  -990  -1027  -1026  -1010  -989  -959  -906  -832  -764  -719  -698  -692  -690  -690  -697  -714  -739  -758  -763  -753  -725  -676  -614  -557  -520  -505  -500  -524  -603  -717  -788  -760  -663  -601  -596  -539  -401  -314  -342  -407  -439  -447  -474  -549  -675  -832  -968  -1030  -1008  -940  -854  -749  -627  -508  -400  -315  -284  -320  -387  -446  -488  -515  -525  -529  -548  -592  -627  -620  -606  -634  -685  -717  -732  -750  -770  -775  -763  -729  -616  -356  6  314  453  410  210  -69  -300  -420  -467  -487  -510  -555  -621  -688  -736  -736  -672  -581  -515  -484  -462  -450  -483  -584  -709  -792  -828  -853  -849  -720  -397  135  890  1860  2978  4039  4753  4954  4609  3731  2479  1097  -274  -1437  -2054  -2036  -1712  -1387  -1106  -892  -798  -792  -797  -768  -703  -634  -582  -506  -372  -223  -107  -24  27  52  62  66  68  82  129  221  332  412  448  499  632  840  1047  1202  1322  1459  1619  1746  1807  1825  1854  1948  2169  2534  2930  3206  3316  3276  3103  2878  2716  2639  2536  2249  1727  1134  702  488  387  310  231  134  -13  -218  -459  -699  -887  -984  -1008  -1004  -994  -980  -973  -1017  -1156  -1354  -1498  -1501  -1357  -1143  -964  -867  -843  -868  -904  -924  -928  -922  -912  -906  -907  -917  -943  -979  -994  -955  -879  -803  -735  -678  -634  -595  -580  -613  -670  -713  -734  -752  -790  -845  -893  -920  -933  -946  -968  -975  -911  -733  -505  -367  -394  -556  -738  -814  -769  -695  -660  -661  -670  -667  -640  -590  -532  -461  -361  -251  -181  -167  -189  -220  -240  -246  -246  -243  -238  -226  -209  -202  -244  -378  -584  -772  -846  -784  -639  -498  -415  -389  -395  -433  -535  -704  -854  -872  -774  -673  -629  -589  -482  -308  -114  152  676  1553  2627  3568  4148  4326  4100  3519  2711  1679  349  -1065  -2116  -2538  -2345  -1776  -1264  -1087  -1097  -1024  -819  -601  -470  -427  -413  -379  -316  -248  -199  -177  -166  -156  -160  -185  -220  -245  -243  -180  -26  178  327  348  309  327  412  493  552  655  900  1313  1775  2131  2337  2469  2613  2781  2937  3037  3070  3061  3024  2955  2849  2721  2583  2431  2238  1983  1704  1441  1153  764  320  -37  -259  -408  -523  -593  -618  -609  -584  -565  -576  -632  -734  -849  -937  -987  -1025  -1068  -1085  -1024  -902  -803  -767  -770  -778  -783  -785  -791  -794  -778  -729  -639  -524  -443  -449  -511  -557  -554  -521  -490  -479  -463  -410  -324  -258  -275  -366  -468  -546  -597  -614  -610  -609  -617  -617  -601  -597  -650  -751  -840  -873  -840  -725  -536  -343  -221  -183  -205  -281  -415  -588  -760  -897  -979  -1018  -1042  -1056  -1020  -892  -694  -507  -359  -208  -38  103  175  161  58  -92  -217  -283  -313  -352  -420  -508  -609  -743  -888  -959  -914  -807  -702  -611  -550  -555  -642  -779  -900  -941  -851  -610  -272  82  471  1001  1737  2645  3564  4249  4502  4236  3552  2644  1567  310  -944  -1871  -2285  -2216  -1828  -1373  -1071  -937  -839  -711  -590  -517  -490  -484  -485  -483  -469  -437  -377  -288  -187  -104  -61  -50  -47  -37  -2  87  220  335  390  393  383  430  606  878  1131  1326  1518  1734  1941  2130  2330  2527  2656  2702  2713  2731  2736  2680  2572  2466  2372  2263  2158  2069  1894  1506  976  539  316  233  186  115  -24  -235  -467  -652  -767  -831  -868  -890  -908  -926  -941  -947  -943  -933  -926  -935  -972  -1019  -1027  -972  -902  -852  -807  -754  -706  -674  -660  -664  -675  -674  -653  -622  -599  -597  -614  -638  -656  -665  -667  -659  -627  -569  -495  -420  -360  -326  -324  -376  -498  -649  -753  -758  -666  -518  -377  -279  -225  -227  -318  -490  -669  -779  -809  -797  -782  -777  -782  -789  -795  -799  -800  -782  -709  -552  -315  -65  101  150  103  -7  -139  -233  -261  -245  -221  -213  -223  -232  -235  -261  -341  -463  -582  -676  -739  -767  -767  -760  -767  -797  -841  -871  -854  -787  -717  -696  -724  -747  -659  -365  141  846  1738  2754  3796  4731  5311  5291  4617  3435  2012  644  -479  -1335  -1929  -2183  -2026  -1596  -1178  -935  -833  -797  -785  -758  -673  -526  -355  -211  -127  -102  -104  -97  -59  15  122  233  311  345  348  337  329  336  373  456  592  766  956  1149  1320  1452  1618  1915  2292  2581  2723  2792  2843  2879  2905  2929  2951  2955  2902  2760  2573  2434  2378  2367  2325  2157  1787  1244  672  230  -28  -178  -313  -454  -566  -628  -663  -704  -772  -859  -941  -1020  -1100  -1114  -991  -786  -629  -575  -582  -620  -688  -762  -789  -751  -704  -731  -842  -973  -1065  -1101  -1092  -1062  -1007  -897  -760  -668  -650  -674  -698  -708  -709  -701  -683  -659  -639  -629  -624  -623  -635  -670  -717  -746  -745  -728  -713  -705  -700  -697  -705  -737  -788  -834  -860  -865  -833  -748  -638  -563  -540  -518  -443  -331  -248  -224  -229  -237  -284  -411  -571  -640  -550  -365  -210  -154  -180  -235  -327  -507  -751  -956  -1052  -1053  -1016  -989  -981  -976  -955  -885  -763  -636  -558  -541  -572  -636  -717  -791  -857  -892  -816  -582  -194  366  1098  1916  2721  3479  4135  4464  4208  3335  2039  609  -661  -1561  -2051  -2245  -2215  -1947  -1512  -1080  -801  -689  -654  -635  -622  -615  -605  -579  -541  -503  -454  -363  -237  -119  -26  39  73  77  89  170  369  647  892  1022  1057  1077  1146  1268  1391  1472  1542  1676  1909  2171  2351  2431  2487  2585  2733  2885  2984  3015  3013  3006  2978  2887  2698  2414  2088  1791  1534  1277  1016  746  416  43  -255  -422  -521  -619  -728  -827  -906  -978  -1035  -1047  -995  -900  -838  -889  -1025  -1145  -1203  -1221  -1228  -1228  -1197  -1105  -937  -744  -612  -574  -596  -634  -659  -684  -739  -820  -893  -938  -950  -906  -780  -610  -482  -435  -456  -533  -655  -788  -877  -886  -834  -782  -755  -734  -697  -639  -573  -552  -607  -675  -633  -427  -178  -106  -262  -506  -715  -858  -935  -966  -974  -961  -929  -890  -857  -827  -788  -723  -630  -530  -438  -352  -280  -238  -228  -223  -205  -189  -194  -235  -324  -469  -653  -839  -1006  -1167  -1341  -1522  -1638  -1576  -1307  -976  -756  -686  -697  -736  -795  -859  -904  -931  -965  -1024  -1111  -1181  -1089  -603  411  1703  2836  3648  4100  4112  3779  3274  2639  1771  602  -668  -1740  -2411  -2514  -2080  -1494  -1155  -1106  -1134  -1079  -938  -801  -721  -661  -596  -550  -532  -522  -511  -488  -440  -361  -252  -107  57  211  348  472  571  630  649  660  731  908  1151  1375  1554  1716  1860  1953  1995  2034  2135  2362  2709  3054  3274  3365  3383  3345  3242  3104  2981  2878  2738  2502  2188  1867  1525  1078  572  199  49  12  -61  -203  -354  -471  -556  -615  -659  -697  -724  -736  -752  -820  -983  -1203  -1374  -1438  -1395  -1229  -949  -659  -485  -442  -451  -446  -415  -379  -363  -388  -468  -575  -668  -754  -853  -897  -811  -651  -534  -528  -609  -686  -689  -627  -550  -495  -459  -419  -383  -385  -441  -526  -597  -621  -588  -519  -473  -492  -534  -554  -564  -597  -666  -748  -805  -828  -827  -795  -712  -598  -509  -481  -503  -545  -573  -570  -545  -493  -400  -282  -170  -63  34  63  -32  -218  -420  -615  -815  -983  -1067  -1061  -991  -886  -775  -682  -622  -595  -576  -538  -486  -445  -416  -390  -387  -418  -470  -534  -617  -713  -722  -442  252  1261  2354  3355  4195  4807  5065  4883  4185  2926  1309  -330  -1715  -2500  -2505  -1979  -1260  -590  -242  -302  -527  -675  -714  -709  -704  -701  -663  -558  -396  -227  -89  2  70  128  147  111  80  125  228  318  371  433  554  719  869  993  1145  1364  1623  1860  2039  2195  2361  2536  2728  2938  3118  3215  3241  3243  3239  3192  3060  2876  2705  2519  2216  1793  1374  1065  851  647  406  174  32  2  26  2  -162  -482  -859  -1156  -1284  -1256  -1163  -1089  -1053  -1031  -1023  -1057  -1149  -1276  -1365  -1345  -1230  -1094  -981  -880  -788  -724  -708  -737  -799  -868  -909  -916  -922  -973  -1069  -1124  -1035  -834  -668  -606  -604  -602  -589  -577  -573  -569  -554  -529  -507  -497  -495  -499  -521  -559  -575  -535  -452  -379  -390  -503  -611  -629  -625  -659  -696  -705  -688  -631  -513  -344  -193  -157  -282  -494  -651  -706  -706  -702  -706  -699  -643  -506  -302  -92  62  143  144  53  -134  -370  -566  -681  -738  -763  -767  -758  -744  -734  -728  -725  -728  -747  -794  -870  -950  -999  -1017  -999  -908  -758  -603  -502  -495  -483  -265  256  1036  1976  2979  3949  4809  5385  5376  4638  3239  1375  -447  -1655  -2064  -1881  -1593  -1576  -1715  -1698  -1434  -1069  -819  -759  -791  -819  -830  -831  -792  -672  -490  -320  -212  -142  -67  15  55  36  13  37  106  206  321  433  542  655  758  850  953  1088  1265  1485  1749  2035  2300  2520  2696  2834  2929  2975  2987  2991  2994  2968  2869  2689  2478  2260  1969  1535  1017  593  384  338  311  197  -8  -231  -415  -565  -694  -797  -864  -910  -967  -1034  -1069  -1054  -1018  -995  -1000  -1025  -1042  -1038  -1028  -1024  -1023  -1023  -1017  -1004  -992  -990  -998  -996  -944  -843  -755  -721  -720  -724  -726  -727  -725  -716  -706  -707  -729  -756  -773  -781  -785  -795  -815  -831  -815  -750  -682  -711  -871  -1034  -1056  -976  -912  -900  -915  -933  -940  -936  -933  -961  -1036  -1122  -1160  -1154  -1140  -1116  -1067  -1010  -946  -864  -764  -637  -471  -296  -178  -141  -150  -169  -184  -191  -187  -166  -145  -178  -320  -539  -737  -842  -854  -816  -769  -768  -901  -1156  -1360  -1415  -1381  -1323  -1236  -1082  -858  -645  -510  -444  -401  -334  -195  94  669  1594  2758  3918  4756  4948  4417  3350  1954  469  -818  -1693  -2017  -1860  -1516  -1231  -1080  -1037  -1040  -1046  -1044  -1029  -988  -907  -778  -599  -401  -239  -126  -27  69  144  170  121  -30  -241  -394  -388  -193  127  467  767  1017  1193  1275  1288  1289  1344  1506  1767  2051  2287  2469  2633  2819  3013  3152  3203  3172  3070  2939  2848  2806  2742  2585  2327  1999  1658  1355  1077  786  498  256  93  -12  -122  -260  -397  -531  -660  -752  -789  -780  -736  -653  -554  -487  -480  -521  -569  -583  -557  -519  -489  -479  -491  -510  -522  -525  -522  -511  -485  -450  -440  -466  -479  -415  -280  -130  -14  46  42  -31  -169  -341  -499  -593  -619  -614  -608  -601  -579  -529  -438  -310  -182  -99  -70  -92  -194  -404  -669  -866  -930  -892  -803  -715  -657  -610  -520  -353  -160  -43  -25  -38  -47  -115  -329  -653  -929  -1057  -1067  -1009  -877  -664  -438  -294  -247  -235  -197  -135  -87  -65  -40  4  17  -73  -252  -427  -552  -639  -691  -709  -705  -680  -628  -561  -509  -494  -508  -525  -512  -448  -359  -320  -386  -512  -611  -678  -751  -744  -421  369  1502  2648  3566  4261  4725  4843  4648  4128  3088  1621  161  -1009  -1852  -2259  -2136  -1738  -1408  -1132  -792  -489  -355  -359  -408  -451  -458  -418  -331  -223  -150  -131  -132  -163  -270  -403  -429  -279  -36  152  245  301  378  502  670  851  1019  1162  1273  1380  1532  1722  1887  2005  2128  2308  2531  2742  2882  2924  2879  2801  2741  2704  2649  2533  2295  1890  1405  1034  866  805  706  503  212  -103  -358  -500  -586  -729  -934  -1102  -1180  -1205  -1220  -1226  -1201  -1139  -1066  -1009  -968  -931  -899  -869  -837  -816  -828  -884  -965  -1022  -1010  -918  -790  -695  -655  -646  -661  -736  -900  -1109  -1267  -1308  -1207  -970  -675  -439  -302  -240  -223  -236  -273  -318  -337  -335  -338  -362  -412  -475  -524  -550  -591  -686  -811  -903  -920  -871  -781  -677  -587  -536  -543  -604  -684  -739  -756  -753  -749  -737  -700  -633  -558  -505  -495  -526  -578  -638  -714  -805  -880  -909  -858  -697  -459  -232  -57  66  145  187  204  201  164  48  -188  -508  -796  -956  -996  -981  -959  -944  -946  -972  -1016  -1058  -1086  -1093  -1051  -924  -721  -501  -308  -150  -72  -143  -245  -52  598  1610  2870  4169  5092  5380  5096  4368  3336  2143  818  -525  -1568  -2064  -2049  -1763  -1448  -1188  -945  -720  -552  -451  -407  -403  -412  -408  -357  -248  -116  -4  73  122  156  200  246  267  264  267  311  402  537  723  934  1097  1182  1234  1303  1393  1466  1496  1512  1623  1931  2374  2745  2920  2952  2936  2919  2908  2906  2918  2934  2908  2777  2532  2231  1912  1570  1234  946  649  281  -79  -303  -382  -423  -526  -691  -833  -892  -882  -856  -843  -844  -842  -824  -791  -762  -748  -741  -727  -697  -654  -610  -588  -613  -703  -825  -920  -973  -1008  -1015  -913  -645  -342  -226  -327  -518  -715  -860  -908  -855  -683  -417  -185  -79  -71  -101  -139  -189  -265  -349  -430  -512  -562  -541  -475  -416  -395  -418  -482  -584  -701  -792  -841  -865  -878  -896  -936  -991  -1025  -1002  -924  -840  -776  -715  -660  -630  -601  -536  -440  -345  -288  -297  -366  -457  -541  -611  -661  -672  -610  -449  -243  -96  -41  -32  -23  -12  -29  -101  -222  -363  -496  -601  -673  -722  -763  -797  -813  -812  -813  -831  -879  -947  -1016  -1064  -1068  -1035  -1029  -1081  -1156  -1228  -1277  -1163  -723  -88  443  863  1382  2148  3225  4412  5170  5076  4158  2708  1105  -289  -1319  -1967  -2175  -1988  -1628  -1271  -977  -789  -708  -681  -656  -605  -526  -452  -405  -366  -315  -270  -265  -300  -339  -353  -330  -256  -99  171  498  740  833  837  837  852  845  815  846  1002  1249  1485  1630  1677  1686  1771  2048  2511  2977  3242  3266  3132  2960  2851  2835  2856  2821  2655  2382  2109  1867  1575  1211  867  602  397  203  -38  -334  -608  -790  -876  -900  -891  -866  -848  -875  -969  -1076  -1084  -976  -863  -835  -871  -907  -916  -927  -982  -1091  -1204  -1246  -1178  -1034  -888  -787  -733  -713  -711  -703  -663  -576  -459  -361  -333  -400  -553  -756  -943  -1052  -1081  -1079  -1079  -1068  -1002  -854  -632  -399  -243  -203  -268  -414  -581  -693  -728  -721  -701  -680  -677  -752  -947  -1170  -1230  -1046  -709  -404  -284  -349  -471  -551  -577  -576  -585  -634  -715  -768  -739  -635  -505  -393  -318  -281  -270  -272  -283  -305  -339  -378  -420  -458  -493  -533  -570  -582  -563  -532  -511  -506  -501  -496  -540  -678  -854  -928  -818  -590  -382  -281  -256  -223  -146  16  366  984  1840  2810  3787  4640  5083  4851  3948  2568  1018  -293  -1114  -1477  -1541  -1506  -1458  -1336  -1135  -937  -794  -712  -666  -627  -570  -490  -414  -359  -297  -185  -33  92  147  148  133  130  162  240  350  469  574  646  687  716  755  837  988  1183  1382  1566  1721  1851  1996  2180  2389  2623  2871  3082  3231  3333  3375  3346  3276  3160  2926  2555  2114  1660  1249  968  846  809  749  557  189  -243  -562  -719  -797  -867  -912  -890  -834  -831  -906  -1007  -1083  -1124  -1133  -1098  -994  -844  -720  -658  -631  -617  -614  -620  -625  -625  -622  -623  -643  -689  -748  -789  -806  -816  -831  -851  -871  -885  -882  -846  -774  -693  -641  -627  -635  -644  -637  -602  -551  -522  -527  -530  -505  -487  -556  -769  -1060  -1289  -1392  -1390  -1297  -1109  -865  -647  -505  -449  -447  -437  -424  -452  -499  -519  -515  -523  -567  -637  -701  -747  -781  -806  -822  -831  -830  -801  -706  -538  -358  -241  -195  -173  -141  -94  -44  -7  11  20  4  -103  -349  -650  -858  -929  -931  -918  -901  -891  -894  -886  -800  -594  -336  -162  -161  -323  -559  -750  -844  -872  -867  -807  -634  -312  214  957  1741  2460  3270  4215  4983  5203  4704  3506  1916  447  -615  -1316  -1695  -1705  -1411  -1050  -849  -831  -873  -862  -732  -467  -151  70  138  91  -22  -144  -201  -153  -38  90  218  326  357  288  210  261  459  697  863  941  989  1046  1087  1095  1135  1301  1597  1917  2150  2275  2351  2457  2604  2738  2827  2887  2934  2959  2956  2946  2938  2889  2713  2354  1845  1329  948  704  493  272  60  -144  -334  -463  -519  -548  -575  -580  -542  -503  -537  -645  -752  -813  -865  -958  -1097  -1237  -1316  -1299  -1193  -1034  -883  -768  -660  -544  -457  -427  -432  -439  -434  -419  -411  -448  -565  -750  -929  -1047  -1104  -1123  -1100  -1025  -918  -830  -784  -761  -731  -690  -662  -649  -630  -593  -561  -571  -622  -682  -718  -721  -725  -770  -842  -908  -970  -1030  -1056  -1002  -858  -676  -524  -430  -384  -365  -364  -376  -388  -389  -386  -407  -489  -657  -873  -1056  -1162  -1199  -1146  -940  -575  -192  42  98  41  -76  -206  -287  -294  -257  -241  -301  -427  -557  -650  -716  -773  -828  -874  -901  -907  -902  -889  -838  -705  -507  -343  -279  -302  -385  -503  -637  -785  -932  -1031  -989  -696  -118  726  1821  3025  4050  4648  4733  4364  3650  2679  1520  263  -946  -1863  -2217  -1997  -1503  -1030  -711  -567  -529  -537  -595  -696  -799  -874  -909  -885  -762  -533  -263  -38  105  182  222  256  316  398  431  359  239  162  165  252  419  649  896  1098  1254  1425  1634  1846  2041  2236  2457  2704  2947  3132  3224  3226  3165  3067  2957  2842  2707  2560  2446  2375  2263  2004  1603  1160  746  377  71  -161  -316  -387  -398  -389  -377  -360  -339  -339  -397  -531  -688  -789  -831  -862  -903  -947  -979  -979  -919  -789  -634  -518  -457  -448  -499  -590  -665  -697  -697  -670  -607  -526  -468  -448  -449  -457  -469  -486  -503  -517  -528  -533  -528  -533  -581  -672  -731  -686  -579  -499  -485  -522  -563  -567  -539  -519  -522  -529  -525  -515  -514  -525  -541  -553  -557  -554  -545  -537  -546  -580  -626  -650  -644  -642  -676  -716  -700  -608  -482  -382  -323  -276  -206  -123  -83  -126  -216  -286  -308  -313  -345  -425  -529  -628  -734  -882  -1025  -1074  -1014  -885  -718  -590  -566  -617  -673  -692  -671  -647  -636  -623  -605  -577  -531  -422  -156  297  947  1826  2888  3970  4779  4947  4317  3087  1625  296  -656  -1269  -1690  -1942  -2010  -1899  -1641  -1373  -1202  -1071  -897  -690  -505  -391  -347  -331  -322  -318  -318  -320  -326  -334  -325  -276  -170  -13  159  286  331  323  330  423  615  832  996  1109  1228  1375  1508  1579  1608  1671  1827  2070  2349  2619  2879  3130  3314  3376  3328  3219  3105  2970  2697  2216  1650  1212  980  854  717  544  375  214  18  -204  -391  -529  -645  -734  -804  -894  -1003  -1060  -1016  -932  -954  -1083  -1110  -944  -738  -625  -595  -600  -637  -732  -875  -1003  -1055  -1025  -941  -842  -751  -665  -550  -400  -269  -194  -171  -216  -332  -475  -591  -658  -684  -696  -703  -701  -691  -682  -692  -740  -809  -815  -711  -595  -577  -617  -631  -637  -670  -718  -751  -748  -725  -720  -746  -785  -826  -868  -897  -896  -859  -800  -764  -776  -810  -832  -842  -851  -865  -872  -844  -749  -601  -460  -376  -347  -342  -342  -344  -336  -308  -276  -283  -347  -434  -496  -532  -574  -629  -679  -720  -753  -771  -769  -772  -812  -887  -955  -996  -1013  -1009  -996  -997  -1009  -955  -731  -395  -186  -93  181  718  1462  2478  3595  4391  4656  4411  3715  2726  1632  506  -570  -1406  -1806  -1722  -1347  -986  -797  -757  -772  -770  -715  -623  -550  -528  -529  -508  -441  -343  -255  -196  -149  -98  -46  0  42  97  188  313  420  465  473  521  674  908  1122  1246  1291  1317  1384  1501  1632  1772  1977  2259  2526  2688  2756  2781  2787  2788  2798  2809  2766  2609  2349  2074  1835  1617  1409  1211  968  613  175  -206  -405  -445  -481  -637  -875  -1060  -1133  -1136  -1121  -1094  -1043  -974  -918  -898  -903  -915  -930  -950  -980  -1022  -1063  -1046  -906  -681  -520  -522  -639  -717  -641  -455  -274  -170  -148  -197  -321  -493  -637  -702  -698  -654  -600  -561  -549  -562  -588  -605  -611  -624  -628  -586  -508  -437  -395  -394  -402  -391  -390  -434  -516  -599  -617  -573  -544  -569  -628  -691  -733  -750  -750  -732  -674  -562  -430  -348  -346  -387  -423  -436  -434  -429  -424  -423  -433  -438  -393  -285  -169  -89  -32  21  58  72  70  57  31  -10  -67  -134  -222  -351  -530  -723  -859  -904  -885  -864  -870  -883  -881  -865  -848  -831  -797  -743  -701  -698  -729  -757  -741  -628  -306  341  1298  2404  3452  4247  4651  4680  4374  3666  2618  1417  135  -1047  -1804  -2023  -1823  -1366  -868  -536  -386  -317  -282  -267  -260  -255  -251  -246  -234  -214  -192  -170  -145  -120  -96  -53  21  109  177  225  283  372  484  594  697  818  972  1126  1236  1299  1358  1474  1692  1972  2232  2453  2661  2849  2990  3068  3091  3075  3023  2929  2797  2662  2568  2521  2466  2319  2033  1687  1407  1176  854  390  -99  -461  -656  -738  -773  -814  -886  -973  -1042  -1077  -1093  -1074  -960  -706  -388  -180  -241  -627  -1186  -1631  -1793  -1686  -1373  -959  -588  -377  -359  -461  -576  -636  -594  -465  -353  -351  -482  -684  -853  -935  -954  -954  -954  -940  -894  -834  -797  -784  -751  -651  -507  -395  -376  -451  -564  -641  -663  -678  -744  -854  -930  -921  -865  -809  -757  -706  -674  -669  -683  -707  -733  -752  -762  -767  -772  -764  -722  -635  -506  -344  -174  -54  -10  -9  -19  -54  -163  -361  -585  -739  -788  -776  -757  -737  -685  -603  -556  -600  -722  -840  -864  -760  -556  -334  -184  -138  -169  -256  -369  -459  -471  -358  -68  448  1217  2123  2948  3589  4061  4344  4339  3900  2895  1377  -219  -1303  -1710  -1742  -1645  -1440  -1131  -815  -569  -381  -235  -151  -128  -128  -125  -114  -92  -53  0]
