reading_id,reading_time,wire_id,result_classification,heart_rate,heart_rate_alert,firmware_version,device_app_version,hardware_version,waveform_samples
aa8ad4e0-6ce1-11ed-8080-808080808080,Fri Nov 25 16:53:20 UTC 2022,a10163b41b39,NSR,87,NONE,20001.171.50,2.10.0,Charge 5,[-6572  -6621  -6597  -6397  -5975  -5389  -4688  -3902  -3166  -2587  -2094  -1581  -1032  -463  85  589  1093  1631  2163  2630  3050  3529  4126  4743  5256  5625  5847  5952  6007  6073  6158  6239  6315  6440  6703  7132  7620  8001  8207  8283  8302  8309  8319  8351  8466  8726  9079  9364  9467  9417  9332  9308  9368  9467  9535  9540  9514  9495  9480  9452  9421  9413  9443  9497  9554  9594  9594  9521  9373  9220  9144  9146  9177  9212  9230  9154  8904  8533  8216  8053  8003  7983  7940  7851  7710  7523  7339  7218  7166  7140  7104  7047  6987  6925  6831  6691  6533  6397  6300  6229  6150  6062  6012  6111  6479  7104  7859  8614  9195  9414  9184  8555  7667  6642  5582  4640  3934  3516  3389  3495  3713  3881  3926  3913  3904  3887  3878  3880  3815  3650  3459  3311  3222  3178  3160  3149  3132  3095  3039  2989  2974  3010  3093  3190  3256  3265  3232  3192  3163  3141  3133  3186  3339  3548  3713  3800  3847  3902  3977  4029  4015  3957  3902  3846  3703  3365  2836  2249  1733  1331  1014  748  519  314  125  -61  -287  -555  -787  -930  -1010  -1061  -1090  -1094  -1085  -1085  -1108  -1149  -1198  -1252  -1310  -1378  -1454  -1529  -1596  -1650  -1687  -1704  -1678  -1610  -1527  -1447  -1375  -1328  -1312  -1333  -1400  -1502  -1596  -1652  -1672  -1669  -1652  -1627  -1589  -1545  -1514  -1506  -1516  -1536  -1568  -1619  -1676  -1705  -1703  -1694  -1695  -1712  -1753  -1816  -1873  -1897  -1884  -1853  -1828  -1819  -1819  -1827  -1848  -1881  -1916  -1949  -1982  -2016  -2053  -2097  -2136  -2143  -2102  -2012  -1877  -1741  -1684  -1750  -1907  -2064  -2154  -2176  -2165  -2154  -2168  -2222  -2299  -2363  -2399  -2420  -2447  -2494  -2557  -2589  -2556  -2481  -2409  -2351  -2297  -2238  -2193  -2164  -2070  -1800  -1287  -504  475  1361  1814  1752  1316  613  -289  -1262  -2220  -3073  -3610  -3697  -3445  -3062  -2704  -2453  -2317  -2258  -2230  -2192  -2134  -2071  -2018  -1975  -1931  -1881  -1839  -1807  -1783  -1767  -1763  -1764  -1764  -1757  -1729  -1657  -1531  -1367  -1202  -1063  -960  -883  -784  -595  -308  0  235  364  414  425  444  524  698  943  1173  1305  1330  1294  1222  1072  764  313  -154  -551  -880  -1151  -1380  -1583  -1736  -1815  -1840  -1866  -1941  -2071  -2204  -2286  -2311  -2303  -2292  -2304  -2358  -2443  -2516  -2551  -2556  -2553  -2551  -2540  -2510  -2469  -2439  -2428  -2427  -2423  -2406  -2365  -2305  -2236  -2148  -2012  -1834  -1670  -1568  -1519  -1488  -1458  -1440  -1440  -1447  -1428  -1357  -1246  -1141  -1081  -1066  -1067  -1058  -1022  -965  -897  -825  -748  -672  -612  -571  -542  -524  -515  -520  -542  -573  -604  -632  -663  -705  -746  -753  -712  -651  -602  -564  -496  -390  -303  -264  -238  -180  -96  -27  2  10  19  43  91  155  207  226  227  240  289  371  458  524  548  518  434  320  220  169  168  189  206  198  167  178  332  670  1166  1794  2500  3188  3801  4282  4478  4258  3640  2739  1692  683  -115  -591  -670  -439  -176  -61  -42  2  128  309  479  579  607  603  597  596  594  593  609  664  750  828  870  883  887  892  899  923  998  1143  1313  1438  1508  1565  1638  1714  1780  1868  2019  2226  2435  2619  2788  2956  3108  3213  3270  3304  3324  3296  3169  2943  2671  2362  1958  1447  937  568  360  216  49  -119  -228  -278  -323  -391  -463  -524  -581  -655  -751  -842  -901  -924  -918  -889  -840  -782  -746  -747  -775  -812  -848  -873  -884  -889  -892  -903  -932  -971  -983  -917  -758  -572  -451  -418  -429  -438  -426  -399  -389  -413  -448  -465  -468  -470  -479  -501  -537  -575  -594  -582  -553  -525  -508  -503  -504  -509  -517  -529  -535  -521  -493  -477  -487  -516  -553  -612  -710  -824  -887  -865  -795  -734  -698  -658  -587  -500  -436  -409  -404  -405  -407  -421  -462  -534  -618  -684  -727  -760  -788  -813  -835  -850  -846  -815  -761  -700  -647  -611  -607  -631  -657  -663  -652  -628  -564  -420  -194  124  590  1225  1979  2701  3185  3317  3075  2463  1587  614  -324  -1073  -1477  -1520  -1308  -991  -714  -543  -451  -386  -331  -296  -287  -292  -295  -263  -182  -87  -12  47  93  112  101  84  111  207  341  473  603  730  827  886  924  960  1005  1060  1117  1204  1412  1803  2291  2690  2901  2972  2996  3028  3097  3167  3152  3037  2894  2753  2577  2343  2082  1842  1599  1298  957  668  470  306  102  -126  -289  -347  -343  -333  -343  -375  -413  -436  -447  -483  -566  -655  -705  -733  -765  -798  -818  -802  -755  -714  -703  -708  -717  -720  -705  -661  -601  -558  -544  -542  -538  -533  -540  -568  -610  -636  -627  -597  -569  -551  -545  -551  -578  -625  -670  -680  -644  -586  -542  -525  -521  -523  -532  -554  -583  -606  -620  -628  -645  -684  -748  -817  -869  -898  -905  -864  -743  -569  -417  -330  -287  -264  -267  -314  -389  -455  -496  -518  -550  -622  -716  -784  -805  -803  -817  -868  -943  -980  -945  -878  -828  -792  -756  -723  -701  -702  -766  -914  -1036  -932  -572  -121  300  699  1154  1784  2554  3159  3306  2924  2109  1063  34  -796  -1385  -1743  -1834  -1681  -1426  -1193  -1012  -874  -775  -724  -705  -678  -615  -529  -462  -431  -419  -407  -383  -335  -268  -194  -112  -31  19  24  2  2  64  175  285  371  469  635  862  1065  1188  1283  1432  1663  1938  2185  2340  2414  2456  2485  2495  2488  2473  2444  2388  2294  2149  1917  1542  1023  465  0  -308  -473  -536  -550  -579  -669  -806  -924  -982  -995  -997  -1002  -1004  -1002  -1006  -1024  -1054  -1071  -1086  -1136  -1215  -1279  -1301  -1277  -1214  -1128  -1034  -953  -899  -867  -851  -867  -927  -1000  -1035  -1030  -1013  -1001  -987  -962  -925  -891  -887  -928  -996  -1051  -1065  -1061  -1061  -1040  -984  -921  -879  -866  -880  -909  -937  -958  -972  -991  -1025  -1061  -1071  -1050  -1018  -990  -950  -874  -777  -702  -665  -660  -685  -737  -796  -837  -848  -838  -830  -850  -908  -984  -1032  -1042  -1054  -1093  -1135  -1161  -1173  -1179  -1174  -1153  -1120  -1082  -1040  -1010  -1012  -1013  -940  -775  -507  -62  590  1348  2084  2651  2860  2609  1949  1011  -33  -967  -1596  -1881  -1908  -1700  -1249  -706  -308  -128  -67  -6  103  255  425  574  662  686  677  658  637  634  676  751  821  873  925  987  1059  1146  1253  1373  1490  1601  1727  1872  1997  2074  2139  2245  2415  2635  2855  3023  3152  3301  3468  3589  3638  3650  3654  3634  3554  3395  3171  2875  2472  1989  1532  1201  1022  924  800  626  452  298  153  33  -31  -52  -68  -104  -166  -250  -339  -404  -426  -415  -393  -361  -319  -272  -231  -204  -191  -188  -188  -186  -180  -172  -175  -207  -267  -343  -424  -494  -554  -629  -711  -768  -767  -684  -546  -419  -333  -266  -200  -141  -123  -174  -281  -390  -452  -466  -447  -404  -349  -308  -295  -317  -375  -449  -504  -526  -531  -525  -497  -425  -304  -182  -121  -126  -146  -156  -166  -176  -180  -181  -194  -240  -330  -446  -553  -630  -670  -687  -693  -694  -692  -689  -687  -684  -681  -683  -699  -700  -602  -338  52  462  873  1379  2012  2657  3123  3216  2886  2243  1432  572  -252  -970  -1473  -1665  -1559  -1286  -1007  -799  -644  -524  -455  -431  -415  -384  -329  -245  -152  -85  -51  -23  11  43  77  130  204  273  312  325  345  414  535  664  776  893  1021  1121  1185  1264  1409  1629  1871  2088  2284  2463  2597  2669  2696  2697  2684  2646  2556  2391  2157  1880  1582  1286  1023  789  542  256  -34  -266  -429  -558  -667  -747  -793  -811  -811  -806  -809  -836  -886  -934  -967  -982  -965  -920  -874  -851  -846  -849  -853  -858  -864  -872  -881  -888  -890  -887  -883  -876  -858  -830  -815  -825  -826  -795  -753  -729  -728  -732  -722  -703  -690  -694  -717  -758  -807  -854  -893  -915  -918  -904  -875  -831  -785  -757  -751  -747  -721  -668  -604  -553  -524  -511  -504  -500  -518  -584  -693  -795  -848  -857  -851  -853  -869  -891  -909  -923  -933  -934  -923  -910  -921  -978  -1064  -1127  -1117  -1013  -850  -725  -674  -651  -643  -619  -387  233  1204  2305  3228  3661  3474  2823  1976  1094  218  -620  -1340  -1788  -1864  -1663  -1356  -1068  -875  -790  -765  -751  -722  -667  -594  -519  -448  -384  -339  -306  -267  -224  -194  -178  -159  -110  -22  95  230  365  465  514  529  546  622  811  1101  1392  1590  1681  1709  1737  1842  2062  2338  2560  2675  2698  2663  2597  2529  2461  2383  2260  2032  1667  1238  876  624  406  157  -88  -267  -374  -437  -480  -522  -566  -603  -626  -649  -686  -729  -761  -764  -732  -681  -641  -625  -625  -639  -673  -721  -755  -744  -675  -578  -509  -507  -570  -657  -718  -738  -735  -729  -725  -720  -714  -710  -710  -713  -711  -693  -653  -594  -535  -504  -512  -541  -569  -584  -595  -609  -622  -629  -637  -660  -712  -789  -865  -914  -921  -895  -848  -771  -655  -517  -385  -290  -267  -333  -450  -537  -567  -581  -626  -708  -804  -904  -990  -1028  -1010  -965  -914  -857  -807  -789  -815  -867  -903  -896  -868  -853  -849  -817  -691  -429  -55  431  1073  1863  2711  3394  3620  3278  2492  1480  450  -433  -1064  -1445  -1640  -1680  -1579  -1370  -1129  -941  -827  -754  -688  -616  -536  -454  -387  -334  -275  -214  -169  -131  -89  -41  8  59  124  205  273  313  362  460  593  715  817  924  1041  1149  1252  1379  1572  1846  2136  2337  2434  2507  2621  2763  2884  2949  2927  2776  2513  2230  1989  1742  1424  1066  754  518  337  174  -26  -291  -550  -703  -740  -710  -645  -570  -515  -498  -524  -590  -671  -744  -805  -834  -823  -799  -782  -770  -760  -746  -711  -648  -577  -524  -494  -481  -478  -478  -477  -470  -459  -448  -438  -429  -426  -438  -473  -520  -561  -586  -599  -602  -589  -549  -472  -376  -297  -246  -213  -186  -173  -187  -234  -311  -405  -487  -523  -502  -445  -385  -337  -304  -283  -264  -227  -166  -101  -71  -103  -192  -309  -430  -532  -593  -613  -614  -610  -600  -582  -560  -563  -609  -679  -727  -729  -685  -616  -542  -479  -429  -372  -254  -1  434  1046  1779  2515  3144  3540  3531  3066  2265  1259  215  -625  -1127  -1298  -1213  -997  -766  -591  -485  -396  -276  -139  -45  -27  -68  -128  -172  -178  -137  -46  88  241  366  426  431  424  432  453  484  525  573  633  720  836  977  1146  1327  1496  1654  1824  2005  2178  2331  2469  2603  2728  2830  2892  2919  2929  2913  2818  2599  2284  1943  1599  1246  919  652  430  241  92  -33  -183  -383  -600  -784  -909  -976  -1005  -1015  -1005  -964  -902  -844  -811  -807  -827  -863  -903  -937  -957  -961  -950  -920  -870  -820  -807  -832  -862  -879  -881  -863  -820  -767  -729  -717  -728  -758  -794  -807  -779  -722  -673  -652  -650  -654  -660  -666  -665  -656  -643  -635  -636  -645  -656  -666  -682  -699  -698  -652  -549  -422  -323  -279  -276  -291  -304  -303  -307  -350  -432  -515  -566  -580  -582  -596  -649  -761  -901  -1005  -1042  -1021  -958  -875  -808  -783  -794  -811  -784  -664  -486  -349  -259  -61  399  1106  1923  2710  3275  3425  3122  2476  1660  818  -15  -819  -1469  -1803  -1751  -1395  -943  -640  -590  -676  -742  -752  -735  -706  -663  -618  -591  -579  -546  -443  -282  -150  -94  -81  -69  -45  2  92  222  349  438  504  570  659  801  1001  1207  1349  1415  1461  1549  1695  1872  2054  2213  2332  2420  2485  2520  2529  2512  2430  2207  1828  1405  1058  786  540  302  70  -129  -267  -372  -495  -626  -721  -768  -794  -830  -881  -930  -963  -980  -986  -986  -985  -985  -994  -1015  -1041  -1065  -1080  -1067  -1023  -972  -933  -906  -893  -894  -894  -869  -835  -824  -835  -849  -858  -864  -852  -797  -693  -584  -517  -498  -501  -504  -499  -486  -466  -452  -461  -510  -592  -682  -756  -801  -824  -836  -839  -820  -758  -642  -486  -329  -219  -173  -177  -220  -300  -410  -522  -602  -646  -685  -753  -851  -939  -959  -896  -799  -729  -705  -705  -702  -703  -740  -809  -855  -827  -737  -648  -524  -202  408  1236  2130  2919  3441  3579  3300  2631  1631  455  -636  -1417  -1782  -1713  -1323  -877  -598  -515  -526  -533  -499  -448  -423  -429  -431  -398  -327  -255  -205  -157  -104  -59  -9  69  173  271  340  394  472  577  675  736  767  803  889  1049  1262  1481  1683  1852  1967  2057  2184  2340  2464  2557  2661  2751  2752  2646  2499  2357  2206  2007  1723  1331  870  452  157  -39  -205  -362  -481  -543  -559  -558  -579  -652  -752  -819  -840  -846  -853  -851  -834  -814  -817  -844  -868  -868  -843  -817  -816  -839  -864  -877  -884  -892  -895  -871  -801  -709  -657  -676  -734  -780  -795  -792  -788  -782  -762  -726  -673  -604  -525  -464  -443  -456  -489  -535  -586  -634  -692  -756  -788  -748  -634  -496  -387  -304  -229  -167  -140  -168  -269  -403  -494  -514  -498  -483  -475  -465  -456  -471  -526  -604  -670  -706  -712  -672  -569  -434  -331  -305  -377  -531  -643  -545  -243  111  466  896  1493  2300  3204  3876  3970  3431  2467  1337  262  -592  -1158  -1438  -1443  -1249  -1009  -822  -695  -595  -493  -391  -312  -262  -221  -182  -151  -128  -91  -6  113  221  309  406  527  644  716  740  756  798  862  925  971  1014  1091  1224  1403  1590  1765  1953  2186  2435  2643  2801  2938  3051  3104  3079  2992  2870  2730  2564  2343  2065  1756  1424  1088  796  547  289  10  -242  -435  -585  -703  -778  -813  -836  -876  -932  -979  -1003  -1008  -1005  -1006  -1012  -1023  -1032  -1032  -1023  -996  -943  -870  -811  -781  -763  -746  -735  -744  -771  -778  -741  -690  -660  -649  -646  -649  -649  -644  -634  -617  -587  -545  -508  -493  -501  -519  -536  -550  -561  -572  -587  -600  -608  -614  -619  -622  -625  -626  -606  -548  -469  -410  -389  -391  -401  -419  -452  -503  -557  -593  -599  -584  -563  -548  -547  -561  -588  -632  -700  -766  -792  -783  -773  -781  -798  -789  -727  -640  -581  -555  -506  -336  56  690  1486  2345  3115  3585  3611  3211  2488  1520  415  -632  -1438  -1853  -1794  -1391  -924  -609  -489  -487  -508  -516  -512  -497  -467  -411  -317  -206  -124  -87  -71  -48  6  98  200  272  305  314  315  327  374  472  617  772  897  977  1035  1103  1195  1308  1447  1607  1763  1921  2107  2299  2441  2519  2559  2592  2630  2642  2537  2235  1786  1350  1021  765  515  245  -13  -226  -420  -611  -747  -795  -793  -796  -836  -895  -927  -914  -886  -866  -847  -827  -816  -821  -841  -876  -920  -961  -986  -992  -991  -991  -995  -997  -990  -969  -946  -941  -958  -982  -997  -995  -974  -929  -874  -834  -819  -817  -827  -862  -927  -983  -980  -932  -897  -882  -861  -833  -809  -786  -764  -740  -701  -642  -570  -508  -483  -494  -526  -590  -701  -828  -910  -927  -909  -889  -877  -861  -842  -831  -840  -863  -892  -919  -950  -984  -999  -970  -899  -821  -763  -682  -510  -257  62  528  1206  2053  2940  3599  3761  3405  2720  1879  970  71  -742  -1399  -1762  -1749  -1503  -1210  -938  -720  -569  -455  -349  -246  -158  -101  -79  -82  -100  -116  -104  -54  12  58  76  101  157  221  275  329  389  482  663  918  1156  1310  1405  1503  1618  1724  1828  1968  2154  2363  2565  2731  2842  2898  2912  2896  2849  2773  2680  2544  2291  1888  1404  949  609  404  269  113  -77  -250  -359  -420  -482  -553  -610  -644  -681  -738  -796  -819  -800  -760  -735  -739  -749  -747  -741  -749  -770  -792  -809  -814  -793  -741  -678  -626  -583  -551  -537  -533  -530  -533  -554  -587  -612  -625  -637  -660  -688  -711  -723  -723  -717  -714  -723  -741  -751  -738  -695  -617  -523  -436  -357  -283  -240  -243  -271  -293  -300  -298  -299  -312  -335  -367  -407  -438  -448  -447  -449  -462  -511  -612  -738  -837  -885  -901  -908  -909  -908  -909  -891  -831  -711  -548  -398  -252  48  698  1700  2816  3701  4031  3662  2778  1699  625  -300  -967  -1384  -1582  -1559  -1396  -1216  -1054  -906  -801  -758  -755  -764  -760  -732  -682  -630  -587  -548  -502  -444  -383  -324  -239  -87  108  267  351  392  433  510  650  828  984  1105  1216  1318  1394  1447  1487  1538  1653  1877  2163  2410  2578  2687  2756  2789  2777  2686  2459  2096  1703  1390  1191  1065  927  685  334  -38  -345  -563  -699  -772  -816  -855  -885  -898  -905  -926  -969  -1011  -1027  -1026  -1023  -1019  -1004  -985  -977  -979  -977  -952  -896  -820  -764  -762  -794  -833  -878  -914  -909  -860  -801  -765  -763  -776  -789  -804  -827  -852  -875  -901  -929  -938  -901  -820  -733  -672  -647  -646  -651  -655  -659  -668  -679  -683  -674  -662  -657  -652  -612  -505  -361  -261  -261  -357  -490  -589  -632  -639  -631  -625  -643  -701  -782  -842  -863  -854  -827  -793  -766  -757  -759  -761  -759  -758  -753  -728  -662  -567  -463  -342  -172  91  517  1156  1943  2687  3166  3243  2906  2270  1497  664  -189  -948  -1478  -1671  -1477  -1070  -733  -556  -466  -398  -322  -249  -208  -196  -191  -183  -182  -200  -227  -220  -142  -9  127  238  323  400  488  574  626  635  631  663  772  951  1144  1304  1430  1541  1645  1758  1908  2102  2310  2484  2589  2638  2695  2813  2971  3093  3122  3018  2761  2396  1991  1570  1165  819  524  275  100  -6  -89  -166  -226  -269  -310  -355  -388  -409  -441  -496  -559  -616  -688  -794  -900  -962  -960  -906  -835  -788  -786  -825  -880  -922  -939  -936  -904  -837  -759  -706  -675  -635  -579  -522  -467  -411  -373  -380  -445  -544  -622  -655  -674  -713  -771  -815  -827  -808  -761  -704  -663  -642  -620  -587  -550  -521  -504  -493  -469  -416  -340  -270  -215  -163  -133  -174  -309  -495  -651  -729  -756  -786  -837  -888  -927  -963  -993  -983  -917  -822  -754  -738  -749  -763  -790  -858  -942  -948  -839  -669  -431  -56  468  1143  1971  2795  3321  3388  3004  2210  1153  107  -731  -1338  -1710  -1788  -1582  -1257  -987  -814  -694  -599  -515  -440  -384  -345  -303  -250  -192  -138  -87  -31  27  76  101  100  87  81  120  237  418  607  762  864  919  987  1149  1391  1621  1784  1895  1974  2047  2153  2318  2506  2650  2715  2722  2716  2705  2643  2481  2251  2037  1865  1689  1474  1218  950  725  576  462  305  86  -130  -278  -348  -372  -393  -451  -558  -687  -793  -840  -836  -827  -854  -915  -986  -1038  -1059  -1052  -1022  -970  -905  -854  -826  -807  -790  -766  -712  -599  -444  -305  -229  -213  -225  -252  -290  -330  -348  -335  -309  -287  -272  -254  -224  -185  -157  -161  -198  -248  -286  -309  -341  -402  -483  -547  -566  -540  -479  -392  -300  -225  -178  -166  -193  -254  -340  -439  -526  -585  -618  -636  -640  -629  -605  -577  -555  -557  -599  -679  -767  -824  -841  -836  -823  -796  -762  -766  -821  -814  -626  -290  101  529  1036  1694  2516  3312  3754  3602  2842  1693  490  -531  -1271  -1690  -1815  -1713  -1443  -1101  -833  -708  -674  -654  -616  -562  -492  -391  -262  -142  -64  -25  -4  0  -19  -54  -84  -94  -84  -71  -73  -73  0  212  511  752  881  969  1076  1188  1278  1375  1530  1737  1933  2085  2223  2384  2559  2695  2757  2754  2703  2615  2487  2284  1976  1622  1319  1069  783  424  79  -154  -276  -347  -404  -448  -480  -515  -562  -608  -639  -654  -656  -651  -653  -672  -704  -745  -783  -811  -832  -846  -852  -856  -866  -878  -876  -851  -812  -781  -767  -765  -767  -768  -769  -769  -768  -765  -760  -759  -767  -782  -792  -794  -802  -814  -807  -784  -766  -768  -780  -748  -647  -541  -497  -519  -588  -671  -731  -756  -765  -770  -773  -772  -762  -740  -708  -677  -656  -647  -639  -616  -568  -525  -539  -598  -649  -690  -739  -775  -779  -760  -738  -725  -708  -680  -670  -718  -808  -882  -914  -918  -911  -908  -921  -948  -940  -808  -532  -177  283  932  1699  2465  3143  3537  3457  2930  2079  1037  2  -848  -1430  -1684  -1634  -1411  -1132  -870  -651  -461  -315  -243  -242  -277  -306  -296  -247  -183  -122  -51  51  167  254  296  312  328  361  406  451  502  563  622  679  735  783  850  1012  1307  1663  1951  2101  2165  2246  2389  2564  2729  2849  2902  2894  2837  2744  2640  2545  2430  2220  1865  1406  966  610  311  56  -127  -249  -337  -404  -443  -457  -468  -491  -524  -562  -602  -641  -669  -676  -666  -652  -654  -683  -725  -754  -767  -778  -798  -833  -880  -927  -964  -987  -992  -953  -837  -677  -555  -508  -504  -507  -522  -560  -607  -635  -630  -604  -590  -604  -625  -623  -592  -559  -557  -587  -619  -634  -637  -637  -641  -650  -658  -651  -627  -610  -626  -661  -675  -648  -603  -574  -566  -558  -539  -522  -533  -569  -601  -615  -618  -621  -616  -579  -501  -409  -349  -332  -336  -348  -369  -404  -455  -522  -593  -645  -667  -674  -691  -744  -840  -954  -1007  -904  -620  -205  341  1063  1892  2709  3432  3904  3925  3430  2527  1426  337  -573  -1200  -1514  -1539  -1371  -1146  -910  -669  -479  -381  -351  -342  -332  -319  -288  -217  -111  -8  67  108  124  126  121  114  112  117  129  159  229  349  485  585  646  714  821  950  1056  1129  1206  1331  1526  1783  2079  2384  2643  2806  2877  2908  2921  2893  2791  2590  2257  1781  1248  815  555  391  209  -11  -225  -417  -590  -730  -826  -883  -898  -862  -778  -683  -638  -668  -739  -794  -817  -823  -828  -831  -836  -848  -858  -860  -858  -869  -904  -952  -990  -1008  -1018  -1020  -1010  -999  -1002  -1023  -1038  -1015  -954  -886  -837  -814  -801  -773  -705  -593  -462  -358  -307  -299  -308  -314  -303  -274  -247  -266  -356  -505  -654  -728  -709  -636  -553  -482  -433  -409  -407  -411  -407  -385  -345  -304  -277  -263  -244  -210  -177  -177  -211  -251  -275  -287  -309  -355  -413  -458  -485  -518  -577  -647  -698  -718  -717  -707  -683  -646  -607  -580  -568  -562  -570  -614  -663  -584  -275  232  884  1626  2357  2983  3418  3543  3284  2660  1764  724  -307  -1172  -1721  -1858  -1644  -1290  -953  -696  -562  -526  -500  -435  -343  -269  -233  -226  -221  -201  -159  -104  -47  4  59  121  189  274  371  458  539  627  716  792  862  940  1032  1143  1276  1428  1592  1771  1966  2151  2294  2411  2525  2629  2709  2762  2795  2803  2744  2567  2308  2060  1847  1620  1354  1043  673  272  -73  -313  -489  -656  -800  -883  -903  -890  -867  -843  -816  -801  -832  -937  -1083  -1190  -1207  -1149  -1055  -962  -886  -845  -846  -854  -845  -832  -824  -817  -793  -754  -733  -759  -818  -876  -918  -935  -905  -794  -619  -463  -399  -415  -461  -518  -569  -596  -597  -587  -576  -569  -566  -560  -542  -508  -480  -482  -498  -493  -467  -445  -426  -397  -360  -333  -319  -301  -266  -212  -156  -117  -95  -81  -77  -110  -226  -439  -679  -845  -907  -908  -893  -884  -880  -879  -878  -879  -886  -898  -906  -903  -894  -889  -882  -865  -839  -809  -754  -631  -424  -183  14  228  646  1329  2151  2930  3391  3280  2676  1887  1088  306  -450  -1172  -1750  -1978  -1778  -1314  -843  -515  -338  -267  -256  -271  -294  -325  -375  -443  -510  -558  -588  -595  -539  -380  -163  15  126  207  283  357  437  530  629  711  767  819  889  983  1103  1256  1459  1715  1967  2140  2227  2296  2419  2590  2736  2815  2854  2885  2893  2829  2641  2328  1954  1578  1214  890  653  488  336  146  -89  -319  -486  -584  -650  -702  -739  -757  -766  -788  -837  -907  -977  -1020  -1035  -1039  -1046  -1052  -1056  -1065  -1094  -1135  -1163  -1169  -1167  -1159  -1118  -993  -785  -575  -451  -418  -432  -460  -498  -542  -580  -602  -613  -623  -642  -672  -690  -677  -627  -545  -470  -442  -450  -465  -479  -500  -531  -554  -554  -537  -513  -492  -494  -519  -550  -572  -580  -574  -553  -522  -495  -482  -495  -560  -688  -846  -978  -1058  -1100  -1120  -1127  -1131  -1136  -1142  -1142  -1113  -1019  -843  -630  -471  -404  -396  -419  -481  -563  -572  -416  -78  407  977  1572  2191  2847  3420  3679  3492  2874  1925  862  -65  -755  -1208  -1407  -1384  -1217  -953  -667  -474  -408  -402  -382  -334  -281  -243  -225  -221  -224  -230  -230  -210  -154  -60  65  205  324  398  430  435  430  439  494  605  734  844  933  1011  1069  1107  1174  1336  1620  1946  2176  2274  2330  2427  2567  2693  2765  2793  2788  2721  2535  2229  1880  1560  1236  858  470  161  -26  -137  -247  -385  -530  -646  -712  -730  -712  -666  -600  -533  -484  -461  -456  -453  -443  -424  -399  -366  -328  -310  -345  -443  -569  -666  -704  -692  -646  -588  -545  -526  -527  -553  -605  -649  -636  -573  -516  -496  -500  -506  -509  -509  -506  -498  -476  -427  -365  -330  -347  -399  -440  -448  -442  -439  -441  -444  -449  -447  -432  -394  -341  -296  -275  -267  -255  -221  -152  -63  1  6  -37  -92  -140  -191  -257  -336  -411  -454  -460  -443  -421  -402  -391  -389  -405  -438  -468  -477  -476  -478  -497  -544  -586  -563  -427  -130  344  964  1688  2464  3128  3436  3272  2699  1845  890  13  -712  -1265  -1579  -1646  -1551  -1345  -1082  -872  -756  -668  -569  -495  -467  -462  -454  -432  -390  -329  -271  -241  -240  -245  -245  -226  -154  -35  72  138  178  210  250  308  390  487  599  733  880  1016  1158  1360  1619  1869  2065  2207  2304  2362  2393  2411  2428  2431  2367  2175  1864  1536  1287  1122  976  755  396  -61  -508  -835  -996  -1030  -1015  -1006  -1034  -1112  -1213  -1284  -1307  -1307  -1307  -1303  -1278  -1236  -1207  -1199  -1188  -1166  -1137  -1103  -1073  -1050  -1027  -1008  -999  -986  -950  -877  -786  -722  -701  -693  -663  -589  -477  -373  -335  -383  -478  -553  -572  -558  -535  -507  -472  -435  -405  -394  -415  -457  -493  -490  -435  -352  -290  -266  -266  -283  -323  -382  -440  -479  -489  -459  -387  -291  -207  -161  -148  -148  -145  -150  -180  -236  -294  -311  -278  -264  -307  -371  -424  -475  -524  -553  -563  -567  -574  -581  -579  -574  -572  -562  -528  -459  -349  -197  -49  50  168  469  1076  1919  2798  3524  3862  3637  2951  1999  911  -108  -860  -1308  -1475  -1383  -1140  -910  -776  -718  -687  -664  -654  -646  -614  -541  -448  -367  -281  -139  43  194  270  294  301  306  313  323  342  381  464  605  776  923  1050  1197  1366  1518  1629  1703  1763  1831  1946  2135  2374  2586  2706  2739  2731  2706  2653  2564  2446  2299  2113  1879  1599  1296  974  638  323  65  -129  -269  -371  -457  -541  -620  -681  -720  -745  -766  -789  -821  -861  -891  -895  -863  -806  -775  -803  -853  -880  -882  -875  -867  -848  -808  -762  -741  -766  -825  -884  -921  -945  -963  -968  -951  -908  -848  -792  -756  -742  -737  -735  -733  -724  -698  -662  -633  -621  -623  -644  -686  -737  -774  -794  -808  -823  -832  -827  -801  -753  -696  -651  -624  -607  -593  -580  -571  -573  -589  -609  -609  -558  -455  -351  -296  -294  -325  -375  -429  -475  -523  -584  -642  -675  -682  -678  -677  -686  -717  -766  -784  -734  -645  -569  -516  -470  -435  -450  -514  -517  -383  -190  6  290  764  1468  2359  3276  3886  3868  3216  2184  1064  86  -641  -1128  -1387  -1393  -1181  -891  -669  -561  -528  -509  -464  -402  -354  -324  -271  -163  -23  88  137  144  140  150  194  277  375  455  505  536  556  581  628  698  782  884  1034  1274  1592  1896  2108  2249  2366  2461  2526  2577  2641  2717  2794  2858  2870  2778  2604  2436  2308  2164  1909  1496  1027  678  491  366  229  91  -48  -232  -461  -674  -821  -896  -913  -888  -832  -757  -676  -601  -541  -500  -473  -465  -512  -641  -811  -933  -968  -938  -875  -810  -766  -750  -749  -749  -747  -745  -742  -740  -732  -714  -692  -676  -665  -651  -630  -616  -620  -646  -679  -700  -707  -707  -711  -723  -747  -778  -803  -796  -720  -566  -393  -282  -268  -339  -462  -588  -676  -716  -723  -729  -750  -772  -777  -764  -732  -682  -617  -535  -431  -328  -270  -278  -324  -384  -446  -497  -529  -554  -582  -619  -658  -702  -754  -808  -843  -838  -791  -722  -669  -652  -686  -776  -895  -996  -1046  -1034  -956  -821  -679  -557  -388  -81  404  1078  1887  2690  3289  3484  3225  2623  1812  922  60  -727  -1352  -1680  -1668  -1389  -1015  -751  -651  -603  -516  -384  -236  -84  52  142  178  185  183  175  163  149  135  130  166  274  422  537  584  584  569  565  588  644  741  881  1079  1368  1740  2087  2310  2429  2512  2573  2600  2621  2687  2802  2909  2937  2861  2687  2462  2257  2059  1751  1290  810  452  212  -2  -212  -372  -489  -606  -721  -801  -842  -852  -837  -799  -739  -663  -599  -570  -589  -667  -785  -896  -962  -979  -957  -898  -816  -742  -709  -729  -778  -826  -862  -893  -921  -942  -953  -942  -910  -881  -863  -847  -827  -811  -803  -796  -787  -779  -776  -779  -786  -792  -772  -704  -594  -481  -399  -359  -348  -344  -336  -328  -321  -318  -320  -337  -376  -428  -468  -488  -500  -510  -500  -455  -388  -337  -309  -286  -255  -232  -239  -284  -349  -399  -417  -413  -402  -396  -409  -449  -518  -604  -686  -743  -770  -775  -772  -768  -765  -758  -742  -728  -710  -611  -364  -23  324  701  1169  1723  2333  2927  3305  3262  2769  1936  904  -115  -877  -1302  -1487  -1508  -1410  -1280  -1149  -959  -706  -475  -326  -242  -200  -200  -234  -265  -263  -213  -113  10  119  187  231  286  357  417  446  457  477  519  584  666  765  890  1039  1200  1359  1537  1763  2009  2214  2352  2449  2543  2671  2852  3045  3168  3178  3088  2937  2739  2463  2107  1725  1324  886  474  171  -17  -142  -255  -398  -576  -737  -825  -845  -835  -816  -782  -738  -704  -698  -721  -757  -795  -837  -863  -849  -806  -776  -799  -870  -949  -1016  -1067  -1100  -1108  -1087  -1028  -924  -789  -673  -617  -614  -631  -645  -654  -668  -687  -702  -705  -697  -686  -678  -678  -683  -692  -700  -706  -711  -709  -690  -643  -585  -542  -525  -523  -525  -528  -538  -556  -577  -596  -603  -596  -572  -519  -416  -273  -152  -121  -175  -245  -282  -293  -319  -401  -543  -692  -788  -834  -877  -951  -1041  -1107  -1121  -1074  -970  -846  -751  -707  -702  -718  -736  -728  -684  -635  -590  -468  -141  437  1213  2091  2929  3513  3649  3298  2576  1650  660  -284  -1084  -1638  -1827  -1578  -1063  -634  -445  -395  -373  -354  -349  -357  -363  -336  -253  -139  -54  -18  1  35  80  122  167  224  281  317  338  375  449  562  698  838  973  1104  1225  1325  1404  1489  1614  1770  1926  2094  2300  2510  2658  2726  2747  2757  2764  2729  2593  2345  2027  1686  1351  1038  755  509  307  152  36  -60  -152  -245  -357  -485  -593  -664  -710  -727  -707  -677  -662  -661  -660  -656  -653  -652  -649  -640  -633  -632  -630  -618  -596  -575  -567  -583  -632  -697  -744  -759  -760  -765  -772  -763  -722  -664  -625  -618  -624  -606  -540  -445  -372  -346  -368  -438  -540  -633  -689  -711  -709  -694  -675  -658  -635  -605  -579  -567  -569  -572  -567  -550  -531  -519  -509  -480  -419  -335  -258  -212  -201  -216  -253  -300  -342  -369  -391  -421  -449  -464  -468  -474  -483  -492  -494  -490  -491  -501  -516  -534  -547  -547  -532  -491  -417  -336  -285  -262  -216  -59  309  922  1712  2555  3296  3751  3783  3410  2724  1771  633  -520  -1489  -2076  -2179  -1899  -1486  -1123  -880  -789  -801  -803  -730  -602  -485  -425  -406  -389  -352  -307  -281  -281  -295  -299  -275  -202  -74  87  264  428  542  597  630  678  747  827  925  1064  1252  1468  1671  1837  1990  2162  2338  2477  2586  2688  2769  2807  2818  2808  2718  2442  1969  1431  994  734  602  496  356  149  -135  -447  -678  -777  -800  -829  -882  -929  -949  -952  -944  -916  -861  -799  -761  -763  -799  -842  -865  -860  -846  -836  -833  -833  -837  -839  -833  -802  -733  -637  -547  -491  -470  -472  -488  -513  -551  -596  -629  -636  -625  -609  -599  -603  -625  -657  -665  -607  -491  -375  -315  -322  -362  -396  -408  -398  -367  -324  -284  -256  -255  -292  -355  -412  -433  -416  -388  -385  -419  -472  -508  -501  -448  -382  -335  -292  -214  -133  -127  -215  -341  -454  -541  -603  -652  -700  -744  -767  -778  -797  -826  -852  -874  -885  -892  -900  -897  -896  -927  -930  -811  -583  -318  -2  428  998  1742  2638  3430  3787  3584  2914  1974  973  52  -730  -1335  -1693  -1747  -1550  -1229  -916  -722  -671  -693  -725  -740  -715  -635  -527  -439  -382  -315  -208  -84  5  44  62  82  103  131  181  256  349  445  538  640  779  960  1147  1296  1420  1559  1714  1864  1991  2081  2137  2185  2266  2397  2547  2660  2705  2686  2623  2530  2372  2075  1655  1246  921  624  310  4  -239  -402  -511  -589  -642  -675  -702  -738  -783  -822  -854  -893  -941  -976  -973  -929  -865  -813  -788  -783  -789  -795  -796  -788  -763  -731  -707  -690  -676  -669  -672  -693  -742  -806  -847  -828  -751  -656  -579  -536  -525  -544  -594  -660  -705  -696  -631  -553  -519  -538  -570  -584  -581  -575  -569  -563  -557  -558  -577  -617  -671  -731  -782  -798  -776  -750  -739  -713  -625  -485  -362  -307  -305  -316  -316  -306  -295  -285  -282  -303  -366  -454  -530  -590  -650  -691  -661  -560  -454  -408  -446  -532  -604  -634  -639  -635  -630  -630  -651  -713  -782  -735  -479  -114  228  580  1053  1723  2530  3256  3658  3604  3087  2235  1272  341  -519  -1195  -1526  -1532  -1406  -1259  -1046  -771  -523  -354  -256  -211  -197  -189  -177  -167  -165  -162  -151  -131  -107  -85  -63  -19  81  230  368  461  536  605  645  670  763  986  1265  1457  1517  1527  1606  1838  2192  2511  2674  2702  2687  2684  2697  2714  2737  2754  2715  2564  2305  2016  1756  1511  1249  963  649  309  -19  -280  -443  -532  -591  -638  -672  -686  -681  -675  -684  -708  -738  -768  -792  -811  -832  -857  -881  -894  -896  -887  -873  -858  -841  -824  -804  -773  -731  -682  -630  -574  -525  -517  -560  -635  -697  -690  -612  -533  -498  -498  -507  -515  -528  -553  -590  -631  -661  -672  -668  -655  -635  -589  -490  -367  -299  -318  -380  -444  -507  -546  -523  -444  -361  -310  -291  -291  -296  -289  -267  -252  -266  -315  -390  -466  -519  -541  -548  -558  -575  -593  -599  -587  -575  -573  -572  -583  -610  -640  -663  -665  -635  -567  -471  -393  -373  -371  -298  -81  325  916  1599  2268  2845  3210  3251  2970  2388  1516  463  -567  -1357  -1770  -1812  -1588  -1254  -945  -713  -562  -476  -424  -408  -420  -402  -328  -253  -219  -215  -222  -232  -247  -252  -198  -44  165  323  389  404  419  472  584  722  823  874  914  982  1097  1262  1452  1622  1756  1866  1965  2059  2157  2265  2371  2450  2485  2476  2420  2288  2062  1786  1514  1227  903  570  243  -84  -373  -569  -674  -735  -781  -808  -816  -825  -859  -926  -1006  -1067  -1097  -1104  -1094  -1054  -975  -885  -825  -803  -796  -797  -828  -899  -966  -979  -944  -912  -914  -942  -959  -946  -919  -902  -904  -915  -921  -917  -912  -916  -906  -847  -747  -663  -631  -625  -601  -555  -544  -614  -729  -817  -859  -869  -859  -836  -810  -792  -789  -804  -842  -897  -932  -902  -778  -609  -486  -445  -449  -460  -471  -490  -526  -571  -613  -665  -742  -824  -877  -900  -910  -916  -911  -895  -878  -876  -887  -896  -897  -896  -904  -918  -918  -888  -833  -775  -724  -666  -571  -420  -199  101  505  1076  1816  2576  3147  3349  3115  2516  1681  734  -214  -1094  -1822  -2250  -2274  -1910  -1321  -823  -635  -662  -712  -719  -697  -665  -636  -621  -611  -569  -467  -340  -249  -195  -103  99  390  670  869  977  1015  1012  1006  1033  1135  1312  1516  1714  1926  2190  2501  2791  2994  3104  3159  3212  3300  3407  3483  3513  3523  3538  3535  3444  3201  2834  2433  2069  1756  1463  1154  861  662  568  509  422  285  122  -15  -109  -193  -293  -381  -413  -398  -364  -317  -261  -218  -194  -183  -186  -210  -259  -316  -357  -380  -399  -421  -444  -469  -484  -471  -440  -416  -409  -408  -391  -343  -276  -230  -238  -297  -384  -478  -562  -624  -662  -692  -733  -767  -766  -738  -710  -693  -683  -670  -649  -625  -614  -628  -650  -658  -656  -677  -754  -871  -962  -961  -869  -758  -703  -702  -713  -720  -724  -726  -725  -725  -730  -746  -776  -829  -905  -989  -1053  -1082  -1086  -1082  -1084  -1090  -1094  -1092  -1091  -1103  -1109  -1079  -1017  -976  -972  -942  -782  -444  43  674  1465  2333  3092  3504  3372  2733  1817  793  -244  -1186  -1931  -2354  -2317  -1823  -1131  -616  -427  -430  -467  -475  -438  -356  -248  -144  -71  -39  -30  -16  19  98  239  405  516  531  469  380  317  297  308  338  387  487  711  1086  1517  1880  2142  2315  2406  2439  2464  2526  2647  2814  2992  3111  3087  2921  2720  2584  2501  2381  2145  1789  1372  958  560  184  -120  -332  -469  -541  -564  -577  -612  -675  -752  -824  -879  -915  -942  -963  -980  -993  -1003  -1018  -1045  -1070  -1071  -1055  -1048  -1056  -1067  -1076  -1084  -1083  -1046  -944  -799  -687  -644  -646  -662  -682  -709  -748  -788  -809  -806  -794  -790  -800  -828  -871  -920  -959  -962  -904  -786  -649  -553  -525  -558  -643  -747  -811  -810  -776  -749  -740  -739  -740  -746  -745  -719  -659  -582  -493  -375  -235  -116  -28  41  85  94  88  84  77  47  -13  -85  -140  -173  -205  -269  -374  -486  -574  -640  -693  -714  -686  -631  -589  -571  -566  -564  -568  -585  -607  -589  -477  -284  -18  420  1101  1970  2890  3584  3751  3350  2535  1445  272  -704  -1314  -1550  -1496  -1313  -1167  -1082  -977  -820  -645  -485  -362  -286  -242  -205  -168  -140  -106  -21  138  320  440  470  439  384  326  278  262  300  396  522  634  712  786  890  1042  1249  1481  1669  1785  1865  1939  2023  2166  2398  2669  2878  2949  2876  2731  2602  2502  2363  2139  1880  1631  1343  974  609  338  136  -83  -352  -629  -820  -851  -762  -663  -612  -607  -656  -784  -957  -1091  -1141  -1127  -1081  -1030  -992  -971  -957  -942  -927  -915  -907  -899  -889  -883  -895  -917  -908  -853  -784  -725  -688  -677  -692  -726  -759  -772  -766  -751  -738  -729  -717  -703  -693  -703  -736  -778  -807  -808  -785  -755  -715  -651  -560  -475  -436  -445  -466  -478  -482  -487  -489  -475  -421  -318  -188  -51  88  214  280  266  204  128  23  -153  -375  -540  -604  -618  -636  -664  -668  -641  -604  -575  -556  -544  -540  -541  -545  -549  -548  -535  -509  -483  -473  -455  -334  -12  554  1308  2102  2766  3156  3182  2842  2206  1344  307  -764  -1618  -2043  -2010  -1665  -1224  -866  -648  -509  -403  -327  -276  -244  -235  -245  -269  -293  -291  -247  -186  -146  -133  -118  -62  47  189  326  436  516  562  582  605  671  785  911  1030  1174  1384  1638  1859  2004  2097  2184  2305  2484  2689  2848  2924  2948  2942  2888  2751  2526  2234  1882  1484  1086  728  432  206  28  -132  -282  -415  -523  -603  -669  -742  -819  -881  -911  -899  -839  -748  -663  -608  -583  -586  -626  -713  -821  -898  -928  -939  -954  -962  -944  -908  -869  -834  -804  -784  -776  -787  -823  -879  -923  -921  -869  -802  -760  -749  -749  -744  -740  -748  -763  -755  -694  -596  -515  -486  -502  -534  -555  -556  -544  -526  -509  -493  -478  -465  -460  -460  -464  -463  -444  -397  -329  -261  -213  -183  -160  -148  -159  -203  -289  -418  -559  -660  -711  -747  -779  -783  -750  -691  -627  -587  -578  -584  -599  -624  -650  -655  -634  -582  -464  -241  84  524  1091  1721  2327  2872  3252  3289  2944  2284  1369  335  -598  -1263  -1572  -1521  -1230  -890  -647  -537  -500  -465  -418  -374  -342  -324  -316  -311  -307  -306  -297  -259  -180  -62  88  243  367  443  482  496  500  526  599  706  811  902  998  1134  1337  1594  1840  2016  2119  2189  2254  2315  2377  2450  2520  2560  2555  2502  2392  2225  2019  1800  1568  1295  947  546  184  -64  -220  -351  -479  -578  -642  -693  -738  -771  -787  -805  -844  -895  -921  -896  -836  -772  -716  -660  -595  -543  -518  -502  -493  -502  -523  -541  -562  -600  -654  -700  -718  -706  -676  -644  -621  -609  -606  -606  -604  -600  -597  -595  -594  -593  -599  -618  -645  -663  -652  -605  -546  -511  -501  -494  -476  -456  -443  -437  -433  -428  -429  -443  -462  -476  -478  -476  -473  -468  -453  -411  -339  -271  -271  -340  -411  -436  -433  -441  -487  -562  -652  -751  -847  -907  -905  -848  -777  -735  -718  -706  -708  -714  -695  -655  -617  -594  -617  -687  -723  -649  -471  -177  265  853  1580  2413  3184  3637  3603  3065  2144  1073  87  -687  -1209  -1461  -1477  -1329  -1082  -811  -620  -556  -574  -612  -633  -620  -561  -462  -346  -247  -190  -183  -196  -186  -134  -40  71  159  204  235  293  394  516  621  688  734  800  935  1149  1385  1568  1691  1813  1982  2170  2313  2394  2450  2496  2525  2533  2530  2522  2506  2465  2359  2128  1759  1312  870  498  228  36  -111  -206  -249  -294  -400  -578  -782  -949  -1040  -1068  -1063  -1029  -961  -878  -812  -780  -783  -817  -872  -921  -945  -945  -938  -932  -927  -924  -924  -927  -934  -932  -900  -826  -737  -676  -656  -659  -674  -701  -732  -746  -736  -707  -671  -643  -628  -620  -604  -580  -557  -542  -533  -529  -544  -592  -662  -721  -760  -789  -805  -777  -679  -545  -448  -427  -467  -526  -565  -556  -480  -349  -219  -142  -114  -110  -136  -226  -384  -550  -664  -727  -769  -800  -812  -807  -789  -761  -732  -714  -711  -713  -712  -702  -690  -680  -680  -722  -814  -866  -757  -458  -58  307  606  972  1587  2431  3210  3596  3421  2726  1788  892  105  -599  -1171  -1513  -1558  -1351  -1046  -798  -668  -619  -601  -585  -565  -543  -526  -498  -423  -292  -140  -12  80  152  212  257  281  290  302  328  378  450  538  646  772  896  1020  1154  1281  1372  1414  1444  1538  1733  1996  2271  2519  2719  2872  2979  3029  3008  2895  2708  2505  2297  2001  1572  1114  754  490  258  53  -98  -192  -248  -319  -457  -654  -837  -927  -911  -851  -811  -808  -827  -845  -845  -827  -808  -813  -862  -943  -1021  -1072  -1096  -1105  -1113  -1121  -1108  -1042  -926  -809  -747  -752  -794  -825  -826  -816  -818  -830  -839  -841  -855  -903  -965  -990  -950  -873  -810  -782  -769  -750  -721  -687  -670  -687  -724  -761  -781  -768  -722  -662  -604  -554  -521  -524  -582  -676  -756  -792  -789  -763  -711  -629  -527  -423  -333  -257  -195  -162  -184  -277  -410  -511  -558  -579  -597  -625  -681  -754  -812  -832  -820  -802  -800  -818  -843  -857  -860  -855  -814  -696  -527  -383  -280  -128  141  546  1118  1866  2707  3474  3929  3875  3317  2451  1503  604  -232  -1009  -1622  -1899  -1778  -1397  -967  -634  -436  -347  -332  -358  -388  -398  -384  -357  -326  -284  -216  -131  -52  24  111  204  290  360  408  429  437  489  635  839  998  1074  1122  1199  1294  1379  1493  1720  2042  2341  2532  2625  2671  2728  2840  2991  3119  3170  3133  3017  2848  2637  2332  1879  1352  904  606  420  270  129  31  -3  -4  -12  -63  -161  -271  -350  -385  -390  -382  -367  -351  -338  -322  -299  -277  -276  -308  -358  -386  -372  -322  -255  -183  -114  -60  -34  -35  -56  -82  -97  -93  -83  -76  -62  -26  33  97  135  142  151  199  282  357  399  420  435  443  443  439  435  428  414  402  408  438  473  490  481  456  434  439  490  599  740  851  905  917  890  813  711  640  628  654  694  738  775  782  731  610  456  344  321  394  542  709  835  889  882  862  881  955  1065  1190  1326  1489  1692  2006  2554  3343  4177  4796  5048  4890  4390  3674  2800  1825  920  278  49  275  726  1054  1184  1275  1387  1457  1469  1480  1550  1680  1811  1887  1903  1893  1878  1867  1861  1858  1861  1880  1931  2019  2138  2287  2467  2653  2793  2889  2994  3123  3254  3370  3477  3594  3740  3935  4187  4459  4678  4821  4913  4972  5003  5000  4949  4855  4729  4547  4260  3861  3421  3024  2700  2440  2200  1939  1668  1428  1253  1154  1117  1098  1047  952  835  728  654  616  588  552  494  415  338  274  221  182  157  130  100  86  91  108  122  113  61  -40  -180  -325  -423  -459  -473  -513  -586  -665  -717  -738  -749  -782  -848  -945  -1065  -1194  -1304  -1379  -1420  -1439  -1460  -1512  -1596  -1698  -1799  -1885  -1983  -2138  -2333  -2488  -2575  -2634  -2703  -2789  -2875  -2939  -2974  -3010  -3106  -3261  -3398  -3475  -3544  -3660  -3835  -4069  -4383  -4771  -5151  -5417  -5553  -5633  -5722  -5821  -5914  -6020  -6188  -6446  -6768  -7085  -7318  -7435  -7471  -7468  -7448  -7432  -7418  -7364  -7235  -7041  -6803  -6458  -5838  -4950  -4129  -3690  -3661  -3936  -4444  -5151  -6022  -6977  -7969  -9060  -10179  -11038  -11506  -11747  -11884  -11855  -11650  -11365  -11052  -10761  -10610  -10593  -10425  -9723  -8427  -6851  -5117  -3033  -733  1386  3287  4972  6068  6204  5241  3384  1479  627  1241  2801  4481  5818  6876  8087  9746  11484  12574  12705  12120  11313  10721  10429  10227  9936  9393  8398  7058  5858  5096  4602  4029  3254]
