reading_id,reading_time,wire_id,result_classification,heart_rate,heart_rate_alert,firmware_version,device_app_version,hardware_version,waveform_samples
a92b88a0-65b2-11ed-8080-808080808080,Wed Nov 16 13:29:13 UTC 2022,810063c81d39,NSR,85,NONE,20001.171.50,2.10.0,Charge 5,[1679  1999  2205  2254  2184  2082  2013  1972  1938  1918  1915  1918  1893  1810  1694  1608  1581  1583  1585  1584  1586  1569  1464  1214  885  619  469  399  373  361  315  192  12  -169  -308  -385  -409  -419  -449  -512  -616  -761  -929  -1091  -1194  -1126  -801  -273  330  1008  1831  2718  3473  3884  3748  3051  1959  685  -419  -988  -1003  -740  -494  -456  -594  -735  -821  -900  -981  -1030  -1040  -1035  -1052  -1106  -1169  -1191  -1167  -1140  -1138  -1149  -1149  -1119  -1054  -976  -924  -906  -886  -828  -733  -649  -604  -564  -506  -453  -417  -376  -313  -223  -102  59  255  436  565  652  721  787  851  903  928  891  740  486  235  73  -64  -337  -798  -1302  -1665  -1849  -1934  -2004  -2082  -2138  -2147  -2112  -2055  -2006  -1986  -1985  -1979  -1954  -1916  -1882  -1861  -1844  -1825  -1808  -1807  -1828  -1866  -1908  -1935  -1937  -1911  -1863  -1805  -1749  -1690  -1617  -1537  -1466  -1421  -1411  -1430  -1455  -1462  -1450  -1439  -1444  -1459  -1456  -1420  -1363  -1327  -1332  -1359  -1386  -1424  -1482  -1545  -1586  -1589  -1568  -1546  -1514  -1448  -1360  -1292  -1267  -1277  -1313  -1356  -1381  -1382  -1369  -1357  -1356  -1367  -1387  -1421  -1461  -1494  -1518  -1543  -1577  -1599  -1568  -1447  -1273  -1137  -1077  -1034  -956  -837  -703  -590  -531  -522  -521  -470  -348  -200  -95  -56  -74  -157  -310  -488  -628  -708  -737  -739  -735  -734  -734  -728  -714  -700  -693  -699  -724  -764  -808  -855  -891  -864  -716  -446  -26  650  1594  2661  3678  4480  4883  4732  4012  2952  1874  1003  500  392  472  516  482  444  440  414  325  223  157  120  88  60  47  43  37  40  78  144  197  216  213  208  210  221  234  239  237  244  294  415  573  700  780  862  991  1155  1290  1356  1381  1421  1508  1637  1765  1845  1874  1884  1897  1918  1946  1968  1979  1980  1918  1673  1183  588  146  -25  -20  1  -67  -257  -495  -681  -792  -849  -843  -781  -715  -686  -692  -708  -710  -689  -653  -616  -591  -585  -609  -677  -770  -844  -876  -864  -787  -620  -411  -267  -257  -367  -522  -631  -667  -658  -634  -602  -569  -543  -539  -566  -618  -681  -736  -768  -790  -826  -877  -916  -930  -928  -925  -918  -901  -871  -838  -824  -841  -889  -951  -999  -1025  -1034  -1029  -1000  -935  -845  -754  -678  -620  -590  -603  -670  -772  -863  -902  -865  -744  -571  -419  -335  -298  -264  -214  -133  0  163  304  424  557  687  760  758  709  634  529  401  286  196  116  46  0  -42  -128  -275  -448  -588  -668  -695  -695  -688  -685  -702  -766  -898  -1071  -1219  -1322  -1426  -1463  -1220  -545  544  1835  3011  3838  4151  3862  3117  2213  1344  605  97  -148  -209  -150  1  192  346  428  457  493  581  699  800  887  1007  1179  1355  1469  1513  1519  1512  1504  1503  1519  1565  1647  1736  1791  1808  1811  1818  1837  1869  1919  1974  2022  2103  2270  2492  2669  2766  2841  2957  3122  3279  3375  3410  3420  3425  3413  3361  3286  3230  3190  3095  2883  2600  2356  2198  2097  2040  2014  1973  1884  1751  1592  1408  1212  1043  923  814  666  496  361  286  256  247  244  240  230  217  208  224  282  368  441  478  479  451  409  378  373  393  421  397  220  -142  -551  -818  -907  -909  -893  -893  -940  -1043  -1147  -1200  -1262  -1431  -1760  -2289  -3019  -3890  -4881  -6009  -7252  -8575  -9933  -11222  -12246  -12760  -12632  -11989  -11156  -10448  -9992  -9721  -9472  -9102  -8585  -7961  -7258  -6523  -5876  -5427  -5152  -4928  -4684  -4449  -4259  -4048  -3736  -3352  -3000  -2739  -2539  -2326  -2084  -1863  -1711  -1639  -1629  -1652  -1687  -1708  -1664  -1499  -1241  -986  -789  -635  -494  -352  -211  -104  -47  -24  0  74  238  477  755  1111  1686  2598  3778  4942  5775  6123  5939  5216  4200  3362  2956  2866  2891  2938  3011  3124  3264  3407  3529  3600  3616  3608  3616  3658  3714  3747  3744  3720  3699  3688  3683  3687  3710  3765  3858  3984  4116  4218  4265  4233  4068  3723  3225  2699  2299  2084  2004  1994  2046  2201  2458  2749  3013  3227  3407  3598  3817  4041  4244  4409  4544  4667  4745  4710  4574  4425  4305  4178  4012  3801  3551  3297  3099  2994  2955  2933  2900  2831  2676  2422  2102  1723  1254  648  -134  -1069  -2043  -2896  -3473  -3728  -3734  -3567  -3267  -2908  -2597  -2381  -2207  -1976  -1648  -1276  -960  -781  -715  -646  -471  -191  92  275  356  397  447  510  593  722  906  1088  1197  1225  1216  1205  1193  1167  1125  1090  1097  1177  1310  1432  1506  1535  1522  1498  1511  1559  1603  1646  1737  1925  2167  2337  2397  2433  2466  2417  2218  1777  1030  95  -870  -1838  -2822  -3822  -4816  -5632  -6021  -5937  -5552  -5073  -4691  -4471  -4259  -3893  -3434  -3071  -2857  -2670  -2382  -2015  -1713  -1560  -1522  -1552  -1663  -1871  -2120  -2319  -2432  -2463  -2338  -1945  -1352  -824  -555  -595  -1011  -1818  -2826  -3785  -4539  -4988  -5144  -5137  -5053  -4879  -4633  -4406  -4267  -4207  -4183  -4167  -4153  -4147  -4151  -4174  -4244  -4380  -4560  -4728  -4844  -4895  -4840  -4590  -4123  -3573  -3140  -2907  -2808  -2724  -2574  -2338  -2018  -1611  -1144  -688  -289  59  360  594  773  922  1067  1262  1566  1945  2307  2612  2891  3139  3303  3368  3359  3285  3146  2982  2854  2782  2737  2691  2628  2546  2464  2413  2402  2413  2416  2380  2293  2186  2114  2095  2102  2096  2040  1913  1723  1514  1345  1242  1189  1167  1155  1142  1136  1151  1182  1213  1231  1241  1266  1333  1436  1536  1605  1654  1670  1561  1340  1198  1271  1509  1762  1835  1632  1279  869  250  -749  -2091  -3536  -4768  -5533  -5777  -5694  -5485  -5167  -4729  -4267  -3908  -3694  -3575  -3425  -3133  -2737  -2375  -2099  -1864  -1635  -1408  -1190  -1007  -881  -796  -686  -498  -261  -48  133  307  451  534  563  563  550  536  531  536  544  550  564  608  690  785  856  888  893  913  990  1125  1257  1337  1376  1371  1257  976  587  312  429  1001  1789  2508  2947  2913  2416  1672  821  -57  -764  -1118  -1148  -975  -708  -462  -303  -212  -154  -113  -79  -53  -40  -40  -44  -34  2  58  108  133  150  183  227  254  249  239  294  468  704  872  916  893  878  924  1047  1197  1311  1385  1460  1557  1659  1741  1813  1912  2035  2131  2184  2224  2273  2314  2320  2266  2140  1966  1779  1585  1362  1121  923  809  737  629  440  184  -77  -280  -400  -449  -456  -446  -433  -405  -355  -300  -281  -307  -354  -388  -395  -382  -367  -360  -357  -355  -356  -355  -327  -246  -121  5  100  154  181  200  213  219  225  240  261  284  297  280  235  194  188  231  314  411  484  508  477  407  336  297  299  332  378  417  439  442  427  406  396  406  437  491  568  652  716  748  757  753  745  732  700  623  485  295  75  -148  -354  -534  -683  -801  -897  -990  -1094  -1215  -1347  -1470  -1563  -1616  -1630  -1617  -1594  -1575  -1559  -1535  -1519  -1542  -1634  -1793  -1928  -1930  -1784  -1460  -805  279  1673  3034  3923  4108  3719  2997  2165  1399  719  139  -183  -195  -34  161  321  412  431  393  299  157  0  -120  -177  -180  -155  -119  -88  -68  -58  -51  -30  19  88  154  219  295  371  428  460  485  557  723  971  1219  1390  1480  1526  1549  1551  1547  1576  1691  1908  2167  2391  2554  2663  2711  2695  2617  2410  1934  1172  334  -354  -837  -1156  -1372  -1536  -1663  -1754  -1814  -1841  -1837  -1815  -1780  -1724  -1654  -1587  -1520  -1433  -1338  -1269  -1241  -1222  -1156  -1021  -869  -771  -733  -715  -692  -658  -615  -565  -516  -456  -373  -285  -224  -193  -175  -154  -120  -65  0  42  42  20  -4  -38  -103  -207  -346  -510  -677  -826  -983  -1203  -1475  -1713  -1853  -1905  -1911  -1886  -1829  -1753  -1683  -1624  -1539  -1388  -1190  -998  -850  -741  -625  -477  -318  -179  -75  -9  26  16  -117  -458  -971  -1478  -1812  -1980  -2087  -2176  -2224  -2219  -2173  -2113  -2062  -2018  -1970  -1929  -1907  -1898  -1876  -1814  -1727  -1663  -1647  -1675  -1728  -1799  -1864  -1871  -1800  -1667  -1425  -967  -232  763  1894  2869  3383  3333  2817  2048  1276  669  237  -67  -253  -310  -238  -57  160  321  392  403  404  417  444  491  555  625  690  747  799  857  941  1052  1163  1241  1280  1289  1306  1387  1556  1765  1936  2052  2140  2216  2277  2317  2340  2370  2437  2528  2604  2667  2779  2964  3161  3291  3334  3299  3197  3065  2963  2919  2887  2788  2576  2306  2094  1996  1937  1764  1356  756  193  -123  -206  -206  -210  -201  -144  -61  -2  29  63  96  68  -71  -275  -429  -481  -462  -407  -342  -290  -260  -247  -238  -224  -204  -191  -204  -267  -374  -482  -547  -565  -560  -546  -522  -490  -464  -457  -479  -564  -780  -1158  -1597  -1939  -2140  -2262  -2346  -2373  -2329  -2251  -2192  -2173  -2176  -2181  -2184  -2184  -2185  -2188  -2193  -2200  -2205  -2195  -2151  -2071  -1974  -1875  -1757  -1598  -1425  -1295  -1212  -1143  -1073  -1012  -964  -916  -863  -815  -771  -719  -673  -670  -723  -812  -907  -980  -1025  -1053  -1076  -1094  -1098  -1071  -1007  -928  -875  -861  -872  -897  -932  -963  -968  -926  -846  -771  -694  -467  61  849  1693  2398  2856  3014  2822  2271  1488  651  -72  -494  -561  -446  -327  -237  -181  -191  -238  -272  -284  -288  -291  -295  -294  -280  -247  -206  -177  -167  -157  -112  -6  130  228  247  199  125  78  88  149  227  297  370  490  688  973  1302  1577  1734  1806  1844  1864  1876  1907  1973  2056  2108  2109  2094  2087  2076  2050  1994  1879  1704  1468  1132  721  371  182  107  35  -96  -274  -434  -524  -551  -543  -509  -444  -371  -348  -405  -506  -584  -611  -610  -600  -584  -564  -543  -517  -475  -422  -383  -371  -379  -386  -372  -320  -250  -203  -196  -223  -263  -285  -266  -224  -180  -145  -126  -143  -206  -296  -365  -378  -325  -219  -104  -27  2  -4  -39  -89  -135  -168  -185  -185  -177  -180  -210  -276  -359  -418  -430  -388  -305  -215  -154  -127  -122  -119  -94  -29  76  196  295  353  378  381  350  261  133  24  -26  -33  -31  -45  -88  -185  -364  -585  -744  -785  -748  -701  -674  -664  -668  -685  -720  -759  -784  -788  -780  -779  -787  -746  -540  -59  741  1767  2794  3601  4024  3971  3481  2732  1907  1121  503  127  -66  -152  -148  -92  -37  -3  15  25  17  -9  -38  -52  -47  -36  -25  -10  16  47  58  27  -43  -137  -231  -299  -334  -337  -295  -180  0  181  300  359  397  447  535  667  799  882  924  966  1028  1103  1194  1311  1443  1548  1598  1604  1585  1538  1437  1260  1009  741  539  430  358  245  50  -238  -590  -904  -1072  -1091  -1034  -960  -895  -855  -841  -847  -875  -920  -961  -968  -932  -864  -790  -739  -726  -751  -812  -883  -921  -899  -822  -710  -597  -537  -564  -654  -736  -748  -703  -657  -635  -612  -569  -531  -532  -557  -560  -526  -470  -424  -406  -406  -410  -408  -395  -366  -321  -269  -237  -260  -356  -489  -586  -610  -576  -518  -466  -437  -427  -427  -433  -435  -410  -341  -246  -178  -169  -214  -283  -330  -308  -190  -9  158  256  281  273  268  272  286  329  418  545  673  758  768  673  456  185  -21  -100  -82  -33  3  18  14  -21  -102  -203  -278  -301  -258  -137  27  165  231  224  133  -29  -153  -70  334  1101  2153  3273  4224  4840  4993  4619  3827  2867  1929  1140  638  441  407  402  360  271  186  156  162  119  -95  -533  -1059  -1444  -1591  -1563  -1445  -1308  -1208  -1156  -1105  -1019  -905  -787  -667  -534  -389  -247  -133  -53  20  117  232  338  434  551  702  873  1031  1134  1188  1269  1444  1686  1912  2065  2132  2115  2026  1914  1829  1759  1635  1413  1134  880  686  494  187  -318  -940  -1458  -1743  -1839  -1842  -1812  -1775  -1737  -1688  -1627  -1564  -1504  -1434  -1360  -1313  -1308  -1310  -1272  -1187  -1088  -1013  -975  -953  -917  -863  -812  -778  -757  -740  -719  -686  -642  -602  -572  -549  -540  -587  -733  -942  -1102  -1152  -1114  -1036  -949  -876  -829  -808  -824  -892  -987  -1060  -1087  -1070  -991  -822  -613  -467  -428  -457  -504  -539  -555  -557  -549  -525  -482  -434  -407  -416  -472  -575  -697  -781  -797  -758  -698  -636  -559  -449  -330  -248  -208  -180  -135  -73  -8  44  82  100  93  51  -48  -226  -467  -696  -832  -860  -807  -693  -558  -461  -429  -462  -554  -672  -760  -793  -778  -715  -616  -544  -520  -449  -224  232  1019  2141  3408  4539  5243  5281  4646  3574  2339  1135  136  -509  -799  -853  -788  -706  -687  -734  -806  -883  -947  -973  -946  -879  -798  -720  -643  -542  -398  -232  -95  -12  28  51  74  107  156  223  303  410  542  657  732  782  830  894  1016  1215  1418  1536  1576  1635  1774  1958  2102  2170  2190  2198  2220  2269  2321  2334  2284  2161  1940  1640  1359  1164  1027  857  559  98  -403  -756  -907  -946  -952  -939  -905  -856  -813  -784  -767  -754  -747  -757  -782  -802  -790  -749  -714  -701  -695  -673  -637  -607  -607  -640  -675  -670  -618  -539  -452  -376  -334  -330  -359  -424  -524  -629  -698  -718  -713  -706  -705  -708  -713  -717  -717  -710  -699  -694  -702  -725  -760  -790  -803  -804  -809  -820  -822  -800  -753  -696  -647  -620  -624  -657  -708  -749  -740  -642  -460  -274  -164  -131  -123  -113  -105  -99  -62  31  165  279  336  334  277  170  42  -65  -135  -169  -180  -202  -275  -400  -519  -584  -594  -572  -531  -486  -454  -438  -439  -469  -539  -609  -623  -584  -474  -228  197  898  1934  3131  4216  4985  5210  4730  3715  2533  1417  542  86  20  132  249  288  232  122  17  -43  -59  -55  -53  -53  -51  -40  -19  17  74  151  225  273  297  326  370  393  383  395  459  541  620  717  838  952  1019  1042  1050  1065  1104  1204  1381  1581  1736  1846  1934  1998  2049  2121  2196  2211  2155  2087  2042  1990  1846  1554  1189  896  711  547  317  13  -315  -601  -783  -858  -881  -906  -957  -1034  -1122  -1197  -1241  -1258  -1267  -1292  -1334  -1366  -1357  -1314  -1264  -1218  -1176  -1147  -1132  -1110  -1065  -1017  -997  -996  -996  -1016  -1069  -1127  -1163  -1177  -1179  -1169  -1143  -1105  -1069  -1048  -1046  -1058  -1071  -1073  -1049  -991  -913  -846  -817  -847  -951  -1096  -1210  -1264  -1276  -1259  -1208  -1140  -1089  -1071  -1079  -1106  -1139  -1154  -1103  -926  -636  -348  -183  -147  -167  -182  -164  -102  -8  88  175  272  392  503  550  514  428  340  277  237  206  165  85  -51  -222  -376  -494  -599  -716  -826  -889  -891  -859  -816  -766  -716  -702  -739  -758  -683  -506  -231  159  757  1665  2816  3973  4848  5188  4840  3877  2666  1583  789  370  277  271  233  201  167  117  78  48  5  -50  -96  -113  -92  -39  18  57  71  80  97  118  138  170  240  346  449  514  528  514  509  537  595  682  802  939  1047  1104  1121  1123  1158  1274  1458  1631  1741  1805  1856  1913  1974  2018  2040  2051  2041  1963  1766  1456  1116  825  573  325  88  -129  -335  -511  -649  -783  -936  -1079  -1178  -1245  -1300  -1339  -1346  -1324  -1307  -1322  -1354  -1381  -1397  -1405  -1391  -1340  -1259  -1187  -1151  -1146  -1152  -1160  -1169  -1167  -1130  -1036  -892  -757  -701  -740  -807  -819  -767  -703  -653  -605  -560  -532  -526  -533  -547  -568  -595  -616  -617  -612  -628  -652  -654  -629  -593  -564  -553  -553  -551  -543  -548  -582  -636  -683  -711  -723  -732  -750  -775  -779  -738  -655  -569  -507  -463  -419  -363  -293  -216  -138  -50  35  88  100  86  61  29  -14  -69  -128  -207  -337  -520  -705  -825  -865  -856  -824  -781  -761  -810  -913  -1002  -1042  -1038  -990  -898  -796  -739  -754  -768  -603  -105  790  2043  3429  4624  5318  5233  4335  3009  1725  728  148  -3  74  156  159  99  10  -80  -153  -193  -200  -190  -178  -178  -197  -229  -253  -253  -221  -160  -89  -30  4  22  42  76  137  222  300  342  361  405  491  591  665  713  761  853  1008  1187  1324  1402  1461  1534  1618  1694  1757  1807  1842  1861  1852  1784  1634  1439  1280  1181  1056  784  379  -10  -278  -444  -575  -709  -841  -946  -1015  -1052  -1068  -1065  -1048  -1029  -1029  -1067  -1139  -1206  -1240  -1256  -1260  -1229  -1166  -1092  -1030  -1005  -1025  -1058  -1062  -1025  -970  -931  -907  -875  -833  -810  -824  -860  -888  -898  -898  -896  -897  -900  -897  -881  -850  -817  -802  -799  -777  -729  -689  -688  -715  -733  -707  -639  -563  -516  -501  -494  -474  -432  -372  -320  -312  -374  -481  -564  -576  -512  -357  -125  97  219  230  170  89  36  61  193  391  561  631  570  366  98  -94  -154  -140  -136  -192  -304  -435  -540  -595  -603  -581  -544  -503  -472  -458  -461  -474  -492  -527  -582  -592  -464  -166  293  940  1800  2822  3867  4735  5176  4978  4183  3061  1844  771  132  -15  108  275  350  279  124  -4  -50  -24  25  57  58  42  28  23  27  41  60  80  98  116  125  123  125  159  243  375  531  667  748  785  830  930  1056  1139  1165  1177  1199  1232  1278  1367  1518  1693  1822  1876  1879  1861  1849  1856  1879  1900  1901  1865  1749  1476  1003  412  -106  -430  -585  -647  -682  -731  -795  -851  -888  -914  -945  -991  -1046  -1091  -1106  -1089  -1063  -1053  -1061  -1077  -1083  -1071  -1063  -1074  -1090  -1076  -1020  -954  -927  -940  -954  -953  -956  -971  -982  -967  -927  -879  -842  -823  -817  -817  -818  -818  -817  -816  -815  -813  -806  -795  -790  -804  -838  -879  -912  -938  -969  -1002  -1016  -983  -899  -824  -804  -796  -750  -659  -545  -441  -372  -341  -335  -340  -350  -367  -379  -368  -338  -312  -302  -303  -304  -306  -314  -343  -415  -551  -719  -850  -902  -892  -860  -832  -821  -849  -936  -1060  -1159  -1204  -1219  -1226  -1213  -1149  -1032  -914  -814  -600  -93  761  1839  2882  3587  3747  3345  2531  1551  622  -127  -582  -685  -533  -313  -159  -96  -76  -68  -68  -70  -66  -58  -55  -58  -57  -37  18  103  188  250  283  306  346  406  458  485  518  615  781  949  1058  1116  1156  1195  1243  1326  1447  1575  1674  1756  1862  1998  2122  2212  2291  2375  2455  2523  2577  2615  2633  2620  2537  2349  2077  1775  1475  1183  899  626  388  218  89  -63  -266  -471  -618  -700  -743  -761  -761  -759  -772  -813  -876  -933  -960  -957  -944  -937  -941  -948  -950  -940  -911  -850  -762  -672  -612  -586  -577  -573  -572  -572  -573  -573  -575  -578  -580  -579  -579  -581  -590  -604  -618  -627  -632  -625  -594  -544  -497  -474  -473  -477  -476  -473  -469  -468  -469  -473  -471  -442  -373  -285  -222  -202  -208  -215  -213  -188  -125  -25  79  147  160  119  26  -100  -221  -330  -458  -604  -726  -802  -841  -854  -848  -836  -828  -828  -833  -838  -831  -813  -788  -767  -761  -786  -871  -1007  -1071  -865  -288  630  1769  2926  3886  4449  4451  3868  2853  1682  644  -70  -388  -378  -223  -79  -8  -15  -86  -206  -333  -414  -432  -411  -376  -337  -287  -227  -166  -112  -66  -28  14  64  106  127  131  126  126  152  216  309  409  494  553  589  624  671  740  832  933  1020  1084  1140  1206  1286  1364  1427  1473  1510  1539  1559  1564  1545  1486  1364  1118  696  187  -223  -482  -650  -759  -822  -876  -956  -1072  -1199  -1293  -1333  -1339  -1338  -1333  -1293  -1192  -1043  -898  -799  -763  -803  -930  -1101  -1227  -1268  -1243  -1176  -1086  -1002  -943  -909  -894  -892  -895  -893  -872  -832  -789  -762  -751  -749  -747  -735  -713  -693  -694  -725  -770  -793  -774  -738  -713  -709  -719  -730  -737  -754  -806  -872  -886  -815  -697  -578  -457  -341  -263  -230  -203  -160  -115  -91  -85  -81  -64  -39  -20  -13  -10  -5  -7  -40  -125  -240  -358  -479  -604  -698  -738  -750  -770  -802  -833  -852  -866  -874  -869  -843  -790  -722  -679  -708  -799  -816  -559  83  1092  2287  3404  4221  4575  4366  3667  2716  1714  801  159  -116  -107  51  246  371  377  284  131  -19  -114  -138  -100  -3  119  206  235  231  214  187  158  159  222  327  424  484  512  524  544  613  755  928  1050  1088  1084  1089  1128  1199  1288  1394  1520  1654  1770  1854  1906  1930  1938  1954  2001  2069  2124  2148  2137  2077  1947  1723  1388  952  494  138  -60  -163  -254  -353  -438  -496  -546  -607  -674  -734  -782  -821  -853  -865  -841  -785  -725  -682  -662  -653  -642  -625  -610  -606  -604  -592  -562  -529  -508  -500  -498  -502  -513  -534  -560  -581  -586  -570  -526  -458  -388  -339  -317  -332  -391  -473  -536  -557  -549  -536  -530  -532  -541  -549  -557  -567  -577  -581  -566  -520  -439  -348  -285  -262  -258  -253  -241  -225  -204  -169  -124  -82  -54  -40  -31  -25  -40  -105  -226  -365  -476  -544  -596  -679  -803  -924  -999  -1032  -1048  -1065  -1084  -1103  -1127  -1163  -1199  -1217  -1222  -1233  -1258  -1242  -1061  -640  25  926  1994  3050  3876  4297  4175  3504  2509  1464  507  -230  -611  -664  -550  -401  -305  -295  -336  -396  -464  -512  -515  -473  -409  -351  -308  -277  -255  -241  -235  -232  -224  -199  -147  -69  14  80  121  152  195  271  382  514  654  784  866  894  903  930  990  1093  1229  1354  1423  1434  1419  1405  1399  1405  1426  1460  1488  1482  1408  1244  998  703  422  179  -71  -352  -617  -835  -1000  -1107  -1164  -1200  -1221  -1221  -1219  -1237  -1259  -1254  -1221  -1182  -1151  -1123  -1097  -1083  -1092  -1117  -1145  -1166  -1182  -1195  -1202  -1197  -1182  -1165  -1145  -1120  -1099  -1078  -1043  -982  -910  -862  -872  -945  -1047  -1123  -1146  -1130  -1086  -1021  -943  -854  -764  -696  -668  -689  -760  -854  -929  -970  -987  -981  -934  -843  -738  -652  -593  -555  -521  -463  -359  -226  -110  -44  -18  -10  -25  -78  -160  -236  -282  -312  -361  -448  -558  -658  -722  -741  -721  -690  -673  -671  -679  -697  -730  -774  -811  -821  -783  -696  -616  -605  -616  -510  -133  645  1813  3123  4249  4953  5079  4572  3581  2409  1336  590  275  251  261  186  85  27  16  23  32  37  34  27  23  31  53  90  138  180  201  216  255  334  438  546  639  697  710  699  694  712  780  920  1099  1248  1341  1403  1464  1527  1578  1621  1686  1797  1932  2047  2123  2184  2250  2309  2344  2347  2314  2247  2146  1986  1731  1389  1032  716  436  185  -17  -172  -303  -425  -549  -675  -787  -863  -894  -897  -893  -894  -899  -901  -911  -940  -976  -978  -923  -832  -756  -718  -712  -740  -799  -869  -918  -934  -922  -890  -847  -804  -766  -738  -737  -770  -835  -914  -982  -1009  -988  -922  -838  -774  -746  -741  -751  -785  -844  -908  -952  -966  -954  -920  -871  -810  -737  -654  -582  -540  -528  -516  -472  -389  -300  -233  -189  -159  -143  -144  -161  -184  -220  -288  -392  -530  -698  -865  -982  -1034  -1043  -1033  -1020  -1016  -1030  -1054  -1068  -1063  -1047  -1028  -1016  -1046  -1129  -1215  -1221  -1041  -550  316  1493  2786  3937  4724  4976  4605  3721  2583  1436  501  -43  -191  -103  31  91  54  -50  -181  -289  -342  -345  -322  -279  -205  -107  -19  26  34  24  23  54  126  226  317  371  393  414  463  534  598  650  697  743  799  887  996  1082  1126  1154  1198  1273  1377  1513  1666  1803  1898  1941  1945  1936  1927  1915  1871  1751  1526  1215  884  613  417  249  64  -164  -422  -646  -783  -835  -836  -828  -832  -857  -902  -952  -985  -995  -995  -999  -1008  -1016  -1022  -1031  -1033  -998  -903  -776  -682  -648  -650  -664  -692  -734  -776  -799  -797  -782  -774  -783  -801  -818  -831  -840  -840  -828  -801  -764  -736  -747  -806  -881  -934  -952  -935  -883  -811  -747  -704  -670  -637  -614  -616  -623  -586  -471  -311  -166  -62  11  51  16  -109  -269  -385  -441  -474  -509  -552  -616  -721  -865  -1003  -1086  -1107  -1097  -1082  -1070  -1058  -1045  -1042  -1056  -1080  -1102  -1125  -1162  -1176  -1067  -758  -243  456  1332  2378  3494  4441  4922  4704  3829  2626  1437  514  23  -111  -153  -258  -393  -478  -505  -503  -490  -470  -446  -423  -407  -400  -400  -402  -400  -390  -376  -358  -336  -311  -283  -222  -84  116  308  443  539  622  699  757  788  810  870  996  1151  1261  1307  1325  1357  1432  1571  1766  1957  2087  2143  2146  2122  2094  2068  2027  1943  1800  1599  1341  1045  770  552  365  175  -24  -213  -353  -417  -429  -448  -516  -615  -690  -717  -716  -709  -697  -673  -648  -641  -655  -671  -679  -681  -678  -668  -647  -618  -589  -571  -566  -567  -570  -567  -557  -541  -525  -516  -526  -563  -612  -645  -650  -637  -619  -606  -600  -598  -598  -599  -604  -609  -597  -545  -451  -350  -281  -252  -245  -238  -210  -146  -46  63  155  215  250  269  271  247  196  134  79  17  -83  -212  -321  -393  -459  -534  -598  -628  -628  -621  -637  -690  -762  -813  -832  -842  -857  -860  -865  -905  -909  -698  -133  792  1961  3178  4236  4922  5043  4528  3494  2200  966  84  -333  -410  -336  -228  -154  -152  -189  -210  -213  -235  -292  -350  -352  -291  -204  -124  -61  -17  21  63  98  118  136  176  243  307  337  339  344  386  474  580  675  766  877  1001  1100  1158  1197  1238  1288  1352  1435  1541  1673  1810  1905  1938  1913  1832  1710  1582  1473  1370  1242  1054  761  330  -172  -606  -884  -1018  -1073  -1110  -1166  -1237  -1295  -1328  -1338  -1335  -1330  -1325  -1315  -1295  -1268  -1246  -1240  -1241  -1240  -1240  -1245  -1254  -1267  -1277  -1275  -1246  -1178  -1093  -1033  -1010  -1002  -992  -973  -939  -884  -822  -778  -764  -786  -832  -877  -908  -925  -923  -898  -854  -804  -770  -755  -730  -659  -551  -447  -375  -339  -328  -334  -339  -307  -210  -79  14  40  22  -17  -90  -235  -466  -719  -898  -973  -990  -988  -983  -978  -984  -1012  -1058  -1099  -1124  -1135  -1142  -1152  -1170  -1192  -1214  -1212  -1119  -830  -259  640  1833  3138  4273  4947  4967  4322  3169  1787  491  -449  -859  -786  -497  -262  -235  -426  -693  -865  -900  -845  -751  -661  -602  -565  -517  -458  -418  -416  -438  -453  -424  -328  -177  -28  59  82  79  78  90  121  174  240  304  377  487  641  801  923  1000  1065  1147  1243  1330  1397  1457  1516  1561  1582  1585  1576  1555  1519  1455  1336  1131  838  490  126  -217  -515  -760  -957  -1105  -1191  -1220  -1221  -1220  -1221  -1218  -1208  -1195  -1185  -1163  -1112  -1045  -1012  -1044  -1119  -1191  -1235  -1254  -1259  -1249  -1225  -1203  -1191  -1186  -1180  -1166  -1132  -1075  -1012  -972  -960  -960  -956  -946  -937  -931  -926  -914  -866  -755  -614  -505  -440  -403  -377  -350  -317  -290  -278  -271  -220  -66  173  390  501  523  515  504  470  390  288  218  197  182  124  18  -88  -154  -184  -197  -201  -200  -204  -226  -269  -318  -344  -330  -316  -350  -391  -335  -45  616  1677  2971  4213  5107  5368  4834  3688  2371  1231  460  129  109  182  239  267  276  269  237  175  105  60  49  61  89  123  149  165  176  186  202  229  262  294  328  368  415  481  592  739  873  960  998  1013  1040  1093  1167  1245  1318  1401  1524  1674  1792  1852  1884  1915  1949  1977  1993  1996  1982  1941  1860  1727  1545  1333  1099  824  503  191  -62  -277  -488  -673  -792  -842  -872  -939  -1037  -1114  -1143  -1139  -1122  -1101  -1081  -1071  -1075  -1088  -1098  -1099  -1092  -1084  -1079  -1077  -1083  -1106  -1145  -1186  -1211  -1215  -1193  -1134  -1029  -906  -810  -764  -755  -766  -803  -864  -931  -976  -989  -964  -893  -794  -704  -620  -509  -381  -287  -254  -258  -272  -284  -296  -308  -328  -368  -429  -493  -551  -607  -660  -717  -791  -877  -947  -973  -957  -929  -914  -915  -923  -933  -940  -945  -946  -940  -917  -883  -861  -839  -722  -374  287  1203  2196  3052  3590  3695  3340  2628  1763  907  172  -286  -404  -305  -138  27  131  126  49  -31  -78  -90  -84  -66  -33  7  44  69  83  94  117  171  247  308  338  365  419  486  530  549  572  621  695  797  927  1067  1179  1244  1268  1273  1298  1382  1527  1676  1773  1811  1816  1810  1791  1758  1719  1692  1666  1580  1382  1101  825  603  422  261  99  -64  -204  -299  -387  -527  -710  -855  -915  -916  -902  -894  -896  -908  -931  -954  -955  -918  -851  -787  -752  -741  -740  -741  -748  -764  -780  -784  -777  -780  -805  -829  -826  -792  -749  -720  -709  -700  -671  -623  -579  -558  -554  -541  -504  -449  -399  -357  -307  -251  -208  -188  -186  -194  -212  -236  -258  -267  -259  -257  -321  -506  -765  -978  -1080  -1101  -1092  -1075  -1049  -1017  -1001  -1020  -1070  -1118  -1130  -1105  -1068  -1039  -1044  -1110  -1175  -1082  -705  -6  961  2004  2877  3461  3710  3543  2975  2179  1312  499  -86  -355  -399  -365  -328  -315  -337  -392  -476  -567  -630  -654  -648  -597  -471  -296  -154  -95  -102  -128  -129  -98  -55  -13  33  99  177  241  276  288  297  330  408  527  667  796  899  994  1092  1191  1296  1407  1504  1572  1626  1693  1767  1815  1814  1765  1688  1603  1498  1341  1117  842  541  245  -14  -209  -335  -415  -487  -583  -714  -853  -951  -987  -990  -1008  -1064  -1129  -1148  -1115  -1076  -1062  -1063  -1047  -993  -923  -879  -866  -835  -739  -603  -503  -484  -531  -599  -646  -659  -648  -626  -602  -574  -539  -494  -446  -411  -387  -363  -339  -309  -250  -160  -66  0  34  52  66  73  74  89  139  216  283  318  321  291  214  83  -94  -301  -492  -615  -679  -742  -823  -890  -914  -897  -864  -839  -827  -825  -840  -886  -955  -1019  -1041  -987  -859  -648  -245  486  1530  2722  3867  4742  5087  4761  3865  2651  1403  435  -47  -124  -36  30  -23  -191  -378  -496  -534  -527  -504  -476  -452  -436  -423  -381  -274  -115  36  135  173  166  144  147  205  302  398  472  538  613  702  798  879  924  935  954  1036  1211  1430  1592  1658  1668  1679  1719  1784  1854  1911  1955  2003  2061  2093  2022  1775  1377  968  682  521  381  201  21  -124  -264  -420  -541  -571  -542  -532  -557  -592  -620  -635  -641  -651  -673  -700  -723  -739  -755  -771  -788  -808  -826  -832  -816  -773  -722  -687  -671  -668  -676  -697  -730  -759  -781  -811  -860  -903  -913  -891  -863  -858  -872  -880  -870  -852  -837  -830  -811  -759  -687  -631  -600  -584  -567  -550  -538  -534  -534  -535  -540  -554  -587  -646  -724  -817  -935  -1068  -1178  -1244  -1270  -1271  -1268  -1275  -1297  -1322  -1338  -1345  -1343  -1329  -1300  -1240  -1165  -1143  -1201  -1256  -1140  -720  17  972  1973  2835  3392  3481  3038  2207  1237  339  -290  -545  -536  -482  -486  -525  -576  -659  -791  -933  -1008  -995  -939  -890  -862  -852  -859  -867  -847  -793  -714  -618  -512  -415  -355  -324  -292  -268  -282  -315  -320  -266  -145  20  171  256  277  278  305  385  497  594  655  697  733  760  784  830  907  978  988  937  880  837  769  629  416  190  17  -132  -333  -574  -765  -850  -855  -832  -809  -793  -784  -784  -808  -864  -923  -932  -887  -833  -799  -785  -776  -764  -752  -747  -742  -719  -667  -604  -560  -544  -533  -507  -475  -465  -492  -545  -593  -614  -594  -530  -443  -374  -334  -309  -297  -299  -313  -320  -288  -202  -98  -43  -52  -80  -84  -60  -28  3  56  135  221  284  316  322  317  310  296  257  182  78  -30  -117  -167  -196  -228  -277  -338  -391  -408  -388  -371  -398  -485  -597  -684  -732  -763  -799  -858  -938  -990  -923  -659  -146  590  1377  2015  2411  2537  2415  2118  1675  1103  488  -23  -317  -375  -280  -152  -76  -58  -61  -61  -57  -52  -50  -66  -110  -164  -178  -116  -6  88  140  161  173  187  213  255  299  331  357  407  505  630  727  769  787  829  912  1011  1098  1166  1222  1277  1330  1362  1378  1420  1525  1675  1807  1888  1912  1851  1675  1415  1165  978  823  651  466  313  215  132  -2  -182  -336  -419  -447  -452  -452  -450  -445  -439  -439  -450  -467  -473  -458  -424  -389  -366  -358  -358  -353  -334  -307  -288  -282  -274  -251  -219  -195  -174  -141  -96  -61  -47  -53  -81  -135  -195  -230  -228  -208  -194  -191  -185  -173  -167  -177  -189  -182  -153  -112  -53  25  108  166  195  217  255  296  308  293  283  291  300  297  278  247  207  150  75  0  -65  -127  -183  -223  -261  -324  -405  -464  -481  -474  -466  -477  -524  -592  -650  -679  -684  -659  -573  -404  -179  115  574  1206  1882  2500  2996  3227  3067  2583  1925  1167  458  42  -19  105  262  352  279  85  -72  -125  -117  -94  -74  -71  -97  -155  -210  -210  -144  -58  8  40  42  35  44  89  162  230  271  296  318  334  353  391  458  553  660  755  822  875  933  996  1053  1094  1122  1140  1149  1150  1146  1137  1121  1099  1069  1028  968  874  744  586  392  152  -105  -330  -486  -573  -611  -635  -671  -724  -775  -811  -820  -798  -756  -708  -660  -594  -495  -384  -301  -250  -201  -127  -23  68  96  61  13  -10  -12  -6  -2  6  33  77  113  121  98  51  -9  -77  -130  -148  -144  -142  -143  -137  -118  -94  -76  -69  -71  -80  -101  -133  -166  -190  -206  -217  -220  -214  -199  -174  -131  -74  -26  -3  0  9  52  132  225  300  348  368  344  275  196  140  108  66  -18  -136  -241  -308  -367  -440  -507  -544  -561  -584  -628  -677  -707  -710  -701  -696  -704  -732  -782  -838  -839  -689  -309  295  1053  1866  2626  3225  3561  3543  3116  2328  1346  406  -247  -495  -433  -284  -204  -225  -311  -406  -463  -475  -461  -430  -393  -364  -353  -358  -373  -389  -400  -395  -372  -336  -299  -264  -229  -183  -121  -49  8  39  65  142  318  542  700  738  689  615  568  592  702  851  959  1004  1038  1119  1233  1321  1347  1322  1261  1173  1073  979  872  694  449  212  14  -183  -391  -574  -726  -881  -1036  -1135  -1156  -1140  -1126  -1117  -1108  -1095  -1083  -1074  -1067  -1060  -1057  -1061  -1081  -1105  -1106  -1071  -1008  -937  -883  -852  -836  -833  -844  -856  -854  -839  -825  -818  -812  -802  -787  -770  -749  -727  -717  -721  -718  -700  -681  -673  -672  -681  -709  -756  -807  -845  -866  -876  -889  -911  -943  -981  -1014  -1029  -1027  -1022  -1013  -977  -913  -850  -815  -810  -823  -834  -832  -791  -694  -567  -471  -420  -389  -356  -310  -241  -163  -109  -103  -152  -247  -363  -463  -519  -547  -605  -740  -923  -1071  -1138  -1144  -1124  -1099  -1078  -1061  -1044  -1035  -1034  -1033  -1016  -981  -979  -1057  -1158  -1150  -878  -240  728  1836  2815  3446  3610  3255  2465  1483  553  -136  -442  -388  -181  -32  2  1  18  38  53  80  136  223  323  411  466  491  506  530  559  579  596  622  655  679  688  706  765  868  986  1090  1146  1130  1068  1040  1115  1275  1428  1507  1533  1574  1671  1825  1991  2107  2158  2199  2276  2368  2411  2367  2260  2147  2050  1940  1783  1597  1422  1268  1112  926  658  295  -77  -334  -433  -436  -422  -421  -421  -411  -415  -463  -564  -684  -763  -760  -685  -580  -495  -449  -415  -368  -330  -368  -511  -696  -823  -846  -793  -721  -667  -641  -632  -625  -615  -606  -595  -576  -554  -553  -597  -672  -738  -770  -774  -762  -729  -670  -600  -568  -612  -720  -831  -892  -906  -914  -941  -978  -1007  -1015  -996  -975  -989  -1039  -1104  -1164  -1216  -1255  -1255  -1210  -1162  -1137  -1121  -1077  -988  -875  -785  -745  -749  -780  -819  -846  -853  -846  -833  -823  -818  -807  -804  -844  -933  -1039  -1122  -1163  -1164  -1149  -1142  -1151  -1175  -1213  -1262  -1307  -1335  -1342  -1337  -1329  -1332  -1357  -1400  -1445  -1481  -1487  -1406  -1161  -668  176  1407  2834  4093  4889  5072  4606  3689  2670  1757  1029  590  494  635  821  939  983  983  950  873  779  715  696  699  699  692  685  696  731  776  807  814  811  817  842  877  906  926  964  1040  1136  1201  1218  1218  1244  1314  1421  1533  1628  1710  1788  1872  1963  2045  2097  2117  2118  2089  2010  1888  1767  1686  1640  1615  1604  1555  1357  954  448  39  -163  -211  -228  -288  -388  -493  -590  -693  -797  -881  -927  -936  -923  -900  -881  -878  -891  -903  -883  -819  -745  -701  -693  -699  -701  -701  -709  -735  -772  -808  -834  -848  -851  -840  -811  -768  -723  -685  -646  -592  -514  -419  -322  -236  -168  -122  -104  -113  -145  -188  -227  -258  -283  -292  -281  -276  -334  -502  -729  -898  -957  -934  -860  -762  -678  -634  -626  -630  -629  -619  -594  -552  -503  -465  -447  -447  -453  -445  -389  -269  -121  0  80  129  156  166  172  190  220  244  236  173  60  -69  -181  -266  -342  -441  -573  -704  -784  -805  -796  -786  -796  -836  -890  -930  -943  -939  -931  -922  -901  -849  -773  -722  -705  -617  -294  387  1366  2372  3135  3517  3439  2920  2146  1304  457  -259  -643  -672  -487  -237  -72  -58  -122  -186  -246  -306  -333  -299  -227  -162  -119  -80  -40  -13  4  52  155  292  413  485  520  544  567  591  617  668  775  910  1008  1057  1112  1220  1365  1481  1543  1586  1650  1735  1819  1886  1936  1962  1959  1924  1871  1815  1749  1643  1482  1308  1186  1128  1072  933  658  291  -52  -294  -431  -491  -511  -534  -590  -680  -776  -858  -939  -1035  -1131  -1193  -1199  -1149  -1060  -938  -813  -733  -725  -771  -833  -876  -890  -886  -878  -868  -855  -842  -828  -816  -809  -806  -804  -802  -804  -814  -831  -842  -824  -766  -690  -633  -606  -595  -589  -587  -593  -613  -640  -654  -634  -573  -475  -364  -278  -239  -236  -252  -283  -331  -388  -431  -446  -445  -440  -423  -378  -302  -215  -128  -21  121  279  407  475  493  489  479  458  421  377  322  224  82  -52  -142  -196  -237  -266  -280  -285  -283  -271  -260  -261  -275  -296  -317  -329  -338  -346  -353  -364  -400  -449  -407  -148  364  1071  1854  2558  3049  3246  3083  2572  1847  1065  402  24  -73  -44  -14  -27  -62  -86  -96  -92  -43  84  258  392  448  454  457  488  558  647  734  822  911  982  1028  1060  1091  1130  1180  1231  1283  1348  1418  1464  1485  1515  1585  1683  1769  1829  1894  2008  2181  2358  2481  2550  2603  2653  2690  2707  2713  2723  2748  2784  2794  2683  2359  1846  1309  922  738  694  701  702  658  558  433  340  304  306  320  326  307  264  221  187  141  65  -26  -94  -118  -95  -24  76  179  279  373  435  450  429  399  402  463  564  709  924  1149  1136  505  -951  -2995  -5058  -6612  -7391  -7444  -7106  -6737  -6444  -6165  -5875  -5600  -5345  -5101  -4875  -4672  -4482  -4290  -4106  -3936  -3743  -3498  -3222  -2953  -2714  -2537  -2437  -2380  -2306  -2193  -2074  -1986  -1928  -1878  -1819  -1738  -1619  -1469  -1322  -1205  -1110  -1010  -883  -738  -598  -494  -437  -413  -411  -431  -470  -520  -582  -682  -871  -1127  -1337  -1430  -1421  -1346  -1233  -1122  -1042  -989  -940  -868  -755  -627  -532  -484  -477  -511  -534  -439  -184  248  907  1722  2518  3174  3581  3589  3155  2433  1593  720  -22  -471  -649  -633  -454  -201  0  96  115  106  94  86  82  83  91  112  161  254  396  567  720  814  849  869  931  1057  1202  1299  1335  1334  1308  1254  1182  1118  1083  1082  1114  1178  1275  1398  1524  1619  1671  1714  1792  1902  1994  2050  2089  2127  2157  2165  2135  2057  1953  1861  1783  1658  1430  1120  813  588  454  385  366  381  398  396  379  356  328  288  233  170  114  76  58  39  -3  -80  -159  -190  -147  -59  19  65  69  17  -93  -221  -306  -329  -310  -266  -216  -180  -166  -166  -172  -172  -154  -108  -46  9  45  59  61  57  53  50  54  72  106  148  190  221  224  189  133  89  71  72  78  80  75  68  62  49  -2  -110  -261  -421  -532  -540  -446  -307  -183  -110  -91  -99  -102  -80  -20  65  155  231  290  333  359  364  341  287  220  165  113  46  -35  -117  -196  -310  -491  -695  -845  -928  -976  -1004  -1014  -1021  -1035  -1054  -1069  -1078  -1080  -1058  -1009  -949  -867  -698  -344  296  1191  2133  2870  3191  2959  2243  1315  422  -259  -583  -564  -399  -273  -233  -243  -263  -273  -271  -256  -231  -198  -166  -143  -116  -50  87  259  386  444  483  553  648  722  740  668  484  215  -38  -181  -195  -128  -34  50  134  241  349  416  452  523  678  891  1079  1194  1249  1291  1348  1416  1476  1521  1545  1518  1354  990  504  81  -187  -332  -413  -485  -590  -730  -872  -999  -1098  -1154  -1170  -1171  -1179  -1198  -1222  -1242  -1249  -1249  -1257  -1284  -1322  -1351  -1358  -1333  -1266  -1162  -1053  -957  -879  -826  -793  -741  -626  -488  -436  -489  -554  -557  -497  -415  -356  -337  -340  -350  -361  -369  -352  -291  -203  -130  -84  -56  -42  -42  -56  -75  -89  -99  -106  -113  -123  -143  -187  -244  -286  -302  -303  -300  -296  -288  -276  -267  -260  -257  -255  -248  -227  -177  -97  9  134  263  373  452  511  566  624  681  719  722  699  680  670  630  512  324  127  -28  -151  -261  -353  -412  -435  -437  -434  -444  -486  -577  -686  -756  -762  -718  -640  -546  -452  -392  -422  -526  -528  -253  337  1194  2171  3068  3753  4153  4152  3650  2751  1681  636  -105  -310  -105  184  379  424  341  229  159  127  116  116  121  124  114  84  39  0  -20  -26  -24  -19  -12  -5  3  18  31  29  20  36  109  242  384  479  518  535  565  609  646  665  689  753  856  956  1025  1071  1097  1095  1078  1069  1073  1075  1042  944  797  639  463  245  -4  -277  -564  -813  -964  -1029  -1063  -1118  -1228  -1399  -1575  -1687  -1721  -1714  -1704  -1718  -1756  -1776  -1751  -1709  -1682  -1659  -1604  -1490  -1332  -1187  -1097  -1034  -939  -793  -641  -528  -449  -374  -294  -224  -186  -171  -147  -102  -48  0  36  57  75  102  136  161  163  146  101  19  -74  -133  -149  -146  -147  -169  -247  -413  -628  -798  -888  -931  -940  -891  -779  -650  -563  -534  -541  -561  -583  -602  -613  -615  -606  -581  -537  -489  -460  -455  -447  -393  -275  -134  -36  5  29  73  141  214  271  305  320  323  319  305  274  221  147  57  -42  -146  -243  -333  -422  -505  -558  -573  -566  -554  -548  -557  -592  -643  -686  -709  -713  -688  -602  -454  -321  -289  -286  -65  577  1604  2765  3731  4223  4135  3535  2594  1559  635  -63  -444  -494  -379  -311  -355  -430  -466  -460  -439  -421  -408  -402  -399  -382  -331  -252  -183  -156  -168  -190  -204  -210  -212  -191  -125  -18  98  209  328  473  628  756  838  880  907  956  1033  1131  1254  1384  1474  1518  1563  1644  1741  1815  1863  1919  2009  2105  2143  2082  1953  1816  1675  1482  1240  1032  909  815  648  354  -6  -315  -483  -525  -512  -495  -481  -463  -440  -417  -395  -380  -380  -409  -463  -518  -551  -560  -557  -552  -551  -552  -543  -518  -486  -458  -437  -419  -410  -419  -446  -483  -516  -534  -537  -534  -527  -522  -530  -562  -608  -640  -642  -624  -607  -597  -590  -580  -567  -551  -538  -529  -521  -514  -509  -507  -507  -508  -507  -487  -427  -340  -271  -259  -304  -372  -417  -430  -428  -425  -422  -414  -393  -357  -299  -215  -115  -32  20  57  104  175  256  314  342  358  379  407  424  393  284  130  8  -53  -101  -197  -351  -505  -598  -634  -653  -681  -728  -784  -833  -862  -871  -879  -915  -970  -1006  -1016  -1024  -1059  -1120  -1143  -1078  -904  -498  275  1348  2469  3362  3818  3757  3258  2512  1700  894  152  -386  -637  -662  -580  -500  -501  -577  -661  -706  -709  -666  -575  -469  -398  -379  -384  -374  -327  -252  -182  -128  -74  -6  57  97  117  144  189  245  311  399  506  612  706  797  881  948  1014  1111  1252  1398  1518  1629  1757  1897  2019  2101  2145  2171  2180  2151  2066  1956  1856  1733  1517  1194  838  542  353  240  123  -54  -262  -424  -518  -573  -615  -646  -667  -676  -679  -691  -715  -748  -773  -775  -755  -733  -712  -687  -667  -667  -682  -694  -693  -684  -679  -674  -644  -576  -492  -430  -403  -393  -387  -385  -382  -379  -385  -404  -422  -407  -336  -232  -144  -102  -98  -118  -154  -197  -232  -254  -264  -270  -282  -301  -318  -329  -332  -331  -334  -341  -343  -334  -319  -304  -292  -277  -254  -228  -212  -210  -217  -222  -214  -177  -100  0  88  147  193  239  289  339  380  403  396  337  224  93  -5  -60  -96  -160  -287  -457  -610  -703  -744  -759  -770  -785  -802  -818  -836  -854  -867  -887  -931  -989  -1028  -1027  -979  -833  -454  280  1301  2303  2978  3268  3281  3021  2381  1405  385  -356  -691  -716  -607  -489  -419  -400  -417  -462  -527  -590  -635  -663  -676  -671  -638  -575  -497  -434  -398  -371  -334  -292  -261  -238  -212  -173  -109  -23]
