reading_id,reading_time,wire_id,result_classification,heart_rate,heart_rate_alert,firmware_version,device_app_version,hardware_version,waveform_samples
6171c710-6493-11ed-8080-808080808080,Tue Nov 15 03:12:47 UTC 2022,810063c81d39,UNCLASSIFIABLE,117,NONE,20001.171.50,2.10.0,Charge 5,[-7868  -8195  -8353  -8296  -8076  -7741  -7301  -6764  -6174  -5627  -5229  -5030  -4983  -4999  -5019  -5037  -5052  -5024  -4866  -4534  -4088  -3584  -2954  -2101  -1001  257  1412  2151  2416  2433  2445  2546  2722  2948  3178  3342  3408  3368  3192  2889  2590  2464  2568  2813  3056  3235  3399  3592  3788  3951  4094  4237  4393  4570  4761  4941  5093  5259  5570  6113  6801  7468  8010  8364  8518  8547  8564  8641  8763  8861  8900  8887  8807  8628  8362  8071  7794  7524  7274  7084  6974  6913  6855  6801  6796  6871  7018  7185  7289  7249  7043  6787  6694  6835  7123  7557  8246  9269  10647  12256  13619  14081  13318  11494  9113  6924  5539  4972  4786  4597  4329  4117  4045  4060  4082  4081  4034  3911  3741  3600  3520  3491  3511  3550  3540  3442  3290  3145  3035  2956  2902  2859  2803  2737  2664  2574  2441  2235  1939  1605  1319  1103  930  801  735  701  646  542  400  254  142  78  49  22  -75  -353  -846  -1433  -1940  -2264  -2401  -2426  -2427  -2429  -2371  -2122  -1588  -807  42  783  1344  1689  1815  1796  1722  1628  1501  1316  1076  819  598  446  353  295  262  248  240  228  207  186  169  115  -27  -233  -403  -487  -523  -567  -644  -759  -889  -1013  -1165  -1409  -1735  -2038  -2241  -2363  -2458  -2535  -2579  -2624  -2745  -2981  -3297  -3607  -3857  -4086  -4336  -4560  -4713  -4764  -4576  -3971  -2890  -1461  35  1316  2151  2280  1594  371  -919  -1860  -2136  -1715  -943  -243  156  266  229  177  151  145  164  213  264  263  191  81  -31  -149  -343  -672  -1048  -1296  -1364  -1349  -1353  -1416  -1518  -1618  -1689  -1724  -1731  -1725  -1713  -1704  -1722  -1800  -1947  -2150  -2408  -2697  -2945  -3109  -3204  -3257  -3307  -3408  -3577  -3766  -3909  -3984  -4005  -3998  -3989  -3985  -3974  -3948  -3951  -4066  -4337  -4669  -4888  -4863  -4555  -4072  -3634  -3375  -3251  -3162  -3040  -2845  -2592  -2354  -2183  -2068  -1982  -1907  -1779  -1471  -869  53  1165  2191  2936  3403  3657  3761  3779  3732  3602  3416  3256  3172  3141  3140  3166  3198  3203  3165  3087  2989  2890  2803  2731  2676  2622  2541  2420  2260  2049  1770  1462  1198  1028  998  1197  1709  2546  3632  4836  6026  7094  7848  7989  7412  6318  4961  3592  2513  1836  1395  1069  890  832  792  732  687  674  680  683  664  612  544  491  462  449  476  616  921  1337  1729  2023  2255  2483  2704  2883  3019  3155  3324  3489  3600  3647  3640  3556  3349  3043  2766  2607  2517  2398  2236  2091  2002  1958  1928  1889  1834  1753  1611  1382  1120  917  817  832  963  1149  1287  1334  1327  1300  1241  1131  987  839  695  542  390  279  227  219  259  366  514  634  691  702  691  675  662  658  664  691  768  894  1024  1116  1148  1117  1052  971  809  478  33  -341  -563  -711  -852  -965  -1017  -1033  -1063  -1137  -1237  -1317  -1350  -1345  -1323  -1277  -1182  -1084  -1090  -1171  -1110  -722  17  1061  2348  3716  4895  5583  5520  4683  3381  2034  968  297  -122  -484  -821  -1060  -1140  -1083  -974  -881  -839  -854  -915  -1021  -1201  -1457  -1722  -1920  -2045  -2127  -2184  -2228  -2263  -2285  -2300  -2337  -2421  -2532  -2608  -2593  -2466  -2269  -2086  -1976  -1932  -1886  -1756  -1545  -1351  -1245  -1220  -1233  -1258  -1283  -1300  -1305  -1292  -1255  -1220  -1247  -1383  -1579  -1723  -1767  -1751  -1724  -1710  -1735  -1827  -1969  -2095  -2161  -2175  -2160  -2121  -2042  -1879  -1627  -1370  -1199  -1127  -1122  -1155  -1199  -1230  -1244  -1251  -1248  -1206  -1104  -997  -978  -1054  -1138  -1174  -1174  -1169  -1171  -1182  -1202  -1223  -1236  -1239  -1234  -1223  -1221  -1262  -1370  -1498  -1544  -1448  -1273  -1140  -1098  -1109  -1134  -1157  -1176  -1186  -1181  -1154  -1106  -1062  -1052  -1059  -1048  -919  -461  427  1606  2925  4266  5284  5531  4922  3697  2156  703  -221  -533  -521  -444  -401  -436  -522  -614  -728  -856  -938  -952  -923  -880  -844  -843  -901  -1038  -1279  -1631  -2028  -2361  -2583  -2719  -2786  -2774  -2673  -2511  -2370  -2338  -2442  -2633  -2850  -3084  -3330  -3528  -3645  -3717  -3796  -3899  -3993  -4018  -3942  -3812  -3710  -3670  -3676  -3722  -3817  -3954  -4123  -4319  -4509  -4639  -4696  -4708  -4712  -4723  -4731  -4700  -4609  -4459  -4148  -3378  -2021  -517  529  1022  1251  1401  1487  1509  1500  1485  1473  1463  1457  1459  1487  1556  1666  1810  1970  2112  2209  2267  2317  2365  2387  2352  2243  2052  1789  1500  1258  1092  934  685  350  47  -141  -252  -369  -521  -683  -825  -929  -988  -1004  -1013  -1072  -1165  -1132  -817  -280  335  1046  1988  3219  4603  5775  6267  5837  4627  3000  1392  186  -511  -888  -1124  -1242  -1266  -1273  -1299  -1336  -1397  -1491  -1581  -1610  -1555  -1459  -1387  -1359  -1343  -1294  -1195  -1081  -1007  -986  -985  -972  -931  -801  -453  166  883  1415  1641  1658  1613  1572  1543  1519  1506  1518  1559  1606  1644  1683  1720  1747  1768  1773  1755  1704  1599  1414  1159  892  677  505  317  108  -62  -152  -194  -252  -329  -385  -412  -464  -593  -776  -914  -919  -744  -428  -102  111  233  389  683  1097  1502  1786  1953  2083  2225  2416  2724  3148  3576  3912  4138  4277  4367  4434  4480  4499  4503  4503  4481  4393  4207  3955  3715  3537  3421  3350  3306  3265  3207  3137  3077  3035  2993  2926  2824  2696  2571  2495  2552  2846  3425  4304  5480  6832  8079  8846  8842  8043  6639  4901  3214  1906  1047  586  457  557  759  945  1067  1158  1238  1278  1208  982  674  439  333  295  279  281  303  325  316  254  148  18  -104  -183  -199  -143  -16  138  251  296  293  274  252  235  244  327  516  746  901  941  914  874  850  843  832  805  766  725  696  693  704  670  520  258  -2  -168  -259  -326  -379  -419  -478  -578  -687  -749  -740  -661  -484  -176  188  442  528  546  604  705  794  859  943  1060  1169  1247  1306  1361  1391  1331  1121  815  571  470  447  370  128  -280  -700  -955  -1037  -1068  -1160  -1338  -1554  -1756  -1936  -2107  -2265  -2395  -2515  -2682  -2908  -3141  -3351  -3533  -3658  -3711  -3687  -3552  -3200  -2501  -1484  -368  636  1385  1713  1457  601  -715  -2303  -3898  -5185  -5949  -6154  -5944  -5538  -5148  -4924  -4877  -4913  -4958  -4996  -5029  -5032  -4939  -4704  -4396  -4157  -4044  -4009  -4004  -4020  -4084  -4221  -4405  -4579  -4711  -4801  -4831  -4778  -4652  -4488  -4322  -4182  -4063  -3939  -3801  -3670  -3572  -3519  -3503  -3519  -3566  -3647  -3753  -3877  -4044  -4255  -4447  -4562  -4603  -4605  -4618  -4736  -5036  -5436  -5755  -5926  -6002  -6028  -6045  -6086  -6144  -6209  -6291  -6376  -6431  -6461  -6504  -6576  -6653  -6704  -6733  -6758  -6770  -6722  -6565  -6311  -6040  -5838  -5727  -5681  -5659  -5636  -5586  -5429  -4975  -4063  -2795  -1548  -648  -127  184  427  615  740  832  910  978  1037  1088  1100  989  702  321  -16  -263  -415  -450  -439  -547  -860  -1449  -2398  -3515  -4373  -4663  -4270  -3272  -1943  -548  820  2257  3876  5511  6730  7273  7238  6804  6121  5376  4772  4426  4311  4311  4328  4318  4277  4220  4183  4217  4359  4596  4856  5058  5199  5341  5505  5666  5842  6087  6441  6912  7418  7837  8114  8270  8333  8318  8255  8180  8110  8000  7783  7494  7264  7198  7353  7770  8402  9128  9890  10652  11282  11663  11835  11904  11922  11895  11815  11639  11312  10826  10255  9702  9233  8875  8615  8395  8156  7888  7588  7186  6611  5961  5446  5134  4921  4691  4408  4131  3916  3729  3484  3121  2635  2057  1500  1100  845  623  386  156  -47  -228  -391  -553  -722  -875  -998  -1132  -1324  -1551  -1740  -1861  -1957  -2073  -2193  -2280  -2332  -2407  -2563  -2773  -2946  -3049  -3145  -3320  -3584  -3844  -3996  -4035  -4015  -3963  -3862  -3662  -3338  -2941  -2528  -2075  -1508  -791  45  979  2015  3030  3716  3729  2966  1676  221  -1051  -1836  -2105  -2111  -2069  -2092  -2277  -2594  -2866  -2971  -2944  -2862  -2769  -2665  -2548  -2453  -2431  -2468  -2508  -2528  -2526  -2458  -2273  -2015  -1803  -1690  -1625  -1537  -1417  -1309  -1244  -1210  -1179  -1129  -1066  -1014  -988  -988  -1008  -1038  -1065  -1093  -1125  -1157  -1177  -1186  -1189  -1199  -1245  -1367  -1577  -1821  -2017  -2140  -2245  -2374  -2510  -2599  -2626  -2623  -2619  -2619  -2615  -2603  -2569  -2500  -2398  -2282  -2170  -2072  -1999  -1971  -2008  -2092  -2172  -2215  -2229  -2234  -2238  -2233  -2186  -2072  -1915  -1774  -1672  -1603  -1551  -1497  -1429  -1356  -1297  -1277  -1323  -1445  -1630  -1845  -2043  -2197  -2332  -2482  -2629  -2732  -2811  -2909  -3018  -3089  -3104  -3080  -3041  -2999  -2952  -2899  -2862  -2860  -2878  -2883  -2835  -2716  -2535  -2230  -1665  -750  520  2012  3430  4414  4641  3973  2641  1138  -96  -824  -1110  -1259  -1507  -1820  -1991  -1904  -1646  -1362  -1117  -897  -639  -281  148  538  826  1040  1207  1324  1391  1429  1446  1430  1371  1282  1182  1073  987  985  1083  1244  1418  1560  1637  1659  1663  1671  1688  1702  1713  1722  1732  1739  1726  1670  1568  1445  1309  1158  1007  886  802  748  714  692  676  659  620  543  443  349  271  214  185  181  196  216  216  192  165  151  143  125  90  40  -9  -33  -15  10  -9  -110  -288  -485  -613  -624  -536  -406  -290  -184  -52  114  279  400  469  500  504  466  373  255  162  72  -92  -366  -694  -982  -1163  -1240  -1260  -1270  -1289  -1290  -1245  -1163  -1081  -1008  -904  -690  -350  8  292  565  1011  1864  3181  4664  5765  5988  5256  3935  2459  1147  216  -339  -703  -955  -1075  -1123  -1157  -1175  -1189  -1211  -1242  -1281  -1314  -1313  -1236  -1071  -866  -697  -595  -543  -513  -493  -485  -462  -382  -240  -67  99  223  280  284  277  301  387  531  702  873  1016  1108  1160  1204  1261  1334  1401  1455  1508  1559  1614  1705  1831  1945  2013  2031  2012  1974  1927  1869  1817  1806  1839  1869  1853  1792  1738  1734  1756  1772  1784  1801  1824  1853  1872  1863  1820  1759  1724  1745  1804  1877  1947  1999  2026  2044  2067  2097  2125  2152  2203  2304  2457  2635  2797  2907  2949  2941  2911  2845  2646  2222  1650  1162  919  865  860  843  817  753  581  306  17  -217  -407  -591  -801  -1035  -1275  -1467  -1513  -1334  -959  -442  291  1371  2789  4384  5821  6622  6486  5496  3915  2132  638  -257  -613  -692  -722  -768  -787  -745  -658  -570  -508  -466  -426  -397  -418  -551  -812  -1111  -1313  -1395  -1432  -1455  -1436  -1376  -1327  -1316  -1325  -1336  -1353  -1384  -1437  -1510  -1591  -1679  -1784  -1895  -1985  -2036  -2050  -2022  -1934  -1781  -1593  -1401  -1188  -944  -712  -535  -398  -248  -80  39  66  7  -108  -239  -357  -447  -500  -530  -576  -677  -842  -1043  -1238  -1386  -1461  -1481  -1486  -1515  -1578  -1661  -1733  -1780  -1807  -1823  -1836  -1850  -1867  -1887  -1906  -1925  -1932  -1898  -1816  -1732  -1691  -1690  -1709  -1726  -1730  -1728  -1758  -1862  -2028  -2183  -2277  -2328  -2385  -2463  -2562  -2703  -2895  -3094  -3243  -3343  -3427  -3506  -3580  -3633  -3615  -3507  -3339  -3146  -2963  -2829  -2729  -2580  -2268  -1711  -877  200  1406  2628  3862  5028  5764  5699  4798  3305  1597  146  -729  -1087  -1202  -1284  -1386  -1435  -1394  -1334  -1300  -1263  -1199  -1106  -948  -668  -317  -56  50  84  133  237  405  616  807  927  985  1055  1236  1570  1952  2216  2321  2355  2387  2417  2436  2453  2468  2461  2417  2356  2313  2298  2287  2262  2226  2191  2167  2148  2114  2051  1938  1734  1449  1155  891  644  394  146  -86  -311  -520  -697  -890  -1176  -1559  -1967  -2312  -2545  -2674  -2726  -2690  -2536  -2280  -2008  -1801  -1689  -1658  -1703  -1843  -2057  -2261  -2388  -2434  -2404  -2274  -2049  -1810  -1637  -1545  -1521  -1566  -1700  -1952  -2326  -2772  -3218  -3595  -3877  -4115  -4349  -4537  -4612  -4537  -4316  -4019  -3760  -3604  -3533  -3508  -3500  -3494  -3499  -3552  -3662  -3733  -3674  -3499  -3221  -2845  -2390  -1732  -665  781  2237  3164  3162  2227  784  -644  -1781  -2565  -3030  -3307  -3544  -3815  -4137  -4458  -4683  -4792  -4809  -4656  -4163  -3272  -2181  -1183  -419  98  394  542  623  666  677  672  666  663  660  637  575  467  345  248  197  184  191  206  222  233  242  266  315  358  335  228  88  -35  -157  -329  -562  -809  -1028  -1250  -1518  -1785  -1975  -2087  -2177  -2239  -2086  -1410  -96  1534  2930  3739  4006  3997  3934  3901  3901  3928  3988  4088  4224  4359  4458  4531  4603  4670  4709  4728  4763  4828  4902  4968  5042  5124  5185  5209  5221  5249  5294  5316  5283  5219  5164  5116  5043  4933  4810  4688  4562  4425  4272  4098  3907  3732  3631  3625  3685  3762  3809  3804  3758  3689  3605  3517  3439  3405  3463  3630  3915  4381  5133  6142  7149  7849  7999  7424  6245  4854  3529  2403  1588  1089  776  529  310  111  -62  -188  -258  -313  -414  -578  -763  -904  -980  -1016  -1034  -1014  -934  -798  -630  -436  -209  31  231  352  407  426  428  426  423  423  448  514  600  669  719  772  834  892  919  864  686  441  241  129  67  37  34  30  -40  -226  -490  -740  -931  -1069  -1160  -1218  -1296  -1436  -1643  -1894  -2142  -2329  -2421  -2434  -2410  -2375  -2334  -2298  -2292  -2348  -2471  -2616  -2736  -2812  -2848  -2854  -2842  -2821  -2804  -2798  -2803  -2811  -2823  -2841  -2859  -2873  -2886  -2890  -2872  -2825  -2760  -2708  -2699  -2736  -2799  -2864  -2920  -2976  -3034  -3077  -3101  -3124  -3153  -3176  -3172  -3137  -3086  -3040  -3004  -2970  -2917  -2805  -2650  -2592  -2703  -2783  -2521  -1766  -580  809  2041  2719  2611  1778  506  -814  -1789  -2219  -2202  -2016  -1876  -1801  -1730  -1629  -1479  -1264  -1007  -765  -593  -514  -504  -527  -537  -492  -402  -337  -328  -348  -362  -362  -358  -360  -362  -358  -350  -331  -264  -110  112  320  453  519  551  570  581  586  586  588  601  628  659  690  730  776  809  814  783  707  591  465  375  332  317  299  263  221  198  205  233  264  286  297  302  303  295  273  239  208  187  182  213  303  434  548  620  656  643  570  450  302  164  86  80  124  185  233  240  175  17  -197  -402  -564  -679  -748  -766  -725  -636  -541  -488  -499  -573  -674  -747  -774  -775  -768  -757  -745  -771  -900  -1133  -1284  -1105  -461  693  2304  4125  5825  7175  8031  8283  7894  6921  5523  3960  2596  1718  1313  1192  1152  1050  900  792  710  582  406  254  166  128  114  105  93  80  72  59  23  -47  -139  -206  -223  -191  -122  -48  -12  -51  -176  -356  -524  -619  -623  -562  -483  -402  -304  -178  -45  64  136  168  180  195  216  219  178  99  22  -18  -26  -43  -115  -251  -420  -582  -714  -803  -854  -868  -843  -794  -757  -749  -748  -727  -684  -635  -593  -550  -481  -384  -293  -243  -235  -243  -241  -214  -169  -127  -110  -137  -211  -294  -332  -309  -247  -178  -137  -131  -142  -156  -171  -188  -206  -227  -268  -350  -453  -526  -549  -541  -528  -531  -571  -657  -777  -922  -1097  -1269  -1379  -1425  -1468  -1530  -1525  -1333  -869  -34  1207  2699  4193  5441  6156  6091  5246  3872  2326  1017  198  -221  -454  -620  -795  -955  -1002  -951  -896  -869  -878  -926  -982  -1011  -1009  -998  -990  -957  -870  -742  -656  -711  -893  -1070  -1133  -1083  -988  -917  -877  -824  -716  -558  -410  -331  -316  -316  -301  -272  -248  -226  -189  -140  -107  -107  -132  -158  -161  -144  -125  -117  -117  -122  -141  -187  -247  -291  -305  -304  -304  -309  -320  -334  -344  -338  -332  -383  -556  -825  -1071  -1195  -1190  -1074  -879  -666  -496  -373  -263  -152  -65  -6  35  57  47  5  -46  -81  -95  -111  -151  -215  -284  -329  -343  -341  -334  -323  -310  -311  -345  -419  -506  -569  -599  -618  -638  -679  -765  -881  -971  -1021  -1060  -1108  -1167  -1256  -1356  -1327  -1003  -363  497  1541  2798  4181  5403  6065  5892  4917  3436  1873  647  -84  -482  -677  -680  -563  -435  -337  -244  -103  118  392  633  758  756  679  593  522  460  428  447  503  567  623  668  718  755  733  630  486  378  334  317  298  276  260  253  250  241  225  232  322  527  780  964  1039  1037  953  736  407  97  -105  -240  -371  -490  -547  -530  -503  -546  -680  -852  -990  -1053  -1053  -1026  -1003  -994  -988  -982  -984  -988  -964  -880  -753  -648  -604  -600  -590  -547  -485  -441  -426  -414  -379  -323  -273  -248  -237  -229  -224  -242  -299  -385  -471  -565  -679  -790  -872  -931  -961  -953  -931  -934  -972  -1019  -1044  -1046  -1041  -1053  -1093  -1143  -1179  -1222  -1297  -1335  -1176  -690  102  1123  2349  3676  4880  5701  5822  5104  3828  2441  1303  640  416  371  271  47  -241  -479  -597  -615  -595  -581  -593  -639  -701  -747  -761  -759  -754  -754  -759  -762  -740  -659  -520  -384  -325  -372  -488  -611  -697  -737  -735  -683  -573  -434  -318  -249  -217  -198  -178  -157  -144  -159  -219  -310  -371  -321  -114  172  384  461  459  435  393  307  158  -47  -255  -406  -486  -517  -517  -508  -509  -517  -525  -530  -535  -533  -500  -419  -312  -224  -176  -156  -147  -131  -68  66  245  398  488  527  547  573  620  676  719  742  727  631  436  206  40  -22  -21  -3  5  -9  -55  -115  -160  -193  -240  -300  -335  -330  -320  -337  -377  -407  -433  -498  -539  -357  203  1158  2368  3536  4438  5009  5133  4718  3882  2791  1629  675  81  -263  -500  -645  -696  -676  -610  -543  -515  -521  -542  -569  -588  -592  -598  -638  -707  -742  -706  -666  -693  -756  -799  -817  -842  -889  -937  -958  -939  -879  -783  -671  -560  -484  -475  -527  -598  -657  -689  -701  -700  -691  -671  -651  -661  -748  -934  -1167  -1349  -1433  -1456  -1474  -1489  -1467  -1411  -1363  -1354  -1374  -1402  -1429  -1458  -1491  -1528  -1567  -1601  -1599  -1554  -1502  -1470  -1451  -1441  -1439  -1420  -1354  -1242  -1121  -1026  -962  -918  -876  -819  -748  -686  -641  -593  -519  -412  -278  -131  10  142  270  379  444  459  464  500  574  663  759  857  944  1008  1058  1088  1079  1032  991  1011  1093  1168  1245  1465  1912  2570  3424  4423  5474  6473  7223  7427  6953  5955  4687  3453  2569  2113  1917  1811  1692  1540  1401  1305  1234  1176  1134  1121  1137  1157  1160  1156  1162  1181  1196  1198  1205  1205  1164  1079  997  943  894  835  808  853  936  1012  1078  1132  1161  1168  1172  1182  1185  1155  1074  957  837  702  509  280  105  36  42  74  92  39  -135  -386  -586  -665  -663  -645  -641  -658  -691  -731  -781  -848  -922  -978  -1004  -1019  -1037  -1047  -1034  -1015  -1004  -973  -860  -641  -375  -143  27  162  268  328  345  346  342  323  273  200  112  -6  -170  -364  -567  -749  -863  -890  -854  -795  -738  -678  -603  -522  -447  -369  -269  -159  -77  -25  27  74  56  -57  -200  -270  -139  339  1190  2292  3510  4687  5565  5835  5365  4291  2875  1460  409  -130  -267  -189  -116  -205  -462  -786  -1055  -1205  -1253  -1241  -1196  -1143  -1106  -1090  -1086  -1084  -1076  -1072  -1100  -1187  -1308  -1397  -1411  -1351  -1250  -1147  -1058  -992  -967  -991  -1029  -1004  -863  -660  -507  -445  -432  -434  -455  -498  -563  -634  -680  -691  -693  -721  -798  -905  -987  -1026  -1049  -1087  -1136  -1170  -1187  -1222  -1301  -1412  -1520  -1595  -1644  -1690  -1739  -1778  -1771  -1666  -1421  -1102  -858  -763  -762  -783  -800  -811  -815  -802  -784  -778  -783  -789  -790  -790  -800  -843  -932  -1037  -1106  -1119  -1109  -1116  -1163  -1238  -1316  -1391  -1466  -1535  -1590  -1626  -1641  -1645  -1659  -1705  -1784  -1884  -2009  -2193  -2425  -2620  -2713  -2733  -2760  -2822  -2754  -2236  -1069  645  2561  4185  5012  4760  3590  1947  258  -1103  -1953  -2434  -2719  -2809  -2726  -2590  -2465  -2323  -2141  -1957  -1819  -1736  -1669  -1580  -1465  -1354  -1283  -1259  -1258  -1257  -1262  -1288  -1348  -1430  -1488  -1471  -1351  -1156  -952  -778  -650  -573  -538  -514  -479  -431  -387  -343  -283  -212  -162  -150  -162  -173  -176  -177  -178  -166  -129  -77  -58  -126  -296  -510  -682  -764  -769  -733  -704  -704  -715  -722  -728  -732  -710  -633  -504  -346  -163  25  175  269  340  415  475  509  544  626  772  951  1112  1221  1289  1349  1406  1434  1415  1352  1255  1124  962  780  584  368  153  -11  -122  -222  -336  -440  -507  -547  -586  -659  -781  -925  -1036  -1105  -1162  -1167  -999  -601  -70  496  1219  2310  3780  5410  6809  7500  7228  6164  4682  3147  1891  1053  537  244  117  40  -92  -268  -419  -525  -605  -659  -672  -643  -604  -571  -543  -509  -462  -392  -309  -240  -180  -70  134  377  560  665  751  882  1072  1288  1464  1573  1635  1663  1658  1627  1592  1580  1588  1589  1574  1559  1555  1553  1529  1470  1407  1382  1391  1391  1320  1129  852  603  460  405  379  342  301  284  304  364  443  507  530  495  385  229  104  52  69  156  317  530  745  904  981  997  985  966  969  1021  1126  1237  1305  1315  1267  1131  881  566  295  103  -76  -285  -488  -652  -760  -794  -759  -700  -666  -661  -666  -673  -684  -699  -702  -688  -688  -709  -732  -725  -560  -56  857  2096  3454  4592  5122  4820  3841  2576  1305  187  -642  -1142  -1364  -1378  -1269  -1131  -1042  -1016  -1024  -1040  -1052  -1041  -984  -888  -789  -719  -684  -674  -674  -680  -690  -702  -712  -724  -738  -741  -690  -535  -278  -6  174  247  270  302  376  481  555  552  491  408  318  236  174  145  158  214  293  362  407  431  432  406  370  344  329  320  317  322  335  350  362  362  329  239  113  24  57  253  537  735  683  337  -144  -499  -619  -581  -475  -353  -260  -215  -209  -216  -208  -160  -68  53  186  305  387  422  392  280  110  -53  -160  -207  -213  -188  -131  -56  0  21  23  23  21  1  -51  -132  -234  -372  -554  -701  -655  -284  413  1301  2258  3236  4082  4491  4290  3588  2566  1385  299  -468  -895  -1045  -960  -756  -635  -690  -843  -995  -1110  -1189  -1231  -1215  -1110  -924  -739  -635  -629  -685  -758  -806  -821  -820  -818  -821  -823  -820  -818  -814  -791  -735  -651  -568  -514  -490  -481  -467  -418  -336  -292  -360  -518  -676  -771  -809  -838  -893  -967  -1025  -1060  -1116  -1255  -1497  -1775  -1992  -2107  -2141  -2144  -2152  -2170  -2186  -2194  -2205  -2225  -2238  -2199  -2065  -1869  -1699  -1591  -1515  -1448  -1395  -1358  -1336  -1326  -1316  -1283  -1212  -1124  -1062  -1037  -1011  -911  -674  -315  38  255  311  245  80  -138  -322  -421  -448  -436  -419  -438  -539  -717  -902  -1029  -1090  -1113  -1110  -1087  -1056  -1027  -1014  -1036  -1076  -1043  -904  -691  -290  520  1785  3316  4819  5913  6205  5591  4333  2823  1432  456  -25  -151  -82  116  356  499  513  472  439  431  436  438  429  408  386  363  330  291  262  249  241  240  271  353  472  586  659  683  702  754  835  922  999  1059  1100  1124  1136  1136  1130  1128  1146  1197  1264  1306  1306  1279  1256  1249  1244  1196  1048  794  522  337  260  247  259  269  252  191  100  25  -7  -4  31  100  184  242  257  243  220  180  105  12  -61  -127  -230  -369  -492  -576  -641  -696  -730  -740  -739  -735  -731  -724  -713  -697  -673  -648  -635  -639  -652  -660  -658  -655  -650  -626  -582  -544  -539  -564  -598  -614  -613  -622  -672  -772  -899  -988  -961  -747  -310  376  1359  2648  4136  5588  6631  6851  6133  4742  3044  1431  271  -363  -650  -756  -769  -731  -681  -656  -662  -678  -686  -661  -568  -406  -239  -146  -154  -251  -384  -479  -487  -406  -268  -125  -36  -22  -34  -7  61  132  188  238  288  333  374  414  448  481  520  538  475  304  81  -95  -191  -244  -305  -395  -491  -555  -577  -576  -581  -617  -693  -781  -837  -855  -885  -975  -1108  -1219  -1284  -1338  -1414  -1501  -1576  -1638  -1696  -1735  -1742  -1728  -1717  -1743  -1823  -1929  -2005  -2032  -2036  -2032  -2002  -1919  -1805  -1716  -1667  -1630  -1591  -1556  -1531  -1517  -1522  -1567  -1665  -1787  -1874  -1907  -1912  -1906  -1864  -1756  -1609  -1497  -1456  -1450  -1424  -1348  -1224  -1069  -913  -789  -712  -699  -786  -950  -1034  -886  -474  233  1310  2728  4313  5794  6760  6797  5880  4358  2620  1085  123  -250  -303  -276  -295  -370  -430  -439  -425  -413  -416  -438  -457  -442  -374  -277  -193  -133  -66  32  147  227  256  259  256  262  293  349  403  436  460  486  510  533  566  631  721  807  865  889  867  781  629  460  344  291  254  200  118  -22  -221  -416  -548  -620  -662  -696  -740  -794  -833  -835  -799  -744  -698  -674  -677  -707  -764  -830  -877  -889  -860  -789  -697  -617  -565  -531  -490  -420  -333  -273  -256  -261  -267  -258  -220  -128  43  280  504  642  684  650  551  426  336  307  310  295  218  74  -70  -143  -136  -98  -61  -26  3  12  -5  -41  -66  -52  -10  0  -53  -54  155  617  1346  2326  3459  4677  5773  6302  6008  5036  3676  2238  1072  366  48  -49  -95  -198  -329  -427  -474  -455  -376  -284  -201  -119  -35  48  126  183  212  222  229  248  269  264  214  133  52  1  -15  -17  -14  2  46  107  163  209  240  238  192  119  46  -2  -25  -16  55  210  358  345  132  -159  -395  -525  -562  -541  -493  -449  -419  -398  -392  -407  -433  -449  -428  -364  -299  -285  -332  -403  -453  -474  -482  -477  -464  -453  -442  -413  -363  -325  -312  -287  -230  -182  -183  -234  -295  -319  -309  -304  -315  -332  -351  -371  -389  -406  -415  -418  -424  -433  -441  -484  -594  -752  -909  -1030  -1089  -1060  -936  -770  -651  -614  -628  -644  -622  -540  -433  -375  -361  -255  87  686  1503  2535  3722  4904  5831  6140  5603  4394  2917  1545  543  -40  -322  -411  -402  -386  -415  -506  -635  -740  -777  -746  -678  -617  -583  -573  -579  -590  -577  -500  -345  -134  89  268  362  387  393  411  459  555  678  774  806  779  713  650  615  598  603  645  729  847  950  958  828  598  369  220  164  166  179  160  75  -90  -296  -461  -538  -547  -520  -466  -379  -251  -107  2  54  58  27  -38  -124  -190  -220  -233  -251  -273  -294  -323  -366  -406  -425  -422  -397  -338  -229  -94  0  25  28  44  65  77  79  80  86  91  72  5  -122  -282  -421  -499  -518  -516  -534  -571  -573  -504  -407  -347  -356  -444  -581  -711  -808  -885  -970  -1062  -1073  -906  -586  -139  557  1601  2838  3972  4696  4745  4109  3023  1719  447  -505  -1020  -1152  -1001  -750  -637  -737  -938  -1119  -1229  -1270  -1252  -1163  -1015  -870  -796  -833  -965  -1127  -1252  -1299  -1274  -1206  -1100  -978  -887  -838  -803  -752  -677  -591  -510  -432  -340  -230  -112  -18  29  36  31  35  54  72  66  7  -122  -287  -412  -474  -511  -565  -656  -780  -899  -965  -971  -961  -1003  -1151  -1372  -1555  -1637  -1643  -1626  -1611  -1604  -1615  -1656  -1722  -1779  -1807  -1813  -1790  -1729  -1645  -1556  -1460  -1343  -1211  -1106  -1056  -1052  -1068  -1078  -1046  -947  -811  -710  -676  -689  -723  -755  -747  -658  -501  -349  -263  -234  -220  -198  -168  -128  -81  -45  -24  3  61  127  155  156  181  235  287  301  224  32  -173  -248  -147  173  857  1935  3272  4721  6052  6830  6703  5745  4285  2663  1261  377  -12  -123  -86  -7  -7  -55  -49  9  64  85  58  -5  -79  -137  -157  -122  -28  86  163  182  167  160  204  320  469  582  640  673  684  659  606  545  492  459  450  453  461  464  449  402  331  260  201  153  121  106  97  86  72  67  75  82  73  55  33  -14  -122  -272  -412  -527  -629  -718  -781  -814  -821  -817  -814  -820  -837  -858  -868  -820  -674  -475  -328  -275  -277  -290  -317  -368  -422  -423  -347  -219  -84  16  74  120  213  396  658  925  1096  1121  1016  838  672  557  437  250  37  -111  -184  -238  -309  -375  -403  -380  -314  -230  -155  -108  -106  -150  -242  -390  -541  -539  -286  174  804  1623  2657  3932  5319  6372  6566  5771  4294  2594  1154  280  -128  -360  -571  -774  -898  -895  -830  -789  -781  -773  -752  -720  -685  -644  -589  -531  -493  -464  -416  -342  -267  -215  -196  -205  -225  -237  -235  -212  -161  -77  20  78  67  25  -2  -10  -3  23  82  170  283  436  601  686  631  467  265  77  -79  -218  -351  -484  -621  -746  -835  -896  -964  -1066  -1206  -1348  -1439  -1471  -1468  -1438  -1372  -1281  -1205  -1158  -1124  -1094  -1073  -1068  -1072  -1077  -1071  -1046  -1001  -953  -916  -891  -875  -862  -846  -813  -748  -652  -544  -435  -335  -255  -196  -149  -124  -139  -177  -197  -210  -266  -375  -495  -577  -627  -691  -771  -820  -821  -802  -792  -794  -791  -752  -657  -518  -382  -289  -233  -204  -227  -280  -223  172  1085  2470  4075  5611  6756  7122  6545  5262  3636  2018  767  31  -302  -399  -436  -551  -728  -875  -953  -979  -972  -918  -798  -649  -542  -509  -526  -552  -557  -527  -469  -403  -339  -241  -64  150  298  332  282  196  104  11  -70  -123  -146  -151  -151  -153  -156  -151  -127  -83  -35  -13  -33  -76  -113  -132  -149  -183  -228  -264  -286  -308  -353  -438  -558  -680  -763  -775  -712  -615  -522  -441  -382  -366  -381  -377  -319  -221  -127  -61  -20  3  20  39  59  74  81  91  111  139  168  217  296  375  450  575  765  955  1078  1129  1140  1123  1068  963  793  574  368  225  128  35  -72  -211  -417  -697  -971  -1138  -1181  -1159  -1120  -1084  -1062  -1053  -1038  -1013  -1019  -1102  -1232  -1274  -1055  -429  648  2027  3428  4522  4925  4413  3163  1612  184  -788  -1183  -1200  -1140  -1148  -1250  -1455  -1734  -2007  -2190  -2247  -2205  -2122  -2038  -1941  -1821  -1712  -1651  -1640  -1654  -1661  -1643  -1614  -1594  -1557  -1433  -1201  -935  -722  -555  -385  -226  -130  -95  -76  -49  -20  1  19  47  92  157  241  344  440  477  432  341  267  238  241  258  264  198  3  -290  -549  -674  -662  -551  -387  -227  -99  -11  0  -96  -268  -423  -515  -566  -622  -713  -814  -862  -822  -721  -610  -538  -512  -504  -484  -451  -412  -351  -221  0  265  486  613  653  647  637  646  686  742  786  798  766  687  579  485  433  417  415  412  404  379  335  274  215  180  176  181  160  91  10  4  157  554  1300  2396  3636  4799  5717  6129  5851  5028  3956  2839  1865  1215  867  703  687  743  753  698  631  581  538  479  408  350  317  303  305  314  322  321  314  308  301  283  250  211  178  159  147  137  132  159  247  366  422  357  224  130  123  168  214  232  205  118  -5  -111  -174  -202  -211  -212  -208  -202  -199  -221  -286  -375  -445  -488  -532  -603  -691  -782  -872  -949  -978  -946  -878  -810  -769  -756  -756  -754  -738  -713  -706  -728  -751  -740  -673  -552  -413  -309  -263  -258  -247  -180  -47  114  258  364  434  483  526  549  481  244  -132  -485  -690  -769  -801  -817  -814  -799  -798  -837  -925  -1044  -1157  -1234  -1268  -1279  -1287  -1310  -1364  -1440  -1480  -1358  -856  180  1620  3138  4430  5206  5184  4327  2903  1272  -173  -1102  -1457  -1436  -1343  -1422  -1670  -1896  -1971  -1900  -1737  -1553  -1409  -1314  -1247  -1188  -1124  -1052  -978  -901  -817  -742  -688  -661  -651  -645  -634  -627  -635  -660  -681  -673  -640  -600  -536  -416  -257  -114  -28  -23  -93  -189  -268  -329  -369  -379  -387  -437  -543  -665  -749  -784  -790  -780  -754  -716  -686  -699  -791  -958  -1131  -1239  -1266  -1218  -1094  -929  -789  -691  -619  -574  -561  -558  -532  -467  -377  -287  -216  -176  -168  -173  -176  -168  -145  -111  -69  2  121  278  433  547  604  610  580  517  381  121  -205  -447  -545  -563  -562  -561  -561  -567  -552  -437  -160  196  465  588  633  669  699  632  375  36  -97  186  982  2276  3875  5503  6861  7555  7305  6227  4643  2905  1471  635  271  83  -110  -318  -435  -398  -278  -160  -70  -6  33  49  37  -1  -45  -65  -55  -38  -32  -32  -21  12  56  85  90  85  87  95  96  83  65  67  124  263  449  594  653  647  605  542  469  395  323  257  206  178  174  183  192  192  165  109  53  22  0  -41  -119  -215  -298  -368  -437  -503  -564  -622  -666  -691  -705  -718  -731  -735  -720  -689  -663  -650  -637  -629  -669  -793  -987  -1195  -1355  -1404  -1325  -1182  -1066  -999  -957  -938  -941  -927  -901  -932  -1029  -1133  -1230  -1359  -1513  -1625  -1651  -1603  -1515  -1433  -1400  -1424  -1485  -1548  -1590  -1601  -1583  -1563  -1603  -1732  -1870  -1877  -1607  -923  168  1517  2978  4366  5304  5390  4527  2995  1335  185  -125  166  603  880  913  810  713  649  608  626  717  836  937  993  1003  983  945  901  865  838  822  845  917  994  1033  1022  975  911  850  791  723  651  592  553  527  514  510  506  490  455  404  354  303  217  77  -72  -174  -227  -267  -306  -341  -398  -520  -717  -989  -1323  -1646  -1851  -1924  -1946  -1987  -2062  -2153  -2236  -2296  -2340  -2373  -2387  -2370  -2319  -2248  -2188  -2154  -2106  -1963  -1685  -1343  -1060  -905  -850  -833  -820  -801  -772  -729  -665  -564  -427  -262  -35  305  711  1039  1203  1241  1203  1090  927  785  718  720  737  715  611  415  182  1  -87  -114  -118  -124  -140  -167  -197  -152  118  736  1709  2931  4229  5446  6362  6661  6172  4985  3366  1720  481  -173  -403  -462  -524  -635  -726  -736  -662  -494  -250  -5  183  315  406  457  476  471  435  360  293  309  397  458  416  298  204  197  277  430  609  732  752  689  590  506  456  439  453  497  558  608  630  599  489  315  151  56  24  13  -11  -53  -104  -169  -264  -377  -470  -514  -512  -486  -457  -435  -419  -396  -360  -317  -282  -262  -254  -251  -255  -270  -293  -317  -342  -379  -426  -448  -402  -282  -131  -8  60  81  78  70  65  59  48  36  31  39  40  -17  -177  -384  -541  -624  -665  -701  -758  -840  -933  -1027  -1131  -1238  -1319  -1363  -1380  -1374  -1348  -1328  -1337  -1284  -1032  -595  -45  673  1639  2789  3917  4680  4703  3886  2518  1041  -182  -962  -1301  -1352  -1274  -1181  -1176  -1287  -1425  -1500  -1522  -1549  -1605  -1668  -1711  -1729  -1713  -1634  -1483  -1316  -1198  -1132  -1072  -980  -854  -726  -620  -532  -429  -266  -59  101  150  111  39  -41  -115  -161  -171  -161  -146  -135  -127  -123  -144  -207  -300  -377  -416  -437  -465  -510  -571  -638  -716  -827  -976  -1114  -1195  -1206  -1169  -1122  -1089  -1070  -1040  -974  -853  -679  -486  -317  -193  -93  33  210  391  508  560  596  647  720  821  933  1014  1043  1034  999  943  875  811  770  764  786  809  778  669  533  444  426  451  484  509  520  515  487  441  385  326  274  239  204  125  8  -83  -92  -19  146  519  1221  2206  3319  4318  4843  4644  3772  2487  1127  29  -649  -1005  -1200  -1329  -1430  -1512  -1574  -1607  -1590  -1519  -1420  -1328  -1244  -1148  -1034  -927  -850  -799  -752  -687  -589  -470  -371  -330  -353  -424  -505  -567  -609  -648  -692  -739  -770  -775  -761  -733  -687  -638  -611  -604  -608  -611  -610  -612  -627  -664  -709  -741  -751  -752  -751  -748  -733  -706  -694  -722  -775  -833  -897  -954  -983  -994  -1000  -991  -949  -886  -833  -805  -796  -796  -799  -794  -776  -746  -701  -625  -506  -348  -168  1  140  258  367  472  577  673  738  775  802  815  808  794  764  651  391  31  -283  -456  -517  -540  -558  -599  -696  -836  -957  -1021  -1045  -1055  -1033  -920  -698  -454  -334  -368  -378  -100  651  1894  3445  4916  5955  6439  6298  5521  4349  3099  1990  1178  683  365  86  -149  -248  -204  -126  -82  -71  -85  -108  -123  -128  -128  -132  -142  -152  -135  -51  108  282  395  418  371  297  240  213  202  196  208  262  357  471  594  717  810  870  924  968  967  918  854  782  686  590  544  550  569  567  531  466  403  362  337  300  252  218  200  163  95  46  63  120  169  201  225  238  228  177  94  14  -35  -70  -113  -169  -235  -312  -377  -388  -324  -192  -12  179  340  464  591  745  903  1029  1103  1126  1122  1120  1135  1162  1189  1213  1246  1321  1469  1703  2050  2558  3212  3877  4378  4630  4648  4440  4001  3402  2736  2006  1213  453  -65  -79  558  1713  3039  4127  4568  4133  2932  1294  -383  -1711  -2489  -2792  -2820  -2770  -2765  -2824  -2910  -2977  -3008  -3015  -3000  -2935  -2794  -2591  -2382  -2218  -2116  -2062  -2024  -1975  -1911  -1838  -1761  -1702  -1666  -1617  -1504  -1324  -1145  -1028  -969  -920  -847  -750  -646  -562  -516  -501  -500  -511  -561  -677  -845  -1009  -1115  -1158  -1173  -1206  -1283  -1405  -1541  -1646  -1693  -1692  -1682  -1679  -1662  -1601  -1493  -1364  -1258  -1204  -1177  -1140  -1113  -1129  -1170  -1196  -1196  -1182  -1163  -1141  -1108  -1056  -988  -927  -878  -820  -745  -669  -602  -549  -516  -506  -512  -539  -598  -676  -730  -745  -739  -747  -801  -907  -1041  -1165  -1259  -1325  -1373  -1416  -1472  -1544  -1609  -1641  -1649  -1659  -1667  -1644  -1574  -1476  -1388  -1345  -1352  -1365  -1288  -1048  -643  -55  799  2026  3635  5393  6831  7441  6958  5524  3586  1737  496  14  64  272  358  242  -7  -254  -388  -423  -424  -432  -454  -480  -498  -500  -480  -451  -437  -433  -406  -343  -255  -149  -41  44  98  132  162  187  204  224  274  368  484  604  735  880  990  1007  923  777  617  497  443  437  455  489  523  520  441  293  136  26  -19  3  91  208  290  292  217  112  33  6  21  73  159  264  370  452  500  525  532  524  513  514  547  630  732  801  833  867  926  984  993  951  911  909  934  956  967  971  971  956  913  838  732  578  360  93  -154  -327  -429  -475  -468  -430  -396  -384  -393  -407  -405  -390  -377  -362  -272  -64  174  361  651  1364  2596  4106  5519  6365  6250  5238  3773  2284  1066  273  -160  -408  -549  -588  -557  -532  -553  -601  -648  -702  -774  -843  -873  -839  -758  -677  -635  -630  -646  -677  -728  -802  -878  -925  -940  -937  -926  -906  -870  -821  -782  -761  -739  -710  -685  -663  -641  -622  -608  -592  -575  -577  -627  -727  -834  -919  -1000  -1117  -1255  -1366  -1417  -1426  -1424  -1426  -1431  -1432  -1424  -1410  -1397  -1386  -1373  -1353  -1308  -1237  -1167  -1126  -1106  -1074  -999  -867  -702  -544  -404  -286  -201  -139  -82  -26  19  34  9  -32  -67  -96  -117  -123  -92  3  159  318  427  470  460  424  383  333  288  267  267  271  272  269  262  253  247  245  247  256  270  287  293  262  171  51  12  185  607  1223  2064  3184  4395  5367  5801  5469  4474  3220  2035  1101  479  38  -310  -465  -411  -316  -275  -252  -224  -205  -195  -187  -177  -133  -25  110  175  104  -52  -188  -247  -236  -183  -115  -61  -36  -36  -47  -56  -55  -46  -41  -60  -117  -190  -233  -218  -157  -72  18  96  159  230  311  371  393  387  358  292  172  -9  -243  -499  -723  -872  -951  -1020  -1127  -1257  -1355  -1393  -1394  -1394  -1412  -1443  -1467  -1472  -1459  -1441  -1428  -1428  -1441  -1466  -1500  -1541  -1561  -1471  -1185  -778  -444  -276  -215  -167  -78  36  124  159  153  102  1  -115  -201  -266  -374  -547  -738  -906  -1035  -1128  -1224  -1385  -1622  -1872  -2074  -2217  -2319  -2404  -2472  -2503  -2483  -2407  -2270  -2065  -1805  -1537  -1261  -813  41  1313  2760  4104  5021  5172  4502  3289  1865  525  -437  -910  -1048  -1086  -1137  -1176  -1166  -1087  -915  -688  -506  -423  -416  -449  -513  -588  -634  -633  -605  -580  -571  -570  -572  -577  -589  -596  -556  -432  -247  -74  53  142  191  219  281  411  564  674  720  725  711  687  650  608  578  574  601  649  696  694  562  265  -84  -316  -381  -354  -314  -290  -293  -334  -413  -498  -550  -562  -553  -547  -560  -606  -674  -736  -775  -791  -783  -728  -600  -434  -311  -249  -196  -112  19  206  408  548  609  634  657  685  740  840  932  918  782  607  468  380  320  256  165  65  3  25  147  319  440  430  278  65  -90  -124  -50  59  68  -73  -171  34  633  1555  2626  3696  4733  5625  6065  5779  4779  3360  1948  945  489  360  259  88  -74  -179  -265  -329  -316  -223  -109  -31  -1  -11  -68  -185  -327  -436  -484  -469  -401  -306  -219  -161  -135  -117  -66  36  163  266  320  339  356  395  461  550  656  762  828  827  750  619  494  432  434  465  494  511  505  446  313  129  -46  -176  -264  -332  -382  -418  -449  -476  -497  -507  -511  -511  -511  -507  -495  -477  -456  -435  -415  -398  -371  -314  -231  -151  -88  -30  48  154  267  360  418  438  419  359  279  217  189  174  125  19  -117  -241  -345  -439  -522  -586  -640  -700  -760  -795  -806  -816  -831  -839  -830  -822  -816  -783  -687  -556  -469  -436  -340  -12  669  1729  3060  4475  5814  6852  7230  6725  5443  3717  2080  1014  528  314  177  80  -16  -176  -402  -622  -768  -827  -830  -816  -808  -809  -809  -795  -760  -698  -619  -544  -491  -461  -448  -438  -430  -432  -446  -457  -437  -383  -328  -302  -302  -312  -323  -330  -332  -333  -334  -333  -326  -324  -355  -445  -572  -675  -726  -733  -721  -729  -774  -833  -880  -909  -932  -958  -986  -1009  -1025  -1037  -1038  -1012  -946  -851  -759  -691  -655  -642  -641  -658  -715  -822  -938  -973  -871  -678  -490  -358  -263  -177  -100  -39  14  67  118  175  234  261  219  111  -8  -101  -175  -254  -327  -369  -378  -371  -364  -369  -398  -450  -505  -537  -528  -457  -314  -157  -156  -491  -1084  -1511  -1440  -977  -356  376  1274  2380  3694  5050  6044  6277  5651  4336  2692  1206  224  -220  -310  -307  -417  -654  -895  -1044  -1119  -1183  -1252  -1291  -1278  -1237  -1205  -1184  -1150  -1075  -970  -881  -842  -843  -849  -821  -730  -591  -443  -289  -109  70  192  242  255  265  272  261  215  132  39  -19  -16  49  147  233  278  271  200  70  -74  -184  -255  -312  -355  -362  -335  -321  -397  -600  -853  -1022  -1045  -957  -835  -748  -703  -668  -633  -617  -617  -600  -553  -505  -482  -482  -487  -491  -488  -475  -457  -446  -449  -459  -466  -460  -441  -423  -430  -482  -594  -757  -941  -1124  -1292  -1429  -1538  -1629  -1707  -1770  -1811  -1819  -1788  -1728  -1666  -1628  -1619  -1630  -1656  -1689  -1716  -1735  -1747  -1723  -1610  -1393  -1117  -812  -402  267  1287  2569  3814  4609  4663  3988  2843  1544  341  -603  -1223  -1570  -1732  -1713  -1499  -1208  -1007  -929  -897  -826  -649  -314  130  519  720  756  729  701  686  681  685  701  726  750  770  789  810  831  866  943  1060  1171  1234  1248  1243  1250  1284  1336  1383  1427  1488  1558  1589  1545  1448  1356  1310  1309  1330  1346  1305  1153  915  698  571  519  505  519  564  627  679  711  734  741  713  645  563  492  413  295  151  34  -22  -29  -17  -2  2  -28  -121  -249  -342  -366  -340  -299  -271  -266  -290  -345  -422  -502  -570  -619  -654  -691  -746  -819  -889  -939  -972  -997  -995  -911  -731  -559  -545  -705  -922  -1092  -1184  -1225  -1282  -1396  -1466  -1299  -800  45  1193  2427  3455  4068  4140  3683  2862  1855  809  -85  -641  -818  -735  -565  -425  -351  -316  -260  -161  -56  14  77  185  326  427  435  358  237  98  -65  -237  -366  -435  -476  -522  -599  -699  -766  -766  -728  -691  -669  -661  -662  -677  -708  -743  -767  -773  -766  -757  -762  -807  -902  -1020  -1130  -1223  -1297  -1340  -1349  -1339  -1358  -1464  -1669  -1894  -2044  -2094  -2081  -2044  -2002  -1964  -1941  -1928  -1910  -1872  -1788  -1628  -1427  -1282  -1229  -1226  -1229  -1230  -1225  -1190  -1079  -853  -536  -213  39  200  296  370  442  507  547  559  559  560  555  517  398  178  -77  -263  -344  -365  -368  -350  -295  -184  -3  209  391  514  581  603  601  610  652  727  849  1072  1442  2029  2902  3986  5099  6111  6859  7099  6722  5820  4547  3175  2074  1416  1104  965  880  837  865  926  960  957  928  877  817  769  746  740  742  751  770  787  776  757  778  832  870  881  874  835  742  615  519  485  501  550  613  667  700  713  695  609  443  257  131  71  9  -115  -306  -506  -645  -708  -729  -748  -782  -824  -851  -858  -860  -885  -952  -1057  -1177  -1317  -1514  -1749  -1932  -2014  -2027  -2007  -1974  -1944  -1935  -1937  -1931  -1915  -1898  -1871  -1814  -1706  -1555  -1390  -1233  -1101  -1003  -921  -820  -694  -568  -435  -255  -28  170  272  291  279  266  246  202  142  89  50  19  0  -5  -5  -6  -8  -18  -55  -140  -263  -386  -476  -497  -385  -110  328  1024  2075  3435  4932  6181  6647  6093  4729  2971  1353  337  -32  -37  26  -58  -319  -569  -679  -681  -642  -603  -580  -561  -531  -484  -411  -289  -118  49  155  201  226  249  260  247  219  211  262  393  583  768  886  922  889  799  680  578  520  494  482  463  427  386  356  305  171  -36  -225  -327  -361  -375  -399  -455  -546  -649  -717  -738  -738  -742  -761  -793  -839  -891  -934  -962  -972  -967  -947  -922  -910  -926  -966  -1011  -1047  -1067  -1052  -961  -778  -576  -449  -421  -452  -498  -535  -556  -556  -530  -476  -407  -343  -289  -243  -206]
