reading_id,reading_time,wire_id,result_classification,heart_rate,heart_rate_alert,firmware_version,device_app_version,hardware_version,waveform_samples
138d7680-55ab-11ed-8080-808080808080,Thu Oct 27 03:54:37 UTC 2022,810063c81d39,NSR,93,NONE,20001.171.50,2.10.0,Charge 5,[11311  11434  11615  11898  12239  12523  12684  12765  12837  12920  13000  13070  13129  13172  13200  13201  13159  13064  12946  12866  12889  13035  13246  13418  13502  13533  13551  13525  13407  13241  13125  13068  12959  12690  12273  11837  11505  11303  11156  10966  10691  10355  10017  9722  9507  9384  9307  9220  9096  8911  8620  8236  7874  7641  7511  7349  7023  6510  5950  5513  5212  4893  4409  3769  3153  2748  2572  2472  2266  1889  1439  1055  768  522  254  -60  -358  -527  -484  -217  169  518  796  1092  1417  1670  1746  1540  928  -126  -1473  -2782  -3711  -4172  -4373  -4559  -4781  -4959  -5085  -5242  -5489  -5795  -6078  -6262  -6335  -6338  -6330  -6385  -6566  -6853  -7145  -7354  -7456  -7490  -7504  -7553  -7681  -7871  -8043  -8157  -8241  -8330  -8414  -8468  -8485  -8486  -8501  -8550  -8628  -8721  -8824  -8923  -8983  -8970  -8880  -8757  -8666  -8615  -8567  -8504  -8436  -8384  -8353  -8340  -8339  -8352  -8373  -8385  -8371  -8319  -8224  -8083  -7926  -7818  -7784  -7790  -7801  -7806  -7808  -7806  -7800  -7785  -7762  -7719  -7620  -7451  -7264  -7134  -7080  -7050  -6957  -6751  -6457  -6164  -5961  -5860  -5790  -5673  -5507  -5358  -5256  -5181  -5128  -5105  -5099  -5093  -5085  -5093  -5106  -5064  -4924  -4730  -4572  -4491  -4456  -4388  -4251  -4102  -3997  -3916  -3831  -3716  -3534  -3315  -3154  -3093  -3097  -3111  -3109  -3099  -3100  -3125  -3161  -3187  -3194  -3194  -3201  -3211  -3201  -3159  -3095  -3027  -2966  -2923  -2904  -2902  -2902  -2902  -2913  -2937  -2959  -2958  -2924  -2877  -2835  -2750  -2529  -2093  -1406  -502  553  1636  2544  3053  2985  2300  1200  65  -800  -1324  -1593  -1779  -1982  -2134  -2168  -2108  -2000  -1885  -1804  -1772  -1768  -1755  -1700  -1583  -1415  -1249  -1147  -1116  -1110  -1086  -1045  -1012  -1000  -992  -965  -873  -675  -426  -256  -205  -194  -120  57  283  445  504  507  496  494  531  633  769  865  893  890  914  1001  1134  1248  1303  1303  1261  1207  1168  1145  1126  1115  1119  1132  1116  1053  980  942  944  974  1002  1000  979  955  933  912  890  852  788  713  652  611  580  563  569  601  644  672  675  671  695  772  882  971  1002  985  961  957  960  950  928  890  815  717  643  615  612  610  605  601  598  609  677  849  1088  1295  1422  1474  1465  1425  1371  1313  1306  1389  1510  1580  1531  1336  1068  861  752  685  616  539  462  404  378  369  345  293  234  199  193  200  201  178  135  101  86  86  178  458  938  1567  2260  2972  3735  4544  5226  5453  5041  4097  2866  1673  835  368  72  -135  -244  -291  -272  -178  -76  -18  0  0  7  64  191  353  489  561  556  480  361  227  91  -6  -44  -63  -116  -187  -192  -94  40  151  257  389  551  732  880  953  966  966  972  971  943  897  853  824  800  774  749  721  662  568  476  409  354  309  289  294  304  303  286  252  214  190  183  189  209  225  223  206  187  176  173  175  180  175  144  71  -38  -162  -261  -301  -265  -162  -19  111  168  128  26  -88  -190  -254  -275  -260  -216  -156  -90  -48  -84  -182  -261  -284  -282  -290  -316  -350  -389  -440  -494  -531  -531  -454  -302  -150  -57  -19  -1  28  90  181  274  335  358  364  373  382  352  250  105  -5  -40  -33  -65  -199  -414  -613  -712  -691  -594  -480  -390  -359  -410  -520  -630  -695  -714  -695  -628  -516  -387  -197  187  875  1866  3018  4128  5036  5574  5530  4882  3827  2515  1187  277  -83  -141  -115  -89  -76  -72  -131  -291  -494  -653  -745  -797  -842  -880  -884  -857  -831  -828  -843  -857  -856  -840  -819  -804  -797  -791  -770  -717  -628  -535  -458  -369  -230  -54  95  176  209  246  295  320  285  197  101  45  38  45  53  86  148  212  253  272  282  283  245  140  -1  -115  -206  -324  -462  -562  -606  -632  -667  -707  -735  -747  -744  -724  -688  -638  -565  -450  -332  -291  -335  -396  -424  -424  -418  -419  -426  -430  -414  -366  -298  -232  -166  -86  -1  51  55  29  -2  -27  -45  -55  -64  -92  -155  -221  -241  -212  -175  -155  -146  -141  -170  -247  -295  -241  -133  -57  -36  -49  -73  -94  -104  -88  -21  96  222  312  359  390  427  472  517  566  621  663  664  580  384  128  -90  -218  -272  -297  -339  -438  -584  -713  -784  -807  -811  -814  -824  -834  -832  -818  -822  -890  -976  -898  -587  -167  337  1038  1943  2971  4029  4903  5317  5107  4302  3127  1864  760  -2  -418  -628  -721  -707  -669  -707  -782  -824  -845  -865  -872  -860  -838  -825  -826  -818  -753  -591  -365  -181  -102  -107  -137  -158  -164  -164  -163  -158  -137  -93  -36  12  49  84  118  158  224  303  353  363  355  345  340  362  433  545  650  712  729  714  672  609  537  473  428  403  392  392  401  402  365  271  155  58  -19  -74  -96  -93  -88  -91  -106  -125  -129  -114  -94  -89  -96  -93  -44  65  198  284  298  265  218  164  105  60  43  60  107  172  233  288  344  395  429  443  445  448  466  506  552  581  592  618  686  795  922  1031  1094  1124  1149  1170  1174  1164  1159  1169  1192  1241  1315  1371  1387  1384  1358  1288  1187  1083  987  902  816  701  539  362  227  154  141  180  222  213  165  115  75  43  23  51  127  181  218  352  632  1040  1613  2422  3462  4567  5457  5812  5381  4237  2815  1557  690  248  51  -154  -407  -547  -517  -436  -408  -432  -475  -512  -528  -535  -547  -569  -594  -611  -618  -621  -619  -603  -573  -547  -537  -538  -545  -555  -554  -526  -490  -469  -452  -430  -414  -401  -386  -355  -297  -222  -165  -151  -182  -244  -289  -282  -252  -243  -255  -265  -267  -267  -272  -296  -383  -551  -729  -842  -916  -987  -1055  -1112  -1140  -1133  -1116  -1111  -1114  -1117  -1117  -1112  -1103  -1096  -1101  -1104  -1090  -1064  -1047  -1053  -1068  -1063  -1014  -916  -814  -798  -901  -1054  -1161  -1192  -1179  -1170  -1171  -1161  -1135  -1088  -1033  -999  -990  -983  -977  -974  -952  -899  -833  -792  -775  -746  -692  -632  -590  -557  -496  -388  -260  -142  -43  32  78  99  105  85  14  -99  -220  -335  -440  -514  -555  -602  -688  -811  -934  -1015  -1044  -1036  -1017  -1007  -1004  -999  -1009  -1030  -1046  -1068  -1100  -1135  -1163  -1110  -866  -404  227  1002  1831  2579  3217  3711  3855  3457  2539  1291  72  -741  -1079  -1131  -1103  -1144  -1264  -1366  -1415  -1445  -1466  -1469  -1444  -1385  -1307  -1220  -1119  -1034  -999  -994  -978  -934  -868  -799  -747  -722  -717  -720  -725  -733  -741  -730  -662  -520  -327  -114  99  280  370  348  274  217  196  186  177  189  233  292  345  381  389  365  326  295  284  284  285  277  239  144  -4  -151  -249  -310  -352  -386  -425  -468  -505  -529  -517  -437  -301  -180  -121  -113  -128  -146  -167  -206  -262  -320  -365  -389  -393  -384  -375  -378  -384  -366  -322  -284  -260  -206  -113  -36  -12  -32  -64  -85  -116  -187  -259  -270  -203  -95  -12  20  33  55  86  129  189  279  400  529  634  702  735  744  745  740  717  666  592  500  392  282  197  155  147  152  163  172  150  60  -74  -175  -202  -189  -176  -174  -175  -165  -134  -79  -24  3  31  159  534  1252  2235  3268  4183  4852  5166  5104  4683  3865  2690  1449  493  -65  -286  -274  -221  -264  -341  -365  -376  -414  -443  -429  -374  -307  -240  -165  -89  -26  6  -8  -69  -150  -178  -97  58  200  276  293  295  331  419  523  587  600  591  602  657  741  823  891  945  983  1006  1016  970  814  568  341  215  182  192  207  213  197  151  88  35  5  -15  -49  -111  -187  -246  -297  -384  -507  -612  -670  -699  -710  -709  -711  -705  -669  -617  -579  -588  -664  -762  -798  -771  -739  -732  -740  -744  -719  -649  -569  -528  -533  -550  -550  -516  -450  -371  -306  -275  -279  -300  -325  -350  -355  -310  -214  -105  -31  -4  -1  5  27  60  105  160  213  252  281  329  427  563  693  777  811  816  817  826  827  780  662  468  214  -29  -173  -209  -198  -196  -233  -321  -453  -608  -742  -815  -832  -823  -815  -813  -826  -874  -962  -1020  -935  -638  -114  674  1716  2865  3990  5009  5687  5704  4989  3775  2385  1118  213  -303  -611  -838  -966  -990  -991  -1032  -1101  -1156  -1178  -1180  -1169  -1119  -1008  -873  -786  -764  -770  -760  -718  -668  -641  -649  -674  -690  -666  -585  -475  -390  -348  -323  -293  -266  -240  -178  -57  92  215  282  319  352  355  302  234  203  197  169  97  22  -13  -12  0  9  -11  -93  -242  -395  -479  -495  -481  -468  -468  -495  -548  -579  -553  -524  -564  -649  -717  -750  -751  -723  -677  -614  -548  -498  -465  -446  -443  -457  -471  -469  -441  -389  -323  -257  -210  -194  -210  -255  -303  -320  -291  -231  -169  -142  -149  -148  -146  -195  -287  -363  -364  -265  -118  -20  1  -4  21  113  254  401  531  653  765  846  890  912  920  916  892  837  756  676  603  508  383  257  161  110  101  116  133  126  58  -79  -230  -337  -408  -470  -521  -566  -632  -709  -726  -598  -313  56  489  1108  2010  3093  4178  5075  5481  5167  4275  3114  1902  871  225  -98  -295  -428  -451  -392  -369  -417  -464  -477  -467  -441  -401  -351  -308  -285  -278  -261  -214  -157  -142  -190  -253  -259  -175  -37  54  53  26  52  129  216  294  357  394  405  404  398  380  352  334  345  374  401  425  454  495  537  556  525  416  252  112  38  1  -40  -92  -138  -168  -196  -256  -372  -544  -738  -900  -997  -1037  -1055  -1082  -1111  -1109  -1053  -956  -854  -775  -736  -745  -772  -791  -807  -824  -834  -829  -815  -795  -770  -745  -717  -682  -651  -635  -632  -633  -627  -611  -602  -600  -556  -426  -259  -132  -70  -59  -86  -149  -226  -279  -280  -226  -118  26  162  247  278  280  277  283  291  267  169  0  -171  -283  -338  -372  -410  -459  -516  -569  -622  -679  -730  -755  -741  -689  -624  -580  -563  -560  -574  -622  -682  -650  -414  45  687  1478  2383  3327  4195  4772  4780  4150  3116  1945  849  77  -283  -401  -449  -484  -518  -563  -613  -650  -657  -640  -615  -590  -554  -508  -471  -445  -411  -371  -341  -325  -312  -301  -286  -247  -176  -84  6  66  83  96  158  272  373  414  412  403  399  400  410  453  542  639  698  718  712  671  593  518  480  467  446  401  322  219  119  42  -20  -84  -151  -202  -222  -235  -296  -407  -506  -574  -655  -759  -840  -870  -860  -823  -763  -695  -635  -600  -590  -587  -570  -542  -535  -569  -621  -636  -587  -510  -445  -411  -411  -431  -428  -377  -347  -419  -543  -593  -530  -421  -346  -316  -297  -262  -215  -150  -63  17  59  71  89  140  216  293  386  523  671  759  770  723  629  515  428  379  331  217  -18  -310  -511  -569  -558  -541  -530  -522  -513  -506  -498  -500  -537  -609  -684  -730  -730  -675  -519  -162  363  930  1597  2460  3425  4346  5042  5211  4721  3744  2500  1279  390  -132  -416  -527  -482  -356  -326  -441  -559  -602  -607  -605  -606  -614  -615  -575  -468  -322  -206  -163  -184  -226  -254  -264  -272  -279  -276  -248  -189  -113  -49  -12  12  62  157  292  429  490  437  337  272  276  347  449  525  554  548  530  516  498  455  379  282  196  150  135  99  -6  -157  -278  -336  -364  -404  -498  -657  -826  -934  -985  -1029  -1070  -1068  -1009  -928  -861  -821  -790  -757  -745  -774  -818  -855  -883  -885  -850  -802  -769  -751  -748  -768  -803  -836  -858  -864  -845  -791  -717  -660  -644  -665  -702  -745  -792  -811  -779  -728  -696  -660  -564  -414  -289  -237  -236  -244  -227  -164  -67  27  99  149  189  229  275  315  317  251  131  28  -10  -15  -47  -126  -212  -254  -256  -247  -264  -335  -442  -529  -558  -544  -523  -519  -517  -492  -455  -443  -479  -523  -432  -73  546  1324  2188  3129  4093  4921  5387  5294  4627  3572  2364  1226  340  -244  -574  -681  -617  -507  -452  -473  -552  -659  -744  -781  -784  -766  -708  -596  -476  -402  -357  -293  -188  -72  8  46  59  58  49  39  36  41  58  115  227  352  430  456  483  560  682  791  851  887  937  983  954  800  570  391  327  334  353  362  357  331  287  242  224  223  185  57  -133  -303  -403  -439  -438  -449  -526  -667  -801  -867  -879  -884  -899  -903  -861  -772  -676  -616  -598  -603  -609  -596  -559  -516  -491  -491  -512  -551  -606  -674  -733  -758  -745  -716  -687  -647  -587  -536  -511  -491  -467  -452  -450  -452  -455  -454  -450  -446  -459  -505  -555  -516  -354  -170  -73  -50  -28  39  153  293  427  519  559  568  569  554  488  351  190  70  -1  -76  -188  -328  -461  -552  -596  -611  -610  -593  -560  -531  -541  -617  -737  -839  -889  -894  -853  -756  -607  -373  1  532  1271  2284  3449  4494  5235  5540  5287  4514  3363  1986  661  -287  -751  -850  -766  -650  -574  -531  -524  -564  -624  -670  -688  -663  -583  -472  -387  -358  -389  -478  -584  -620  -538  -385  -255  -175  -115  -72  -62  -68  -37  56  165  230  246  243  246  270  326  404  474  526  568  596  600  572  524  497  515  543  543  525  515  514  508  486  450  407  354  292  229  164  89  16  -29  -57  -112  -219  -384  -570  -695  -703  -622  -521  -451  -418  -411  -435  -488  -559  -624  -665  -677  -677  -679  -676  -650  -586  -505  -445  -428  -443  -472  -504  -535  -558  -576  -599  -622  -632  -620  -590  -552  -503  -435  -368  -331  -327  -342  -350  -326  -256  -166  -85  -19  38  84  113  118  112  124  177  263  327  298  154  -66  -274  -398  -441  -439  -405  -330  -236  -177  -188  -256  -352  -450  -524  -550  -534  -505  -484  -471  -473  -523  -609  -591  -348  104  766  1641  2638  3655  4548  5032  4887  4162  3104  1992  1006  240  -259  -518  -593  -574  -577  -619  -651  -662  -661  -634  -581  -516  -453  -405  -390  -410  -438  -437  -383  -297  -241  -251  -290  -310  -301  -275  -226  -131  3  132  225  285  317  324  321  330  363  418  475  512  522  519  515  517  527  539  547  551  554  555  559  565  552  482  340  172  49  -9  -42  -114  -255  -426  -553  -600  -593  -579  -595  -644  -703  -746  -773  -816  -884  -954  -999  -998  -945  -870  -817  -805  -832  -893  -978  -1071  -1155  -1212  -1236  -1223  -1166  -1055  -908  -777  -706  -690  -690  -680  -667  -676  -721  -782  -826  -844  -846  -836  -803  -739  -659  -597  -570  -560  -523  -427  -270  -71  128  288  394  449  467  460  433  373  279  167  41  -101  -232  -319  -374  -433  -499  -539  -533  -503  -487  -505  -544  -582  -610  -632  -651  -666  -687  -724  -743  -637  -320  183  809  1542  2391  3331  4240  4873  5012  4629  3829  2790  1744  879  266  -96  -277  -400  -477  -438  -355  -363  -443  -499  -512  -508  -499  -474  -424  -362  -290  -196  -116  -85  -67  -23  31  70  86  89  90  97  122  183  288  395  458  480  506  555  605  642  676  714  740  750  756  771  789  796  776  713  603  490  430  412  399  390  391  397  383  321  215  92  -37  -184  -328  -426  -468  -477  -489  -533  -624  -739  -815  -814  -775  -747  -736  -730  -714  -680  -646  -627  -623  -632  -655  -683  -707  -726  -740  -756  -781  -803  -796  -739  -651  -617  -692  -834  -958  -1040  -1110  -1166  -1142  -1014  -840  -690  -607  -592  -602  -575  -481  -353  -250  -189  -149  -122  -105  -91  -75  -55  -24  34  118  165  126  47  -5  -14  4  18  -24  -157  -339  -499  -622  -727  -796  -799  -724  -601  -499  -462  -474  -493  -495  -499  -551  -627  -592  -316  197  884  1721  2650  3547  4312  4803  4823  4341  3533  2557  1543  684  104  -205  -288  -242  -209  -270  -415  -572  -679  -723  -698  -615  -522  -460  -431  -413  -374  -305  -216  -124  -45  8  44  75  107  146  188  219  235  237  218  167  100  66  104  207  331  439  515  554  566  579  622  717  866  1017  1098  1050  849  565  336  226  199  209  241  297  345  335  233  62  -125  -281  -378  -445  -533  -618  -639  -623  -638  -691  -735  -753  -760  -775  -794  -799  -780  -740  -692  -663  -678  -732  -784  -805  -799  -783  -766  -733  -688  -657  -645  -640  -632  -610  -564  -502  -452  -452  -513  -586  -617  -603  -567  -535  -523  -524  -523  -510  -502  -508  -493  -436  -361  -295  -246  -197  -103  44  204  344  442  490  499  494  493  497  490  427  277  83  -62  -132  -173  -228  -295  -347  -364  -344  -307  -287  -306  -363  -437  -502  -537  -544  -523  -455  -362  -354  -470  -474  -73  756  1845  2998  4027  4838  5406  5575  5172  4290  3172  2027  1096  522  174  -128  -398  -568  -626  -625  -618  -618  -620  -618  -602  -543  -429  -293  -192  -156  -174  -221  -278  -329  -351  -332  -296  -263  -238  -215  -197  -181  -167  -161  -164  -165  -145  -84  7  98  158  207  286  396  498  566  588  566  526  489  458  427  383  323  255  187  129  88  48  -13  -82  -127  -141  -151  -189  -261  -367  -498  -593  -595  -524  -447  -416  -446  -495  -524  -541  -564  -585  -571  -516  -467  -462  -492  -518  -523  -512  -480  -420  -359  -318  -289  -272  -280  -319  -388  -467  -521  -538  -539  -538  -531  -497  -430  -358  -321  -334  -372  -402  -417  -427  -432  -396  -275  -95  57  134  160  171  184  219  298  406  501  563  581  552  502  457  405  316  194  80  -1  -69  -171  -323  -483  -584  -605  -571  -542  -560  -599  -625  -648  -685  -724  -733  -722  -724  -746  -763  -741  -647  -456  -94  574  1619  2912  4188  5134  5434  4940  3841  2537  1357  513  70  -141  -337  -566  -757  -868  -922  -945  -945  -927  -893  -857  -831  -819  -824  -823  -783  -709  -633  -572  -527  -498  -485  -469  -413  -309  -211  -161  -137  -108  -68  -27  8  54  135  237  320  370  404  444  499  557  601  633  658  679  699  709  702  663  578  469  388  360  365  380  373  303  154  -36  -210  -319  -360  -366  -370  -388  -429  -481  -518  -534  -542  -556  -576  -594  -611  -645  -696  -736  -735  -683  -602  -532  -487  -453  -420  -388  -351  -316  -320  -395  -508  -592  -627  -636  -631  -594  -525  -483  -504  -557  -602  -628  -638  -648  -666  -674  -630  -494  -299  -132  -39  -10  -2  33  131  256  327  310  239  164  115  90  59  8  -49  -110  -198  -325  -450  -525  -555  -573  -593  -610  -641  -711  -802  -869  -895  -900  -903  -890  -823  -673  -451  -233  -84  120  632  1533  2673  3825  4667  4872  4411  3530  2456  1377  523  19  -190  -221  -191  -232  -379  -543  -634  -655  -651  -645  -630  -589  -530  -478  -447  -432  -427  -427  -428  -426  -421  -411  -392  -342  -250  -138  -45  21  73  107  124  139  163  189  215  265  347  437  528  648  772  844  862  855  825  759  669  591  540  518  527  561  601  637  653  628  556  433  264  86  -67  -174  -221  -221  -202  -191  -230  -349  -506  -597  -577  -502  -433  -381  -335  -318  -370  -506  -674  -795  -837  -805  -689  -508  -356  -318  -367  -417  -436  -460  -522  -592  -591  -502  -402  -345  -320  -314  -341  -416  -523  -623  -686  -702  -654  -510  -285  -74  41  67  53  32  10  8  70  209  365  443  396  244  39  -156  -290  -355  -387  -407  -414  -406  -391  -379  -373  -371  -382  -420  -469  -500  -509  -501  -464  -393  -313  -271  -279  -252  -71  293  825  1513  2349  3342  4352  5053  5146  4503  3275  1864  683  -22  -292  -373  -433  -538  -691  -800  -813  -770  -723  -689  -657  -624  -596  -570  -544  -525  -523  -533  -540  -540  -542  -543  -528  -476  -394  -310  -249  -219  -217  -225  -218  -166  -50  98  221  302  366  414  438  450  469  495  510  514  533  593  676  715  658  543  448  410  414  452  512  550  528  455  339  173  -17  -192  -314  -369  -375  -365  -357  -351  -341  -325  -314  -324  -360  -393  -395  -374  -350  -326  -298  -281  -292  -345  -437  -520  -561  -585  -610  -623  -623  -620  -621  -625  -622  -600  -551  -488  -434  -392  -347  -302  -272  -256  -254  -269  -310  -389  -467  -470  -364  -183  0  122  183  222  262  297  323  347  371  388  386  361  328  313  312  281  158  -68  -328  -516  -586  -570  -543  -552  -592  -642  -701  -769  -827  -844  -807  -750  -715  -712  -722  -684  -519  -178  377  1150  2055  2977  3824  4464  4703  4410  3667  2644  1493  483  -162  -462  -525  -463  -423  -479  -569  -622  -633  -617  -575  -513  -459  -447  -492  -556  -555  -459  -359  -353  -428  -505  -542  -552  -556  -546  -488  -360  -195  -64  8  51  99  178  274  349  388  407  419  424  429  453  524  635  727  762  759  750  739  712  653  572  503  464  453  446  409  323  196  53  -74  -168  -247  -343  -435  -485  -485  -453  -421  -402  -375  -329  -307  -348  -424  -484  -511  -522  -530  -532  -523  -508  -496  -491  -486  -475  -450  -408  -363  -323  -288  -280  -296  -282  -218  -158  -138  -144  -159  -176  -185  -190  -206  -239  -265  -250  -177  -33  173  378  505  553  574  588  577  541  513  523  555  543  427  234  53  -49  -86  -117  -169  -222  -247  -250  -259  -286  -318  -337  -345  -359  -400  -467  -529  -555  -533  -471  -409  -356  -244  25  544  1337  2293  3272  4197  5000  5511  5452  4674  3296  1638  191  -611  -768  -599  -416  -426  -630  -836  -919  -921  -905  -895  -895  -904  -917  -917  -893  -863  -842  -827  -809  -778  -728  -672  -623  -566  -500  -428  -336  -227  -131  -72  -52  -53  -56  -46  -15  28  73  119  173  229  263  259  221  184  196  267  358  425  472  516  536  497  406  312  258  254  278  284  199  -25  -329  -564  -645  -600  -515  -457  -441  -445  -452  -469  -509  -578  -651  -680  -641  -575  -556  -612  -690  -736  -741  -707  -632  -558  -541  -576  -608  -610  -589  -559  -538  -534  -543  -561  -587  -614  -636  -648  -653  -649  -631  -600  -561  -522  -486  -443  -380  -313  -245  -136  6  119  164  166  155  154  197  306  448  552  587  560  461  267  -14  -324  -566  -684  -703  -685  -668  -654  -637  -632  -658  -699  -729  -746  -755  -753  -734  -700  -683  -697  -672  -508  -186  299  1006  1953  3050  4133  4969  5320  5086  4336  3233  1991  823  -85  -612  -755  -667  -580  -615  -714  -787  -815  -819  -812  -784  -720  -622  -521  -447  -411  -406  -425  -456  -474  -457  -409  -343  -252  -149  -76  -52  -50  -37  10  93  177  223  233  241  279  349  425  481  515  555  613  658  651  594  547  565  617  642  636  630  627  602  532  430  338  271  214  153  85  -19  -188  -382  -510  -540  -520  -489  -440  -374  -335  -357  -425  -503  -570  -616  -643  -660  -671  -654  -584  -488  -425  -417  -439  -460  -469  -469  -458  -429  -388  -353  -341  -335  -309  -267  -262  -337  -453  -532  -551  -545  -539  -523  -478  -408  -336  -282  -250  -233  -206  -155  -72  39  144  234  334  422  462  464  468  488  487  376  85  -300  -590  -694  -679  -634  -599  -587  -593  -603  -614  -648  -730  -836  -871  -776  -624  -529  -520  -537  -475  -219  267  973  1900  2956  3956  4732  5047  4696  3775  2582  1374  386  -242  -548  -628  -576  -507  -502  -547  -593  -626  -664  -711  -736  -715  -667  -616  -560  -507  -459  -396  -322  -268  -254  -275  -311  -353  -411  -478  -517  -478  -343  -148  30  137  170  167  163  181  237  336  445  525  571  614  674  714  670  554  454  415  412  410  403  393  383  373  362  333  270  178  67  -65  -202  -312  -384  -432  -466  -490  -504  -510  -511  -510  -508  -506  -503  -499  -495  -492  -492  -511  -559  -612  -642  -650  -631  -564  -458  -368  -330  -328  -335  -353  -388  -434  -467  -477  -474  -470  -474  -493  -520  -544  -564  -584  -594  -578  -531  -439  -264  -30  153  220  215  205  219  254  294  325  344  352  345  304  218  115  24  -68  -204  -397  -586  -702  -740  -744  -746  -756  -760  -738  -690  -634  -593  -563  -526  -488  -480  -539  -653  -705  -554  -166  441  1235  2147  3109  4011  4671  4903  4582  3751  2638  1493  538  -61  -318  -420  -499  -539  -530  -515  -509  -506  -502  -495  -491  -511  -582  -692  -784  -815  -798  -766  -751  -723  -611  -436  -315  -286  -292  -290  -271  -239  -188  -116  -36  34  100  166  216  253  298  373  499  665  810  886  906  908  903  862  759  628  529  465  395  310  247  225  230  239  223  161  63  -23  -76  -108  -129  -138  -139  -140  -153  -193  -266  -382  -523  -630  -671  -667  -641  -601  -563  -532  -492  -441  -399  -383  -383  -379  -371  -374  -394  -412  -412  -397  -389  -402  -431  -457  -471  -455  -407  -389  -456  -570  -653  -678  -666  -637  -586  -496  -368  -239  -151  -101  -55  6  84  165  223  249  255  263  279  288  277  247  202  152  73  -86  -325  -570  -752  -837  -822  -738  -669  -707  -846  -981  -1019  -962  -872  -790  -706  -634  -638  -731  -787  -662  -328  160  796  1622  2623  3700  4696  5342  5335  4617  3409  2053  910  199  -116  -242  -324  -347  -319  -374  -529  -650  -686  -676  -650  -619  -593  -562  -486  -360  -233  -143  -86  -55  -52  -63  -67  -38  35  124  186  214  235  259  280  295  305  314  323  330  340  365  421  496  566  626  680  718  737  748  759  766  744  677  593  540  520  502  468  428  384  313  200  69  -40  -131  -225  -319  -383  -410  -414  -411  -408  -404  -398  -391  -388  -400  -438  -494  -537  -548  -511  -435  -364  -320  -280  -237  -214  -212  -221  -245  -324  -504  -744  -920  -944  -824  -639  -501  -466  -501  -554  -595  -618  -630  -634  -618  -576  -520  -475  -455  -445  -402  -303  -172  -57  24  79  119  157  194  230  266  302  330  333  269  132  -14  -100  -120  -115  -141  -235  -379  -520  -630  -704  -743  -761  -779  -808  -841  -867  -876  -859  -810  -740  -685  -705  -828  -926  -750  -171  738  1843  3036  4191  5142  5704  5634  4826  3529  2118  859  -33  -481  -628  -615  -500  -433  -539  -718  -818  -825  -797  -779  -782  -794  -798  -790  -775  -750  -695  -601  -516  -492  -498  -465  -392  -327  -281  -221  -134  -43  27  87  139  159  139  120  134  159  173  214  334  513  663  730  736  727  724  719  696  651  614  589  541  466  390  320  255  197  146  99  64  49  45  21  -65  -230  -415  -540  -578  -561  -521  -473  -429  -410  -436  -506  -589  -647  -660  -635  -585  -530  -495  -484  -484  -486  -492  -512  -546  -574  -570  -529  -477  -442  -433  -448  -488  -538  -582  -610  -619  -606  -581  -555  -539  -536  -533  -514  -462  -369  -237  -89  35  114  165  210  239  239  227  246  309  353  306  190  91  45  25  -7  -87  -229  -392  -503  -540  -537  -518  -472  -396  -331  -341  -438  -566  -650  -673  -670  -685  -746  -843  -898  -790  -421  242  1169  2258  3315  4177  4817  5160  5011  4265  3043  1630  403  -327  -528  -438  -344  -369  -480  -629  -758  -818  -821  -802  -772  -738  -708  -683  -664  -655  -651  -623  -525  -343  -142  -12  27  20  9  11  26  49  64  60  48  37  46  108  211  315  400  449  455  436  407  380  364  369  396  423  445  483  527  556  571  589  610  594  506  370  241  147  88  47  1  -64  -145  -234  -329  -421  -486  -516  -526  -532  -526  -503  -487  -514  -576  -633  -655  -639  -594  -535  -474  -418  -382  -369  -366  -368  -389  -450  -535  -599  -622  -623  -620  -620  -618  -607  -579  -530  -467  -406  -375  -391  -413  -392  -347  -314  -267  -171  -58  33  95  127  134  131  127  127  135  162  200  213  173  105  60  50  35  -39  -195  -386  -539  -607  -604  -586  -608  -687  -790  -862  -889  -903  -931  -962  -964  -927  -881  -855  -778  -501  51  813  1676  2584  3435  4066  4392  4376  3994  3314  2438  1460  529  -188  -613  -785  -818  -803  -769  -751  -776  -815  -836  -841  -834  -786  -663  -497  -373  -329  -332  -346  -356  -360  -351  -327  -297  -274  -266  -277  -312  -365  -404  -390  -292  -126  46  191  333  467  534  512  465  455  481  514  531  517  481  456  460  474  484  484  472  440  392  345  317  307  307  293  236  131  5  -119  -241  -361  -479  -577  -633  -651  -646  -600  -502  -404  -354  -338  -327  -317  -319  -350  -429  -549  -661  -714  -702  -656  -609  -563  -510  -470  -466  -487  -490  -447  -389  -360  -359  -369  -377  -370  -338  -281  -209  -145  -114  -123  -152  -166  -132  -45  63  164  265  368  440  465  465  463  457  426  355  250  129  10  -86  -149  -192  -233  -280  -323  -362  -403  -435  -450  -449  -434  -406  -383  -396  -456  -533  -578  -574  -573  -622  -648  -474  11  776  1739  2820  3875  4745  5241  5156  4481  3413  2169  1030  261  -107  -231  -273  -370  -557  -704  -729  -689  -634  -585  -561  -552  -546  -549  -560  -571  -569  -546  -496  -417  -320  -236  -188  -162  -131  -99  -105  -156  -192  -155  -60  41  115  150  151  138  136  180  292  441  567  638  663  663  659  658  657  645  617  578  541  517  505  492  462  393  283  172  77  -34  -165  -286  -394  -479  -530  -557  -581  -616  -659  -690  -699  -688  -663  -631  -594  -549  -508  -503  -547  -626  -721  -805  -842  -817  -735  -624  -529  -471  -439  -422  -429  -491  -617  -741  -777  -714  -623  -573  -570  -584  -592  -593  -600  -622  -646  -639  -598  -541  -483  -437  -414  -403  -380  -301  -126  108  296  376  382  365  333  273  203  158  129  48  -126  -343  -511  -595  -617  -612  -604  -611  -647  -706  -765  -811  -850  -887  -900  -865  -778  -662  -585  -615  -695  -699  -550  -123  726  1969  3397  4749  5725  6029  5574  4596  3406  2180  1094  333  -105  -341  -444  -512  -663  -856  -964  -966  -903  -797  -664  -530  -433  -402  -450  -573  -716  -787  -751  -659  -588  -555  -524  -471  -397  -310  -228  -177  -159  -149  -121  -72  -12  41  92  162  256  353  412  426  429  437  445  454  465  471  454  403  335  282  256  245  238  230  226  221  195  122  1  -133  -231  -275  -289  -291  -285  -274  -273  -323  -442  -575  -652  -669  -658  -636  -605  -571  -544  -531  -534  -561  -617  -666  -656  -590  -526  -492  -465  -434  -412  -418  -451  -485  -492  -466  -420  -380  -373  -389  -391  -375  -376  -414  -472  -526  -548  -529  -490  -452  -404  -332  -224  -87  42  126  171  224  309  391  398  332  265  251  281  317  320  250  68  -194  -418  -522  -531  -509  -495  -508  -557  -627  -690  -737  -778  -807  -807  -766  -685  -574  -494  -524  -596  -535  -239  338  1258  2480  3823  5018  5730  5725  5060  3986  2758  1586  625  -54  -461  -652  -726  -753  -720  -639  -582  -571  -577  -582  -583  -577  -559  -530  -502  -482  -464  -444  -411  -355  -298  -274  -296  -340  -351  -313  -269  -249  -226  -164  -72  8  54  89  159  289  447  572  632  639  617  586  552  523  516  537  580  623  656  678  689  688  684  687  699  707  673  553  363  177  49  -16  -48  -79  -121  -160  -183  -197  -224  -279  -358  -439  -496  -522  -530  -527  -502  -448  -384  -327  -262  -179  -111  -90  -121  -177  -206  -182  -158  -183  -225  -227  -191  -173  -185  -159  -56  62  134  158  159  153  148  147  154  171  196  225  253  293  389  546  704  800  827  817  808  815  826  828  822  814  801  768  705  617  487  270  -24  -293  -437  -485  -557  -717  -912  -1059  -1140  -1184  -1205  -1193  -1157  -1158  -1212  -1238  -1173  -1011  -706  -150  696  1707  2685  3499  4011  4085  3707  2964  2020  1084  292  -280  -634  -871  -1043  -1129  -1158  -1192  -1243  -1279  -1282  -1268  -1255  -1243  -1225  -1198  -1172  -1142  -1093  -1025  -961  -919  -907  -898  -863  -798  -725  -672  -641  -612  -564  -489  -407  -350  -318  -283  -237  -205  -194  -172  -94  25  128  187  222  246  253  238  205  167  138  102  45  -17  -60  -78  -86  -89  -81  -63  -73  -156  -315  -501  -652  -738  -755  -704  -614  -538  -512  -523  -544  -574  -617  -662  -693  -719  -766  -832  -890  -926  -945  -957  -981  -1029  -1067  -1042  -969  -915  -908  -921  -925  -906  -858  -786  -715  -679  -675  -675  -657  -609  -539  -471  -428  -402  -374  -328  -277  -234  -176  -73  52  140  177  201  247  307  356  380  373  314  189  26  -118  -221  -302  -372  -417  -431  -430  -427  -418  -396  -364  -338  -325  -330  -359  -415  -490  -567  -634  -720  -823  -817  -549  21  845  1814  2794  3673  4379  4818  4834  4368  3509  2397  1251  361  -117  -268  -267  -260  -326  -442  -541  -606  -644  -635  -550  -414  -311  -293  -351  -435  -499  -529  -534  -518  -468  -382  -280  -205  -171  -145  -92  -10  69  116  133  133  131  149  220  352  510  638  700  682  603  518  473  476  511  566  632  692  720  703  656  591  516  453  415  392  365  302  173  11  -114  -176  -189  -181  -174  -178  -196  -229  -271  -325  -408  -513  -582  -579  -534  -469  -367  -250  -197  -257  -387  -501  -559  -567  -530  -450  -358  -299  -291  -318  -357  -393  -426  -460  -475  -442  -377  -337  -358  -409  -434  -410  -352  -300  -280  -282  -294  -314  -333  -339  -307  -215  -84  31  107  153  179  201  236  280  316  321  267  176  112  74  20  -45  -95  -132  -182  -249  -307  -333  -340  -352  -389  -454  -532  -601  -661  -721  -774  -795  -762  -680  -582  -510  -482  -438  -219  330  1217  2280  3339  4323  5143  5623  5606  5042  3987  2584  1127  4  -594  -755  -670  -570  -624  -751  -757  -669  -635  -654  -635  -549  -453  -402  -386  -374  -360  -352  -354  -361  -369  -381  -393  -402  -394  -358  -286  -188  -89  -19  10  21  29  36  46  83  174  309  445  563  660  711  712  687  656  643  641  629  611  597  576  526  440  341  254  190  156  144  137  126  105  69  26  -6  -47  -125  -228  -310  -342  -341  -336  -345  -368  -384  -387  -387  -390  -391  -386  -386  -407  -454  -508  -568  -652  -745  -782  -713  -559  -393  -278  -231  -243  -292  -346  -369  -359  -343  -336  -335  -333  -334  -340  -347  -340  -304  -247  -198  -163  -117  -46  42  135  216  264  280  285  299  320  324  294  251  230  236  233  159  -19  -260  -462  -563  -584  -584  -595  -624  -658  -650  -586  -523  -509  -524  -539  -549  -571  -616  -652  -626  -513  -260  273  1196  2455  3815  4967  5645  5667  5057  4028  2773  1467  381  -282  -555  -581  -507  -478  -557  -676  -750  -777  -790  -797  -797  -787  -771  -755  -740  -726  -719  -718  -715  -709  -706  -710  -711  -689  -622  -484  -278  -68  55  75  57  55  68  76  83  108  167  257  355  425  445  441  471  530  555  533  497  463  424  389  381  410  433  382  236  50  -96  -176  -207  -212  -220  -264  -347  -429  -481  -506  -517  -517  -493  -430  -332  -240  -201  -232  -303  -371  -422  -457  -478  -484  -481  -476  -475  -486  -516  -556  -591  -623  -657  -675  -661  -615  -543  -478  -451  -449  -437  -401  -362  -347  -357  -373  -378  -373  -370  -363  -339  -289  -216  -121  1  138  248  300  310  307  310  313  294  222  83  -107  -296  -416  -450  -445  -451  -490  -544  -585  -602  -615  -639  -668  -690  -716  -749  -782  -808  -822  -826  -805  -681  -381  151  967  1978  2976  3836  4491  4843  4806  4323  3386  2171  1049  293  -97  -270  -379  -494  -582  -613  -619  -640  -680  -711  -713  -693  -668  -640  -596  -537  -477  -422  -374  -323  -271  -243  -253  -287  -315  -319  -300  -249  -154  -42  39  68  65  71  117  205  305  396  480  561  634  687  697  653  570  486  427  399  388  388  388  368  308  230  177  155  135  103  58  -9  -87  -154  -215  -278  -337  -396  -463  -527  -567  -582  -582  -577  -578  -595  -635  -684  -717  -724  -717  -714  -707  -651  -516  -363  -316  -413  -536  -583  -580  -574  -564  -544  -524  -505  -490  -476  -470  -475  -481  -483  -490  -503  -494  -435  -337  -240  -150  -48  48  106  124  120  118  136  178  231  254  198  88  -8  -78  -130  -162  -192  -245  -322  -388  -419  -426  -443  -486  -549  -606  -635  -634  -615  -595  -599  -661  -780  -832  -672  -331  152  846  1711  2620  3484  4200  4652  4748  4422  3666  2582  1414  460  -134  -408  -481  -498  -516  -501  -473  -474  -486  -480  -458  -451  -471  -486  -469  -441  -440  -470  -500  -504  -504  -523  -537  -493  -370  -214  -100  -58  -59  -68  -61  -11  97  233  328  366  376  395  443  506  551  567  569  575  582  582  571  559  564  591  614  605  568  506  410  304  233  195  150  81  12  -54  -144  -273  -407  -504  -562  -606  -634  -622  -555  -460  -390  -365  -368  -384  -407  -434  -474  -535  -587  -596  -565  -514  -465  -442  -437  -426  -406  -386  -370  -359  -365  -399  -456  -505  -526  -529  -529  -520  -486  -419  -332  -255  -203  -147  -49  77  181  241  273  295  311  324  332  331  327  321  303  256  174  69  -36  -128  -206  -284  -374  -468  -508  -467  -412  -421  -485  -547  -580  -604  -648  -709  -748  -741  -729  -748  -711  -508  -132  431  1222  2260  3482  4695  5629  5963  5500  4429  3146  1950  1051  513  135  -295  -700  -894  -882  -797  -711  -636  -586  -572  -593  -633  -670  -680  -663  -628  -570  -497  -440  -421  -427  -434  -418  -369  -303  -245  -196  -141  -78  -18  25  61  103  145  173  174  155  153  197  263  326  394  456  491  503  483  406  297  243  286  372  435  463  471  451  362  189  -2  -128  -173  -175  -175  -217  -313  -407  -450  -472  -529  -623  -694  -701  -652  -597  -575  -581  -592  -591  -574  -543  -506  -473  -454  -448  -448  -451  -458  -471  -484  -492  -494  -495  -496  -497  -498  -498  -494  -486  -474  -458  -446  -443  -448  -456  -459  -430  -347  -231  -143  -104  -70  -2  83  147  169  164  165  201  277  362  401  350  210  28  -133  -227  -263  -280  -309  -369  -476  -610  -720  -788  -823  -832  -810  -755  -689  -649  -635  -600  -508  -431  -495  -636  -580  -140  685  1846  3204  4466  5357  5751  5594  4899  3838  2628  1419  395  -271  -607  -777  -914  -1011  -987  -868  -765  -708  -689  -703  -734  -757  -768  -770  -770  -772  -775  -771  -741  -673  -580  -487  -412  -361  -336  -329  -330  -336  -308  -183  15  171  218  201  180  169  163  165  191  236  270  281  291  339  423  481  488  489  510  535  540  486  351  185  64  9  -4  -4  -8  -26  -66  -128  -210  -315  -421  -491  -518  -522  -527  -529  -496  -398  -264  -167  -148  -188  -249  -297  -315  -311  -301  -295  -310  -349  -388  -409  -431  -485  -560  -625  -662  -682  -707  -753  -805  -842  -845  -791  -691  -583  -495  -438  -413  -397  -358  -276  -151  -17  83  141  183  237  309  390  458  486  465  411  345  273  200  151  132  114  57  -52  -189  -308  -377  -407  -423  -430  -428  -430  -439  -456  -504  -572  -631  -682  -748  -837  -900  -873  -773  -634  -414  -26  612  1534  2674  3869  4883  5456  5415  4788  3774  2570  1362  399  -157  -352  -346  -293  -305  -434  -608  -714  -737  -726  -716  -718  -736  -767  -799  -810  -767  -661  -536  -441  -376  -317  -247  -176  -130  -123  -127  -102  -35  45  100  133  166  205  243  283  315  336  376  464  581  667  693  687  686  710  744  740  684  636  653  707  731  697  637  597  585  577  539  451  312  136  -53  -229  -373  -464  -503  -508  -488  -458  -438  -432  -432  -446  -487  -543  -585  -598  -596  -599  -619  -638  -626  -578  -523  -467  -408  -388  -442  -530  -590  -611  -614  -617  -616  -582  -488  -364  -270  -226  -213  -212  -216  -220  -219  -198  -140  -38  79  165  209  237  257  263  256  250  263  299  332  328  286  224  142  46  -35  -89  -134  -187  -224  -225  -224  -281  -404  -540  -620  -627  -599  -570  -542  -522  -527  -561  -621  -690  -689  -526  -177  381  1213  2297  3475  4511  5106  5028  4293  3157  1945  900  168  -234  -413  -471  -472  -482  -533  -592  -618  -616  -606  -599  -596  -597  -598  -601  -600  -598  -606  -623  -633  -630  -619  -593  -554  -512  -475  -429  -364  -297  -232  -146  -42  50  110  132  128  117  123  169  254  348  417  455  468  469  481  480  415  312  251  245  250  242  220  205  204  208  213  220  190  71  -137  -376  -564  -654  -666  -650  -646  -673  -746  -871  -1009  -1078  -1030  -889  -714  -578  -534  -563  -603  -625  -630  -623  -604  -573  -542  -525  -534  -577  -643  -710  -763  -798  -797  -736  -625  -511  -440  -411  -398  -386  -378  -374  -364  -345  -313  -258  -182  -97  -11  69  151  246  344  413  445  448  419  355  274  208  158  89  -14  -131  -247  -375  -504  -595  -629  -626  -618  -636  -689  -761  -834  -897  -934  -934  -878  -737  -548  -420  -340  -133  319  1020  1915  2926  3947  4807  5273  5148  4413  3272  2038  970  170  -378  -685  -778  -776  -775  -775  -742  -674  -613  -593  -604  -614  -609  -583  -533  -465  -391  -333  -319  -335  -345  -346  -345  -335  -316  -280  -211  -109  -5  78  131  152  148  140  156  219  314  390  415  411  412  438  482  518  542  573  617  669  734  792  816  800  738  609  428  263  173  154  172  207  242  236  142  -44  -257  -400  -430  -380  -296  -222  -190  -184  -180  -183  -234  -353  -466  -454  -318  -186  -149  -198  -280  -352  -407  -456  -496  -514  -508  -475  -428  -421  -493  -591  -635  -597  -513  -463  -486  -540  -572  -581  -584  -576  -523  -407  -261  -130  -20  73  147  214  285  351  407  441  433  394  340  261  159  63  -19  -110  -229  -353  -428  -443  -426  -404  -390  -398  -446  -536  -622  -662  -670  -671  -661  -625  -583  -567  -543  -428  -164  257  824  1562  2538  3742  4966  5871  6135  5612  4422  2883  1374  226  -428  -672  -689  -671  -679  -660  -636  -671  -742  -802  -838  -848  -821  -757  -683  -631  -613  -616  -633  -663  -689  -684  -649  -610  -584  -574  -575  -577  -549  -446  -257  -64  47  83  96  106  114  120  129  161  243  354  440  472  467  449  421  371  293  208  162  190  285  378  392  320  206  79  -44  -139  -193  -218  -232  -250  -285  -348  -431  -501  -521  -499  -466  -457  -505  -625  -775  -881  -906  -856  -750  -621  -510  -448  -441  -477  -536  -583  -588  -561  -536  -528  -530  -536  -538  -529  -497  -446  -399  -377  -374  -375  -370  -363  -363  -359  -324  -252  -153  -31  98  200  263  309  373  457  527  564  586  606  609  566  457  298  151  59  8  -71  -236  -457  -630  -688  -636  -524  -437  -437  -499  -561  -586  -581  -578  -594  -614  -612  -566  -430  -94  524  1389  2405  3506  4620  5557  5983  5639  4552  3011  1438  264  -309  -437  -396  -364  -425  -573  -718  -796  -807  -770  -725  -702  -701  -707  -710  -701  -673  -624  -557  -485  -430  -402  -391  -387  -382  -373  -345  -284  -218  -196  -220  -248  -239  -183  -85  28  128  195  234  283  366  449  491  499  501  505  497  453  377  335  380  463  503  496  480  459  408  332  264  222  172  78  -39  -121  -141  -127  -130  -195  -312  -395  -402  -392  -407  -427  -435  -435  -424  -393  -340  -288  -263  -267  -286  -299  -298  -292  -283  -267  -241  -212  -212  -251  -275  -253  -221  -206  -187  -151  -117  -99  -92  -78  -48  -13  16  49  104  175  233  272  306  333  343  338  328  307  270  217  143  37  -92  -218  -321  -386  -421  -452  -487  -518  -544  -565  -584  -603  -630  -670  -698  -685  -644  -607  -591  -555  -415  -80  495  1308  2269  3205  3939  4352  4406  4081  3350  2316  1259  435  -121  -486  -694  -766  -769  -758  -754  -757  -768  -796  -843  -886  -904  -898  -888  -886  -906  -945  -975  -979  -968  -961  -958  -954  -934  -871  -755  -623  -539  -515  -490  -402  -246]
