reading_id,reading_time,wire_id,result_classification,heart_rate,heart_rate_alert,firmware_version,device_app_version,hardware_version,waveform_samples
78c81600-5bf4-11ed-8080-808080808080,Fri Nov 04 03:55:07 UTC 2022,810063c81d39,NSR,91,NONE,20001.171.50,2.10.0,Charge 5,[-1061  -1284  -1543  -1750  -1804  -1706  -1495  -1164  -692  -139  356  744  1149  1733  2487  3227  3799  4227  4660  5178  5745  6366  7165  8269  9669  11249  12906  14512  15854  16651  16712  16084  14930  13511  12240  11449  11176  11277  11549  11778  11890  11981  12083  12130  12117  12064  11970  11853  11730  11601  11468  11352  11271  11222  11175  11099  10977  10823  10659  10508  10386  10285  10203  10145  10104  10063  10012  9933  9801  9622  9408  9152  8879  8663  8534  8438  8278  7990  7610  7256  7009  6820  6583  6258  5889  5544  5270  5042  4799  4533  4263  3997  3769  3620  3509  3288  2837  2252  1757  1410  1089  744  437  208  44  -73  -160  -247  -398  -657  -960  -1190  -1322  -1430  -1557  -1691  -1837  -2035  -2260  -2434  -2534  -2623  -2774  -3014  -3315  -3635  -3950  -4235  -4474  -4669  -4792  -4802  -4728  -4653  -4626  -4625  -4602  -4551  -4524  -4562  -4610  -4600  -4532  -4462  -4426  -4424  -4436  -4438  -4405  -4333  -4264  -4242  -4280  -4369  -4477  -4589  -4724  -4867  -4963  -4973  -4900  -4773  -4654  -4586  -4567  -4570  -4585  -4620  -4664  -4615  -4326  -3798  -3188  -2600  -1990  -1213  -128  1243  2725  4008  4616  4168  2786  977  -765  -2021  -2497  -2330  -1947  -1647  -1501  -1451  -1439  -1463  -1503  -1520  -1502  -1466  -1430  -1380  -1268  -1067  -808  -552  -343  -178  -27  114  229  361  579  874  1178  1438  1617  1700  1711  1700  1703  1735  1782  1819  1838  1848  1855  1854  1845  1828  1803  1744  1619  1442  1275  1163  1109  1094  1093  1074  1016  927  819  669  462  227  0  -210  -412  -601  -772  -930  -1088  -1251  -1391  -1471  -1492  -1483  -1468  -1454  -1459  -1517  -1652  -1829  -1986  -2095  -2167  -2237  -2315  -2384  -2440  -2488  -2524  -2539  -2529  -2491  -2441  -2419  -2450  -2513  -2559  -2565  -2547  -2524  -2490  -2435  -2365  -2292  -2197  -2050  -1867  -1709  -1597  -1501  -1402  -1322  -1296  -1343  -1455  -1597  -1725  -1833  -1936  -2036  -2118  -2161  -2172  -2193  -2262  -2355  -2394  -2327  -2181  -2018  -1867  -1743  -1672  -1672  -1751  -1840  -1748  -1276  -413  683  1832  2870  3669  4174  4343  3991  2960  1466  -48  -1214  -1706  -1469  -921  -521  -364  -326  -312  -298  -296  -322  -365  -397  -408  -405  -397  -392  -408  -461  -543  -626  -672  -642  -513  -321  -141  -17  49  64  38  12  33  111  231  361  459  502  506  498  487  474  459  456  486  554  632  693  740  805  884  943  964  968  976  971  905  732  477  237  88  14  -33  -80  -134  -197  -244  -269  -299  -357  -437  -508  -553  -575  -590  -592  -544  -406  -202  -30  51  61  27  -43  -131  -187  -192  -162  -127  -112  -157  -293  -481  -623  -668  -621  -505  -361  -253  -204  -196  -202  -207  -202  -183  -150  -103  -41  22  75  96  8  -236  -554  -799  -921  -952  -927  -873  -830  -849  -922  -985  -981  -900  -785  -694  -648  -648  -719  -874  -1025  -1011  -718  -121  756  1823  2936  3936  4614  4775  4339  3379  2166  978  -72  -816  -1064  -898  -577  -280  -85  -27  -58  -103  -136  -167  -200  -228  -237  -227  -186  -84  59  169  200  178  155  178  255  344  396  409  424  478  581  707  821  911  973  994  963  900  855  867  922  967  985  1025  1109  1185  1213  1204  1191  1189  1185  1168  1141  1102  1033  922  779  626  478  346  256  224  227  191  37  -224  -473  -607  -634  -622  -609  -587  -533  -451  -378  -345  -348  -357  -324  -215  -60  68  132  147  126  81  25  -21  -48  -42  -3  49  86  85  43  -14  -57  -75  -78  -64  -12  82  197  300  371  399  382  340  302  275  243  192  122  38  -67  -189  -296  -356  -374  -381  -406  -449  -493  -515  -506  -467  -412  -355  -323  -361  -495  -641  -559  -44  842  1877  2891  3791  4503  4920  4782  3892  2454  916  -355  -1053  -1074  -743  -485  -403  -396  -414  -441  -460  -473  -488  -504  -512  -495  -451  -416  -416  -429  -430  -424  -421  -420  -402  -342  -242  -126  -24  39  58  27  -42  -114  -158  -168  -122  -12  115  201  236  253  265  245  176  81  7  -25  -35  -50  -78  -112  -151  -201  -259  -317  -371  -417  -450  -476  -512  -555  -603  -683  -823  -1004  -1183  -1334  -1443  -1503  -1522  -1520  -1499  -1448  -1375  -1311  -1289  -1349  -1511  -1692  -1756  -1674  -1541  -1449  -1417  -1414  -1419  -1443  -1509  -1599  -1669  -1697  -1690  -1658  -1613  -1566  -1512  -1445  -1382  -1362  -1392  -1422  -1415  -1377  -1310  -1187  -1033  -920  -875  -872  -897  -982  -1154  -1374  -1554  -1639  -1647  -1634  -1638  -1677  -1753  -1841  -1901  -1910  -1882  -1841  -1807  -1789  -1784  -1797  -1840  -1909  -1978  -1999  -1919  -1689  -1235  -509  429  1452  2442  3339  3977  4006  3268  1985  473  -899  -1699  -1818  -1534  -1108  -726  -604  -779  -1021  -1118  -1060  -944  -855  -811  -791  -789  -807  -836  -842  -755  -519  -200  47  164  213  245  263  266  276  331  461  651  821  908  922  906  895  905  946  1006  1070  1140  1211  1261  1281  1294  1317  1350  1382  1394  1374  1332  1292  1263  1243  1223  1204  1189  1140  992  747  508  376  349  371  410  449  470  447  374  300  299  374  458  502  512  515  531  559  593  635  683  722  750  773  793  812  831  844  851  860  885  928  970  988  983  974  973  977  988  1034  1147  1303  1429  1492  1513  1510  1500  1529  1621  1736  1814  1842  1845  1826  1735  1532  1269  1061  960  927  908  875  813  718  615  544  524  545  589  639  684  724  763  798  801  765  797  1065  1645  2507  3585  4737  5794  6610  6953  6564  5428  3818  2101  705  -7  -40  269  548  573  356  70  -148  -276  -337  -350  -336  -318  -328  -381  -444  -477  -470  -434  -376  -285  -162  -44  17  16  -31  -95  -142  -156  -135  -81  -8  60  126  189  238  282  343  410  477  553  618  635  600  542  494  461  412  336  269  248  256  237  148  10  -118  -213  -302  -418  -548  -643  -679  -676  -671  -695  -761  -838  -866  -833  -777  -730  -713  -729  -756  -775  -783  -788  -800  -838  -902  -973  -1025  -1040  -982  -822  -607  -454  -441  -563  -746  -899  -978  -1000  -997  -996  -1015  -1060  -1128  -1193  -1218  -1192  -1133  -1062  -1002  -972  -966  -960  -943  -926  -926  -954  -993  -1007  -967  -881  -768  -642  -528  -476  -541  -734  -1004  -1243  -1373  -1400  -1381  -1360  -1360  -1406  -1509  -1633  -1714  -1719  -1659  -1571  -1507  -1510  -1603  -1773  -1962  -2057  -1928  -1552  -993  -234  802  2069  3373  4533  5335  5486  4850  3600  2030  482  -629  -1109  -1144  -1039  -992  -1031  -1062  -1055  -1058  -1076  -1088  -1090  -1091  -1094  -1098  -1091  -1064  -1001  -879  -717  -571  -467  -394  -344  -316  -293  -260  -208  -140  -77  -37  2  84  188  243  231  197  186  210  261  321  371  397  398  390  389  396  403  406  409  412  409  382  317  205  54  -116  -284  -416  -499  -552  -598  -641  -679  -709  -717  -693  -639  -567  -499  -460  -450  -453  -457  -459  -460  -461  -456  -438  -403  -363  -333  -313  -284  -254  -251  -282  -305  -286  -243  -208  -187  -181  -195  -224  -255  -279  -291  -296  -296  -277  -220  -140  -96  -135  -228  -320  -389  -429  -446  -434  -369  -241  -89  34  133  227  318  404  490  569  641  703  723  670  552  409  287  207  157  113  49  -31  -93  -101  -73  -52  -70  -140  -234  -303  -325  -320  -308  -299  -310  -356  -415  -393  -147  400  1242  2331  3542  4713  5744  6482  6621  5938  4571  2894  1319  273  -78  -7  146  211  151  24  -96  -180  -222  -226  -214  -205  -205  -207  -194  -145  -63  19  80  122  155  180  197  214  231  243  261  302  367  441  504  545  567  588  615  639  666  709  770  833  880  901  894  867  828  794  767  737  704  665  611  549  487  412  313  218  160  116  34  -91  -218  -319  -406  -479  -526  -565  -637  -754  -872  -942  -960  -955  -938  -902  -853  -810  -787  -780  -780  -782  -782  -783  -785  -789  -797  -807  -812  -785  -698  -573  -481  -473  -563  -717  -861  -935  -940  -905  -862  -834  -826  -831  -843  -855  -849  -811  -742  -662  -587  -532  -513  -537  -589  -643  -671  -666  -635  -595  -564  -534  -472  -371  -266  -197  -173  -162  -132  -84  -47  -46  -93  -186  -308  -432  -557  -708  -867  -978  -1025  -1050  -1092  -1166  -1265  -1358  -1402  -1383  -1319  -1223  -1103  -1027  -1058  -1091  -934  -493  297  1468  2809  4000  4897  5447  5499  4940  3887  2525  1028  -245  -934  -1060  -876  -602  -418  -410  -523  -666  -798  -899  -965  -996  -992  -973  -958  -943  -903  -810  -675  -557  -491  -464  -455  -451  -430  -369  -273  -178  -108  -77  -91  -144  -195  -190  -108  24  162  264  316  334  337  341  344  336  325  320  319  308  279  235  194  169  156  137  93  25  -50  -118  -175  -231  -295  -378  -475  -567  -645  -706  -741  -750  -724  -641  -491  -320  -218  -234  -330  -433  -519  -603  -665  -673  -640  -600  -567  -540  -517  -494  -461  -413  -366  -347  -378  -455  -530  -567  -582  -606  -651  -716  -781  -817  -809  -758  -688  -636  -620  -631  -662  -698  -712  -684  -623  -570  -559  -586  -623  -653  -669  -655  -588  -472  -340  -221  -122  -46  14  74  141  199  229  221  179  120  60  -17  -140  -300  -453  -547  -575  -571  -557  -540  -520  -505  -494  -483  -462  -417  -355  -325  -403  -606  -806  -802  -466  224  1196  2280  3332  4264  4939  5204  4963  4181  2972  1578  279  -648  -1024  -881  -442  -33  95  -27  -187  -255  -252  -231  -212  -174  -101  -18  59  149  231  276  298  320  341  357  365  371  389  425  465  492  512  558  663  803  904  937  930  919  922  947  985  1020  1057  1117  1197  1251  1226  1105  942  824  780  786  840  951  1096  1208  1236  1147  921  600  303  121  43  4  -29  -45  -34  -3  37  80  96  58  -13  -72  -99  -100  -72  -1  93  164  191  189  169  123  49  -39  -114  -148  -153  -159  -176  -196  -215  -235  -259  -296  -342  -386  -428  -477  -520  -540  -537  -513  -472  -411  -343  -293  -275  -285  -321  -383  -464  -538  -572  -547  -490  -445  -430  -415  -364  -286  -220  -190  -180  -157  -94  -8  41  11  -105  -285  -487  -646  -729  -744  -727  -712  -724  -764  -817  -868  -905  -919  -899  -855  -804  -759  -742  -807  -985  -1167  -1141  -770  -71  859  1928  2990  3849  4387  4468  3913  2762  1335  11  -915  -1280  -1183  -943  -803  -795  -842  -876  -881  -875  -869  -866  -864  -849  -804  -718  -601  -479  -381  -322  -295  -298  -339  -418  -503  -545  -523  -449  -337  -192  -49  41  75  85  100  133  180  223  250  263  272  284  306  344  393  439  478  509  518  495  433  345  269  230  218  214  213  194  102  -92  -324  -478  -527  -525  -510  -490  -481  -502  -543  -578  -596  -601  -594  -556  -477  -380  -309  -293  -326  -372  -404  -430  -451  -457  -434  -377  -308  -259  -237  -228  -222  -218  -223  -250  -303  -365  -404  -403  -381  -364  -358  -363  -384  -416  -430  -405  -369  -353  -355  -346  -298  -208  -96  15  105  158  185  208  237  266  291  312  324  326  325  326  323  306  272  234  199  139  34  -86  -204  -318  -404  -435  -423  -407  -405  -402  -388  -391  -440  -519  -585  -617  -606  -530  -367  -122  178  587  1244  2191  3257  4217  4896  5111  4753  3897  2690  1296  15  -775  -930  -642  -258  -64  -90  -179  -258  -327  -355  -310  -201  -87  -11  39  71  83  88  83  65  44  39  56  83  103  114  128  151  186  241  320  404  470  527  605  696  758  770  749  718  697  692  699  712  727  733  709  631  517  421  369  341  323  314  306  274  186  42  -130  -317  -531  -738  -869  -898  -864  -816  -785  -775  -775  -777  -777  -773  -766  -768  -807  -895  -998  -1045  -989  -845  -687  -585  -551  -559  -584  -610  -630  -642  -648  -646  -632  -611  -604  -602  -582  -552  -536  -534  -545  -556  -538  -470  -381  -328  -333  -369  -406  -441  -514  -671  -872  -1001  -982  -826  -634  -514  -485  -485  -454  -360  -233  -129  -72  -58  -68  -73  -68  -63  -46  -12  30  82  127  131  78  -18  -125  -215  -296  -420  -618  -823  -921  -876  -757  -655  -598  -566  -549  -559  -600  -651  -682  -692  -711  -737  -676  -375  239  1152  2273  3378  4245  4790  4925  4540  3646  2385  989  -243  -1018  -1237  -1076  -819  -645  -572  -549  -536  -521  -502  -481  -478  -503  -527  -514  -464  -401  -334  -270  -226  -207  -195  -164  -89  25  141  224  266  286  313  355  399  435  470  523  594  654  684  709  757  813  822  776  742  773  831  834  752  632  551  527  524  524  532  549  552  504  383  216  55  -87  -224  -340  -409  -432  -433  -437  -462  -518  -591  -642  -634  -568  -479  -412  -378  -354  -336  -346  -415  -542  -673  -737  -711  -634  -551  -480  -426  -397  -385  -364  -320  -259  -196  -152  -129  -125  -137  -170  -212  -240  -251  -262  -294  -345  -393  -418  -430  -451  -498  -560  -605  -617  -603  -565  -509  -445  -379  -316  -271  -251  -255  -268  -272  -262  -241  -206  -155  -81  23  137  212  219  158  55  -59  -173  -294  -422  -540  -629  -677  -691  -690  -687  -685  -684  -683  -678  -670  -672  -714  -818  -964  -1066  -1049  -869  -437  311  1300  2410  3521  4496  5276  5706  5442  4388  2880  1355  219  -261  -267  -216  -254  -302  -336  -366  -384  -387  -378  -368  -368  -371  -349  -275  -171  -115  -155  -241  -292  -275  -211  -156  -143  -144  -94  45  209  290  291  299  346  407  454  485  517  548  569  581  589  596  600  584  534  464  416  413  454  524  595  630  621  592  561  522  464  375  225  -12  -283  -478  -565  -592  -595  -571  -528  -498  -494  -496  -488  -469  -432  -375  -317  -305  -366  -458  -517  -528  -517  -508  -509  -514  -497  -427  -321  -251  -264  -328  -395  -447  -478  -491  -484  -459  -423  -386  -361  -353  -374  -430  -502  -553  -570  -573  -582  -593  -597  -601  -615  -634  -648  -660  -673  -680  -666  -618  -542  -432  -285  -142  -47  -3  5  -1  3  49  127  190  217  232  255  268  218  59  -171  -380  -509  -558  -553  -532  -526  -542  -573  -606  -633  -655  -670  -679  -704  -795  -946  -1018  -891  -616  -252  267  1056  2185  3603  5031  6099  6504  6040  4798  3177  1593  401  -185  -296  -238  -181  -193  -312  -478  -587  -601  -545  -464  -413  -420  -459  -490  -480  -419  -345  -307  -306  -299  -256  -192  -140  -108  -70  14  161  325  425  438  402  362  336  323  317  315  327  368  429  481  505  515  533  570  616  623  553  434  340  316  341  373  396  405  373  256  65  -118  -225  -266  -286  -313  -350  -399  -466  -541  -590  -593  -554  -501  -463  -443  -431  -426  -449  -510  -560  -530  -419  -317  -298  -365  -468  -543  -571  -576  -571  -551  -518  -487  -474  -483  -504  -528  -550  -568  -577  -577  -572  -568  -580  -623  -695  -771  -831  -864  -862  -827  -770  -716  -672  -622  -562  -518  -519  -569  -642  -698  -705  -648  -534  -412  -336  -316  -320  -326  -317  -269  -163  -8  143  235  236  156  38  -82  -245  -516  -849  -1101  -1198  -1162  -1041  -895  -794  -756  -746  -735  -719  -691  -640  -578  -541  -571  -679  -789  -714  -270  565  1685  2965  4213  5171  5649  5549  4866  3765  2521  1359  427  -209  -563  -654  -549  -412  -379  -435  -490  -505  -492  -467  -430  -381  -338  -316  -303  -275  -224  -167  -126  -105  -101  -96  -64  6  104  206  288  336  366  416  494  585  690  797  867  866  794  692  621  619  682  771  834  853  843  819  786  748  728  729  708  630  514  397  293  212  169  163  162  120  5  -144  -249  -290  -316  -372  -448  -507  -535  -543  -543  -545  -547  -538  -512  -470  -410  -318  -207  -125  -91  -83  -79  -75  -79  -90  -116  -165  -225  -280  -343  -405  -439  -434  -387  -312  -235  -180  -162  -178  -211  -247  -288  -342  -409  -479  -534  -570  -602  -637  -664  -662  -634  -594  -546  -480  -387  -280  -183  -113  -71  -53  -50  -52  -54  -56  -62  -70  -82  -103  -140  -192  -252  -320  -400  -495  -585  -649  -692  -742  -812  -887  -964  -1039  -1095  -1128  -1152  -1173  -1194  -1233  -1296  -1313  -1131  -623  193  1212  2306  3335  4160  4676  4746  4200  3096  1787  602  -261  -680  -752  -737  -749  -756  -734  -700  -673  -658  -648  -646  -658  -671  -648  -557  -429  -334  -297  -274  -225  -157  -110  -97  -103  -100  -68  -7  62  125  178  230  276  314  356  404  449  488  513  520  515  506  493  475  452  426  414  429  460  479  472  443  415  406  411  418  420  414  389  317  173  -17  -184  -289  -352  -403  -441  -459  -461  -458  -456  -455  -455  -457  -456  -448  -430  -411  -397  -385  -381  -393  -406  -402  -364  -290  -202  -142  -125  -132  -137  -130  -108  -82  -78  -107  -154  -191  -213  -230  -245  -250  -237  -210  -199  -241  -331  -411  -430  -401  -368  -345  -310  -257  -204  -173  -168  -176  -177  -150  -83  29  160  256  298  312  321  314  267  182  79  -38  -181  -349  -533  -674  -691  -596  -497  -474  -528  -621  -708  -769  -802  -803  -745  -608  -463  -487  -707  -802  -458  315  1373  2523  3519  4243  4677  4698  4138  3030  1652  365  -514  -815  -658  -369  -204  -223  -330  -415  -452  -455  -428  -379  -334  -320  -336  -352  -336  -288  -226  -167  -114  -64  -23  0  7  6  3  2  2  14  77  227  427  571  610  574  520  485  481  503  540  582  624  661  684  692  689  673  645  614  594  592  601  603  565  469  342  231  146  69  4  -46  -106  -199  -317  -428  -513  -571  -601  -607  -601  -597  -605  -630  -664  -680  -665  -620  -564  -515  -478  -449  -430  -419  -411  -406  -411  -430  -456  -477  -485  -485  -483  -483  -486  -488  -489  -494  -506  -520  -524  -507  -459  -389  -328  -338  -459  -637  -770  -815  -813  -801  -780  -718  -594  -444  -332  -273  -236  -203  -178  -161  -150  -151  -162  -180  -199  -215  -223  -245  -318  -460  -635  -769  -820  -830  -856  -895  -904  -852  -744  -625  -540  -499  -497  -560  -709  -867  -899  -738  -350  334  1319  2481  3654  4630  5150  5000  4172  2920  1558  345  -478  -807  -793  -672  -562  -511  -555  -635  -642  -562  -468  -411  -391  -382  -373  -371  -381  -390  -380  -349  -315  -278  -223  -165  -116  -49  50  152  225  274  322  367  402  437  469  503  559  634  699  731  736  728  719  710  706  731  805  911  992  1006  942  815  671  557  482  424  359  262  124  -17  -116  -163  -195  -247  -323  -420  -519  -597  -636  -642  -637  -636  -640  -642  -642  -641  -642  -643  -636  -616  -590  -570  -563  -563  -564  -569  -573  -551  -472  -333  -173  -41  14  -28  -148  -296  -420  -491  -516  -515  -488  -429  -357  -302  -277  -276  -287  -297  -293  -273  -237  -187  -134  -93  -73  -70  -80  -98  -108  -60  87  295  446  464  355  190  51  -34  -110  -209  -310  -384  -433  -470  -497  -522  -565  -632  -708  -755  -750  -719  -697  -688  -679  -682  -732  -842  -890  -654  -20  935  2056  3119  3936  4506  4834  4730  4071  2967  1621  324  -578  -938  -861  -596  -409  -404  -492  -557  -581  -590  -596  -600  -598  -586  -565  -537  -500  -436  -337  -232  -185  -227  -313  -356  -290  -122  60  176  213  207  193  191  232  339  480  584  620  616  601  585  573  569  572  577  583  588  578  534  468  421  416  433  436  401  321  202  57  -80  -186  -255  -286  -286  -278  -294  -359  -463  -559  -613  -617  -591  -566  -557  -558  -558  -550  -538  -520  -489  -441  -385  -335  -307  -305  -324  -353  -374  -381  -380  -383  -400  -420  -410  -372  -356  -357  -333  -293  -272  -270  -272  -277  -301  -353  -415  -461  -487  -502  -511  -515  -516  -503  -437  -279  -69  84  135  126  101  84  100  179  288  336  278  159  47  -24  -85  -196  -355  -501  -595  -652  -705  -761  -797  -800  -790  -785  -791  -805  -823  -834  -836  -846  -917  -1074  -1181  -993  -409  467  1532  2742  3972  5055  5819  5973  5294  3945  2327  838  -110  -336  -163  -37  -96  -250  -396  -499  -573  -631  -669  -680  -665  -624  -568  -514  -451  -362  -261  -190  -165  -168  -177  -187  -198  -208  -207  -185  -150  -116  -79  -27  43  125  208  266  286  281  275  298  372  465  504  438  307  204  173  176  177  171  162  140  86  4  -82  -146  -173  -166  -148  -158  -226  -340  -449  -520  -569  -622  -671  -693  -674  -631  -591  -566  -549  -528  -502  -481  -473  -473  -477  -479  -467  -426  -368  -322  -308  -317  -331  -349  -373  -398  -415  -421  -420  -416  -410  -405  -402  -399  -385  -351  -303  -267  -254  -259  -290  -364  -461  -531  -537  -485  -411  -354  -320  -293  -249  -174  -88  -32  -22  -37  -34  40  207  394  479  407  236  57  -88  -193  -251  -278  -301  -340  -415  -513  -598  -650  -670  -660  -641  -638  -646  -652  -648  -637  -629  -595  -451  -158  224  676  1316  2267  3505  4894  6163  6843  6553  5364  3664  1902  528  -184  -342  -235  -72  -19  -145  -324  -418  -432  -423  -428  -450  -473  -493  -523  -561  -590  -600  -580  -521  -407  -224  -11  148  213  200  137  53  -13  -43  -46  -42  -24  40  175  347  488  564  585  565  513  443  381  325  261  203  169  155  155  174  197  199  167  111  58  25  9  -19  -99  -229  -377  -526  -661  -756  -816  -871  -934  -980  -1000  -1006  -1010  -1008  -990  -943  -875  -815  -786  -783  -789  -796  -795  -776  -732  -678  -631  -594  -566  -569  -621  -695  -742  -746  -731  -721  -720  -724  -731  -736  -732  -721  -714  -720  -733  -742  -744  -743  -747  -755  -762  -747  -699  -630  -553  -455  -339  -246  -210  -221  -250  -254  -193  -73  63  177  239  211  52  -210  -463  -621  -700  -747  -767  -755  -729  -728  -755  -771  -766  -756  -749  -750  -761  -786  -841  -948  -1102  -1194  -1002  -363  685  1935  3144  4153  4905  5394  5503  4984  3782  2166  526  -684  -1131  -937  -548  -265  -123  -76  -78  -75  -50  -33  -45  -81  -109  -103  -62  -6  46  86  111  131  160  207  267  332  392  440  465  475  495  551  630  692  718  726  738  769  818  852  833  785  772  817  885  939  970  984  997  1009  1010  968  854  692  560  506  507  521  513  459  351  217  107  29  -43  -111  -152  -163  -164  -164  -159  -150  -147  -158  -177  -196  -209  -210  -195  -154  -90  -32  11  58  104  125  121  105  70  7  -79  -175  -264  -336  -388  -413  -418  -415  -408  -398  -387  -378  -368  -348  -320  -300  -292  -286  -279  -289  -351  -477  -613  -681  -667  -618  -569  -515  -453  -376  -255  -101  19  63  46  6  -30  -69  -126  -207  -326  -513  -761  -1010  -1215  -1342  -1355  -1285  -1226  -1223  -1243  -1255  -1256  -1264  -1295  -1351  -1428  -1529  -1615  -1570  -1280  -723  56  1028  2133  3225  4160  4761  4731  3945  2651  1198  -136  -1071  -1432  -1339  -1083  -871  -785  -814  -868  -876  -849  -822  -798  -768  -725  -683  -678  -717  -733  -651  -493  -341  -246  -205  -199  -210  -219  -220  -213  -192  -144  -73  11  103  187  249  290  315  332  375  486  643  757  756  632  454  325  308  407  576  732  810  805  749  683  632  592  543  461  326  150  -7  -103  -145  -169  -193  -226  -266  -292  -283  -237  -188  -183  -227  -275  -280  -223  -138  -72  -43  -37  -37  -45  -74  -131  -194  -225  -212  -183  -171  -176  -182  -182  -179  -180  -196  -227  -248  -237  -219  -233  -280  -318  -305  -259  -243  -285  -345  -384  -403  -413  -412  -382  -302  -177  -29  114  218  268  293  330  385  430  427  374  284  144  -37  -216  -369  -498  -598  -645  -613  -523  -433  -378  -362  -400  -512  -662  -773  -813  -807  -778  -717  -634  -576  -504  -235  395  1387  2576  3720  4649  5223  5195  4435  3150  1701  427  -344  -511  -346  -193  -171  -262  -398  -500  -528  -491  -421  -355  -311  -290  -285  -289  -292  -297  -313  -339  -348  -319  -267  -221  -181  -116  -26  56  109  145  205  327  483  605  673  721  780  850  915  953  964  950  908  840  771  744  790  882  956  980  973  963  957  943  904  832  714  542  347  187  74  -38  -183  -331  -412  -403  -346  -302  -289  -297  -312  -332  -357  -376  -386  -391  -401  -425  -468  -512  -550  -616  -727  -823  -838  -770  -665  -586  -552  -537  -519  -496  -471  -445  -434  -480  -612  -793  -934  -980  -914  -730  -489  -324  -333  -524  -795  -986  -1001  -853  -635  -457  -350  -273  -197  -140  -123  -139  -159  -163  -147  -122  -100  -86  -94  -161  -303  -474  -604  -680  -736  -794  -857  -907  -924  -902  -857  -812  -786  -777  -774  -778  -807  -871  -944  -971  -945  -927  -946  -855  -466  234  1153  2203  3255  4179  4886  5176  4797  3776  2387  920  -277  -892  -931  -659  -341  -175  -243  -447  -632  -730  -740  -673  -548  -420  -341  -308  -285  -248  -211  -200  -208  -205  -169  -83  56  197  261  233  163  107  82  77  106  197  341  490  609  695  753  790  816  831  824  800  768  725  680  654  647  647  645  639  629  613  597  592  596  573  473  278  45  -133  -215  -229  -225  -225  -228  -237  -266  -331  -420  -502  -556  -572  -552  -542  -581  -646  -678  -651  -606  -589  -579  -529  -440  -375  -396  -500  -612  -666  -664  -644  -638  -640  -624  -588  -552  -524  -505  -489  -472  -458  -447  -438  -428  -415  -401  -388  -375  -351  -313  -270  -241  -255  -321  -392  -397  -319  -210  -135  -114  -123  -133  -124  -86  -27  27  61  81  91  68  -6  -111  -206  -286  -380  -488  -571  -610  -631  -675  -773  -908  -1012  -1029  -951  -832  -745  -713  -715  -736  -781  -814  -721  -416  80  746  1614  2667  3783  4830  5663  6013  5615  4480  2878  1209  -72  -704  -789  -640  -535  -573  -654  -676  -644  -613  -619  -661  -712  -752  -772  -773  -781  -816  -872  -931  -982  -1020  -1040  -1032  -979  -858  -665  -432  -227  -105  -75  -101  -142  -175  -196  -206  -183  -97  34  154  216  216  176  122  85  103  198  344  468  517  499  450  403  371  350  314  236  113  -24  -161  -288  -393  -463  -501  -514  -511  -501  -495  -496  -504  -518  -534  -528  -485  -418  -364  -340  -345  -391  -481  -568  -581  -516  -416  -299  -182  -120  -157  -280  -430  -546  -603  -618  -623  -628  -627  -621  -617  -608  -573  -498  -394  -294  -234  -223  -246  -282  -314  -326  -299  -218  -111  -35  -37  -117  -235  -322  -334  -253  -99  60  155  179  169  153  142  148  194  289  399  475  503  503  481  436  372  292  163  -30  -238  -400  -500  -543  -536  -500  -459  -435  -428  -424  -411  -392  -376  -360  -343  -373  -532  -778  -792  -274  696  1862  3090  4308  5422  6291  6658  6273  5185  3683  2084  745  -72  -383  -343  -128  58  88  -20  -167  -278  -336  -350  -323  -268  -211  -171  -151  -142  -137  -132  -130  -131  -131  -115  -69  -5  41  52  26  -14  -20  57  202  339  416  438  449  482  531  568  580  578  576  584  602  629  660  680  688  698  691  638  558  486  416  346  296  279  287  317  363  392  327  103  -215  -473  -593  -623  -616  -589  -552  -523  -512  -513  -516  -517  -518  -517  -515  -512  -499  -454  -372  -293  -261  -260  -260  -293  -382  -494  -599  -700  -793  -853  -858  -821  -779  -760  -763  -784  -818  -856  -884  -895  -888  -860  -813  -765  -744  -764  -810  -854  -882  -895  -893  -861  -782  -677  -605  -614  -712  -854  -953  -938  -798  -598  -443  -366  -321  -255  -166  -91  -58  -72  -135  -230  -312  -349  -348  -343  -381  -509  -697  -855  -927  -941  -943  -947  -950  -951  -951  -945  -924  -889  -853  -839  -860  -905  -880  -613  -9  838  1814  2914  4067  5029  5551  5419  4508  3045  1521  295  -456  -719  -727  -732  -763  -743  -651  -533  -440  -385  -355  -335  -324  -316  -305  -289  -273  -264  -259  -251  -230  -173  -62  62  128  127  107  91  81  77  97  164  262  352  418  465  482  468  449  446  463  503  576  671  754  799  811  791  730  628  510  410  355  342  342  332  301  246  151  17  -129  -273  -400  -483  -519  -532  -529  -503  -464  -429  -406  -392  -380  -371  -367  -365  -363  -365  -390  -448  -511  -530  -474  -368  -272  -223  -222  -269  -357  -457  -524  -545  -532  -497  -452  -418  -412  -444  -511  -586  -634  -649  -644  -628  -600  -564  -526  -499  -507  -569  -667  -755  -802  -794  -728  -625  -527  -459  -422  -406  -401  -394  -372  -323  -253  -170  -77  12  72  83  50  -16  -102  -209  -354  -519  -647  -719  -757  -778  -782  -767  -728  -677  -635  -616  -613  -610  -602  -606  -657  -759  -801  -614  -93  788  1967  3223  4277  4949  5116  4676  3718  2528  1340  316  -336  -565  -532  -361  -143  -30  -68  -151  -195  -200  -188  -172  -155  -137  -112  -69  -10  51  98  109  80  40  20  24  46  75  116  185  292  419  539  642  731  801  847  875  891  884  837  754  670  614  588  597  679  857  1070  1216  1256  1210  1094  923  749  641  608  596  556  479  381  257  97  -72  -205  -293  -354  -405  -442  -453  -451  -452  -442  -413  -394  -416  -473  -511  -520  -560  -629  -623  -514  -398  -367  -415  -467  -469  -442  -425  -421  -420  -419  -430  -470  -530  -578  -595  -593  -588  -589  -600  -617  -628  -629  -626  -626  -625  -618  -596  -564  -538  -528  -528  -522  -507  -488  -461  -411  -332  -238  -159  -106  -63  -12  45  97  123  111  60  -16  -94  -160  -234  -337  -468  -623  -787  -910  -942  -902  -845  -804  -777  -750  -729  -720  -702  -646  -559  -492  -460  -389  -158  314  1085  2132  3203  4021  4563  4806  4535  3647  2288  724  -636  -1350  -1310  -837  -347  -80  -69  -208  -401  -623  -798  -797  -632  -454  -344  -275  -224  -206  -233  -278  -305  -295  -241  -159  -81  -31  -12  -14  -16  4  43  78  118  212  389  595  741  802  816  821  836  873  922  957  976  998  1032  1067  1091  1109  1130  1149  1153  1148  1138  1107  1027  892  738  598  466  314  148  -1  -140  -289  -435  -531  -540  -462  -344  -248  -193  -166  -148  -127  -106  -100  -131  -213  -337  -454  -519  -526  -493  -440  -381  -333  -310  -316  -337  -357  -366  -354  -308  -237  -175  -147  -141  -129  -123  -169  -275  -389  -464  -495  -508  -528  -549  -547  -505  -428  -346  -276  -217  -167  -122  -73  -16  25  40  61  117  183  238  286  331  372  396  368  246  24  -234  -449  -581  -639  -652  -636  -594  -536  -477  -426  -383  -358  -363  -406  -479  -559  -622  -655  -649  -553  -281  201  879  1716  2639  3529  4298  4856  5019  4586  3575  2251  912  -163  -711  -740  -548  -351  -195  -145  -243  -385  -439  -397  -325  -276  -250  -212  -149  -81  -38  -34  -60  -99  -144  -187  -215  -223  -216  -188  -116  18  180  299  347  354  359  389  442  495  530  549  556  554  543  528  513  508  532  604  706  779  768  662  506  378  311  282  251  197  127  67  20  -44  -182  -402  -629  -768  -807  -798  -781  -772  -782  -827  -905  -983  -1027  -1029  -999  -939  -866  -805  -771  -759  -754  -742  -720  -692  -661  -649  -691  -804  -945  -1041  -1069  -1060  -1045  -1021  -982  -928  -874  -839  -823  -811  -807  -818  -844  -880  -914  -932  -925  -892  -840  -786  -750  -729  -718  -707  -656  -519  -333  -196  -148  -148  -146  -126  -94  -58  -27  -11  -17  -38  -78  -145  -224  -283  -314  -336  -369  -419  -472  -514  -552  -607  -685  -768  -838  -881  -884  -850  -810  -821  -921  -1015  -903  -449  335  1334  2408  3454  4431  5246  5635  5312  4262  2761  1208  -7  -610  -629  -389  -230  -264  -410  -561  -667  -724  -736  -713  -666  -600  -522  -454  -419  -413  -417  -422  -425  -419  -392  -330  -228  -107  -9  36  42  34  24  14  8  18  67  153  239  289  299  290  273  256  258  299  372  435  448  406  332  257  204  175  162  157  154  146  123  59  -50  -179  -303  -428  -547  -630  -661  -658  -646  -638  -652  -694  -745  -795  -849  -885  -867  -799  -724  -693  -719  -760  -763  -711  -635  -581  -565  -566  -566  -568  -593  -653  -711  -704  -635  -567  -541  -546  -555  -548  -512  -453  -399  -386  -438  -546  -658  -730  -750  -709  -598  -447  -322  -255  -233  -235  -249  -258  -242  -191  -116  -42  20  76  132  192  244  271  272  258  213  97  -89  -273  -386  -431  -445  -464  -504  -554  -592  -616  -647  -710  -793  -861  -902  -926  -941  -943  -950  -997  -1060  -975  -559  229  1326  2615  3862  4879  5687  6235  6240  5532  4240  2632  1086  21  -442  -520  -425  -301  -269  -350  -470  -574  -655  -701  -670  -539  -355  -208  -134  -96  -61  -45  -99  -211  -289  -281  -226  -159  -88  -14  78  205  343  438  471  477  492  518  540  552  577  637  702  733  734  729  739  774  829  880  906  889  833  774  728  685  635  588  544  481  390  287  195  118  45  -36  -115  -164  -179  -187  -210  -224  -164  -24  112  180  179  118  8  -122  -240  -323  -381  -423  -418  -333  -206  -111  -80  -84  -87  -82  -84  -117  -175  -220  -236  -239  -254  -299  -366  -413  -392  -316  -247  -218  -219  -234  -261  -293  -312  -318  -328  -362  -415  -452  -442  -375  -278  -192  -125  -61  14  121  243  333  368  372  361  322  239  135  54  3  -37  -87  -181  -346  -552  -717  -793  -806  -811  -827  -840  -845  -845  -846  -851  -853  -836  -819  -852  -891  -722  -180  664  1697  2855  4039  5154  6090  6494  5983  4627  2843  1069  -217  -699  -553  -207  16  -18  -275  -587  -801  -874  -832  -705  -513  -307  -166  -135  -214  -383  -575  -697  -691  -552  -335  -147  -50  -24  -28  -37  -42  -32  3  56  93  96  82  70  66  68  70  70  76  92  112  123  126  145  205  293  366  398  377  292  163  44  -33  -83  -128  -174  -214  -261  -334  -419  -481  -515  -557  -631  -702  -735  -750  -770  -773  -756  -739  -733  -727  -703  -657  -604  -562  -536  -523  -508  -482  -451  -426  -417  -431  -456  -458  -427  -386  -352  -325  -307  -295  -292  -309  -356  -418  -464  -480  -478  -470  -455  -429  -394  -374  -395  -450  -501  -525  -531  -520  -465  -343  -183  -56  0  5  -9  -28  -46  -51  -41  -24  -12  -7  -21  -82  -215  -388  -522  -588  -615  -627  -640  -666  -704  -740  -777  -834  -906  -962  -991  -1008  -1009  -956  -822  -658  -533  -406  -143  396  1343  2655  4029  5128  5684  5456  4440  2944  1359  67  -646  -768  -556  -324  -255  -318  -385  -400  -389  -376  -363  -356  -377  -426  -471  -472  -412  -316  -232  -182  -135  -51  60  154  203  221  230  244  275  333  413  490  537  540  514  490  478  476  488  525  621  760  854  867  846  829  834  865  902  914  867  739  553  387  297  271  264  238  163  35  -111  -256  -408  -556  -648  -665  -642  -624  -624  -622  -604  -576  -545  -512  -487  -479  -493  -536  -594  -641  -668  -682  -690  -701  -724  -764  -809  -841  -852  -853  -852  -839  -800  -745  -696  -660  -629  -605  -597  -620  -689  -782  -850  -866  -845  -812  -779  -741  -692  -637  -577  -523  -499  -496  -491  -489  -501  -505  -477  -428  -380  -326  -223  -58  112  219  239  178  39  -170  -404  -582  -661  -667  -647  -629  -609  -579  -541  -515  -516  -544  -587  -619  -631  -640  -665  -700  -678  -519  -241  86  545  1335  2454  3675  4754  5405  5308  4400  3000  1535  343  -303  -365  -141  26  18  -100  -217  -269  -260  -217  -166  -130  -119  -132  -165  -201  -200  -139  -47  10  10  -13  -16  28  138  297  450  556  617  652  671  680  681  676  672  679  695  712  725  733  745  782  842  881  854  778  710  677  667  663  649  607  535  452  390  361  340  283  180  51  -85  -226  -356  -450  -497  -515  -532  -571  -643  -733  -803  -834  -839  -826  -785  -713  -633  -578  -561  -581  -632  -698  -742  -737  -693  -651  -646  -648  -617  -570  -569  -638  -746  -842  -886  -863  -802  -727  -647  -571  -513  -495  -532  -597  -647  -656  -622  -556  -464  -341  -200  -80  -7  11  -11  -47  -65  -45  18  114  218  302  338  306  210  75  -57  -152  -209  -255  -312  -387  -471  -535  -555  -541  -519  -503  -498  -505  -521  -542  -563  -582  -606  -660  -747  -774  -564  3  910  2006  3078  3958  4611  5038  5115  4638  3565  2104  591  -566  -1040  -867  -391  46  250  206  46  -106  -209  -254  -261  -276  -334  -422  -489  -504  -464  -385  -306  -260  -249  -252  -250  -234  -201  -139  -48  60  176  281  348  372  383  402  429  440  424  397  380  379  395  425  467  522  586  638  661  659  643  614  571  514  450  400  377  354  283  148  -11  -142  -223  -255  -260  -271  -334  -464  -586  -613  -570  -530  -518  -520  -528  -543  -560  -573  -578  -574  -564  -552  -545  -547  -554  -553  -544  -538  -534  -530  -531  -536  -528  -497  -443  -379  -331  -320  -352  -425  -530  -648  -752  -803  -786  -735  -695  -682  -688  -700  -698  -657  -560  -428  -304  -214  -151  -106  -82  -75  -71  -55  -31  -16  -4  34  84  74  -31  -206  -397  -544  -595  -549  -459  -388  -358  -360  -389  -450  -529  -592  -622  -628  -638  -679  -758  -862  -948  -904  -645  -180  507  1460  2555  3593  4488  5161  5368  4890  3791  2298  720  -506  -1067  -1020  -650  -233  45  54  -206  -532  -689  -616  -398  -168  -25  21  22  8  -40  -146  -270  -330  -315  -275  -243  -212  -156  -79  -14  21  45  74  125  214  324  411  454  468  492  569  691  797  849  859  856  841  798  713  599  489  420  400  414  442  473  502  509  452  315  141  0  -87  -163  -305  -534  -772  -916  -949  -912  -831  -715  -594  -505  -463  -467  -518  -613  -716  -784  -808  -797  -746  -646  -526  -430  -377  -357  -357  -370  -386  -404  -434  -503  -632  -795  -931  -996  -980  -895  -784  -706  -684  -696  -715  -729  -741  -759  -779  -775  -734  -689  -682  -708  -720  -664  -530  -352  -195  -120  -135  -191  -230  -219  -139  6  174  299  339  253  12  -301  -525  -594  -568  -517  -468  -434  -424  -436  -474  -538  -600  -638  -659  -670  -667  -655  -640  -644  -712  -835  -872  -680  -240  481  1523  2751  3945  4963  5630  5633  4827  3508  2065  747  -124  -375  -289  -216  -245  -343  -447  -507  -521  -515  -500  -466  -391  -268  -120  14  105  144  148  138  122  102  84  94  164  299  446  539  563  547  533  570  686  845  963  1009  1006  967  880  776  731  792  909  990  998  961  923  909  920  930  915  883  861  864  873  847  734  542  352  241  195  152  62  -68  -194  -275  -316  -334  -338  -332  -320  -308  -300  -294  -291  -289  -286  -291  -318  -374  -448  -523  -579  -615  -633  -615  -557  -490  -467  -524  -651  -789  -883  -909  -838  -633  -345  -113  -20  -46  -155  -327  -500  -554  -418  -175  21  116  142  94  -96  -440  -808  -1037  -1086  -1008  -855  -669  -500  -386  -324  -292  -280  -295  -350  -448  -560  -634  -632  -555  -442  -360  -369  -474  -619  -731  -793  -828  -850  -860  -857  -846  -841  -859  -917  -996  -1058  -1087  -1062  -934  -695  -462  -364  -336  -153  364  1277  2542  3975  5269  6155  6419  5880  4645  3158  1782  705  71  -190  -313  -399  -431  -415  -386  -367  -359  -354  -346  -337  -345  -397  -511  -669  -830  -976  -1114  -1236  -1304  -1272  -1119  -888  -676  -541  -490  -518  -609  -705  -729  -675  -593  -516  -447  -381  -295  -181  -54  61  147  198  230  254  276  297  318  343  381  434  490  515  486  407  300  208  145  89  32  -20  -87  -168  -239  -287  -305  -299  -283  -278  -294  -336  -402  -486  -563  -579  -493  -338  -212  -182  -224  -277  -314  -348  -391  -446  -526  -633  -737  -800  -816  -802  -767  -721  -680  -656  -643  -615  -553  -478  -424  -386  -326  -235  -142  -63  0  1  -190  -669  -1283  -1730  -1881  -1826  -1686  -1520  -1332  -1118  -912  -768  -690  -622  -501  -301  -62  145  283  366  449  560  670  738  759  752  725  666  570  456  363  312  300  305  312  318  324  327  333  349  378  407  423  418  390  341  297  334  560  1068  1946  3214  4690  6070  7110  7623  7475  6699  5491  4069  2644  1529  960  843  900  976  1048  1110  1150  1168  1128  937  562  144  -122  -196  -166  -108  -51  -19  -27  -72  -119  -127  -90  -23  70  186  312  451  607  763  895  982  1025  1053  1091  1133  1162  1177  1193  1214  1232  1245  1253  1238  1167  1011  762  419  8  -386  -689  -884  -1012  -1154  -1390  -1713  -2035  -2284  -2472  -2646  -2804  -2910  -2956  -2972  -2995  -3100  -3370  -3773  -4148  -4348  -4339  -4140  -3806  -3456  -3194  -3021  -2862  -2665  -2433  -2216  -2075  -2001  -1925  -1809  -1682  -1577  -1489  -1400  -1312  -1247  -1218  -1219  -1236  -1260  -1305  -1389  -1505  -1618  -1683  -1675  -1582  -1420  -1241  -1092  -979  -894  -836  -801  -786  -803  -848  -898  -927  -908  -848  -794  -755  -679  -519  -306  -126  -25  11  33  90  195  311  394  438  462  482  476  380  150  -163  -432  -567  -564  -453  -279  -117  -30  -30  -102  -219  -341  -443  -520  -577  -607  -605  -569  -502  -377  -152  217  803  1698  2911  4248  5430  6232  6416  5807  4554  3019  1488  265  -345  -379  -175  -6  41  -16  -124  -220  -263  -252  -219  -193  -174  -145  -98  -45  6  47  68  71  76  102  148  192  215  222  233  274  364  476  573  663  770  888  982  1030  1037  1029  1028  1048  1092  1157  1229  1282  1289  1233  1132  1035  979  968  988  1037  1094  1117  1067  957  843  773  752  760  765  701  496  184  -91  -232  -268  -268  -255  -204  -96  42  162  255  329  364  342  283  253  284  321  302  246  216  221  193  63  -133  -285  -327  -278  -193  -118  -67  -35  -19  -31  -91  -191  -294  -372  -420  -433  -418  -409  -424  -449  -464  -478  -505  -540  -567  -579  -575  -551  -496  -395  -253  -104  6  57  50  21  2  2  12  25  44  64  52  -41  -219  -406  -519  -553  -558  -576  -606  -627  -634  -651  -702  -776  -833  -844  -811  -747  -687  -669  -722  -794  -731  -420  120  894  1933  3107  4180  4964  5268  4880  3775  2247  762  -343  -927  -956  -649  -387  -281  -230  -218  -262  -342  -435  -524  -599  -658  -693  -699  -681  -629  -521  -375  -248  -181  -165  -178  -194  -178  -96  50  205  307  344  346  338  342  369  416  461  493  517  546  580  622  675  725  758  775  775  746  689  624  579  560  548  530  516  514  526  541  527  434  233  -44  -322  -532  -665  -754  -813  -825  -781  -713  -666  -649  -639  -611  -568  -527  -492  -454  -424  -425  -462  -521  -570  -569  -520  -462  -428  -417  -425  -450  -485  -509  -500  -445  -360  -283  -238  -221  -226  -248  -280  -306  -313  -309  -305  -320  -366  -432  -488  -519  -525  -507  -472  -417  -316  -161  3  109  140  138  151  196  266  354  454  531  527  448  351  266  185  113  63  33  0  -53  -130  -211  -268  -285  -260  -208  -160  -141  -150  -174  -195  -211  -232  -256  -211  10  462  1120  1960  2964  4035  5001  5693  5902  5405  4260  2825  1442  378  -140  -128  114  301  349  320  286  270  282  352  492  634  672  599  504  451  441  458  506  606  749  893  998  1055  1080  1094  1115  1153  1216  1317  1453  1590  1693  1767  1835  1897  1935  1943  1940  1944  1965  1991  2004  1984  1925  1848  1795  1785  1795  1795  1769  1718  1664  1628  1604  1558  1483  1409  1355  1294  1180  986  750  551  423  335  258  199  187  228  294  345  367  366  337  269  188  146  156  204  274  332  341  298  216  118  42  -2  -29  -52  -73  -88  -97  -123  -196  -306  -398  -444  -472  -526  -616  -716  -790  -822  -798  -712  -594  -510  -514  -619  -776  -908  -981  -1025  -1069  -1105  -1109  -1080  -1040  -1003  -968  -937  -917  -922  -973  -1081  -1230  -1398  -1578  -1773  -1959  -2113  -2261  -2442  -2634  -2788  -2891  -2954  -2999  -3059  -3153  -3268  -3382  -3475  -3529  -3546  -3551  -3554  -3529  -3438  -3271  -3010  -2563  -1848  -970  -222  168  232  151  61  0]
