reading_id,reading_time,wire_id,result_classification,heart_rate,heart_rate_alert,firmware_version,device_app_version,hardware_version,waveform_samples
e621e950-534e-11ed-8080-808080808080,Mon Oct 24 03:49:45 UTC 2022,810063c81d39,NSR,94,NONE,20001.171.50,2.10.0,Charge 5,[-2180  -2188  -2190  -2173  -2130  -2120  -2300  -2797  -3467  -3970  -4086  -3760  -2999  -1899  -600  834  2377  3884  5108  5887  6250  6360  6344  6144  5605  4753  3872  3225  2793  2410  2034  1758  1628  1592  1580  1567  1568  1606  1697  1863  2105  2355  2507  2496  2324  2066  1841  1701  1618  1567  1558  1631  1838  2165  2509  2791  3032  3249  3391  3433  3396  3305  3176  3045  2968  2983  3056  3113  3120  3079  2947  2658  2275  1986  1929  2136  2564  3061  3437  3617  3664  3671  3674  3642  3526  3308  3019  2731  2521  2406  2331  2235  2119  2041  2034  2065  2101  2159  2264  2408  2580  2782  2965  3029  2964  2935  3094  3384  3621  3716  3710  3671  3628  3606  3653  3808  4047  4292  4486  4621  4710  4775  4810  4750  4564  4347  4244  4303  4451  4583  4662  4705  4734  4755  4767  4768  4772  4800  4852  4910  4960  4993  5013  5018  4973  4821  4551  4249  4040  3960  3918  3793  3547  3228  2912  2667  2502  2386  2292  2199  2053  1785  1438  1169  1061  1055  1070  1077  1089  1127  1201  1322  1518  1787  2067  2282  2396  2396  2247  1903  1357  691  74  -364  -624  -788  -911  -982  -986  -955  -950  -992  -1049  -1090  -1101  -1099  -1143  -1298  -1545  -1778  -1917  -1968  -1977  -1994  -2069  -2215  -2373  -2469  -2476  -2412  -2319  -2244  -2209  -2205  -2217  -2234  -2253  -2273  -2286  -2290  -2292  -2294  -2294  -2285  -2271  -2270  -2289  -2305  -2308  -2325  -2388  -2476  -2538  -2581  -2685  -2885  -3130  -3343  -3494  -3606  -3716  -3827  -3921  -3998  -4075  -4173  -4283  -4379  -4442  -4472  -4482  -4489  -4500  -4490  -4420  -4268  -4052  -3818  -3634  -3536  -3500  -3479  -3449  -3399  -3318  -3220  -3144  -3089  -3014  -2915  -2834  -2797  -2792  -2806  -2833  -2856  -2839  -2762  -2640  -2503  -2396  -2345  -2347  -2360  -2319  -2158  -1885  -1599  -1408  -1336  -1330  -1312  -1237  -1121  -1025  -981  -965  -929  -854  -770  -734  -777  -863  -930  -957  -972  -1005  -1050  -1067  -1032  -967  -913  -882  -858  -837  -819  -809  -804  -803  -804  -806  -812  -811  -776  -718  -729  -815  -776  -420  241  1053  1810  2376  2740  2941  2960  2690  2070  1235  484  95  71  137  6  -390  -854  -1152  -1261  -1290  -1298  -1288  -1272  -1265  -1266  -1255  -1214  -1144  -1067  -1002  -955  -911  -860  -836  -859  -884  -864  -795  -676  -529  -405  -319  -256  -206  -171  -133  -73  0  60  82  78  96  151  205  230  234  231  224  201  157  113  62  -38  -181  -305  -371  -408  -474  -587  -721  -881  -1095  -1321  -1459  -1475  -1440  -1411  -1382  -1322  -1238  -1173  -1141  -1131  -1136  -1150  -1141  -1077  -981  -912  -897  -913  -924  -905  -840  -742  -648  -588  -558  -542  -535  -528  -493  -408  -298  -218  -194  -203  -220  -232  -228  -196  -137  -75  -39  -36  -51  -60  -21  108  314  516  645  699  717  728  746  769  790  801  789  722  590  438  332  276  228  169  119  80  27  -57  -155  -220  -230  -207  -183  -186  -237  -336  -452  -539  -553  -437  -169  131  329  520  875  1406  2078  2788  3326  3539  3424  3051  2470  1751  1058  538  258  206  277  348  385  448  586  750  858  898  904  895  857  781  705  703  798  957  1128  1262  1332  1346  1320  1275  1238  1237  1287  1364  1428  1465  1486  1498  1501  1505  1521  1557  1605  1641  1652  1662  1714  1813  1913  1964  1950  1870  1743  1602  1471  1372  1312  1265  1199  1119  1046  964  830  636  418  241  165  195  273  332  350  346  341  345  356  369  377  377  374  369  354  331  318  344  417  507  567  578  562  550  556  567  566  558  567  608  660  697  712  712  700  674  645  632  632  630  638  716  917  1177  1350  1368  1298  1230  1180  1110  1016  936  895  888  898  897  851  737  566  395  277  210  162  114  43  -88  -294  -526  -692  -761  -771  -768  -778  -816  -869  -918  -987  -1119  -1295  -1430  -1480  -1468  -1427  -1374  -1346  -1365  -1310  -1002  -412  354  1167  1886  2428  2792  2929  2742  2225  1498  705  14  -428  -614  -669  -731  -870  -1030  -1076  -1005  -923  -866  -811  -757  -722  -711  -712  -718  -726  -737  -750  -726  -617  -443  -286  -211  -230  -298  -364  -393  -359  -279  -186  -90  -25  -13  -29  -47  -62  -72  -76  -72  -70  -87  -118  -136  -115  -49  26  78  101  97  73  36  -23  -119  -239  -375  -521  -641  -679  -632  -570  -553  -557  -541  -527  -554  -607  -650  -669  -673  -673  -671  -660  -630  -585  -540  -504  -481  -473  -492  -539  -565  -498  -321  -109  38  97  119  162  260  410  558  650  684  687  672  633  570  507  467  450  445  437  423  404  383  369  377  433  552  720  897  1035  1109  1137  1158  1184  1213  1251  1288  1305  1280  1189  1028  847  710  621  532  434  375  381  424  450  421  332  213  106  27  -37  -102  -166  -224  -274  -311  -339  -335  -187  213  822  1524  2230  2814  3168  3227  2865  2088  1165  341  -282  -673  -935  -1195  -1403  -1468  -1430  -1378  -1326  -1258  -1169  -1076  -1025  -1041  -1082  -1090  -1050  -1001  -983  -987  -974  -934  -888  -873  -907  -947  -937  -873  -789  -726  -687  -631  -525  -376  -227  -130  -97  -100  -108  -111  -109  -100  -66  17  129  207  220  196  174  165  151  105  12  -108  -220  -306  -387  -493  -648  -834  -994  -1098  -1172  -1237  -1286  -1306  -1297  -1256  -1193  -1115  -1008  -850  -664  -526  -478  -490  -515  -530  -532  -514  -464  -394  -334  -296  -279  -284  -305  -320  -319  -312  -313  -326  -341  -324  -231  -54  130  235  251  231  214  209  208  209  226  290  414  553  649  719  807  892  939  948  939  928  909  848  724  580  476  416  375  344  327  319  312  301  278  241  192  138  91  53  0  -83  -174  -233  -246  -232  -210  -147  37  373  799  1256  1750  2273  2740  3048  3099  2819  2242  1489  722  111  -261  -416  -394  -259  -120  -65  -89  -130  -156  -177  -199  -213  -216  -218  -224  -229  -224  -191  -110  4  113  193  251  301  360  438  528  605  652  670  681  721  821  957  1059  1092  1082  1083  1129  1215  1316  1399  1444  1447  1405  1324  1233  1168  1133  1106  1065  981  829  598  302  5  -222  -381  -524  -683  -837  -935  -964  -956  -936  -907  -879  -886  -969  -1136  -1342  -1491  -1499  -1396  -1277  -1185  -1129  -1116  -1137  -1167  -1190  -1201  -1204  -1192  -1146  -1056  -939  -829  -760  -736  -730  -727  -727  -737  -763  -797  -815  -804  -763  -702  -636  -565  -467  -337  -201  -88  -23  -5  -18  -47  -82  -116  -148  -180  -217  -255  -298  -357  -440  -547  -670  -790  -887  -960  -1032  -1128  -1222  -1237  -1124  -950  -854  -906  -1046  -1165  -1216  -1214  -1183  -1156  -1167  -1162  -976  -549  25  653  1205  1556  1707  1681  1445  1029  492  -134  -718  -1111  -1328  -1416  -1390  -1324  -1266  -1193  -1085  -959  -853  -787  -733  -654  -536  -397  -285  -232  -211  -161  -44  107  208  210  149  100  117  200  334  482  581  612  619  645  692  730  746  747  737  708  663  621  599  595  597  600  602  601  594  576  532  456  372  305  234  120  -58  -293  -543  -760  -918  -1026  -1106  -1185  -1276  -1367  -1427  -1451  -1462  -1476  -1479  -1447  -1368  -1239  -1065  -879  -740  -680  -678  -700  -726  -736  -731  -732  -757  -799  -837  -845  -836  -839  -859  -890  -903  -858  -768  -670  -583  -519  -471  -426  -376  -319  -261  -214  -192  -189  -155  -19  208  442  619  727  761  705  552  339  136  -18  -152  -278  -366  -399  -407  -432  -493  -571  -630  -657  -663  -661  -652  -638  -632  -669  -782  -932  -1038  -1065  -1052  -1048  -1043  -966  -780  -467  45  806  1740  2666  3363  3649  3444  2844  2086  1386  868  576  452  373  274  181  120  76  39  26  54  104  145  167  174  178  196  256  380  532  634  664  674  714  780  850  925  1010  1085  1134  1165  1195  1251  1339  1430  1494  1529  1547  1551  1547  1547  1562  1581  1583  1556  1502  1445  1409  1400  1399  1376  1316  1241  1180  1113  978  763  525  330  194  99  27  -26  -69  -99  -113  -122  -147  -183  -221  -261  -283  -227  -40  228  453  568  601  582  513  401  293  245  269  329  384  426  473  536  609  666  689  682  669  670  686  708  722  727  734  755  807  907  1055  1215  1325  1374  1416  1518  1688  1872  2015  2086  2080  2018  1936  1861  1787  1707  1626  1536  1427  1324  1255  1222  1206  1200  1203  1206  1189  1136  1058  995  968  972  994  1020  1013  924  772  692  782  1045  1527  2222  2932  3487  3911  4228  4352  4231  3867  3234  2394  1578  957  517  236  63  -107  -273  -376  -417  -417  -376  -275  -117  58  213  323  382  406  418  438  473  509  517  486  435  396  380  379  382  386  390  406  445  499  538  532  473  385  311  269  249  228  199  168  138  83  -36  -222  -417  -570  -683  -785  -888  -1018  -1245  -1594  -1984  -2328  -2593  -2772  -2877  -2929  -2950  -2952  -2943  -2926  -2902  -2881  -2867  -2852  -2807  -2719  -2619  -2554  -2534  -2540  -2564  -2608  -2666  -2714  -2727  -2682  -2555  -2349  -2125  -1966  -1902  -1898  -1908  -1914  -1929  -1951  -1941  -1874  -1796  -1774  -1823  -1910  -1979  -2000  -1984  -1950  -1902  -1840  -1767  -1691  -1603  -1499  -1400  -1339  -1322  -1333  -1352  -1353  -1308  -1211  -1080  -933  -805  -737  -755  -864  -1027  -1180  -1304  -1423  -1537  -1615  -1647  -1657  -1691  -1794  -1992  -2245  -2466  -2602  -2672  -2718  -2760  -2788  -2797  -2791  -2783  -2755  -2643  -2422  -2145  -1833  -1465  -1034  -511  178  989  1659  1883  1561  825  -103  -1010  -1702  -2066  -2152  -2115  -2058  -2000  -1944  -1885  -1835  -1812  -1821  -1855  -1896  -1908  -1855  -1724  -1531  -1314  -1138  -1043  -990  -914  -803  -698  -621  -545  -437  -298  -162  -56  17  83  177  309  464  632  836  1087  1370  1692  2014  2225  2244  2089  1852  1649  1537  1493  1474  1464  1460  1459  1453  1437  1416  1387  1334  1256  1167  1058  887  659  455  343  307  300  294  291  298  310  320  324  324  328  338  348  337  303  272  271  306  357  382  365  329  300  276  251  238  250  276  298  308  307  302  294  299  378  609  960  1273  1427  1449  1415  1364  1298  1217  1140  1095  1089  1106  1127  1148  1167  1182  1184  1155  1083  990  916  876  848  821  802  788  743  630  482  377  347  350  330  263  173  107  91  110  140  175  221  280  346  412  502  689  1008  1466  2076  2748  3327  3719  3820  3552  2994  2328  1665  1012  410  -41  -262  -220  -19  90  -10  -170  -177  37  355  588  657  625  573  541  539  560  597  643  698  761  822  881  974  1148  1376  1565  1660  1686  1683  1674  1683  1717  1775  1857  1946  2007  2025  2019  2009  2001  1987  1952  1900  1853  1810  1751  1671  1592  1526  1443  1297  1072  797  523  284  88  -84  -279  -528  -790  -984  -1089  -1141  -1169  -1180  -1183  -1187  -1191  -1182  -1158  -1131  -1105  -1066  -1010  -952  -897  -841  -788  -755  -745  -746  -753  -767  -798  -833  -831  -763  -654  -537  -437  -373  -354  -382  -457  -553  -618  -607  -506  -356  -225  -151  -137  -171  -232  -292  -331  -346  -339  -302  -225  -128  -53  -28  -53  -116  -188  -233  -264  -334  -466  -616  -726  -792  -844  -897  -941  -980  -1024  -1074  -1119  -1148  -1164  -1178  -1192  -1209  -1227  -1215  -1192  -1233  -1288  -1223  -981  -584  -109  375  871  1377  1758  1808  1463  793  -68  -847  -1273  -1372  -1344  -1318  -1349  -1434  -1530  -1608  -1645  -1610  -1515  -1403  -1265  -1071  -868  -737  -693  -676  -614  -487  -340  -227  -151  -90  -22  52  118  159  166  139  100  91  136  228  369  590  857  1077  1214  1294  1316  1268  1187  1127  1103  1077  1010  904  799  731  677  579  434  306  234  188  115  2  -128  -253  -376  -506  -640  -762  -855  -916  -945  -951  -933  -883  -806  -730  -677  -654  -661  -683  -696  -683  -649  -608  -559  -489  -408  -351  -337  -355  -388  -429  -478  -520  -522  -484  -434  -373  -268  -116  32  117  126  75  -10  -99  -164  -204  -236  -270  -281  -224  -76  114  266  339  355  357  367  373  328  195  8  -148  -244  -320  -397  -466  -534  -609  -655  -652  -639  -649  -674  -690  -678  -651  -642  -642  -593  -447  -212  26  202  330  442  549  711  1072  1698  2410  2933  3130  2988  2567  1987  1330  632  -25  -539  -850  -970  -971  -917  -850  -779  -693  -612  -582  -598  -639  -735  -915  -1127  -1272  -1309  -1274  -1215  -1166  -1128  -1072  -981  -871  -762  -657  -538  -378  -181  14  171  276  350  436  564  701  798  859  914  972  1020  1042  1046  1051  1048  1009  951  896  829  723  595  478  380  279  123  -112  -366  -548  -637  -669  -682  -694  -709  -720  -725  -727  -728  -720  -691  -649  -620  -613  -592  -491  -276  -41  47  -32  -151  -222  -248  -259  -271  -287  -296  -269  -186  -67  23  55  47  36  42  63  93  138  205  281  338  376  417  464  502  528  551  570  579  574  564  570  612  689  781  885  990  1061  1084  1075  1030  921  754  570  402  263  158  84  37  15  11  16  31  51  65  64  47  15  -58  -218  -425  -519  -376  18  608  1264  1874  2426  2936  3399  3698  3612  3074  2243  1331  574  178  91  76  -19  -213  -399  -456  -411  -371  -373  -405  -447  -479  -491  -490  -489  -497  -517  -535  -540  -544  -563  -586  -582  -516  -363  -149  58  223  343  422  479  528  562  585  615  654  688  712  728  716  659  577  523  519  550  583  597  576  500  366  212  72  -42  -121  -169  -212  -263  -316  -373  -446  -537  -641  -759  -878  -968  -999  -958  -852  -723  -626  -574  -541  -506  -457  -403  -363  -334  -290  -231  -187  -175  -185  -192  -161  -65  85  243  358  413  422  410  398  397  407  421  432  447  478  515  541  569  618  675  740  844  986  1099  1136  1121  1104  1098  1087  1060  1021  967  879  742  563  363  194  95  49  17  -21  -72  -143  -233  -323  -395  -444  -477  -515  -582  -660  -707  -706  -674  -640  -622  -619  -612  -552  -379  -38  488  1154  1897  2627  3235  3597  3567  3091  2256  1200  148  -621  -977  -1025  -977  -971  -1026  -1083  -1108  -1126  -1149  -1165  -1172  -1179  -1191  -1207  -1207  -1164  -1057  -914  -795  -738  -736  -760  -791  -827  -877  -945  -1016  -1069  -1086  -1049  -965  -871  -809  -777  -745  -679  -569  -450  -361  -309  -280  -252  -208  -150  -93  -55  -63  -150  -322  -533  -736  -919  -1074  -1192  -1268  -1317  -1393  -1562  -1811  -2034  -2168  -2254  -2331  -2383  -2386  -2349  -2298  -2255  -2218  -2175  -2126  -2085  -2066  -2065  -2052  -1994  -1891  -1769  -1639  -1487  -1331  -1216  -1151  -1109  -1079  -1065  -1067  -1077  -1079  -1046  -967  -886  -852  -821  -683  -414  -132  39  104  153  241  360  504  729  1085  1507  1853  2062  2216  2448  2791  3162  3494  3772  3981  4099  4142  4152  4154  4116  3949  3595  3129  2702  2380  2088  1750  1428  1232  1175  1181  1182  1157  1128  1116  1119  1125  1114  1059  941  773  613  544  661  992  1494  2138  2871  3554  4062  4295  4120  3518  2659  1757  961  397  123  48  58  100  48  -169  -410  -529  -543  -529  -531  -564  -632  -729  -842  -962  -1080  -1174  -1216  -1207  -1175  -1149  -1138  -1148  -1185  -1247  -1316  -1368  -1365  -1286  -1164  -1066  -1032  -1048  -1091  -1138  -1174  -1191  -1187  -1151  -1067  -934  -778  -622  -493  -416  -396  -409  -432  -451  -466  -507  -606  -734  -831  -905  -1049  -1318  -1637  -1867  -1956  -1961  -1952  -1956  -1956  -1922  -1861  -1809  -1768  -1703  -1611  -1515  -1417  -1315  -1230  -1170  -1126  -1101  -1092  -1089  -1086  -1092  -1129  -1204  -1295  -1366  -1400  -1398  -1359  -1281  -1192  -1119  -1050  -930  -730  -472  -203  27  175  239  272  305  328  333  346  395  480  564  610  621  621  627  646  682  729  769  777  755  730  717  711  691  625  491  317  155  10  -126  -225  -259  -240  -203  -175  -162  -155  -161  -215  -356  -554  -622  -355  201  820  1365  1867  2364  2800  3071  3068  2724  2117  1420  802  385  169  58  -42  -142  -188  -194  -214  -243  -256  -255  -256  -277  -311  -324  -303  -276  -257  -252  -272  -302  -328  -358  -395  -423  -427  -408  -371  -313  -216  -102  -21  14  54  138  248  328  359  372  404  460  525  590  656  714  742  723  649  523  375  258  202  183  148  46  -145  -391  -617  -757  -816  -853  -915  -1016  -1154  -1298  -1401  -1446  -1458  -1466  -1479  -1483  -1450  -1375  -1312  -1300  -1297  -1274  -1265  -1281  -1293  -1278  -1232  -1166  -1082  -978  -855  -718  -585  -491  -438  -394  -347  -309  -270  -217  -170  -156  -172  -193  -163  -11  262  547  723  779  781  784  798  815  839  871  898  913  920  926  932  937  932  902  824  684  505  359  310  343  391  413  417  424  438  464  521  631  770  873  898  835  691  499  330  277  381  604  929  1374  1906  2488  3097  3611  3816  3572  2922  2073  1311  822  591  522  535  523  414  271  180  124  57  -15  -30  54  200  318  371  382  380  377  372  361  356  397  518  684  805  845  838  823  818  822  833  844  855  866  876  880  878  874  870  868  875  898  934  982  1065  1188  1313  1385  1370  1249  1021  748  516  342  214  142  98  -11  -243  -529  -736  -804  -764  -674  -583  -524  -514  -547  -606  -668  -713  -738  -757  -781  -804  -820  -836  -870  -917  -953  -964  -961  -955  -952  -953  -954  -953  -946  -931  -903  -852  -772  -672  -572  -497  -456  -443  -455  -483  -508  -521  -522  -505  -465  -396  -311  -224  -130  -5  156  322  445  516  582  707  893  1076  1181  1178  1080  935  800  669  484  244  24  -139  -276  -395  -475  -521  -567  -621  -666  -684  -672  -646  -645  -684  -757  -848  -938  -1007  -1003  -834  -465  65  699  1345  1923  2380  2604  2507  2157  1635  934  169  -406  -665  -684  -612  -582  -650  -768  -849  -868  -848  -803  -734  -666  -638  -655  -685  -702  -702  -697  -703  -728  -760  -774  -769  -764  -768  -753  -676  -524  -355  -232  -163  -99  14  188  354  440  439  399  371  364  365  374  411  498  627  743  763  666  502  318  131  -35  -155  -211  -211  -185  -159  -146  -156  -214  -327  -469  -597  -692  -754  -793  -826  -873  -949  -1075  -1258  -1476  -1675  -1780  -1688  -1335  -841  -460  -304  -284  -286  -277  -262  -245  -229  -225  -244  -297  -403  -576  -769  -898  -939  -931  -912  -892  -867  -832  -786  -724  -637  -520  -375  -225  -149  -245  -486  -714  -819  -829  -835  -895  -991  -1070  -1109  -1113  -1057  -910  -713  -571  -524  -525  -520  -501  -483  -471  -451  -424  -448  -642  -1105  -1808  -2538  -2990  -2936  -2316  -1322  -350  323  700  923  1058  1057  931  798  731  678  574  465  524  860  1364  1824  2061  1972  1571  983  337  -362  -1111  -1702  -1944  -1937  -1941  -2143  -2499  -2727  -2510  -1702  -544  407  825  858  785  739  730  737  752  775  793  795  790  810  870  960  1062  1178  1296  1373  1366  1270  1134  1028  997  1056  1213  1427  1612  1715  1738  1697  1604  1479  1349  1219  1079  912  712  524  411  381  401  453  520  572  554  411  144  -159  -419  -614  -745  -817  -842  -842  -843  -868  -918  -980  -1040  -1080  -1097  -1098  -1086  -1053  -997  -922  -834  -729  -600  -475  -400  -390  -398  -341  -155  117  360  520  644  782  917  991  967  866  751  650  538  436  392  413  482  559  605  617  629  662  704  730  737  740  749  762  775  790  804  811  807  788  757  722  688  630  485  217  -129  -448  -643  -705  -693  -656  -623  -635  -736  -911  -1085  -1194  -1213  -1132  -945  -702  -510  -424  -389  -312  -171  10  286  741  1333  1981  2644  3195  3445  3336  2969  2530  2146  1718  1140  507  -55  -469  -689  -754  -756  -789  -874  -924  -903  -861  -835  -826  -824  -815  -796  -778  -755  -708  -640  -576  -540  -551  -607  -671  -697  -690  -678  -663  -628  -570  -501  -393  -178  166  543  824  999  1133  1250  1336  1397  1462  1529  1556  1496  1360  1216  1125  1099  1110  1127  1120  1049  891  680  475  284  110  -28  -150  -295  -456  -569  -580  -511  -425  -353  -289  -251  -269  -357  -481  -573  -594  -554  -479  -404  -360  -349  -352  -354  -352  -361  -389  -423  -428  -390  -323  -257  -210  -171  -115  -50  -10  -3  -12  -19  -10  38  155  308  417  456  474  533  660  823  952  1007  1002  968  927  895  880  882  898  909  873  757  577  392  239  107  -20  -139  -237  -290  -272  -176  -44  52  83  67  15  -101  -312  -585  -819  -937  -936  -854  -735  -617  -475  -205  261  850  1426  1897  2195  2312  2225  1861  1278  656  89  -396  -764  -1041  -1255  -1324  -1185  -921  -685  -562  -537  -563  -598  -616  -605  -571  -537  -514  -499  -494  -510  -541  -572  -597  -619  -638  -653  -663  -661  -624  -539  -432  -349  -302  -252  -169  -53  72  178  248  299  358  443  561  675  724  665  491  271  121  78  70  8  -131  -302  -453  -577  -707  -864  -1032  -1193  -1348  -1476  -1550  -1584  -1616  -1664  -1707  -1709  -1666  -1613  -1566  -1520  -1469  -1417  -1361  -1294  -1217  -1135  -1042  -944  -866  -827  -814  -798  -754  -689  -631  -598  -578  -554  -524  -505  -504  -507  -479  -381  -200  37  270  434  504  491  411  306  243  254  317  389  449  491  515  524  516  489  454  418  385  361  358  366  352  281  129  -69  -228  -294  -284  -245  -220  -238  -301  -389  -468  -508  -512  -503  -512  -553  -608  -645  -656  -665  -694  -723  -674  -467  -39  655  1557  2423  2996  3223  3169  2845  2332  1764  1109  353  -301  -684  -797  -721  -557  -402  -369  -520  -715  -771  -695  -589  -512  -474  -462  -461  -466  -483  -512  -543  -562  -567  -565  -562  -562  -564  -565  -557  -532  -499  -473  -467  -470  -458  -414  -352  -282  -176  0  226  433  567  630  653  665  679  696  713  722  717  705  679  615  495  334  168  17  -117  -232  -320  -388  -455  -542  -675  -862  -1049  -1166  -1202  -1194  -1164  -1116  -1057  -998  -931  -852  -781  -730  -683  -621  -548  -488  -453  -428  -396  -350  -294  -226  -158  -123  -140  -184  -219  -233  -240  -252  -255  -237  -210  -194  -188  -157  -66  75  230  377  517  645  744  797  806  793  780  804  912  1115  1331  1443  1416  1319  1233  1170  1080  935  758  588  463  402  408  471  564  650  705  722  705  664  612  572  555  525  451  361  285  233  280  527  986  1588  2222  2758  3195  3627  3966  3988  3623  2888  1817  659  -231  -670  -679  -451  -258  -244  -377  -553  -675  -697  -635  -521  -389  -276  -212  -200  -208  -202  -164  -109  -87  -149  -296  -460  -561  -581  -554  -512  -470  -427  -383  -317  -176  54  293  447  518  564  612  653  690  718  697  604  468  304  126  -29  -146  -224  -262  -263  -252  -268  -353  -515  -719  -929  -1129  -1308  -1439  -1505  -1524  -1520  -1511  -1506  -1504  -1496  -1469  -1419  -1359  -1303  -1255  -1225  -1208  -1166  -1050  -845  -633  -547  -600  -684  -728  -756  -815  -901  -965  -972  -924  -852  -793  -762  -743  -719  -688  -669  -668  -670  -641  -558  -432  -298  -181  -92  -29  18  63  138  296  533  742  822  789  728  694  697  711  689  600  470  361  289  231  179  149  145  160  186  225  287  362  415  434  433  423  404  375  336  282  200  87  -11  35  354  934  1674  2478  3242  3804  3977  3701  3069  2233  1367  645  145  -171  -364  -480  -585  -668  -656  -573  -513  -503  -514  -524  -531  -536  -527  -481  -402  -325  -284  -278  -283  -283  -278  -268  -249  -202  -100  46  187  289  365  439  509  554  568  567  564  558  541  517  500  509  549  590  594  566  541  536  543  554  559  533  453  339  242  175  97  -38  -241  -469  -679  -845  -956  -1024  -1079  -1136  -1189  -1227  -1261  -1329  -1405  -1394  -1284  -1163  -1078  -1013  -948  -881  -826  -796  -786  -792  -820  -880  -958  -1020  -1032  -984  -881  -734  -568  -418  -322  -291  -298  -307  -296  -258  -207  -159  -114  -73  -39  -4  34  93  204  357  493  571  587  547  472  392  336  319  323  298  195  26  -131  -217  -230  -196  -129  -52  3  22  0  -60  -142  -208  -239  -240  -233  -254  -350  -497  -554  -426  -136  286  798  1337  1897  2479  3020  3412  3536  3289  2688  1921  1216  731  508  457  433  368  294  242  216  213  225  254  304  358  384  348  231  71  -53  -102  -100  -79  -27  74  190  247  231  204  214  256  303  346  388  433  488  555  632  730  853  969  1038  1053  1030  972  901  855  854  879  881  814  703  605  517  378  169  -48  -198  -274  -320  -396  -554  -795  -1040  -1189  -1226  -1211  -1197  -1191  -1166  -1099  -1005  -929  -894  -886  -882  -875  -861  -823  -741  -621  -504  -432  -406  -416  -461  -511  -535  -533  -519  -510  -510  -515  -518  -521  -533  -550  -563  -562  -538  -489  -426  -364  -306  -243  -176  -116  -65  12  158  331  421  369  240  140  110  114  100  37  -71  -199  -310  -383  -414  -416  -412  -417  -447  -502  -573  -640  -678  -682  -673  -672  -687  -731  -834  -963  -974  -757  -375  33  412  812  1281  1767  2102  2080  1652  1002  324  -237  -537  -635  -737  -862  -912  -926  -994  -1092  -1151  -1165  -1166  -1175  -1192  -1201  -1175  -1096  -988  -906  -873  -864  -836  -756  -649  -574  -563  -595  -623  -617  -566  -469  -354  -274  -248  -250  -250  -236  -177  -25  215  463  637  713  725  715  705  703  717  746  780  787  714  537  317  146  29  -97  -251  -392  -505  -609  -721  -823  -873  -854  -809  -788  -811  -858  -876  -833  -763  -720  -714  -721  -712  -671  -613  -567  -547  -542  -539  -535  -537  -548  -544  -473  -291  -20  255  455  578  667  745  800  823  826  832  857  905  959  1011  1077  1186  1319  1405  1418  1391  1358  1324  1301  1314  1374  1449  1485  1449  1297  976  561  245  117  108  129  144  151  158  158  127  46  -76  -205  -310  -376  -404  -407  -391  -373  -376  -434  -551  -609  -394  174  967  1800  2512  2974  3133  2996  2621  2105  1493  847  304  -82  -336  -456  -474  -481  -537  -625  -696  -720  -694  -646  -607  -584  -571  -562  -554  -550  -565  -619  -709  -798  -843  -830  -778  -713  -658  -611  -539  -420  -287  -186  -109  -30  55  143  239  343  435  510  581  633  634  589  529  468  411  363  328  300  243  130  11  -40  -43  -72  -152  -249  -335  -406  -471  -539  -603  -652  -688  -731  -798  -877  -926  -927  -907  -900  -930  -988  -1003  -946  -876  -846  -849  -848  -793  -656  -480  -349  -294  -291  -325  -411  -552  -697  -791  -826  -824  -801  -770  -743  -715  -673  -623  -583  -547  -493  -423  -368  -329  -269  -150  26  228  429  624  815  975  1048  1014  926  847  784  711  629  563  517  474  423  376  335  296  258  210  145  65  -26  -116  -172  -189  -194  -228  -315  -448  -588  -666  -582  -250  322  1059  1842  2532  3106  3609  3880  3690  3047  2072  945  5  -489  -570  -419  -231  -125  -135  -238  -370  -476  -537  -551  -528  -498  -491  -495  -488  -481  -504  -539  -551  -515  -432  -327  -211  -77  68  196  284  333  363  409  498  615  717  785  829  849  833  771  686  625  605  608  617  624  624  615  600  567  499  411  334  267  193  108  23  -49  -121  -242  -421  -605  -735  -806  -840  -848  -837  -816  -781  -711  -618  -537  -478  -429  -387  -348  -315  -303  -296  -258  -199  -141  -94  -64  -56  -56  -46  -27  -26  -64  -120  -154  -153  -134  -120  -114  -103  -84  -63  -43  -25  -9  -3  -12  -28  -43  -59  -69  -69  -56  -11  81  194  270  292  295  321  400  555  771  970  1083  1091  1001  808  516  190  -51  -155  -185  -233  -331  -455  -579  -693  -780  -818  -778  -642  -456  -312  -254  -247  -238  -195  -135  -107  -146  -232  -247  -57  361  973  1686  2354  2968  3592  4088  4182  3723  2775  1606  633  153  69  80  11  -160  -368  -508  -553  -552  -544  -536  -523  -506  -494  -491  -491  -491  -486  -477  -463  -440  -402  -336  -227  -91  16  69  82  70  38  1  -11  53  227  451  605  632  560  459  389  367  373  393  424  460  483  486  475  449  392  301  200  102  0  -119  -247  -359  -479  -649  -841  -978  -1030  -1035  -1041  -1066  -1096  -1127  -1174  -1223  -1250  -1252  -1245  -1239  -1242  -1251  -1261  -1268  -1270  -1262  -1243  -1216  -1193  -1171  -1136  -1079  -1008  -945  -901  -866  -830  -793  -769  -766  -772  -770  -750  -723  -691  -646  -588  -539  -502  -453  -385  -313  -239  -151  -53  26  75  110  148  183  220  289  391  494  578  636  667  677  678  663  618  546  473  418  375  306  176  22  -62  -39  27  62  58  45  39  31  7  -57  -175  -311  -402  -423  -398  -352  -288  -182  12  324  753  1303  1935  2543  3036  3327  3306  2952  2392  1757  1094  530  211  82  35  71  157  203  193  186  212  268  337  385  400  398  394  392  390  389  391  397  404  409  410  411  419  435  448  445  432  422  417  412  410  428  484  566  632  660  662  654  645  632  607  559  496  442  416  402  361  261  123  -2  -111  -248  -452  -716  -966  -1118  -1158  -1146  -1145  -1188  -1275  -1381  -1475  -1534  -1555  -1554  -1539  -1505  -1452  -1396  -1358  -1337  -1316  -1287  -1258  -1229  -1192  -1156  -1139  -1142  -1158  -1173  -1174  -1149  -1103  -1055  -1020  -1001  -1001  -1009  -1006  -989  -941  -829  -674  -547  -491  -482  -486  -479  -460  -439  -423  -414  -402  -382  -358  -316  -219  -66  84  180  228  266  320  374  402  390  330  222  93  -12  -85  -144  -204  -253  -271  -259  -226  -201  -235  -332  -419  -425  -319  -123  84  219  254  210  149  175  366  708  1141  1626  2127  2599  3022  3327  3359  3037  2415  1629  898  417  224  211  227  162  23  -107  -178  -200  -190  -172  -169  -180  -188  -191  -206  -230  -235  -206  -149  -56  97  294  474  601  680  722  741  770  827  906  994  1080  1149  1183  1170  1106  1020  956  938  956  997  1042  1072  1080  1072  1053  1034  1021  1009  975  895  779  664  558  418  240  79  -57  -232  -467  -712  -911  -1051  -1132  -1168  -1184  -1197  -1208  -1213  -1212  -1207  -1202  -1197  -1196  -1209  -1246  -1291  -1302  -1249  -1159  -1086  -1053  -1040  -1021  -975  -879  -740  -611  -531  -502  -519  -584  -673  -739  -763  -761  -735  -670  -580  -511  -493  -506  -508  -462  -379  -317  -296  -277  -214  -112  -8  83  162  215  231  205  131  30  -45  -80  -105  -157  -234  -300  -330  -333  -332  -335  -340  -344  -347  -350  -354  -357  -358  -358  -364  -393  -456  -493  -370  -46  336  654  915  1196  1614  2208  2827  3223  3181  2658  1864  1076  456  74  -61  -50  -35  -75  -119  -141  -148  -110  -21  58  103  136  158  150  104  41  -6  -28  -32  -26  -12  12  40  68  95  124  155  184  206  237  311  433  548  605  625  688  830  983  1051  1042  1018  1010  1011  1010  992  948  885  833  817  826  830  822  792  729  640  545  433  267  45  -178  -341  -431  -470  -485  -503  -547  -616  -685  -727  -745  -764  -803  -862  -935  -1014  -1062  -1046  -978  -899  -843  -812  -792  -777  -773  -781  -794  -794  -759  -683  -581  -481  -398  -334  -289  -245  -172  -78  -5  29  53  87  115  109  61  8  9  60  114  161  235  339  421  446  445  447  445  418  348  250  159  83  13  -43  -78  -89  -92  -100  -116  -133  -148  -165  -180  -186  -181  -171  -165  -184  -253  -360  -480  -621  -790  -883  -781  -498  -72  523  1256  2036  2754  3179  3101  2570  1727  699  -276  -965  -1272  -1221  -1002  -852  -837  -884  -928  -953  -962  -965  -961  -939  -887  -820  -770  -745  -732  -721  -706  -666  -577  -462  -379  -355  -366  -378  -361  -295  -190  -88  -14  27  48  87  172  287  384  445  473  489  515  560  632  734  842  893  831  688  557  486  454  420  352  251  135  0  -166  -355  -517  -615  -651  -655  -645  -631  -624  -637  -665  -692  -715  -740  -760  -753  -714  -654  -571  -454  -320  -200  -105  -26  34  73  94  103  100  86  60  43  57  85  98  91  83  101  142  173  174  166  180  224  276  309  319  313  300  286  287  336  454  612  759  902  1060  1203  1300  1360  1410  1454  1479  1480  1464  1426  1347  1218  1057  873  659  447  295  215  164  106  37  -22  -54  -59  -59  -76  -113  -167  -238  -309  -335  -296  -183  5  289  767  1484  2319  3116  3700  3840  3450  2670  1686  696  -59  -457  -602  -656  -672  -666  -693  -788  -930  -1059  -1101  -1035  -925  -836  -765  -695  -642  -620  -616  -615  -611  -603  -596  -592  -584  -563  -531  -499  -475  -455  -404  -241  82  473  766  894  949  1034  1136  1191  1237  1339  1459  1533  1549  1530  1505  1486  1455  1386  1283  1174  1084  1015  938  801  601  393  218  68  -69  -197  -325  -453  -560  -641  -706  -762  -807  -852  -926  -1041  -1160  -1227  -1204  -1080  -902  -760  -700  -700  -720  -740  -742  -718  -686  -667  -663  -672  -707  -774  -835  -835  -778  -719  -695  -694  -698  -705  -722  -752  -789  -804  -770  -691  -599  -532  -500  -492  -496  -519  -566  -611  -594  -472  -268  -63  72  139  173  190  189  159  85  -23  -126  -196  -236  -297  -457  -746  -1068  -1297  -1426  -1534  -1651  -1744  -1808  -1874  -1955  -2024  -2065  -2098  -2143  -2198  -2250  -2304  -2370  -2444  -2514  -2566  -2589  -2567  -2457  -2163  -1598  -817  -27  613  1101  1375  1276  806  110  -701  -1459  -1901  -1971  -1895  -1861  -1874  -1909  -1955  -1987  -2001  -1999  -1972  -1924  -1871  -1827  -1788  -1742  -1670  -1547  -1318  -937  -491  -149  41  158  272  418  626  897  1178  1419  1630  1827  2009  2228  2530  2854  3097  3244  3343  3423  3471  3480  3454  3399  3317  3201  3052  2901  2782  2676  2554  2430  2323  2171  1886  1512  1199  985  778  545  344  190  36  -138  -297  -387  -380  -284  -152  -51  -4  18  52  101  137  115  15  -124  -236  -286  -290  -259  -203  -128  -51  0  19  15  0  -14  -18  -3  43  122  204  262  281  262  225  187  153  133  147  216  324  428  507  576  654  735  808  871  929  978  1015  1021  969  864  747  661  603  528  405  262  126  -28  -209  -358  -431  -449  -452  -453  -447  -430  -415  -410  -410  -405  -384  -349  -316  -307  -333  -394  -472  -469  -241  243  878  1530  2089  2487  2718  2764  2526  1983  1274  612  193  41  6  -62  -212  -344  -360  -303  -260  -248  -251  -277  -349  -458  -555  -583  -487  -232  148  564  912  1141  1278  1385  1482  1547  1568  1566  1567  1578  1596  1605  1571  1452  1263  1084  981  946  946  964  1003  1066  1139  1191  1204  1186  1154  1129  1117  1101  1060  980  852  673  453  219  4  -175  -324  -465  -629  -814  -979  -1088  -1145  -1173  -1192  -1216  -1254  -1304  -1348  -1367  -1366  -1355  -1341  -1325  -1295  -1240  -1176  -1124  -1092  -1086  -1106  -1138  -1165  -1182  -1194  -1203  -1206  -1201  -1191  -1184  -1181  -1177  -1165  -1132  -1069  -1003  -976  -976  -957  -909  -845  -769  -679  -599  -551  -524  -474  -375  -249  -148  -91  -56  -24  4  19  3  -62  -160  -248  -319  -394  -478  -552  -584  -557  -494  -437  -415  -430  -456  -467  -460  -448  -438  -422  -383  -333  -311  -351  -420  -426  -336  -213  -58  226  710  1352  2026  2532  2631  2255  1589  865  241  -189  -461  -651  -757  -773  -726  -650  -600  -607  -642  -675  -706  -731  -740  -723  -691  -641  -555  -445  -362  -323  -299  -253  -190  -142  -108  -54  35  146  235  270  258  230  198  166  131  90  51  29  35  79  165  270  346  370  363  352  351  354  332  252  115  -43  -185  -287  -346  -389  -462  -593  -750  -871  -939  -995  -1056  -1107  -1144  -1177  -1209  -1234  -1247  -1253  -1259  -1262  -1245  -1189  -1106  -1036  -1005  -1002  -1008  -1011  -1010  -996  -957  -889  -791  -662  -525  -414  -340  -294  -273  -269  -270  -266  -242  -196  -134  -65  6  62  86  89  124  256  466  661  796  888  948  977  991  1002  999  955  855  736  661  650  673  683  645  551  440  321  180  55  -21  -92  -191  -289  -347  -362  -350  -329  -309  -294  -292  -319  -397  -528  -680  -817  -911  -897  -707  -326  237  940  1685  2378  2963  3353  3425  3145  2607  1884  1044  264  -297  -581  -608  -520  -439  -375  -331  -324  -354  -407  -458  -489  -501  -487  -450  -406  -354  -298  -253  -229  -218  -206  -183  -135  -25  177  428  633  744  800  858  931  988  1015  1016  987  915  819  748  724  731  749  770  786  782  743  670  590  542  529  520  477  385  249  78  -103  -259  -366  -457  -575  -712  -812  -850  -849  -842  -854  -893  -947  -996  -1034  -1065  -1089  -1108  -1137  -1180  -1231  -1285  -1337  -1370  -1365  -1311  -1216  -1097  -961  -801  -616  -420  -209  43  384  837  1343  1799  2161  2418  2552  2579  2531  2422  2266  2077  1852  1624  1475  1435  1454  1477  1488  1489  1474  1433  1374  1315  1262  1212  1177  1157  1141  1112  1053  952  831  738  691  660  608  518  417  352  332  330  313  260  152  15  -87  -131  -148  -162  -175  -192  -226  -274  -318  -352  -399  -476  -552  -528  -298  194  906  1658  2300  2831  3275  3519  3412  2936  2159  1224  411  -85  -323  -441  -513  -568  -567  -456  -309  -236  -251  -317  -397  -450  -455  -416  -356  -299  -261  -241  -230  -216  -196  -170  -126  -55  28  107  170  210  226  227  225  222  217  211  218  270  391  554  684  744  748  714  646  550  450  372  334  330  334  303  198  16  -202  -397  -522  -584  -623  -679  -780  -926  -1066  -1154  -1214  -1317  -1466  -1585  -1622  -1594  -1549  -1513  -1486  -1464  -1452  -1444  -1433  -1411  -1373  -1331  -1311  -1319  -1328  -1326  -1334  -1353  -1346  -1285  -1183  -1064  -962  -904  -888  -898  -923  -958  -995  -1016  -1018  -1020  -1047  -1109  -1184  -1233  -1227  -1163  -1076  -1010  -974  -940  -888  -832  -780  -723  -671  -642  -627  -615  -610  -614  -622  -630  -678  -813  -1002  -1156  -1237  -1280  -1349  -1481  -1641  -1755  -1799  -1800  -1793  -1798  -1822  -1854  -1889  -1942  -2031  -2158  -2298  -2403  -2456  -2482  -2474  -2395  -2185  -1801  -1294  -749  -176  457  1129  1735  2125  2163  1806  1192  572  124  -109  -198  -262  -362  -463  -538  -605  -675  -730  -751  -732  -692  -668  -679  -696  -696  -695  -717  -767  -829  -883  -922  -952  -983  -1032  -1096  -1154  -1189  -1200  -1192  -1179  -1171  -1175  -1195  -1228  -1258  -1270  -1272  -1296  -1376  -1500  -1620  -1703  -1748  -1767  -1769  -1759  -1764  -1831  -1981  -2180  -2343  -2399  -2324  -2063  -1492  -606  303  886  1090  1078  988  908  901  983  1120  1248  1324  1355  1384  1451  1546  1639  1757  1969  2252  2477  2569  2563  2515  2446  2365  2278  2200  2150  2127  2122  2136  2174  2235  2302  2347  2362  2360  2352  2338  2321  2318  2357  2459  2621  2795  2898  2887  2785  2659  2554  2469  2400  2363  2356  2359  2362  2363  2353  2317  2258  2186  2101  1988  1852  1709  1529  1254  916  635  470  375  285  193  130  110  129  182  252  310  341  343  322  298  301  346  417  482  575  814  1267  1896  2600  3237  3712  4004  4065  3836  3358  2722  1984  1202  501  4  -245  -279  -201  -139  -159  -258  -384  -479  -510  -490  -458  -444  -450  -463  -476  -486  -492  -474  -419  -357  -331  -327  -309  -286  -284  -300  -311  -272  -126  122  373  520  560  561  566  577  584  588  587  576  543  479  391  305  236  137  -77  -413  -752  -982  -1110  -1225  -1390  -1615  -1880  -2156  -2406  -2611  -2773  -2900  -2997  -3068  -3106  -3088  -2979  -2748  -2445  -2194  -2064  -2011  -1973  -1933  -1905  -1885  -1845  -1767  -1643  -1442  -1135  -770  -436  -176  0  99  146  173  177  132  42  -42  -86  -93  -79  -49  -7  31  59  90  151  258  390  505  587  682  847  1045  1157  1120  1000  899  857  857  895  986  1099  1144  1051  851  658  548  491  419  322  246  220  227  219  154  31  -92  -162  -175  -167  -159  -154  -155  -173  -214  -256  -267  -251  -217  -130  67  411  915  1558  2237  2776  3031  2949  2533  1875  1135  422  -160  -506  -624  -593  -471  -371  -418  -570  -697  -758  -766  -706  -564  -387  -260  -214  -215  -223  -213  -180  -133  -93  -67  -41  1  55  103  147  219  346  516  675  765  761  687  608  594  649  733  830  927  1009  1057  1035  947  867  841  847  849  829  791  756  727  690  631  546  415  213  -27  -218  -316  -370  -459  -608  -770  -901  -995  -1060  -1097  -1112  -1122  -1137  -1143  -1117  -1058  -1001  -969  -958  -959  -965  -967  -949  -904  -855  -842  -879  -935  -976  -992  -1000  -1011  -1021  -1021  -1010  -997  -993  -997  -997  -983  -969  -966  -971  -973  -957  -912  -848  -793  -759  -733  -683  -583  -453  -349  -290  -255  -228  -207  -185  -149  -90  -20  39  81  103  85  -5  -173  -366  -525  -621  -651  -640  -623  -613  -608  -604  -600  -600  -609  -631  -662  -676  -658  -631  -625  -641  -638  -539  -289  124  709  1441  2232  2974  3584  3984  4067  3727  2954  1882  818  125  -43  142  367  375  136  -150  -307  -332  -292  -226  -160  -120  -114  -127  -139  -127  -78  0  74  117  134  140  152  178  210  233  241  245  256  284  345  444  540  590  606  618  633  652  684  748  824  839  774  698  656  646  654  672  687  689  680  669  638  554  411  231  39  -138  -273  -361  -418  -471  -539  -623  -716  -824  -947  -1075  -1217  -1391  -1579  -1724  -1792  -1780  -1701  -1594  -1509  -1458  -1423  -1389  -1342  -1283  -1242  -1228  -1213  -1190  -1183  -1207  -1248  -1283  -1300  -1305  -1302  -1287  -1255  -1201  -1139  -1093  -1073  -1062  -1043  -1001  -948  -909  -897  -899  -903  -902  -893  -876  -837  -749  -611  -468  -364  -304  -260  -197  -114  -55  -47  -79  -132  -195  -261  -325  -383  -433  -472  -500  -533  -611  -740  -867  -956  -1013  -1043  -1048  -1025  -961  -854  -727  -623  -565  -526  -456  -337  -164  181  867  1845  2837  3593  3966  3856  3309  2484  1451  347  -471  -811  -784  -578  -429  -496  -665  -756  -749  -696  -637  -591  -563  -549  -545  -545  -541  -536  -542  -565  -582  -549  -440  -275  -115  -9  37  50  67  105  155  212  307  459  635  782  891  973  1035  1078  1102  1112  1115  1116  1119  1125  1139  1157  1168  1145  1070  954  820  671  512  367  218  36  -153  -292  -356  -368  -364  -370  -405  -472  -542  -576  -576  -550  -485  -385  -271  -180  -158  -196  -238  -259  -264  -255  -230  -176  -78  48  163  231  251  246  238  238  250  274  305  330  342  342  333  310  274  250  262  301  345  391  434  475  520  571  616  638  639  637  654  707  800  906  984  1017  1006  958  891  839  798  715  547  340  187  119  102  97  86  59  16  -31  -80  -125  -158  -177  -192  -204  -202  -189  -191  -222  -215  -96  99  319  598  983  1508  2198  2964  3555  3731  3467  2899  2195  1482  835  318  1  -63  82  244  254  163  108  121  156  172  156  109  46  -12  -54  -73  -73  -57  -24  23  71  98  105  119  170  250  318  348  348  342  349  387  462  557  641  696  726  750  793  856  891  862  796  741  703  664  610  543  473  408  363  342  333  312  237  86  -127  -343  -494  -571  -627  -698  -769  -818  -851  -883  -921  -950  -965  -973  -978  -972  -941  -885  -849  -893  -999  -1097  -1152  -1165  -1141  -1101  -1056  -999  -915  -789  -630  -506  -459  -463  -476  -479  -462  -436  -433  -468  -520  -558  -573  -572  -570  -569  -562  -553  -548  -538  -493  -400  -307  -271  -282  -300  -306  -297  -282  -278  -295  -333  -387  -450  -518  -582  -624  -640  -653  -697  -790  -910  -997  -1028  -1019  -993  -971  -963  -959  -935  -885  -832  -798  -771  -720  -624  -464  -194  221  766  1359  1876  2185  2211  1961  1541  1056  528  -8  -463  -758  -868  -840  -752  -680  -692  -764  -804  -796  -781  -764  -727  -681  -650  -638  -636  -636  -630  -603  -549  -480  -431  -420  -429  -429  -381  -270  -135  -31  38  107  170  219  270  315  341  376  465  617  796  951  1046  1072  1054  1027  1000  960  889  792  700  644  625  610  563  465  316  136  -17  -105  -146  -174  -195  -209  -227  -260  -295  -312  -310  -300  -276  -210  -85  71  214  318  378  400  400  388  354  269  129]
