reading_id,reading_time,wire_id,result_classification,heart_rate,heart_rate_alert,firmware_version,device_app_version,hardware_version,waveform_samples
7ab82f30-67c6-11ed-8080-808080808080,Sat Nov 19 04:56:07 UTC 2022,810063c81d39,NSR,87,NONE,20001.171.50,2.10.0,Charge 5,[10010  10410  10783  10998  11017  10963  10944  10970  10996  10997  10994  10970  10816  10418  9809  9153  8626  8325  8190  8034  7788  7737  8266  9249  10196  10909  11519  12168  12931  13629  13825  13309  12149  10508  8822  7611  6949  6638  6601  6772  6958  6946  6574  5842  5045  4548  4413  4437  4443  4374  4251  4112  3951  3767  3612  3506  3395  3214  2935  2601  2321  2164  2086  1981  1758  1428  1101  871  752  711  708  705  689  669  662  684  728  736  578  135  -525  -1139  -1497  -1649  -1753  -1876  -1993  -2079  -2161  -2292  -2493  -2710  -2856  -2904  -2906  -2962  -3196  -3643  -4181  -4611  -4827  -4883  -4897  -4926  -4954  -4957  -4944  -4952  -5005  -5087  -5155  -5189  -5192  -5174  -5140  -5094  -5054  -5039  -5040  -5052  -5086  -5164  -5271  -5362  -5404  -5408  -5400  -5397  -5406  -5428  -5469  -5540  -5638  -5732  -5789  -5806  -5803  -5789  -5764  -5733  -5711  -5705  -5710  -5710  -5702  -5707  -5747  -5803  -5833  -5820  -5778  -5737  -5703  -5661  -5601  -5547  -5533  -5551  -5537  -5468  -5405  -5383  -5364  -5249  -4957  -4554  -4236  -4088  -4040  -4033  -4035  -4008  -3959  -3932  -3949  -4002  -4060  -4105  -4153  -4228  -4319  -4395  -4439  -4458  -4463  -4451  -4407  -4327  -4224  -4116  -4028  -3994  -4052  -4209  -4413  -4588  -4681  -4660  -4533  -4356  -4117  -3692  -2984  -2039  -993  33  904  1479  1690  1556  1172  619  -97  -935  -1779  -2469  -2810  -2832  -2829  -2914  -2961  -2888  -2697  -2442  -2246  -2174  -2172  -2157  -2097  -2027  -1994  -1997  -2009  -1999  -1943  -1843  -1726  -1626  -1562  -1520  -1476  -1412  -1323  -1229  -1171  -1170  -1200  -1226  -1240  -1252  -1278  -1320  -1347  -1331  -1272  -1176  -1060  -968  -944  -1005  -1152  -1366  -1588  -1755  -1870  -1973  -2056  -2081  -2051  -2020  -2041  -2108  -2182  -2265  -2388  -2539  -2653  -2702  -2710  -2700  -2670  -2614  -2553  -2534  -2584  -2682  -2801  -2938  -3048  -3045  -2922  -2769  -2655  -2591  -2556  -2530  -2537  -2610  -2718  -2768  -2709  -2587  -2469  -2350  -2196  -2042  -1954  -1934  -1926  -1880  -1802  -1736  -1705  -1698  -1701  -1715  -1738  -1751  -1732  -1697  -1679  -1674  -1657  -1649  -1685  -1746  -1757  -1666  -1489  -1263  -981  -657  -379  -224  -180  -189  -201  -200  -192  -165  -101  -2  105  191  237  247  244  248  263  279  284  277  239  140  6  -102  -155  -169  -164  -140  -84  3  105  175  166  98  51  81  163  249  337  458  594  681  768  1083  1762  2680  3646  4544  5208  5472  5334  4855  4037  2911  1705  790  396  458  769  1096  1211  1078  899  823  822  834  822  785  749  752  801  844  799  652  502  470  606  853  1077  1189  1205  1184  1157  1138  1143  1187  1255  1317  1367  1426  1488  1523  1519  1507  1540  1650  1802  1922  1975  1959  1864  1691  1506  1427  1499  1620  1655  1557  1380  1225  1159  1160  1154  1069  894  690  498  302  115  13  31  113  181  207  210  204  186  157  143  183  278  388  475  517  492  389  244  122  44  -21  -107  -198  -242  -170  52  344  569  681  702  649  553  441  317  212  164  170  193  202  206  229  277  335  386  420  439  451  431  363  305  310  347  357  331  313  344  425  513  569  595  624  698  825  953  1008  970  887  837  842  850  830  789  713  579  395  223  139  136  144  122  64  -23  -120  -205  -278  -336  -375  -380  -320  -200  -69  44  133  234  447  710  819  891  1288  2097  3097  4061  4775  4931  4426  3623  2837  2042  1314  828  482  158  -27  -39  -9  -7  -30  -63  -105  -166  -239  -292  -301  -273  -225  -176  -135  -120  -137  -150  -142  -148  -202  -270  -289  -215  -67  92  233  375  510  599  618  555  403  215  85  42  44  57  88  149  205  201  153  140  191  274  346  368  314  200  83  15  0  5  -8  -67  -185  -350  -538  -731  -895  -994  -1034  -1055  -1066  -1039  -934  -757  -537  -291  -59  72  21  -230  -577  -847  -976  -1004  -932  -725  -444  -270  -303  -429  -476  -423  -348  -298  -281  -284  -275  -254  -272  -383  -556  -677  -675  -605  -547  -526  -530  -551  -593  -651  -708  -765  -819  -851  -824  -720  -571  -446  -393  -427  -550  -719  -836  -817  -645  -399  -198  -102  -109  -201  -319  -376  -330  -194  -9  197  377  450  362  145  -99  -276  -359  -396  -437  -467  -446  -392  -365  -383  -412  -415  -381  -328  -286  -264  -239  -202  -193  -316  -574  -698  -394  289  1139  2005  2822  3656  4551  5293  5585  5289  4414  3108  1691  537  -96  -197  12  232  267  106  -129  -295  -334  -286  -213  -165  -157  -184  -234  -281  -304  -302  -282  -239  -156  -52  24  63  101  163  226  274  320  365  400  442  522  627  704  730  721  683  592  449  310  252  299  404  508  601  692  770  815  811  737  585  393  217  89  13  -31  -105  -280  -524  -717  -798  -798  -758  -686  -591  -500  -443  -431  -448  -471  -488  -502  -526  -569  -618  -634  -608  -601  -671  -796  -897  -933  -903  -788  -578  -339  -173  -117  -169  -341  -601  -838  -958  -958  -866  -713  -549  -437  -423  -486  -563  -605  -600  -537  -409  -247  -122  -77  -132  -300  -525  -689  -714  -601  -401  -187  -25  51  58  41  27  9  7  81  277  536  731  807  813  798  770  696  558  411  279  126  -31  -157  -283  -444  -596  -673  -672  -646  -634  -648  -685  -745  -820  -897  -960  -996  -1005  -998  -963  -857  -669  -466  -323  -279  -302  -207  254  1131  2211  3196  3884  4244  4378  4383  4231  3728  2711  1364  163  -510  -637  -429  -134  33  28  -23  -52  -70  -55  -1  50  76  86  84  42  -67  -216  -331  -372  -343  -253  -124  -6  67  89  70  40  32  49  60  42  28  81  227  410  541  588  576  539  514  540  637  770  870  912  919  898  826  685  505  340  236  179  120  44  -48  -166  -334  -578  -841  -978  -912  -731  -577  -510  -529  -658  -911  -1187  -1321  -1236  -1001  -738  -527  -393  -325  -294  -289  -323  -416  -567  -700  -704  -559  -349  -161  -44  -30  -174  -508  -934  -1248  -1341  -1271  -1145  -1010  -883  -792  -738  -692  -616  -518  -438  -397  -381  -372  -358  -342  -331  -317  -289  -254  -240  -267  -311  -334  -323  -296  -279  -276  -259  -199  -109  -38  -12  0  51  203  469  750  882  767  435  13  -341  -539  -610  -631  -636  -614  -569  -521  -463  -342  -171  -89  -231  -562  -896  -1080  -1106  -1044  -950  -860  -776  -690  -599  -477  -259  164  943  2087  3260  4017  4280  4259  4055  3642  2953  1936  768  -140  -493  -348  -17  216  275  192  -11  -271  -470  -552  -557  -543  -533  -527  -516  -503  -495  -493  -493  -494  -496  -496  -475  -398  -250  -52  136  248  266  226  170  130  113  110  120  152  210  273  328  382  441  507  599  709  795  828  826  810  795  778  749  692  608  495  334  134  -28  -90  -61  14  104  181  230  251  256  256  255  244  213  165  110  44  -29  -84  -106  -107  -102  -96  -98  -118  -178  -281  -387  -429  -391  -323  -275  -249  -235  -235  -262  -316  -387  -442  -464  -463  -458  -452  -438  -409  -372  -341  -315  -283  -243  -203  -175  -165  -164  -161  -158  -147  -120  -70  -2  36  7  -59  -101  -84  -11  100  221  318  396  516  704  873  903  791  621  432  206  -32  -208  -284  -303  -331  -406  -513  -603  -644  -647  -637  -625  -612  -613  -667  -801  -966  -1054  -991  -782  -485  -177  76  234  294  375  694  1354  2261  3220  3936  4106  3640  2588  1142  -193  -918  -1003  -779  -548  -421  -405  -480  -605  -738  -851  -911  -897  -811  -690  -592  -544  -518  -483  -447  -414  -362  -290  -226  -191  -165  -112  -23  67  108  85  45  39  75  136  196  236  270  333  429  507  533  530  537  556  565  547  497  399  211  -48  -273  -376  -356  -245  -98  10  23  -91  -321  -572  -732  -773  -725  -615  -513  -585  -954  -1475  -1800  -1745  -1431  -1075  -807  -672  -683  -843  -1112  -1363  -1465  -1392  -1231  -1092  -1013  -975  -963  -975  -998  -977  -837  -568  -272  -72  -2  -23  -103  -244  -437  -615  -710  -707  -620  -487  -366  -302  -292  -314  -353  -393  -420  -429  -429  -421  -398  -362  -329  -289  -185  -5  163  244  248  239  253  288  335  381  399  358  276  240  294  342  278  164  151  229  231  71  -172  -384  -501  -532  -520  -492  -455  -415  -382  -365  -363  -367  -373  -381  -392  -398  -363  -253  -94  62  294  792  1589  2469  3222  3792  4152  4262  4120  3738  3132  2319  1311  269  -480  -741  -577  -169  271  551  550  313  46  -90  -110  -76  -11  79  164  215  231  228  220  212  208  213  223  235  254  303  370  370  290  268  376  506  574  620  720  886  1056  1146  1100  907  645  456  408  465  570  697  847  1016  1175  1285  1308  1221  1005  696  403  205  87  -8  -134  -297  -443  -531  -576  -583  -538  -440  -321  -242  -232  -258  -288  -339  -431  -539  -612  -636  -633  -623  -599  -540  -451  -406  -468  -598  -711  -760  -749  -720  -706  -708  -701  -646  -549  -497  -554  -646  -648  -530  -398  -401  -557  -739  -846  -873  -857  -822  -777  -734  -710  -700  -692  -682  -667  -633  -553  -403  -188  20  144  176  165  152  149  146  137  122  118  143  193  260  335  408  476  529  509  339  36  -262  -440  -514  -560  -601  -620  -614  -599  -586  -581  -578  -571  -560  -565  -604  -661  -700  -716  -735  -714  -474  218  1370  2635  3618  4163  4325  4221  3941  3492  2766  1745  703  -85  -571  -763  -741  -698  -714  -705  -641  -566  -504  -482  -525  -599  -639  -624  -582  -548  -533  -524  -506  -473  -420  -344  -273  -244  -247  -236  -187  -89  58  231  369  432  433  408  396  437  561  727  847  882  865  848  879  989  1146  1272  1329  1308  1189  1001  841  766  754  766  783  805  827  816  717  486  160  -145  -331  -383  -322  -135  156  413  463  253  -81  -333  -425  -425  -417  -420  -408  -366  -320  -298  -299  -313  -348  -425  -529  -609  -622  -547  -390  -197  -32  68  112  116  62  -94  -347  -616  -818  -932  -981  -981  -915  -764  -575  -444  -419  -478  -573  -651  -680  -665  -632  -601  -572  -539  -525  -558  -632  -713  -770  -796  -781  -687  -498  -294  -209  -296  -461  -549  -485  -341  -230  -191  -210  -299  -471  -678  -845  -950  -1040  -1146  -1247  -1327  -1408  -1508  -1607  -1673  -1700  -1702  -1693  -1695  -1744  -1868  -2030  -2168  -2281  -2401  -2474  -2356  -1917  -1147  -202  737  1663  2652  3656  4447  4758  4393  3321  1774  220  -905  -1466  -1596  -1547  -1528  -1593  -1684  -1747  -1773  -1776  -1772  -1769  -1771  -1778  -1778  -1735  -1612  -1436  -1291  -1221  -1207  -1214  -1203  -1143  -1030  -893  -754  -620  -482  -337  -217  -159  -157  -151  -75  67  211  314  371  393  397  394  398  442  561  726  871  982  1075  1132  1124  1047  942  863  818  747  580  333  96  -55  -113  -116  -114  -119  -119  -99  -74  -65  -45  31  139  213  216  142  24  -77  -135  -164  -188  -206  -209  -197  -174  -159  -165  -175  -168  -138  -122  -153  -201  -210  -162  -90  -40  -23  -7  38  101  152  187  208  218  221  228  244  249  229  195  174  182  231  324  436  531  579  569  507  420  355  359  454  615  769  851  866  854  843  843  867  938  1071  1226  1334  1328  1151  819  469  262  228  297  389  452  460  398  270  122  7  -61  -76  -11  131  278  325  246  126  25  -65  -76  137  682  1547  2593  3642  4465  4804  4646  4230  3676  2954  2132  1333  664  282  215  214  73  -94  -108  0  117  207  255  218  55  -193  -406  -503  -513  -503  -485  -383  -121  224  457  485  390  297  257  257  294  389  531  660  725  733  721  716  735  781  836  878  902  909  878  791  674  588  557  574  631  716  804  870  898  881  825  741  650  562  479  392  296  200  113  28  -63  -165  -285  -436  -617  -796  -924  -969  -929  -833  -719  -617  -551  -521  -507  -498  -490  -484  -482  -494  -539  -621  -708  -764  -778  -752  -681  -591  -528  -511  -521  -532  -538  -538  -535  -535  -550  -592  -649  -689  -698  -689  -683  -703  -779  -910  -1043  -1124  -1143  -1100  -975  -761  -532  -407  -435  -558  -677  -726  -679  -541  -359  -197  -84  -20  1  3  9  12  -35  -182  -386  -541  -597  -592  -577  -578  -601  -639  -675  -699  -714  -740  -799  -891  -1000  -1110  -1180  -1149  -1017  -869  -795  -793  -738  -537  -240  162  804  1711  2726  3591  4091  4161  3844  3227  2412  1482  570  -91  -360  -357  -310  -356  -495  -644  -745  -787  -755  -644  -493  -370  -308  -286  -269  -239  -201  -182  -199  -230  -246  -232  -186  -122  -61  -14  18  45  61  62  55  56  68  101  187  353  568  748  837  824  695  458  208  52  8  32  106  248  437  601  685  702  690  672  638  553  365  59  -282  -527  -643  -691  -712  -715  -708  -704  -712  -743  -802  -865  -891  -857  -772  -659  -537  -425  -352  -339  -399  -501  -588  -626  -628  -621  -625  -634  -633  -616  -596  -586  -577  -557  -533  -514  -504  -511  -544  -601  -666  -718  -740  -727  -698  -674  -648  -607  -560  -533  -522  -509  -498  -496  -504  -509  -485  -408  -292  -174  -71  16  118  268  430  529  523  416  263  147  100  94  96  100  111  122  110  29  -147  -363  -515  -570  -576  -578  -588  -616  -676  -751  -817  -873  -917  -930  -897  -831  -767  -692  -511  -144  367  936  1558  2294  3174  4077  4679  4678  4039  2916  1540  248  -608  -897  -801  -616  -501  -481  -558  -716  -894  -1010  -1035  -1005  -974  -967  -980  -984  -932  -800  -655  -600  -624  -636  -614  -600  -607  -608  -544  -377  -146  43  131  140  119  93  74  93  197  388  586  702  731  725  719  703  656  583  517  477  456  435  405  384  413  519  674  814  899  882  666  205  -335  -688  -742  -565  -299  -87  8  29  22  -29  -175  -390  -564  -620  -558  -402  -183  21  140  159  90  -56  -242  -396  -473  -473  -407  -280  -120  23  101  94  16  -90  -166  -180  -143  -88  -46  -31  -46  -102  -193  -293  -369  -394  -365  -305  -250  -213  -193  -202  -266  -400  -550  -606  -466  -131  255  520  604  508  231  -134  -398  -425  -204  162  503  702  750  620  268  -192  -532  -660  -663  -620  -545  -452  -383  -361  -385  -451  -540  -627  -709  -801  -891  -951  -975  -986  -1010  -1048  -1062  -1022  -919  -688  -206  587  1608  2661  3584  4346  4897  5052  4698  3891  2716  1399  331  -306  -615  -717  -704  -689  -695  -668  -625  -609  -620  -641  -668  -695  -677  -587  -482  -420  -400  -405  -422  -440  -463  -500  -540  -552  -503  -390  -258  -161  -97  -7  136  289  390  439  466  485  497  493  465  424  393  396  441  512  568  584  563  522  482  455  440  444  468  499  494  364  51  -334  -594  -670  -650  -621  -608  -609  -618  -629  -625  -598  -554  -516  -501  -528  -612  -730  -817  -811  -686  -483  -295  -184  -142  -153  -225  -338  -423  -424  -338  -215  -127  -95  -99  -119  -157  -214  -270  -298  -283  -220  -117  -7  54  44  -7  -57  -80  -79  -63  -51  -78  -168  -290  -380  -407  -382  -324  -248  -182  -144  -128  -122  -120  -112  -82  -4  128  268  361  407  436  430  363  265  211  255  392  568  711  759  610  172  -419  -854  -988  -907  -734  -551  -413  -335  -298  -289  -343  -497  -707  -857  -885  -827  -752  -688  -548  -174  498  1258  1840  2300  2866  3655  4628  5454  5672  5144  4047  2674  1408  544  92  -101  -176  -220  -236  -193  -100  -9  40  29  -35  -121  -183  -200  -192  -183  -194  -244  -322  -395  -441  -466  -485  -497  -474  -401  -328  -306  -331  -362  -355  -314  -279  -266  -262  -262  -282  -341  -425  -493  -518  -489  -403  -284  -182  -124  -100  -97  -107  -119  -124  -135  -175  -239  -299  -342  -377  -413  -458  -519  -576  -605  -605  -589  -570  -560  -578  -651  -784  -949  -1102  -1189  -1147  -945  -651  -400  -265  -223  -226  -249  -282  -305  -275  -159  -8  41  -102  -369  -596  -707  -733  -727  -709  -676  -630  -578  -532  -513  -535  -569  -585  -586  -582  -573  -552  -527  -508  -488  -454  -404  -343  -266  -187  -157  -200  -265  -275  -227  -171  -116  -44  33  88  112  124  157  230  330  420  468  464  390  227  34  -89  -127  -131  -131  -140  -174  -260  -388  -501  -555  -561  -552  -551  -564  -578  -548  -440  -294  -207  -218  -306  -391  -316  51  760  1758  2807  3605  4069  4303  4368  4199  3660  2685  1433  365  -79  23  269  383  314  158  45  6  5  11  21  36  44  11  -89  -228  -326  -347  -326  -288  -214  -97  18  93  138  195  285  397  497  551  552  519  483  453  439  471  584  742  865  915  921  915  909  917  956  1017  1046  997  893  790  708  639  594  582  594  614  622  571  421  215  63  11  33  93  158  184  144  57  -35  -101  -132  -144  -163  -196  -230  -236  -167  0  211  351  329  129  -155  -377  -468  -456  -357  -172  43  203  258  178  -62  -386  -629  -689  -565  -301  -12  177  235  207  117  -26  -199  -356  -475  -559  -612  -639  -665  -712  -773  -815  -831  -837  -837  -810  -732  -624  -536  -492  -486  -513  -555  -577  -572  -567  -573  -547  -461  -400  -495  -732  -969  -1115  -1192  -1264  -1380  -1522  -1617  -1620  -1550  -1461  -1393  -1351  -1342  -1421  -1649  -1959  -2186  -2228  -2098  -1868  -1650  -1525  -1370  -910  -88  847  1624  2052  2127  2120  2213  2265  2060  1477  589  -231  -635  -631  -435  -369  -769  -1455  -1821  -1709  -1427  -1172  -968  -822  -742  -719  -715  -686  -629  -594  -632  -731  -803  -758  -587  -354  -135  18  86  75  5  -85  -153  -175  -128  7  198  358  442  469  481  499  520  539  560  586  618  656  691  716  733  727  667  548  412  326  316  344  332  177  -151  -512  -673  -531  -211  69  183  100  -172  -526  -784  -893  -924  -909  -816  -647  -466  -327  -233  -186  -245  -441  -692  -867  -924  -897  -807  -651  -446  -250  -137  -131  -190  -240  -239  -208  -184  -167  -143  -131  -218  -480  -842  -1114  -1194  -1115  -925  -659  -394  -233  -204  -251  -309  -348  -354  -294  -139  61  200  199  54  -161  -333  -406  -392  -300  -124  94  268  357  375  352  323  314  309  261  156  41  -48  -129  -225  -350  -517  -683  -762  -738  -681  -643  -626  -618  -610  -597  -585  -583  -606  -656  -674  -541  -253  36  267  552  966  1525  2369  3513  4521  4876  4428  3262  1665  272  -421  -532  -405  -228  -108  -115  -238  -401  -516  -547  -505  -408  -293  -215  -206  -262  -345  -403  -387  -274  -101  39  97  99  112  177  275  356  406  453  524  613  689  724  731  761  836  921  982  1022  1071  1137  1186  1179  1119  1071  1099  1174  1220  1212  1178  1152  1119  1028  856  658  518  467  472  476  437  359  267  177  108  76  81  120  223  428  659  705  429  -20  -338  -373  -207  35  279  483  625  710  737  663  425  70  -232  -374  -378  -295  -147  21  159  250  305  328  304  216  77  -67  -183  -255  -280  -266  -219  -142  -44  56  142  184  132  -41  -255  -352  -276  -102  64  163  192  188  180  174  173  199  276  393  503  578  627  674  728  777  778  690  524  304  44  -206  -365  -416  -410  -378  -311  -223  -178  -226  -347  -478  -570  -613  -626  -646  -695  -746  -739  -672  -598  -527  -391  -95  411  1110  1958  2897  3801  4512  4883  4821  4309  3404  2250  1016  -77  -735  -912  -853  -735  -618  -544  -513  -487  -439  -378  -336  -327  -338  -348  -329  -251  -124  -11  17  -72  -273  -518  -688  -694  -512  -194  121  320  405  448  482  460  351  224  170  193  239  290  357  440  533  624  689  703  656  577  541  596  701  797  874  933  945  821  466  -39  -450  -625  -636  -604  -579  -551  -512  -478  -465  -465  -452  -418  -367  -321  -306  -355  -491  -708  -921  -1035  -1031  -966  -874  -738  -576  -487  -547  -695  -807  -839  -829  -814  -800  -788  -795  -851  -966  -1093  -1174  -1177  -1099  -954  -769  -596  -500  -526  -667  -848  -974  -1018  -1010  -982  -953  -940  -941  -946  -945  -935  -916  -893  -876  -867  -862  -858  -856  -854  -815  -691  -494  -313  -221  -213  -246  -286  -317  -326  -298  -216  -108  -47  -101  -278  -530  -783  -980  -1122  -1229  -1293  -1308  -1297  -1286  -1305  -1378  -1484  -1558  -1522  -1346  -1102  -921  -853  -850  -869  -927  -1038  -1076  -725  304  1907  3565  4804  5451  5503  5116  4566  3948  3109  2040  930  -66  -755  -968  -866  -755  -704  -630  -550  -530  -562  -603  -627  -625  -602  -549  -458  -349  -259  -201  -166  -152  -161  -182  -193  -176  -123  -34  69  154  205  247  313  381  398  373  378  465  619  770  841  793  664  540  471  450  452  460  471  493  534  578  596  584  566  560  557  535  482  412  347  244  29  -261  -484  -571  -578  -579  -592  -592  -552  -483  -454  -510  -598  -659  -692  -711  -683  -549  -306  -51  89  39  -209  -545  -788  -866  -840  -773  -699  -636  -594  -573  -562  -553  -548  -551  -567  -590  -610  -622  -619  -582  -495  -392  -334  -335  -365  -402  -430  -429  -402  -387  -447  -580  -688  -709  -677  -636  -586  -520  -449  -387  -340  -314  -311  -325  -346  -353  -325  -234  -49  187  358  370  207  -66  -335  -514  -593  -616  -636  -683  -754  -821  -857  -861  -853  -867  -925  -1012  -1088  -1117  -1098  -1056  -1025  -1055  -1174  -1266  -1124  -717  -134  626  1524  2448  3378  4206  4642  4514  3883  2931  1888  972  302  -150  -436  -515  -400  -256  -222  -280  -361  -440  -506  -531  -495  -419  -341  -290  -267  -256  -242  -226  -219  -229  -260  -306  -359  -394  -360  -228  -25  179  312  359  355  341  343  367  398  419  429  437  445  457  483  526  569  588  578  552  526  505  493  487  481  464  408  287  126  1  -58  -87  -108  -130  -170  -244  -349  -469  -578  -655  -681  -649  -580  -512  -474  -466  -473  -480  -472  -438  -385  -342  -327  -329  -322  -291  -249  -221  -205  -174  -107  -26  22  -7  -136  -313  -440  -469  -426  -362  -320  -308  -314  -320  -301  -236  -140  -50  25  91  138  158  167  169  141  58  -48  -93  -25  104  205  240  238  230  219  199  188  253  474  826  1152  1296  1215  956  586  179  -163  -361  -413  -346  -166  69  233  208  -27  -365  -628  -734  -714  -604  -431  -234  -51  99  195  171  -60  -500  -920  -991  -576  207  1186  2268  3346  4175  4517  4331  3744  2962  2117  1241  488  94  141  505  851  797  344  -120  -347  -415  -452  -468  -429  -361  -317  -308  -306  -281  -209  -97  27  136  219  283  339  379  363  253  78  -75  -144  -119  -16  154  357  520  605  631  627  597  526  425  341  320  374  495  652  795  885  907  814  549  187  -90  -201  -203  -176  -149  -123  -95  -68  -38  -22  -87  -307  -632  -899  -1015  -1017  -975  -912  -830  -745  -689  -682  -717  -772  -821  -849  -832  -733  -550  -354  -235  -233  -344  -528  -699  -788  -786  -704  -543  -339  -175  -106  -149  -296  -488  -627  -672  -645  -574  -474  -367  -285  -259  -286  -310  -278  -185  -76  -13  -26  -88  -144  -169  -171  -152  -99  -16  75  167  246  291  312  346  398  455  510  562  584  533  387  193  24  -96  -191  -261  -289  -289  -302  -376  -513  -666  -783  -836  -816  -722  -590  -486  -442  -440  -451  -462  -475  -474  -418  -259  12  342  736  1309  2105  3029  3909  4515  4672  4321  3418  2062  685  -252  -623  -558  -318  -171  -181  -260  -355  -461  -560  -628  -657  -640  -568  -468  -395  -369  -378  -409  -455  -502  -529  -521  -468  -364  -236  -142  -99  -81  -82  -114  -161  -177  -118  19  191  341  437  462  387  197  -36  -199  -249  -219  -135  4  195  393  539  609  625  605  520  337  77  -168  -330  -408  -421  -377  -309  -248  -195  -145  -115  -167  -364  -667  -933  -1061  -1058  -967  -830  -687  -553  -410  -270  -175  -143  -148  -151  -113  -11  118  192  169  89  4  -72  -143  -195  -223  -239  -247  -248  -245  -247  -260  -285  -298  -265  -191  -130  -121  -150  -188  -222  -261  -331  -444  -543  -545  -453  -351  -286  -248  -214  -172  -129  -105  -95  -70  -10  70  142  174  145  45  -88  -186  -224  -222  -193  -132  -53  -5  -18  -89  -193  -309  -436  -579  -719  -818  -854  -839  -792  -713  -607  -501  -446  -514  -760  -1112  -1400  -1533  -1514  -1312  -846  -61  1028  2257  3312  3953  4184  4157  3958  3621  3131  2343  1254  196  -504  -778  -739  -584  -484  -488  -536  -546  -471  -324  -159  -55  -70  -214  -418  -572  -630  -639  -650  -653  -602  -482  -321  -175  -92  -77  -99  -131  -154  -146  -83  34  163  245  268  263  264  274  277  269  273  321  435  582  688  701  617  483  408  459  575  625  530  346  193  93  -24  -174  -291  -329  -307  -276  -278  -316  -376  -460  -582  -704  -759  -738  -679  -599  -515  -451  -426  -436  -459  -479  -514  -588  -690  -769  -776  -687  -515  -317  -147  -25  37  -10  -205  -488  -727  -843  -854  -805  -714  -566  -351  -121  30  70  39  -6  -38  -50  -50  -50  -54  -68  -90  -123  -180  -252  -310  -332  -312  -254  -187  -145  -117  -42  122  326  467  507  487  456  433  419  416  447  534  643  674  546  291  21  -190  -360  -516  -634  -650  -541  -366  -224  -156  -129  -137  -264  -598  -1050  -1381  -1442  -1255  -938  -637  -412  -207  26  351  887  1706  2726  3821  4894  5742  6081  5807  4974  3660  2157  953  294  81  131  227  170  -19  -176  -225  -194  -119  -39  14  29  15  -6  -14  -1  34  86  135  161  161  143  115  88  76  113  234  423  602  706  728  693  622  548  512  526  561  599  648  702  746  781  810  823  819  819  868  995  1177  1342  1404  1281  945  522  217  98  99  149  209  258  280  251  130  -105  -391  -602  -685  -677  -605  -458  -266  -99  20  108  166  172  97  -76  -314  -534  -667  -709  -700  -670  -631  -570  -475  -378  -336  -342  -342  -319  -291  -262  -229  -194  -173  -209  -328  -484  -594  -638  -668  -740  -871  -1038  -1179  -1251  -1265  -1249  -1212  -1147  -1069  -1023  -1056  -1161  -1272  -1339  -1341  -1276  -1153  -1017  -926  -901  -918  -947  -966  -946  -859  -716  -575  -487  -466  -495  -533  -558  -596  -681  -808  -968  -1156  -1334  -1470  -1561  -1622  -1662  -1679  -1675  -1666  -1680  -1757  -1909  -2082  -2197  -2237  -2238  -2215  -2136  -1984  -1827  -1742  -1680  -1520  -1192  -607  316  1501  2784  3977  4739  4787  4165  3075  1747  506  -400  -962  -1255  -1330  -1294  -1269  -1280  -1303  -1328  -1351  -1382  -1436  -1483  -1485  -1452  -1416  -1393  -1374  -1341  -1283  -1195  -1083  -978  -920  -912  -905  -843  -714  -566  -458  -408  -390  -369  -334  -280  -202  -113  -40  15  87  187  282  335  356  383  431  481  513  532  537  499  388  232  120  113  213  360  463  441  271  15  -207  -328  -334  -243  -110  -6  42  58  62  61  57  51  51  77  151  263  368  416  351  143  -123  -288  -277  -159  -31  65  135  190  238  258  228  169  125  129  177  231  262  275  281  277  239  125  -60  -238  -317  -267  -133  21  150  221  234  201  131  41  -29  -62  -67  -56  -32  5  65  142  217  269  301  338  414  552  736  910  1024  1069  1046  933  697  357  11  -226  -333  -361  -354  -304  -196  -63  28  58  53  38  2  -73  -167  -228  -242  -241  -266  -328  -377  -327  -168  46  368  933  1791  2859  3970  4837  5134  4755  3924  2940  1992  1240  738  373  75  -108  -157  -103  -7  87  179  256  293  290  256  213  182  170  166  160  154  161  204  292  384  431  433  421  414  411  414  424  453  523  656  818  927  927  821  672  564  529  546  604  718  885  1053  1161  1208  1226  1194  1063  857  678  582  537  471  343  183  65  23  31  57  75  56  -38  -210  -403  -539  -594  -598  -593  -598  -605  -606  -610  -632  -673  -707  -709  -680  -640  -606  -586  -584  -593  -601  -622  -676  -735  -760  -742  -692  -641  -591  -507  -383  -271  -244  -336  -505  -669  -769  -822  -880  -935  -925  -814  -649  -514  -453  -447  -460  -459  -433  -394  -343  -276  -210  -167  -148  -137  -121  -104  -94  -79  -48  -6  40  83  125  207  373  583  729  720  522  193  -123  -339  -485  -594  -638  -605  -533  -491  -513  -583  -675  -777  -850  -868  -840  -768  -637  -483  -396  -427  -547  -712  -871  -887  -533  338  1539  2602  3342  3936  4372  4422  3972  3050  1852  773  128  -75  -52  -44  -143  -270  -356  -407  -420  -405  -390  -391  -413  -455  -517  -597  -677  -721  -688  -558  -377  -223  -120  -54  -38  -83  -135  -118  -33  61  152  270  397  478  485  430  346  259  178  137  201  371  570  733  834  873  879  888  912  926  912  903  927  968  1006  1035  1017  842  425  -111  -492  -591  -497  -354  -257  -224  -217  -168  -23  185  340  338  142  -180  -473  -624  -643  -582  -458  -274  -81  29  12  -84  -153  -130  -57  30  148  278  339  269  93  -98  -229  -288  -309  -325  -352  -388  -420  -435  -425  -390  -338  -266  -187  -158  -232  -367  -467  -483  -423  -313  -181  -62  8  -4  -121  -293  -420  -445  -361  -175  62  251  332  319  243  135  35  -26  -37  2  64  110  116  60  -82  -310  -571  -774  -845  -777  -616  -451  -359  -375  -498  -675  -824  -903  -935  -951  -947  -876  -690  -428  -196  -73  -86  -175  -141  248  1030  1993  2954  3826  4428  4578  4240  3407  2180  957  151  -152  -123  -40  -114  -292  -423  -492  -547  -610  -678  -731  -759  -772  -778  -768  -730  -684  -665  -664  -647  -620  -605  -603  -594  -553  -453  -294  -129  -23  23  67  133  197  230  216  161  107  80  71  71  103  195  328  441  502  525  544  572  598  613  614  586  505  366  203  58  -49  -114  -145  -156  -157  -159  -186  -275  -429  -602  -737  -814  -837  -808  -721  -574  -406  -297  -293  -363  -459  -555  -642  -715  -756  -737  -645  -513  -407  -360  -364  -406  -478  -556  -597  -577  -522  -476  -459  -462  -471  -488  -523  -574  -625  -660  -653  -590  -511  -500  -597  -745  -841  -853  -820  -760  -669  -569  -503  -482  -486  -486  -463  -408  -326  -232  -146  -74  -10  49  101  142  171  186  193  202  211  219  228  243  260  270  248  149  -49  -286  -458  -538  -586  -661  -766  -853  -882  -867  -848  -842  -841  -838  -835  -846  -887  -947  -1002  -1045  -1078  -1076  -949  -522  398  1808  3419  4877  5869  6137  5640  4564  3145  1661  471  -173  -331  -298  -337  -459  -515  -484  -461  -497  -599  -769  -958  -1096  -1161  -1168  -1108  -965  -782  -640  -576  -562  -563  -562  -553  -543  -551  -598  -683  -764  -786  -710  -557  -402  -316  -301  -308  -285  -208  -105  -30  8  51  123  201  228  156  -3  -179  -303  -368  -411  -442  -419  -304  -146  -69  -144  -313  -464  -547  -580  -596  -610  -620  -616  -612  -667  -837  -1072  -1246  -1292  -1243  -1151  -1044  -916  -773  -662  -614  -611  -618  -637  -699  -797  -859  -801  -611  -379  -227  -198  -258  -353  -439  -491  -493  -443  -346  -216  -78  18  -5  -204  -484  -652  -610  -440  -276  -172  -109  -84  -117  -193  -267  -315  -339  -340  -328  -313  -290  -232  -118  23  125  154  138  115  133  244  454  699  899  1019  1065  1054  983  848  667  502  416  393  360  267  95  -140  -363  -496  -529  -496  -424  -334  -252  -193  -160  -156  -169  -171  -131  -51  21  27  -62  -193  -200  87  722  1677  2846  4027  5043  5719  5846  5404  4595  3601  2571  1681  1018  554  246  113  156  266  339  374  413  469  523  554  569  596  633  651  638  599  559  535  529  536  550  562  580  626  722  851  968  1062  1159  1257  1319  1321  1261  1152  1026  919  865  903  1051  1252  1401  1444  1403  1303  1170  1068  1077  1196  1331  1413  1440  1418  1332  1162  923  656  427  286  225  197  177  164  157  148  126  88  40  -3  -33  -48  -44  -8  72  182  257  230  82  -120  -269  -337  -371  -397  -400  -384  -368  -358  -350  -334  -308  -274  -241  -223  -232  -265  -306  -338  -353  -362  -383  -422  -468  -511  -552  -604  -666  -711  -724  -709  -678  -637  -599  -586  -609  -652  -691  -718  -735  -742  -748  -748  -714  -613  -462  -333  -279  -292  -326  -350  -354  -348  -349  -380  -463  -593  -721  -807  -867  -947  -1066  -1210  -1349  -1434  -1449  -1434  -1414  -1384  -1365  -1417  -1590  -1843  -2043  -2091  -2016  -1906  -1804  -1737  -1724  -1689  -1515  -1121  -421  547  1529  2322  2895  3154  2961  2353  1483  477  -472  -1120  -1413  -1508  -1539  -1532  -1542  -1640  -1785  -1881  -1905  -1874  -1803  -1714  -1649  -1621  -1608  -1594  -1586  -1601  -1639  -1663  -1626  -1508  -1328  -1161  -1091  -1122  -1179  -1196  -1141  -1015  -858  -717  -613  -541  -494  -463  -447  -446  -462  -488  -511  -519  -492  -417  -323  -278  -304  -351  -365  -362  -374  -384  -364  -333  -331  -385  -490  -606  -690  -753  -822  -903  -988  -1060  -1099  -1098  -1064  -1020  -992  -992  -1012  -1041  -1076  -1111  -1124  -1068  -900  -668  -504  -499  -653  -874  -1040  -1095  -1062  -976  -879  -813  -783  -749  -693  -657  -672  -707  -717  -684  -599  -489  -405  -368  -366  -407  -514  -661  -774  -803  -740  -590  -394  -227  -150  -171  -251  -329  -370  -380  -338  -219  -49  122  255  329  345  316  251  179  149  198  315  450  555  609  611  564  469  337  197  88  34  18  17  22  33  40  11  -77  -207  -315  -364  -374  -384  -415  -440  -409  -282  -82  97  243  472  870  1446  2208  3147  4160  5044  5541  5448  4706  3437  1973  760  33  -258  -258  -160  -80  13  142  271  363  374  278  132  37  25  43  53  73  116  156  169  172  214  336  500  619  653  641  641  697  821  975  1112  1204  1245  1246  1228  1218  1237  1289  1351  1397  1423  1438  1462  1491  1494  1462  1420  1385  1366  1365  1370  1364  1319  1222  1094  985  920  867  783  666  567  535  540  526  495  472  451  391  260  91  -29  -64  -43  -12  12  36  66  81  70  66  96  146  190  216  227  230  231  215  166  94  37  19  32  41  34  30  40  57  65  54  35  32  65  132  210  279  311  294  251  190  103  4  -65  -91  -83  -43  33  123  189  218  223  214  209  245  357  510  625  670  668  633  553  449  383  397  471  523  495  399  262  111  -7  -73  -115  -157  -186  -189  -183  -203  -275  -380  -466  -503  -509  -503  -484  -446  -387  -316  -232  -145  -61  164  812  1958  3392  4828  5949  6393  6028  5069  3816  2489  1300  382  -235  -549  -611  -560  -521  -542  -622  -733  -825  -868  -873  -857  -824  -784  -753  -728  -687  -619  -551  -516  -516  -539  -582  -639  -678  -665  -580  -451  -334  -267  -246  -238  -192  -63  145  361  488  485  366  197  66  18  33  88  176  291  382  363  221  45  -78  -140  -173  -215  -290  -378  -429  -426  -397  -364  -330  -310  -373  -612  -1004  -1367  -1517  -1434  -1244  -1086  -1008  -982  -977  -978  -979  -981  -988  -1005  -1028  -1043  -1044  -1036  -1028  -1033  -1066  -1136  -1224  -1292  -1328  -1343  -1335  -1278  -1151  -977  -833  -795  -862  -973  -1078  -1158  -1204  -1219  -1224  -1234  -1239  -1219  -1178  -1143  -1123  -1112  -1102  -1095  -1096  -1106  -1108  -1062  -937  -768  -636  -578  -566  -568  -577  -596  -611  -586  -491  -334  -176  -83  -82  -144  -221  -315  -483  -725  -940  -1041  -1044  -1020  -1017  -1044  -1098  -1174  -1250  -1291  -1283  -1248  -1216  -1200  -1202  -1238  -1327  -1460  -1589  -1623  -1470  -1114  -607  -10  681  1548  2587  3700  4713  5260  5020  4110  2874  1583  511  -137  -476  -751  -1015  -1151  -1105  -1003  -978  -994  -982  -994  -1077  -1147  -1097  -947  -801  -727  -718  -739  -765  -768  -722  -613  -446  -238  -42  72  95  81  92  153  245  336  432  557  692  781  807  802  806  840  896  948  982  1016  1071  1139  1173  1138  1054  976  931  905  886  877  863  837  805  734  600  437  285  158  69  25  23  54  113  180  221  212  148  57  -14  -50  -66  -83  -105  -120  -106  -56  15  75  107  111  82  16  -64  -124  -140  -104  2  172  316  309  145  -47  -155  -162  -110  -52  -10  17  33  38  30  2  -45  -91  -100  -25  148  362  525  579  520  379  232  174  247  388  502  564  613  674  739  785  800  793  780  762  739  707  656  592  533  471  369  211  45  -60  -88  -84  -88  -115  -157  -202  -237  -255  -257  -248  -234  -230  -270  -330  -259  77  620  1212  1774  2331  2961  3688  4354  4685  4520  3921  3015  1945  976  331  43  44  153  157  11  -202  -395  -503  -486  -331  -103  71  136  137  150  209  271  258  156  44  -3  17  66  94  122  235  440  644  762  808  846  906  961  983  973  955  952  972  1006  1052  1123  1212  1273  1242  1089  871  700  632  647  707  782  852  902  934  959  985  991  926  752  498  265  132  80  39  2  21  106  190  206  159  87  3  -84  -144  -163  -149  -118  -84  -62  -58  -65  -81  -115  -180  -286  -402  -462  -425  -309  -168  -49  3  -78  -345  -705  -965  -1052  -1042  -1021  -1010  -993  -966  -950  -968  -1002  -1016  -994  -965  -965  -991  -1010  -999  -977  -980  -1015  -1046  -1047  -1016  -948  -820  -665  -554  -501  -461  -412  -383  -399  -447  -511  -599  -706  -796  -843  -848  -837  -861  -990  -1226  -1471  -1623  -1670  -1662  -1647  -1640  -1641  -1642  -1642  -1642  -1644  -1653  -1663  -1653  -1602  -1495  -1293  -984  -584  -48  668  1520  2452  3366  3992  4029  3392  2195  746  -468  -1142  -1344  -1283  -1138  -1032  -992  -1000  -1044  -1106  -1170  -1220  -1253  -1271  -1247  -1140  -939  -709  -555  -542  -668  -857  -1003  -1068  -1090  -1106  -1094  -1015  -874  -740  -668  -645  -627  -584  -513  -430  -371  -354  -364  -369  -349  -286  -175  -57  -2  -35  -121  -201  -244  -255  -254  -252  -251  -240  -215  -185  -167  -172  -240  -423  -673  -868  -951  -962  -953  -940  -930  -931  -947  -979  -1021  -1073  -1126  -1158  -1149  -1088  -979  -848  -742  -693  -691  -702  -692  -631  -515  -378  -259  -182  -159  -189  -263  -352  -416  -436  -422  -401  -393  -390  -360  -299  -244  -222  -221  -222  -219  -228  -266  -333  -397  -426  -405  -336  -232  -117  -21  32  58  91  147  211  264  306  350  419  527  652  752  804  830  863  883  830  681  505  382  307  221  90  -67  -211  -322  -406  -464  -493  -502  -503  -492  -456  -393  -325  -283  -273  -278  -279  -265  -238  -199  -101  139  612  1418  2568  3875  5026  5716  5808  5387  4598  3470  2067  717  -204  -607  -621  -445  -293  -276  -342  -405  -449  -481  -475  -411  -322  -266  -259  -275  -278  -263  -248  -238  -228  -214  -194  -175  -166  -168  -174  -164  -90  101  390  644  752  744  740  799  873  907  906  896  896  920  968  1006  986  915  853  832  825  797  761  764  816  877  915  929  926  912  868  744  517  249  40  -92  -184  -230  -181  -37  118  198  172  51  -110  -240  -303  -318  -313  -304  -296  -301  -343  -431  -536  -608  -626  -582  -473  -330  -221  -184  -222  -332  -473  -572  -589  -544  -476  -443  -485  -591  -704  -778  -804  -808  -823  -868  -944  -1015  -1010  -906  -736  -554  -423  -387  -416  -439  -410  -336  -238  -126  -16  54  74  64  49  52  101  207  339  444  492  489  442  357  260  174  96  15  -64  -139  -196  -228  -260  -328  -422  -495  -522  -508  -463  -399  -336  -288  -258  -244  -238  -241  -235  -135  173  800  1822  3139  4478  5571  6204  6247  5726  4775  3544  2226  1113  430  196  256  349  256  -16  -298  -474  -556  -590  -595  -579  -565  -572  -600  -642  -702  -773  -823  -811  -718  -576  -445  -353  -290  -248  -226  -232  -269  -315  -335  -329  -321  -320  -312  -286  -246  -201  -147  -80  -19  9  0  -35  -93  -171  -256  -325  -359  -352  -324  -307  -319  -340  -345  -341  -360  -425  -518  -602  -671  -741  -823  -918  -1012  -1079  -1115  -1138  -1158  -1174  -1178  -1152  -1087  -1017  -986  -983  -961  -910  -856  -824  -816  -819  -822  -818  -792  -727  -641  -579  -562  -576  -597  -611  -615  -609  -591  -567  -545  -533  -529  -529  -539  -563  -596  -619  -622  -615  -625  -675  -767  -861  -912  -903  -833  -710  -562  -438  -358  -312  -288  -268  -233  -173  -94  -19  27  51  83  145  233  321  360  327  259  210  188  161  90  -40  -203  -341  -422  -457  -465  -458  -446  -441  -445  -448  -433  -402  -377  -366  -344  -269  -165  -158  -285  -340  -109  464  1374  2521  3690  4677  5309  5371  4789  3783  2657  1636  902  526  383  298  203  133  110  115  121  118  108  96  88  84  85  87  87  83  67  22  -51  -119  -127  -9  262  590  810  842  719  529  370  288  260  251  272  373  590  868  1088  1170  1061  720  263  -60  -102  101  391  603  694  740  825  987  1195  1338  1247  792  83  -534  -829  -870  -826  -781  -722  -611  -462  -327  -230  -175  -171  -213  -284  -382  -492  -583  -654  -723  -783  -816  -832  -855  -899  -978  -1112  -1270  -1346  -1238  -949  -617  -392  -306  -337  -541  -964  -1462  -1792  -1855  -1717  -1497  -1308  -1215  -1206  -1260  -1365  -1486  -1564  -1567  -1497  -1391  -1292  -1217  -1168  -1170  -1273  -1489  -1737  -1908  -1963  -1923  -1813  -1678  -1589  -1569  -1573  -1527  -1371  -1106  -813  -594  -484  -465  -501  -537  -548  -561  -609  -688  -770  -837  -882  -909  -925  -941  -965  -989  -995  -955  -866  -777  -730  -702  -674  -666  -679  -676  -639  -589  -551  -460  -141  550  1583  2735  3734  4384  4607  4470  4118  3653  3048  2236  1292  454  -61  -215  -104  100  169  59  -24  10  67  87  84  71  53  39  36  49  74  101  126  155  193  220  234  255  272  267  275  319  380  424  423  408  446  548  679  800  872  891  886  880  872  857  834  815  808  817  845  880  896  880  846  822  811  793  740  650  539  426  323  225  120  19  -51  -86  -100  -109  -121  -132  -143  -177  -259  -374  -471  -520  -527  -501  -438  -352  -272  -207  -149  -99  -70  -62  -65  -67  -68  -68  -66  -59  -50  -60  -127  -259  -398  -465  -431  -333  -217  -104  -11  11  -82  -267  -461  -592  -636  -615  -573  -525  -452  -354  -258  -192  -153  -111  -61  -33  -52  -100  -122  -90  -35  10  47  76  89  76  52  57  96  124  117  100  99  104  70  -48  -251  -473  -642  -740  -805  -854  -855  -803  -748  -728  -735  -742  -717  -643  -549  -480  -461  -518  -642  -680  -439  153  1091  2266  3409  4298  4937  5318  5287  4725  3624  2150  739  -162  -426  -223  124  293  153  -131  -320  -366  -343  -296  -245  -211  -200  -205  -210  -207  -197  -174  -136  -98  -71  -40  22  107  172  192  178  147  131  201  417  713  930  990  944  870  816  794  790  799  832  908  1020  1127  1186  1184  1131  1052  981  930  885  855  868  934  994  942  745  489  287  215  259  318  324  302  288  274  226  134  40  -4  19  103  220  337  412  415  333  184  36  -28  34  208  420  577  629  588  509  445  404  365  333  329  352  391  442  498  534  521  452  365  293  226  143  58  -6  -31  -17  25  99  214  350  436  363  69  -336  -639  -743  -693  -527  -245  93  369  496  473  337  162  37  7  61  185  371  589  754  787  674  460  209  -30  -281  -558  -791  -908  -931  -913  -865  -785  -732  -801  -992  -1188  -1305  -1366  -1423  -1468  -1478  -1469  -1447  -1400  -1331  -1283  -1285  -1233  -874  -2  1333  2875  4344  5412  5694  5066  3815  2333  866  -350  -1078  -1355  -1413  -1385  -1357  -1434  -1624  -1825  -1940  -1926  -1796  -1620  -1503  -1500  -1581  -1663  -1696  -1707  -1735  -1758  -1744  -1703  -1656  -1597  -1523  -1431  -1304  -1125  -924  -774  -714  -713  -718  -704  -658  -566  -439  -320  -241  -183  -112  -21  60  115  165  256  402  548  608  535  354  156  0]
