reading_id,reading_time,wire_id,result_classification,heart_rate,heart_rate_alert,firmware_version,device_app_version,hardware_version,waveform_samples
70a34150-62ea-11ed-8080-808080808080,Sun Nov 13 00:30:56 UTC 2022,810063c81d39,NSR,94,NONE,20001.171.50,2.10.0,Charge 5,[-778  -839  -876  -882  -862  -812  -732  -641  -571  -527  -485  -431  -377  -333  -288  -237  -196  -185  -193  -203  -199  -140  15  217  314  197  -94  -436  -713  -862  -881  -791  -604  -364  -160  -46  -8  -12  -34  -60  -80  -72  -6  119  253  330  336  301  261  223  175  109  45  2  -17  -25  -45  -100  -200  -326  -439  -505  -517  -485  -425  -358  -308  -283  -287  -337  -435  -506  -425  -114  437  1236  2253  3336  4259  4795  4771  4205  3328  2370  1394  482  -187  -530  -480  -11  584  917  928  812  695  588  531  616  821  1008  1096  1108  1089  1067  1056  1069  1108  1156  1189  1205  1211  1206  1198  1233  1350  1516  1662  1754  1798  1809  1789  1735  1645  1528  1404  1314  1284  1298  1320  1325  1312  1298  1286  1271  1251  1227  1203  1173  1121  1046  970  888  756  562  346  141  -43  -203  -334  -439  -520  -572  -595  -594  -593  -623  -694  -778  -826  -820  -793  -786  -814  -865  -915  -948  -958  -948  -915  -866  -814  -767  -722  -681  -651  -636  -632  -630  -621  -600  -571  -548  -543  -563  -598  -615  -577  -489  -391  -323  -279  -226  -159  -108  -90  -93  -102  -105  -86  -32  36  83  97  100  120  163  211  228  173  6  -268  -561  -747  -785  -729  -649  -591  -569  -587  -654  -756  -843  -865  -809  -688  -535  -408  -342  -324  -317  -308  -286  -128  359  1228  2314  3370  4197  4707  4859  4610  3932  2855  1563  322  -621  -1071  -982  -572  -220  -129  -155  -140  -105  -94  -99  -96  -61  6  78  119  120  91  53  24  6  -2  -5  -8  -15  -15  23  127  266  364  399  416  460  531  601  664  751  883  1022  1113  1143  1141  1149  1185  1224  1221  1169  1111  1084  1091  1124  1177  1242  1285  1240  1058  734  311  -112  -438  -619  -690  -719  -750  -800  -883  -994  -1089  -1127  -1108  -1072  -1046  -1021  -986  -955  -949  -956  -952  -935  -904  -855  -805  -777  -771  -775  -781  -794  -818  -844  -856  -858  -851  -819  -764  -717  -695  -689  -687  -699  -749  -842  -943  -1007  -1025  -1025  -1016  -962  -819  -622  -468  -407  -403  -405  -388  -337  -248  -152  -85  -50  -30  -21  -25  -48  -91  -155  -235  -325  -426  -537  -640  -704  -729  -746  -749  -708  -652  -653  -747  -893  -1006  -1056  -1066  -1030  -898  -680  -506  -449  -403  -209  246  1035  2131  3353  4387  4909  4764  3980  2729  1363  230  -548  -993  -1120  -1040  -950  -913  -869  -793  -705  -639  -618  -624  -624  -609  -599  -588  -535  -432  -313  -197  -91  -13  38  77  93  71  17  -28  -24  59  224  426  583  652  655  634  611  599  636  751  914  1048  1117  1150  1187  1236  1270  1248  1151  1016  914  880  899  954  1019  1042  969  793  558  324  124  -56  -246  -446  -614  -712  -755  -788  -823  -844  -851  -865  -905  -963  -1003  -994  -938  -882  -887  -959  -1038  -1073  -1063  -1039  -1023  -1009  -986  -950  -904  -872  -892  -958  -997  -963  -913  -923  -1007  -1092  -1097  -1041  -1010  -1024  -1047  -1057  -1057  -1046  -1023  -996  -980  -972  -935  -840  -703  -586  -534  -531  -530  -513  -485  -461  -440  -418  -395  -382  -382  -397  -442  -549  -736  -952  -1104  -1171  -1199  -1218  -1217  -1176  -1096  -1004  -938  -910  -909  -921  -942  -976  -1053  -1212  -1395  -1434  -1241  -825  -150  816  1981  3147  4058  4466  4261  3511  2433  1295  256  -611  -1188  -1423  -1411  -1248  -1018  -829  -710  -616  -531  -478  -470  -494  -516  -517  -491  -446  -387  -313  -238  -203  -225  -279  -322  -340  -342  -325  -271  -182  -82  23  154  316  493  649  746  779  782  793  825  875  929  988  1050  1095  1101  1080  1057  1036  1003  957  912  873  839  817  795  744  641  504  354  182  -26  -238  -392  -463  -475  -471  -487  -539  -589  -582  -525  -484  -497  -543  -580  -595  -597  -593  -573  -524  -441  -330  -219  -145  -115  -105  -103  -125  -181  -251  -295  -305  -299  -294  -292  -286  -261  -226  -216  -239  -243  -191  -85  51  156  195  223  313  468  620  715  752  759  777  849  982  1116  1178  1163  1120  1072  996  892  792  711  649  615  607  610  604  587  570  566  557  518  452  389  346  326  321  320  319  329  366  468  683  990  1393  2027  2940  3972  4857  5325  5248  4690  3811  2798  1791  872  211  9  222  563  776  812  763  687  570  415  283  233  264  335  396  428  439  437  429  420  406  393  390  394  395  387  372  370  413  525  689  840  915  913  873  819  750  685  664  692  734  763  783  803  824  839  845  841  826  800  765  723  682  631  536  386  228  113  39  -20  -102  -226  -375  -519  -637  -724  -793  -887  -1053  -1286  -1530  -1718  -1816  -1860  -1925  -2041  -2163  -2238  -2272  -2311  -2375  -2442  -2486  -2529  -2646  -2875  -3152  -3361  -3455  -3467  -3424  -3333  -3209  -3086  -2983  -2895  -2810  -2708  -2570  -2424  -2330  -2308  -2311  -2273  -2156  -1957  -1704  -1458  -1295  -1239  -1235  -1204  -1089  -897  -690  -528  -437  -410  -420  -456  -518  -584  -627  -644  -658  -677  -695  -709  -717  -709  -654  -542  -403  -282  -205  -179  -202  -246  -281  -304  -309  -238  -22  384  1031  1910  2884  3758  4379  4651  4529  4039  3278  2354  1363  463  -104  -222  -20  283  523  612  587  539  503  476  456  442  432  429  434  443  447  440  421  396  372  350  343  391  526  699  810  820  793  805  881  999  1122  1217  1277  1318  1360  1407  1449  1486  1522  1549  1557  1526  1441  1308  1165  1056  998  957  881  754  605  458  298  119  -54  -205  -337  -473  -620  -759  -878  -990  -1098  -1183  -1241  -1300  -1371  -1422  -1423  -1363  -1267  -1184  -1146  -1145  -1156  -1151  -1112  -1052  -1011  -1002  -1001  -983  -945  -895  -846  -809  -786  -759  -701  -604  -501  -436  -420  -429  -444  -455  -449  -413  -341  -251  -157  -57  38  97  112  106  109  135  180  225  274  350  449  539  595  613  593  542  463  336  145  -82  -287  -421  -475  -501  -592  -796  -1049  -1233  -1301  -1296  -1275  -1261  -1254  -1250  -1251  -1260  -1281  -1352  -1514  -1651  -1456  -761  302  1529  2693  3494  3810  3728  3267  2442  1454  507  -311  -878  -1090  -1031  -894  -800  -755  -735  -734  -743  -755  -762  -761  -749  -723  -685  -640  -594  -547  -501  -465  -450  -445  -422  -370  -308  -263  -234  -208  -191  -191  -180  -126  -25  99  230  370  509  607  643  641  633  643  674  714  743  753  739  686  581  453  368  352  370  379  359  310  236  121  -44  -221  -341  -386  -425  -539  -726  -899  -986  -986  -922  -822  -721  -652  -620  -612  -614  -624  -634  -630  -598  -543  -473  -393  -316  -265  -245  -243  -252  -283  -351  -454  -559  -642  -694  -718  -723  -722  -722  -730  -747  -769  -786  -796  -805  -810  -786  -713  -610  -528  -484  -450  -415  -390  -368  -307  -171  7  145  202  208  201  192  169  115  44  -13  -47  -74  -109  -162  -222  -264  -280  -281  -280  -277  -270  -260  -251  -244  -239  -239  -261  -315  -363  -291  44  710  1678  2860  4044  4934  5335  5188  4529  3546  2502  1503  559  -166  -488  -424  -98  289  493  451  321  244  236  281  373  482  560  589  583  566  550  553  603  718  867  976  1013  1010  1004  1014  1046  1094  1142  1177  1199  1227  1280  1346  1391  1403  1401  1415  1460  1530  1600  1645  1655  1651  1654  1654  1640  1624  1611  1575  1478  1329  1163  964  693  400  181  59  -4  -40  -69  -125  -233  -378  -505  -570  -583  -573  -559  -551  -554  -574  -614  -672  -732  -765  -737  -627  -475  -367  -360  -445  -566  -653  -684  -685  -674  -643  -588  -537  -508  -480  -447  -429  -448  -513  -600  -662  -681  -674  -664  -660  -657  -641  -601  -523  -407  -285  -204  -176  -172  -155  -104  -28  50  106  117  49  -121  -337  -491  -547  -551  -542  -524  -507  -527  -605  -710  -786  -811  -803  -783  -754  -725  -712  -718  -717  -664  -566  -525  -594  -637  -426  182  1161  2295  3263  3803  3860  3503  2811  1906  945  60  -610  -970  -1053  -952  -780  -673  -658  -636  -541  -413  -345  -383  -477  -555  -589  -596  -580  -528  -431  -324  -255  -240  -251  -243  -181  -72  36  126  200  251  280  303  325  347  365  376  393  438  511  581  624  644  657  669  673  657  610  547  503  498  518  534  519  464  378  268  140  -7  -180  -370  -564  -769  -954  -1066  -1096  -1087  -1073  -1063  -1054  -1046  -1041  -1029  -994  -938  -882  -847  -827  -800  -763  -726  -693  -651  -602  -578  -602  -645  -669  -667  -652  -654  -690  -741  -780  -797  -794  -785  -789  -815  -867  -937  -1003  -1039  -1018  -913  -739  -568  -472  -449  -437  -365  -216  -57  35  34  -37  -129  -188  -202  -195  -187  -184  -189  -208  -242  -290  -361  -459  -544  -559  -509  -452  -427  -425  -435  -453  -481  -509  -528  -530  -515  -472  -379  -239  -124  -106  -65  273  1039  2106  3162  3836  3929  3512  2760  1825  833  -75  -749  -1077  -1041  -776  -518  -405  -392  -394  -372  -320  -245  -160  -86  -26  38  118  193  240  257  250  226  213  234  282  330  356  362  376  449  609  805  950  1034  1101  1163  1211  1256  1322  1410  1497  1552  1579  1608  1640  1639  1574  1475  1405  1389  1390  1353  1245  1094  954  832  674  441  185  -16  -152  -278  -426  -569  -665  -710  -734  -765  -806  -837  -849  -850  -848  -841  -820  -785  -743  -700  -667  -668  -699  -736  -759  -767  -765  -756  -739  -702  -653  -618  -606  -599  -579  -554  -547  -564  -588  -602  -606  -604  -603  -603  -604  -605  -606  -606  -612  -634  -677  -738  -826  -937  -1023  -1046  -1005  -916  -804  -692  -592  -519  -477  -465  -491  -574  -720  -883  -998  -1043  -1053  -1063  -1080  -1094  -1109  -1150  -1224  -1306  -1367  -1388  -1374  -1344  -1310  -1275  -1245  -1233  -1240  -1263  -1287  -1219  -929  -380  423  1445  2517  3401  3934  4014  3591  2742  1695  699  -96  -615  -856  -959  -1009  -916  -654  -384  -243  -221  -244  -265  -265  -227  -143  -40  36  62  31  -51  -155  -226  -219  -124  21  161  257  302  307  293  281  294  346  431  539  674  816  909  931  906  870  845  835  838  861  915  1001  1101  1183  1227  1232  1209  1162  1086  952  738  489  305  219  175  108  4  -109  -200  -258  -294  -319  -333  -337  -336  -334  -341  -365  -411  -469  -514  -543  -570  -592  -582  -533  -476  -452  -465  -485  -494  -494  -495  -504  -516  -511  -485  -467  -477  -504  -530  -547  -552  -534  -482  -413  -362  -344  -345  -353  -373  -414  -469  -508  -505  -464  -411  -345  -238  -104  3  60  84  104  125  144  163  200  262  328  355  334  296  258  223  191  157  95  -18  -158  -263  -314  -334  -343  -347  -348  -351  -356  -360  -360  -359  -376  -421  -468  -480  -444  -374  -311  -313  -296  -30  618  1610  2775  3802  4422  4613  4486  4069  3317  2280  1134  118  -487  -560  -283  42  232  265  233  212  215  224  225  212  220  301  421  489  488  467  455  445  420  378  337  309  302  341  454  621  782  908  1006  1082  1132  1159  1180  1217  1269  1318  1356  1402  1471  1552  1616  1655  1688  1716  1692  1566  1367  1183  1064  999  972  952  883  724  474  180  -83  -279  -421  -521  -582  -633  -720  -844  -952  -1009  -1034  -1068  -1120  -1164  -1168  -1117  -1029  -944  -881  -844  -835  -850  -870  -868  -840  -804  -776  -760  -750  -741  -730  -722  -720  -718  -712  -699  -670  -614  -543  -493  -476  -478  -479  -482  -507  -568  -640  -675  -660  -621  -595  -589  -556  -445  -269  -102  4  52  62  59  72  133  250  386  492  545  556  543  504  441  367  296  233  188  155  113  48  -8  2  90  201  278  305  295  254  194  138  130  232  440  605  594  451  356  616  1474  2812  4251  5420  6035  6004  5445  4532  3467  2458  1597  920  500  375  458  583  640  640  623  616  631  677  749  821  868  889  888  852  776  679  597  551  525  496  456  411  376  360  362  374  394  432  502  590  657  673  652  631  625  618  580  495  376  243  115  0  -88  -144  -189  -249  -353  -535  -762  -955  -1114  -1299  -1509  -1678  -1789  -1896  -2066  -2334  -2642  -2876  -3007  -3104  -3202  -3268  -3297  -3323  -3347  -3355  -3349  -3337  -3330  -3343  -3387  -3450  -3504  -3532  -3553  -3589  -3627  -3650  -3693  -3786  -3868  -3864  -3770  -3609  -3420  -3266  -3187  -3162  -3137  -3065  -2938  -2776  -2587  -2396  -2255  -2190  -2181  -2193  -2195  -2150  -2025  -1843  -1685  -1609  -1592  -1565  -1459  -1247  -985  -781  -692  -682  -684  -657  -601  -529  -444  -347  -268  -243  -287  -378  -481  -563  -606  -614  -608  -604  -610  -614  -590  -517  -411  -322  -269  -231  -197  -168  -135  -86  -23  23  4  -57  6  394  1207  2453  3920  5159  5787  5662  4835  3584  2336  1354  630  148  -54  -47  48  175  303  387  413  408  391  365  331  320  379  530  714  840  880  866  839  850  912  984  1025  1028  1009  989  975  971  993  1061  1163  1261  1339  1403  1465  1541  1634  1717  1774  1810  1832  1841  1846  1857  1871  1884  1892  1895  1885  1836  1731  1597  1493  1433  1363  1218  1007  814  684  566  400  208  56  -20  -34  -25  -16  -12  -9  -4  -1  -3  -14  -28  -36  -36  -32  -29  -34  -53  -77  -96  -107  -109  -86  -19  68  119  95  7  -112  -238  -352  -439  -490  -511  -515  -509  -501  -522  -614  -752  -842  -841  -773  -664  -546  -469  -442  -433  -419  -411  -439  -518  -603  -626  -582  -511  -428  -344  -283  -275  -354  -519  -710  -882  -1021  -1106  -1132  -1128  -1120  -1118  -1118  -1109  -1089  -1069  -1073  -1087  -1072  -1034  -1028  -1061  -1085  -1050  -944  -772  -452  183  1144  2180  3024  3579  3854  3802  3315  2396  1249  134  -716  -1123  -1119  -933  -764  -699  -706  -686  -624  -574  -548  -537  -538  -538  -510  -421  -270  -120  -40  -39  -67  -84  -84  -68  -19  76  209  359  494  572  592  586  593  628  704  828  977  1095  1156  1179  1190  1196  1210  1242  1274  1291  1295  1292  1275  1238  1202  1199  1230  1253  1244  1212  1165  1082  947  776  591  407  241  99  -24  -135  -222  -268  -263  -205  -114  -33  7  13  4  -4  -2  25  85  154  196  198  171  115  20  -88  -147  -123  -45  30  75  89  83  69  56  49  46  43  39  35  30  11  -26  -63  -67  -38  -1  50  148  275  373  414  408  383  360  359  397  463  516  527  497  446  402  374  350  313  254  177  104  61  53  59  60  56  53  53  56  58  53  35  6  -45  -141  -253  -252  -4  537  1335  2281  3207  3920  4279  4173  3535  2499  1379  380  -431  -921  -1026  -955  -949  -1031  -1103  -1114  -1086  -1052  -1031  -1024  -1030  -1045  -1068  -1092  -1108  -1105  -1077  -1031  -988  -961  -944  -910  -843  -755  -675  -614  -565  -520  -480  -455  -448  -449  -418  -276  8  330  535  591  575  551  539  539  554  580  603  620  629  625  597  524  387  211  56  -58  -179  -333  -485  -597  -692  -864  -1175  -1559  -1859  -1967  -1887  -1690  -1472  -1314  -1253  -1267  -1294  -1291  -1263  -1221  -1164  -1094  -1033  -1011  -1041  -1087  -1096  -1057  -1005  -974  -965  -964  -957  -939  -907  -866  -830  -806  -788  -763  -716  -657  -615  -620  -677  -759  -822  -846  -831  -772  -677  -577  -496  -431  -374  -338  -323  -314  -290  -230  -139  -48  18  57  83  103  97  27  -105  -258  -393  -497  -564  -591  -585  -556  -518  -500  -511  -525  -516  -502  -504  -516  -534  -565  -627  -739  -874  -933  -805  -473  0  569  1305  2279  3379  4328  4849  4775  4094  2985  1754  612  -323  -898  -1076  -994  -787  -571  -442  -390  -349  -303  -282  -293  -303  -283  -251  -234  -234  -236  -223  -176  -90  4  73  107  122  130  132  129  124  134  199  337  500  618  671  684  683  685  709  780  901  1038  1151  1212  1225  1210  1192  1188  1194  1196  1199  1210  1193  1081  857  579  316  104  -44  -127  -171  -213  -277  -381  -537  -715  -841  -875  -828  -722  -572  -424  -333  -303  -313  -367  -485  -634  -742  -777  -760  -714  -660  -621  -604  -602  -607  -614  -619  -620  -620  -618  -617  -616  -615  -615  -618  -623  -620  -591  -527  -442  -371  -336  -336  -357  -384  -405  -416  -421  -417  -404  -367  -275  -118  54  172  217  220  217  228  246  253  253  243  203  113  -29  -190  -316  -384  -407  -410  -408  -403  -396  -390  -385  -374  -349  -316  -292  -281  -265  -237  -209  -177  -108  61  461  1194  2243  3428  4439  4985  4884  4124  2940  1668  545  -276  -695  -723  -497  -234  -104  -121  -197  -260  -289  -267  -191  -83  13  73  95  90  82  90  106  116  114  105  107  141  217  325  454  611  778  892  910  834  712  625  634  740  891  1017  1087  1137  1195  1245  1272  1293  1343  1439  1549  1601  1559  1451  1333  1234  1152  1079  1010  946  891  824  675  399  79  -143  -234  -251  -251  -246  -224  -186  -166  -187  -226  -249  -255  -260  -267  -273  -286  -337  -457  -622  -760  -829  -843  -841  -844  -862  -912  -1001  -1102  -1174  -1207  -1215  -1214  -1208  -1194  -1171  -1142  -1109  -1078  -1055  -1039  -1029  -1036  -1074  -1144  -1222  -1275  -1283  -1213  -1046  -829  -643  -524  -463  -436  -420  -398  -368  -330  -290  -261  -275  -358  -481  -578  -629  -683  -788  -928  -1042  -1092  -1098  -1090  -1084  -1080  -1075  -1072  -1071  -1074  -1078  -1081  -1078  -1072  -1076  -1091  -1089  -1043  -952  -739  -243  623  1758  2921  3826  4274  4181  3543  2504  1350  306  -509  -969  -1061  -989  -890  -760  -628  -542  -505  -512  -545  -574  -583  -589  -598  -588  -535  -418  -261  -128  -55  -26  -9  13  55  118  190  245  282  323  373  417  450  472  477  477  524  659  841  969  1008  1006  1002  1008  1018  1026  1031  1032  1023  994  952  916  894  861  797  717  652  580  443  248  67  -71  -200  -325  -413  -456  -493  -567  -689  -792  -792  -693  -589  -543  -543  -561  -582  -601  -612  -610  -587  -544  -490  -452  -451  -483  -514  -525  -518  -509  -502  -498  -495  -491  -479  -453  -415  -390  -382  -360  -326  -330  -385  -442  -459  -432  -373  -290  -189  -95  -34  -2  28  73  126  169  187  188  186  186  176  143  85  12  -83  -219  -377  -502  -556  -559  -547  -543  -561  -615  -701  -786  -838  -857  -875  -917  -969  -995  -982  -958  -949  -944  -877  -638  -137  608  1484  2338  3034  3496  3639  3356  2696  1854  966  144  -449  -762  -903  -942  -855  -662  -476  -374  -331  -301  -279  -278  -297  -312  -302  -255  -174  -76  14  87  150  203  236  246  247  259  295  356  435  511  561  579  580  588  635  747  899  1022  1075  1082  1079  1081  1092  1106  1123  1143  1165  1179  1182  1180  1173  1146  1069  932  760  597  434  262  115  22  -40  -117  -213  -303  -373  -427  -471  -512  -553  -589  -611  -617  -594  -525  -428  -351  -320  -323  -333  -341  -350  -364  -382  -393  -395  -391  -382  -371  -364  -363  -366  -368  -361  -336  -297  -261  -237  -224  -223  -243  -294  -363  -416  -428  -399  -345  -287  -244  -230  -244  -271  -260  -145  76  302  415  396  314  231  145  18  -154  -326  -457  -550  -625  -688  -727  -744  -754  -765  -768  -753  -713  -646  -577  -544  -560  -601  -642  -682  -721  -746  -674  -388  152  926  1904  2957  3805  4234  4212  3713  2750  1536  345  -606  -1116  -1104  -750  -370  -169  -169  -293  -444  -570  -669  -735  -755  -714  -599  -447  -338  -304  -312  -317  -291  -234  -164  -100  -41  15  68  107  125  123  117  147  252  411  549  626  666  710  760  795  806  804  804  817  839  859  869  864  853  847  855  882  906  901  848  724  526  318  165  47  -94  -256  -374  -429  -468  -539  -645  -746  -792  -769  -712  -668  -653  -656  -668  -685  -702  -714  -718  -711  -684  -631  -560  -495  -456  -440  -448  -475  -501  -503  -474  -432  -402  -394  -398  -404  -407  -414  -434  -474  -527  -587  -660  -741  -797  -791  -711  -586  -477  -425  -417  -406  -344  -216  -62  52  102  108  105  120  164  215  214  118  -38  -171  -241  -268  -292  -346  -422  -491  -548  -605  -663  -719  -771  -812  -828  -816  -792  -767  -741  -731  -763  -840  -917  -901  -693  -264  385  1284  2381  3455  4244  4581  4381  3694  2735  1644  473  -572  -1210  -1337  -1073  -663  -319  -108  -22  -37  -132  -276  -411  -482  -480  -418  -321  -232  -183  -170  -175  -178  -152  -70  81  257  376  408  381  337  309  326  408  533  641  694  711  726  751  776  798  835  912  1015  1098  1133  1124  1097  1089  1133  1211  1267  1267  1236  1201  1150  1068  941  747  499  259  77  -47  -139  -218  -294  -383  -479  -552  -585  -580  -548  -499  -448  -419  -431  -489  -570  -634  -656  -629  -552  -454  -403  -444  -553  -650  -668  -613  -538  -483  -457  -452  -461  -482  -514  -552  -599  -669  -769  -870  -932  -952  -958  -966  -967  -935  -858  -764  -676  -608  -609  -671  -696  -653  -608  -601  -608  -601  -574  -536  -497  -461  -437  -440  -489  -598  -743  -875  -971  -1042  -1103  -1151  -1174  -1173  -1155  -1122  -1058  -966  -873  -806  -767  -738  -711  -691  -687  -700  -723  -729  -647  -375  190  1127  2379  3674  4674  5131  4881  3927  2550  1165  65  -599  -768  -583  -338  -195  -133  -114  -138  -200  -272  -323  -343  -346  -330  -278  -183  -63  46  112  134  137  139  145  167  230  338  438  472  474  514  583  632  652  662  679  717  779  851  921  988  1067  1153  1221  1260  1289  1308  1312  1309  1306  1296  1265  1213  1152  1082  986  854  698  540  404  292  170  10  -186  -393  -561  -649  -672  -664  -650  -643  -661  -717  -785  -819  -812  -792  -781  -773  -754  -727  -706  -699  -705  -718  -731  -731  -714  -690  -681  -705  -749  -782  -797  -805  -815  -825  -829  -828  -824  -818  -807  -789  -772  -762  -759  -763  -766  -752  -715  -664  -607  -553  -513  -487  -463  -436  -407  -367  -305  -232  -174  -145  -154  -205  -266  -299  -313  -387  -585  -853  -1062  -1154  -1172  -1153  -1095  -1017  -968  -968  -1004  -1061  -1117  -1152  -1167  -1174  -1183  -1219  -1271  -1255  -1116  -887  -553  -49  669  1658  2836  3883  4486  4499  3867  2730  1465  349  -572  -1167  -1284  -1065  -793  -607  -528  -526  -546  -564  -573  -555  -479  -344  -193  -66  31  107  162  199  226  247  257  257  258  271  303  351  405  462  519  585  685  818  933  1007  1066  1112  1127  1124  1146  1217  1312  1388  1437  1469  1480  1471  1457  1449  1445  1429  1387  1326  1253  1154  1024  884  731  544  347  188  70  -37  -156  -287  -401  -470  -496  -501  -500  -493  -469  -429  -383  -346  -320  -303  -296  -294  -294  -293  -295  -304  -323  -340  -342  -325  -304  -293  -294  -292  -254  -165  -76  -73  -158  -254  -308  -317  -294  -269  -269  -294  -320  -324  -322  -343  -384  -422  -443  -449  -437  -392  -315  -238  -194  -185  -190  -197  -198  -191  -173  -153  -147  -154  -167  -202  -292  -432  -573  -667  -713  -738  -769  -814  -858  -890  -912  -930  -952  -978  -985  -946  -870  -801  -777  -779  -702  -428  77  795  1678  2594  3300  3599  3421  2754  1751  718  -167  -838  -1203  -1256  -1105  -875  -706  -687  -753  -802  -819  -826  -833  -844  -853  -848  -808  -729  -644  -592  -580  -586  -592  -588  -571  -548  -531  -525  -525  -528  -531  -521  -473  -378  -268  -185  -137  -109  -87  -57  -7  61  128  190  270  393  529  619  643  621  574  515  455  401  341  261  157  47  -54  -155  -259  -350  -424  -505  -601  -688  -752  -797  -831  -869  -926  -1001  -1067  -1069  -963  -797  -667  -612  -610  -626  -634  -627  -621  -630  -642  -629  -584  -520  -455  -394  -332  -280  -257  -263  -281  -286  -234  -96  87  228  278  260  212  155  105  91  155  305  486  632  727  797  865  942  1037  1141  1233  1288  1300  1280  1248  1214  1165  1063  896  712  578  513  482  450  412  387  391  438  540  674  774  806  790  759  727  697  695  766  903  1041  1140  1281  1660  2394  3406  4424  5086  5189  4777  4033  3164  2312  1485  696  90  -190  -146  115  422  630  712  730  743  776  824  862  877  875  867  862  876  924  995  1064  1117  1158  1190  1214  1249  1321  1439  1584  1729  1850  1932  1976  1996  2001  1997  1991  2001  2052  2167  2334  2502  2641  2770  2897  2990  3025  3011  2964  2908  2879  2900  2960  3023  3054  3047  3024  2978  2847  2580  2233  1944  1765  1608  1326  828  195  -353  -679  -813  -870  -928  -1003  -1093  -1204  -1334  -1487  -1713  -2074  -2541  -2997  -3344  -3600  -3890  -4310  -4763  -5060  -5159  -5144  -5090  -5026  -4961  -4909  -4890  -4889  -4849  -4722  -4523  -4315  -4142  -4016  -3938  -3888  -3834  -3754  -3651  -3538  -3425  -3302  -3178  -3076  -2991  -2902  -2826  -2793  -2803  -2838  -2891  -2950  -2992  -3012  -3024  -3044  -3071  -3106  -3182  -3334  -3526  -3672  -3740  -3748  -3717  -3655  -3577  -3499  -3434  -3376  -3303  -3208  -3120  -3055  -2968  -2797  -2570  -2388  -2237  -1932  -1321  -398  730  1865  2808  3459  3746  3545  2794  1646  374  -750  -1418  -1489  -1155  -704  -339  -175  -184  -243  -281  -292  -278  -228  -136  -2  178  378  544  641  673  667  667  721  849  1000  1109  1185  1284  1403  1488  1522  1552  1622  1731  1842  1928  1999  2084  2201  2326  2426  2501  2581  2683  2790  2876  2928  2952  2959  2960  2956  2954  2954  2951  2932  2888  2808  2668  2477  2282  2132  2041  1989  1938  1855  1755  1687  1670  1682  1696  1704  1706  1695  1661  1600  1494  1306  1060  853  734  681  662  654  646  627  590  545  514  504  499  480  443  392  360  395  495  585  598  508  336  139  -11  -78  -72  -34  0  16  4  -62  -193  -342  -444  -479  -474  -460  -464  -508  -592  -687  -767  -831  -886  -929  -966  -1012  -1079  -1161  -1254  -1357  -1454  -1512  -1520  -1502  -1483  -1475  -1475  -1475  -1464  -1429  -1379  -1350  -1366  -1397  -1407  -1375  -1292  -1174  -1055  -917  -680  -304  179  812  1717  2865  4012  4920  5402  5255  4430  3125  1639  283  -603  -773  -321  322  732  774  576  342  201  170  224  343  490  591  594  479  273  43  -149  -284  -375  -474  -620  -798  -977  -1171  -1407  -1672  -1931  -2167  -2379  -2573  -2734  -2837  -2918  -3053  -3259  -3464  -3606  -3701  -3786  -3847  -3823  -3647  -3330  -3000  -2787  -2698  -2657  -2612  -2562  -2527  -2512  -2503  -2477  -2414  -2330  -2276  -2276  -2313  -2354  -2381  -2395  -2401  -2382  -2317  -2213  -2109  -2035  -1981  -1918  -1825  -1677  -1450  -1177  -947  -808  -733  -684  -648  -619  -570  -467  -314  -168  -75  -27  20  104  213  303  353  386  440  539  669  789  899  1036  1200  1349  1453  1520  1591  1706  1838  1942  2028  2130  2249  2363  2455  2551  2700  2899  3083  3203  3279  3347  3413  3466  3503  3526  3538  3540  3532  3513  3475  3420  3367  3330  3312  3315  3345  3414  3544  3725  3899  4024  4101  4142  4156  4160  4190  4258  4380  4655  5212  6106  7278  8511  9496  10019  10015  9504  8613  7580  6605  5789  5191  4828  4693  4774  4984  5194  5346  5446  5501  5501  5440  5347  5269  5225  5190  5131  5033  4895  4722  4535  4365  4201  3979  3671  3356  3137  3016  2928  2850  2783  2665  2416  2057  1693  1380  1106  882  738  651  547  367  99  -214  -514  -780  -1035  -1300  -1555  -1766  -1948  -2149  -2367  -2578  -2811  -3111  -3472  -3871  -4308  -4787  -5257  -5637  -5901  -6124  -6406  -6755  -7074  -7309  -7505  -7694  -7839  -7929  -8019  -8174  -8411  -8688  -8945  -9148  -9287  -9368  -9412  -9441  -9464  -9485  -9505  -9514  -9477  -9372  -9218  -9057  -8908  -8776  -8653  -8510  -8315  -8076  -7845  -7657  -7487  -7314  -7146  -6962  -6737  -6484  -6241  -6024  -5825  -5617  -5380  -5132  -4902  -4699  -4518  -4338  -4113  -3837  -3585  -3435  -3362  -3278  -3147  -3005  -2889  -2782  -2674  -2593  -2544  -2480  -2387  -2298  -2235  -2193  -2151  -2078  -1940  -1728  -1498  -1333  -1258  -1221  -1174  -1115  -1057  -962  -765  -438  60  804  1743  2683  3488  4091  4351  4131  3452  2483  1466  626  120  57  352  728  1007  1194  1303  1346  1373  1422  1489  1548  1582  1618  1704  1837  1962  2042  2085  2113  2163  2263  2400  2524  2594  2616  2620  2640  2703  2814  2945  3058  3147  3227  3308  3384  3441  3488  3568  3704  3854  3955  3998  4030  4092  4182  4278  4378  4476  4547  4572  4534  4419  4256  4123  4059  4041  4029  3991  3893  3711  3484  3282  3136  3037  2976  2945  2944  2967  2970  2911  2807  2713  2653  2611  2564  2491  2395  2281  2089  1746  1306  928  682  494  299  85  -174  -504  -876  -1238  -1549  -1794  -1967  -2063  -2116  -2186  -2299  -2432  -2537  -2577  -2567  -2545  -2528  -2514  -2480  -2385  -2203  -1988  -1828  -1738  -1667  -1586  -1494  -1392  -1272  -1150  -1061  -1020  -1012  -1017  -1022  -1030  -1051  -1087  -1105  -1073  -1004  -923  -831  -731  -635  -559  -500  -453  -417  -390  -358  -326  -317  -336  -349  -266  3  490  1207  2136  3119  3927  4452  4689  4617  4206  3497  2619  1699  918  527  594  874  1105  1229  1291  1321  1342  1366  1393  1431  1477  1524  1575  1630  1674  1707  1748  1784  1782  1736  1682  1657  1656  1651  1637  1649  1723  1853  1998  2127  2227  2285  2301  2297  2306  2375  2533  2717  2818  2816  2767  2721  2697  2700  2718  2716  2621  2367  1987  1607  1338  1206  1142  1024  763  371  -76  -514  -910  -1279  -1658  -2036  -2377  -2680  -2938  -3110  -3182  -3206  -3235  -3282  -3340  -3401  -3441  -3449  -3435  -3402  -3339  -3241  -3126  -3020  -2925  -2816  -2670  -2519  -2412  -2352  -2313  -2278  -2228  -2138  -2003  -1863  -1768  -1730  -1715  -1698  -1672  -1619  -1521  -1391  -1277  -1217  -1200  -1182  -1127  -1034  -918  -810  -742  -708  -671  -606  -521  -440  -382  -346  -321  -322  -418  -683  -1043  -1304  -1360  -1258  -1108  -1002  -962  -956  -962  -994  -1075  -1184  -1261  -1270  -1215  -1133  -1070  -1050  -1048  -1035  -986  -796  -299  581  1733  2895  3819  4359  4395  3845  2813  1550  289  -713  -1229  -1292  -1108  -833  -594  -475  -454  -458  -454  -442  -422  -398  -375  -348  -306  -247  -189  -141  -99  -42  42  132  190  205  200  210  255  326  386  416  432  457  512  613  749  885  1002  1095  1155  1192  1230  1275  1311  1328  1324  1315  1317  1330  1333  1287  1163  996  853  746  653  566  464  335  207  114  56  -15  -147  -306  -409  -434  -429  -431  -435  -428  -409  -391  -386  -394  -402  -401  -395  -393  -397  -390  -353  -293  -241  -216  -213  -224  -248  -277  -299  -308  -308  -299  -275  -245  -224  -218  -219  -209  -183  -151  -114  -69  -31  -19  -21  -26  -36  -54  -72  -86  -91  -90  -85  -76  -57  -39  -57  -142  -274  -394  -495  -624  -777  -887  -923  -925  -940  -974  -1007  -1024  -1028  -1023  -1008  -981  -942  -900  -862  -829  -810  -833  -872  -854  -693  -258  570  1720  2920  3876  4395  4373  3781  2721  1457  276  -617  -1068  -1068  -830  -577  -425  -418  -492  -538  -514  -452  -391  -351  -329  -313  -292  -275  -277  -295  -299  -253  -160  -55  44  138  221  281  315  331  344  358  367  386  448  566  713  831  888  911  947  1011  1078  1124  1146  1152  1157  1173  1196  1210  1206  1183  1129  1036  927  844  806  799  782  704  542  339  155  8  -108  -182  -208  -217  -231  -251  -266  -268  -259  -253  -267  -311  -370  -407  -408  -393  -379  -368  -358  -352  -358  -374  -391  -402  -407  -414  -418  -400  -339  -260  -216  -223  -260  -310  -354  -372  -363  -337  -308  -281  -243  -179  -107  -50  -9  24  56  97  156  223  281  312  324  336  363  396  419  404  325  187  33  -105  -227  -321  -375  -402  -431  -468  -509  -543  -566  -579  -576  -563  -552  -551  -552  -541  -508  -484  -524  -590  -517  -163  501  1421  2466  3477  4279  4688  4557  3853  2723  1479  396  -399  -840  -916  -772  -588  -452  -372  -333  -311  -292  -283  -290  -300  -294  -274  -259  -253  -250  -242  -232  -218  -203  -193  -188  -176  -134  -54  20  37  24  49  117  214  342  473  564  609  613  565  476  398  381  447  573  702  790  828  823  770  654  500  380  330  327  331  326  308  271  198  73  -98  -277  -424  -532  -619  -715  -832  -944  -1034  -1105  -1131  -1091  -1024  -985  -976  -979  -983  -985  -991  -997  -995  -981  -965  -957  -958  -964  -968  -958  -918  -850  -781  -758  -812  -918  -1018  -1085  -1130  -1168  -1206  -1241  -1250  -1210  -1122  -1021  -932  -845  -744  -635  -541  -479  -443  -418  -397  -372  -327  -255  -176  -137  -173  -266  -380  -494  -588  -656  -711  -762  -795  -801  -780  -739  -686  -636  -602  -580  -563  -551  -552  -577  -632  -719  -825  -901  -855  -601  -156  379  1016  1871  2881  3770  4286  4275  3672  2616  1407  282  -602  -1063  -1025  -671  -299  -87  -15  20  75  151  243  346  446  521  552  537  496  460  446  457  497  570  663  752  834  918  1001  1066  1105  1123  1129  1130  1121  1090  1045  1029  1099  1277  1495  1648  1687  1611  1428  1216  1109  1172  1330  1463  1517  1522  1514  1489  1427  1334  1219  1052  816  568  375  225  66  -118  -297  -446  -579  -704  -790  -817  -786  -700  -586  -498  -458  -446  -444  -456  -502  -590  -684  -742  -757  -752  -747  -745  -743  -739  -731  -718  -694  -648  -567  -475  -432  -483  -601  -716  -784  -817  -846  -880  -899  -886  -853  -818  -786  -755  -724  -696  -678  -665  -647  -603  -500  -328  -145  -49  -84  -221  -407  -596  -777  -947  -1077  -1145  -1155  -1121  -1067  -1025  -1008  -1014  -1032  -1055  -1083  -1107  -1114  -1097  -1059  -1035  -1081  -1181  -1185  -964  -533  53  757  1517  2278  2990  3528  3674  3267  2372  1249  175  -613  -970  -949  -756  -596  -543  -515  -418  -265  -131  -73  -78  -96  -99  -94  -91  -93  -90  -75  -44  -10  10  18  36  94  179  247  280  290  298  333  425  562  686  765  816  871  933  985  1019  1047  1088  1150  1223  1284  1279  1148  909  672  536  506  529  563  593  607  584  498  363  216  59  -132  -333  -470  -510  -490  -466  -482  -566  -705  -840  -921  -941  -927  -889  -828  -747  -680  -681  -754  -849  -925  -967  -968  -913  -797  -660  -560  -523  -532  -563  -591  -588  -549  -523  -562  -658  -762  -845  -913  -982  -1036  -1028  -942  -814  -683  -575  -507  -477  -468  -460  -443  -405  -335  -246  -184  -191  -282  -428  -556  -627  -677  -754  -833  -845  -789  -733  -714  -714  -713  -712  -713  -712  -702  -678  -637  -596  -572  -574  -626  -717  -717  -459  110  918  1824  2682  3397  3943  4248  4155  3574  2595  1441  373  -393  -763  -810  -701  -544  -401  -325  -310  -322  -347  -393  -448  -468  -403  -239  -34  116  173  174  166  180  231  326  433  506  530  525  514  501  493  513  597  744  890  975  993  978  952  940  990  1149  1369  1537  1607  1625  1641  1658  1660  1637  1597  1565  1551  1525  1442  1290  1123  991  847  628  374  179  54  -36  -94  -111  -109  -112  -133  -162  -174  -155  -121  -97  -88  -85  -82  -77  -75  -93  -145  -213  -244  -212  -146  -97  -77  -62  -26  15  38  43  51  64  66  36  -29  -107  -158  -171  -172  -232  -410  -655  -842  -924  -946  -921  -827  -689  -571  -511  -498  -493  -461  -384  -297  -263  -308  -393  -460  -512  -605  -758  -926  -1051  -1115  -1130  -1120  -1106  -1094  -1076  -1044  -1005  -986  -1005  -1041  -1063  -1052  -1023  -1018  -1019  -945  -747  -388  230  1179  2360  3524  4385  4686  4319  3413  2275  1198  305  -369  -775  -945  -979  -909  -738  -532  -404  -397  -458  -515  -545  -549  -509  -396  -236  -101  -23  14  31  36  33  0  -99  -247  -375  -425  -394  -310  -215  -146  -113  -92  -46  44  159  261  355  466  591  695  762  812  868  938  1020  1106  1181  1228  1245  1233  1174  1058  914  789  701  641  583  481  299  81  -83  -176  -254  -349  -448  -536  -619  -691  -732  -729  -698  -671  -654  -631  -620  -650  -697  -717  -692  -632  -566  -523  -504  -504  -514  -526  -527  -514  -493  -477  -470  -464  -448  -427  -423  -466  -572  -710  -836  -953  -1084  -1224  -1333  -1375  -1330  -1206  -1038  -880  -767  -711  -694  -698  -710  -709  -649  -501  -328  -254  -312  -424  -516  -584  -665  -768  -856  -898  -903  -887  -856  -816  -785  -776  -792  -831  -878  -910  -932  -968  -1026  -1077  -1070  -959  -763  -533  -243  217  952  1964  3082  4034  4585  4568  3915  2755  1372  62  -908  -1314  -1179  -848  -648  -626  -651  -647  -633  -630  -633  -631  -624  -618  -604  -565  -490  -383  -288  -239  -219  -183  -107  -10  67  117  158  199  233  253  260  272  330  458  627  776  874  934  987  1048  1120  1201  1282  1346  1387  1412  1427  1431  1408  1332  1210  1090  1000  922  840  760  674  569  464  359  211  4  -205  -354  -446  -528  -622  -699  -704  -629  -529  -459  -440  -454  -467  -475  -484  -482  -448  -393  -357  -363  -399  -444  -482  -504  -512  -512  -509  -501  -488  -480  -495  -533  -560  -541  -476  -381  -271  -179  -136  -146  -192  -245  -296  -339  -331  -233  -86  23  58  45  27  33  68  109  126  122  116  120  132  133  84  -49  -253  -465  -619  -678  -654  -607  -585  -591  -619  -675  -745  -796  -815  -811  -794  -761  -714  -668  -634  -632  -691  -762  -652  -196  597  1642  2785  3768  4327  4333  3773  2739  1507  396  -480  -1033  -1146  -945  -686  -504  -406  -358  -339  -353  -389  -394  -324  -206  -100  -36  -11  -8  -6  7  29  44  51  66  104  167  230  266  286  317  364  417  498  639  810  943  1019  1072  1128  1187  1237  1279  1322  1371  1415  1440  1442  1431  1418  1408  1381  1292  1113  906  770  713  642  485  265  70  -49  -109  -152  -198  -247  -300  -364  -440  -512  -557  -578  -585  -581  -562  -525  -464  -399  -372  -407  -479  -541  -570  -577  -576  -563  -527  -475  -435  -434  -477  -539  -590  -636  -701  -769  -797  -794  -776  -714  -610  -533  -512  -520  -522  -507  -469  -404  -319  -242  -192  -163  -157  -188  -245  -290  -305  -301  -299  -316  -367  -445  -528  -597  -659  -716  -753  -761  -748  -721  -676  -621  -583  -596  -670  -775  -860  -914  -943  -924  -870  -855  -896  -924  -789  -293  578  1594  2521  3227  3634  3732  3519  2950  2047  925  -206  -1020  -1307  -1191  -929  -677  -510  -445  -427  -398  -353  -318  -308  -316  -325  -306  -240  -140  -51  0  17  19  24  38  61  99  142  180  212  230  222  204  223  348  597  874  1048  1095  1083  1077  1097  1132  1158  1166  1169  1190  1244  1317  1370  1375  1331  1267  1197  1095  942  774  630  501  371  255  178  138  102  27  -98  -256  -419  -553  -628  -638  -598  -518  -411  -315  -263  -253  -273  -321  -381  -423  -436  -431  -426  -432  -458  -493  -510  -479  -396  -298  -238  -251  -340  -465  -564  -609  -623  -634  -651  -664  -665  -656  -640  -608  -549  -478  -423  -386  -343  -279  -205  -130  -57  6  45  61  69  68  37  -40  -163  -311  -457  -568  -623  -633  -623  -612  -607  -617  -650  -700  -762  -844  -936  -1001  -1024  -1026  -1023  -1011  -973  -925  -905  -892  -738  -240  682  1861  2973  3760  4064  3848  3201  2244  1106  -28  -929  -1398  -1424  -1221  -1051  -1022  -1048  -1017  -936  -871  -843  -834  -827  -805  -755  -688  -627  -576  -530  -485  -433  -389  -379  -397  -414  -421  -428  -437  -438  -389  -253  -60  114  239  345  476  621  728  770  766  744  729  760  863  1000  1099  1141  1151  1148  1138  1134  1150  1170  1129  969  724  480  272  87  -78  -214  -315  -386  -434  -469  -501  -527  -544  -556  -556  -536  -503  -478  -479  -514  -564  -596  -594  -570  -552  -558  -579  -608  -661  -734  -787  -770  -650  -459  -292  -221  -248  -349  -501  -656  -748  -750  -696  -640  -614  -611  -601  -561  -503  -456  -438  -440  -449  -462  -473  -463  -406  -298  -178  -86  -31  -2  10  16  35  81  131  136  85  11  -92  -274  -501  -665  -712  -682  -635  -604  -596  -611  -651  -712  -769  -802  -813  -806  -777  -744  -739  -801  -940  -1079  -1056  -705  56  1168  2401  3461  4178  4530  4470  3934  2995  1828  595  -492  -1172  -1317  -1058  -671  -397  -305  -308  -303  -259  -200  -160  -149  -155  -156  -140  -105  -66  -36  2  78  178  253  284  303  350  436  535  620  688  749  827  934  1051  1147  1199  1211  1207  1216  1260  1339  1429  1502  1539  1544  1544  1556  1577  1590  1585  1579  1580  1584  1590  1583  1502  1286  969  668  454  286  101  -79  -188  -216  -213  -247  -356  -509  -621  -649  -614  -555  -492  -431  -376  -346  -365  -448  -562  -648  -671  -631  -555  -501  -512  -556  -585  -591  -584  -571  -557  -541  -517  -480  -437  -404  -389  -399  -460  -591  -742  -816  -766  -640  -508  -393  -283  -184  -118  -88  -82  -76  -47  14  112  239  362  436  444  398  315  222  143  82  28  -19  -54  -83  -125  -179  -229  -285  -359  -432  -471  -470  -443  -403  -343  -252  -162  -154  -265  -441  -560  -578  -567  -481  -116  661  1850  3304  4612  5306  5253  4615  3617  2525  1583  823  216  -118  -125  -5  74  139  207  242  242  248  293  385  509  635  701  681  626  591  579  579  607  689  818  953  1054  1100  1094  1068  1055  1075  1135  1238  1352  1431  1450  1412  1324  1182  984  766  596  510  521  633  783  881  904  882  831  747  645  558  489  416  332  229  114  22  -25  -79  -232  -508  -805  -997  -1063  -1066  -1051  -1028  -999  -976  -954  -907  -833  -765  -730  -729  -757  -806  -866  -921  -957  -975  -994  -1042  -1114  -1182  -1236  -1290  -1351  -1411  -1455  -1482  -1497  -1504  -1508  -1520  -1536  -1529  -1481  -1426  -1423  -1473  -1523  -1531  -1494  -1431  -1355  -1269  -1202  -1206  -1276  -1347  -1380  -1387  -1394  -1408  -1420  -1423  -1427  -1463  -1577  -1772  -1977  -2108  -2154  -2163  -2177  -2215  -2277  -2351  -2415  -2465  -2502  -2505  -2450  -2363  -2298  -2270  -2237  -2148  -2014  -1912  -1891  -1872  -1695  -1272  -589  390  1592  2702  3416  3601  3191  2229  992  -176  -1111  -1680  -1719  -1351  -990  -858  -851  -836  -802  -773  -754  -716  -626  -504  -417  -391  -382  -327  -182  15  174  239  243  246  282  338  385  415  450  517  637  784  897  959  1004  1074  1169  1259  1320  1354  1378  1417  1490  1581  1663  1729  1782  1813  1819  1808  1793  1779  1751  1682  1567  1451  1375  1332  1300  1258  1166  991  762  566  458  418  400  389  390  400  406  398  386  382  378  361  337  325  332  346  355  364  392  442  504  572  633  673  689  682  641  553  431  320  258  243  248  258  271  288  297  291  276  268  277  308  376  519  729  924  1025  1029  974  907  862  850  856  865  863  834  765  664  550  455  409  417  457  512  573  622  636  641  682  737  765  772  781  787  738  569  295  0  -251  -359  -152  438  1308  2274  3137  3743  4037  3999  3581  2787  1725  621  -187  -433  -144  382  766  788  573  399  377  453  571  709  811  773  524  111  -336  -756  -1175  -1591  -1931  -2176  -2402  -2677  -2988  -3269  -3474  -3579  -3554  -3365  -3038  -2696  -2448  -2293  -2171  -2054  -1954  -1882  -1833  -1781  -1690  -1539  -1339  -1122  -924  -756  -613  -508  -462  -467  -486  -505  -532  -575  -626  -678  -755  -882  -1036  -1154  -1207  -1217  -1221  -1238  -1268  -1292  -1302  -1301  -1292  -1268  -1226  -1168  -1097  -1016  -915  -807  -733  -707  -707  -707  -706  -709  -711  -690  -629  -547  -477  -434  -401  -362  -329  -327  -357  -377  -329  -221  -125  -78  -55  -21  29  89  150  211  265  320  383  446  488  500  495  491  496  519  569  653  743  775  707  583  464  355  255  190  167  154  120  72  50  78  131  158  149  145  167  168  72  -124  -338  -523  -733  -1025  -1337  -1481  -1280  -701  169  1135  1923  2353  2384  1982  1155  85  -989  -1909  -2508  -2685  -2568  -2391  -2303  -2295  -2299  -2288  -2254  -2178  -2052  -1907  -1795  -1725  -1668  -1611  -1559  -1512  -1453  -1361  -1216  -1023  -824  -679  -614  -607  -608  -555  -400  -177  24  159  244  320  413  520  614  688  760  839  904  953  1021  1135  1279  1420  1533  1598  1611  1578  1506  1429  1382  1365  1357  1335  1230  964  557  160  -77  -143  -125  -95  -78  -80  -83  -63  -27  2  28  63  111  150  144  82  -3  -71  -100  -99  -91  -89  -75  -19  80  191  297  423  572  700  765  771  739  676  591  505  452  448  482  538  594  625  641  689  817  1026  1253  1427  1521  1546  1523  1481  1450  1440  1443  1455  1475  1500  1507  1456  1322  1145  1002  921  856  775]
