reading_id,reading_time,wire_id,result_classification,heart_rate,heart_rate_alert,firmware_version,device_app_version,hardware_version,waveform_samples
9ec64ae0-63d6-11ed-8080-808080808080,Mon Nov 14 04:41:35 UTC 2022,810063c81d39,NSR,81,NONE,20001.171.50,2.10.0,Charge 5,[3392  3450  3433  3217  2725  2036  1342  790  387  63  -225  -479  -679  -800  -815  -719  -559  -413  -327  -283  -244  -202  -181  -202  -257  -325  -385  -443  -536  -660  -691  -574  -501  -606  -746  -833  -907  -957  -1051  -1329  -1833  -2520  -3275  -3952  -4451  -4685  -4608  -4249  -3696  -3096  -2546  -2047  -1625  -1362  -1257  -1239  -1237  -1203  -1110  -964  -804  -685  -643  -686  -800  -949  -1082  -1166  -1195  -1183  -1161  -1143  -1111  -1037  -919  -769  -613  -501  -489  -565  -668  -749  -796  -829  -883  -957  -1025  -1090  -1177  -1272  -1309  -1247  -1135  -1051  -1008  -968  -918  -875  -847  -816  -728  -512  -154  238  523  645  633  529  373  213  115  102  130  162  217  318  452  553  543  427  287  173  65  -44  -137  -211  -280  -319  -282  -186  -124  -181  -338  -448  -406  -256  -3  462  1226  2255  3357  4292  4932  5214  5092  4623  3926  3063  2120  1293  743  458  343  289  183  4  -174  -275  -281  -227  -167  -118  -55  37  141  233  338  559  980  1498  1875  2018  2022  1982  1904  1779  1657  1624  1723  1909  2085  2192  2244  2279  2310  2337  2347  2314  2233  2143  2117  2186  2316  2438  2520  2569  2603  2637  2677  2715  2732  2724  2696  2638  2539  2404  2261  2128  1989  1820  1644  1512  1435  1384  1320  1218  1051  803  530  338  261  252  255  248  232  200  137  57  -3  -29  -28  0  55  108  111  64  18  10  38  75  113  153  185  198  197  195  190  162  94  2  -73  -130  -195  -278  -364  -428  -459  -472  -491  -525  -575  -663  -798  -935  -1018  -1044  -1052  -1066  -1086  -1102  -1114  -1129  -1139  -1125  -1093  -1082  -1123  -1199  -1263  -1291  -1295  -1292  -1281  -1259  -1241  -1268  -1352  -1451  -1550  -1666  -1811  -1971  -2131  -2298  -2471  -2611  -2696  -2764  -2859  -2966  -3040  -3070  -3075  -3071  -3059  -3039  -3017  -3005  -3021  -3065  -3082  -2973  -2662  -2146  -1496  -752  42  773  1318  1541  1317  686  -241  -1380  -2507  -3321  -3719  -3807  -3741  -3663  -3675  -3764  -3847  -3886  -3905  -3931  -3969  -4002  -4017  -4017  -4014  -4024  -4067  -4139  -4193  -4193  -4179  -4215  -4295  -4362  -4393  -4399  -4378  -4308  -4192  -4078  -4018  -4023  -4073  -4126  -4140  -4119  -4100  -4087  -4029  -3880  -3673  -3492  -3387  -3353  -3350  -3324  -3241  -3117  -2999  -2910  -2844  -2791  -2750  -2738  -2769  -2835  -2900  -2947  -3031  -3222  -3498  -3727  -3819  -3803  -3750  -3702  -3666  -3628  -3585  -3545  -3505  -3439  -3339  -3239  -3168  -3127  -3106  -3076  -2983  -2810  -2615  -2470  -2396  -2373  -2374  -2378  -2379  -2376  -2360  -2293  -2145  -1936  -1734  -1584  -1474  -1390  -1348  -1354  -1372  -1360  -1302  -1215  -1147  -1124  -1108  -1050  -944  -828  -748  -712  -682  -617  -515  -402  -296  -197  -79  84  272  439  568  660  716  756  808  871  914  906  847  760  677  620  594  591  595  596  586  559  499  408  308  227  179  163  163  161  149  141  165  216  264  260  190  195  509  1190  2116  3168  4211  4993  5346  5282  4804  3991  3053  2132  1316  741  506  582  786  921  919  813  695  646  670  718  755  770  770  765  755  744  752  806  891  970  1026  1075  1155  1289  1444  1550  1580  1563  1542  1555  1632  1777  1968  2174  2349  2468  2580  2734  2906  3026  3069  3064  3048  3039  3034  3036  3057  3110  3179  3236  3260  3231  3123  2948  2768  2621  2480  2314  2147  2023  1941  1861  1768  1679  1597  1515  1443  1394  1360  1336  1325  1332  1358  1384  1385  1359  1333  1320  1316  1310  1300  1293  1297  1312  1323  1317  1305  1314  1355  1393  1361  1239  1087  975  928  925  926  917  916  939  979  1010  996  906  749  597  515  497  491  466  431  397  357  314  285  284  324  406  522  679  848  953  932  776  560  399  336  328  329  331  331  287  144  -66  -243  -336  -376  -409  -441  -456  -441  -388  -309  -233  -183  -167  -182  -216  -254  -287  -289  -215  -18  329  887  1690  2620  3487  4171  4550  4468  3903  3053  2073  1032  196  -176  -190  -80  20  44  -9  -88  -156  -172  -95  41  157  216  237  241  232  222  239  314  437  554  622  643  642  641  650  674  709  741  754  759  791  859  947  1056  1174  1251  1254  1204  1145  1095  1046  1016  1037  1100  1171  1221  1239  1217  1161  1080  979  847  692  552  449  381  334  275  146  -99  -407  -643  -740  -743  -723  -699  -671  -676  -758  -901  -1027  -1077  -1057  -1008  -963  -935  -932  -947  -966  -987  -1005  -1014  -1019  -1019  -1003  -961  -902  -859  -843  -840  -834  -820  -799  -781  -773  -775  -784  -791  -772  -705  -610  -530  -479  -447  -425  -414  -411  -418  -448  -509  -585  -636  -638  -606  -561  -509  -467  -446  -441  -437  -416  -356  -260  -154  -56  25  81  99  90  88  135  228  309  326  272  159  0  -196  -394  -535  -602  -624  -624  -604  -567  -526  -496  -472  -437  -385  -336  -305  -297  -307  -323  -298  -147  183  695  1389  2227  3065  3792  4368  4644  4454  3850  2998  1994  1000  278  -39  -66  -7  2  -70  -218  -392  -532  -609  -628  -613  -582  -540  -490  -443  -410  -399  -425  -511  -640  -751  -804  -812  -801  -776  -728  -650  -561  -498  -480  -468  -407  -290  -168  -83  -31  0  18  20  -24  -141  -268  -299  -220  -103  3  81  130  173  215  230  197  102  -43  -201  -333  -435  -567  -797  -1088  -1321  -1448  -1524  -1598  -1660  -1682  -1663  -1631  -1610  -1606  -1609  -1610  -1603  -1591  -1584  -1600  -1641  -1685  -1724  -1767  -1798  -1784  -1704  -1575  -1449  -1369  -1335  -1329  -1332  -1335  -1331  -1301  -1222  -1110  -1009  -947  -917  -905  -902  -901  -890  -858  -800  -727  -674  -680  -719  -723  -673  -610  -572  -559  -558  -561  -561  -556  -544  -531  -515  -491  -469  -449  -401  -284  -131  -16  31  44  59  96  166  252  326  387  443  482  492  498  555  683  828  921  950  944  914  842  719  576  440  314  201  110  31  -36  -68  -53  -15  31  92  145  135  27  -139  -279  -358  -429  -509  -498  -304  52  537  1183  2005  2936  3837  4491  4641  4155  3165  2002  958  163  -302  -429  -367  -307  -313  -368  -457  -564  -661  -720  -734  -711  -655  -581  -520  -486  -462  -430  -390  -351  -314  -276  -246  -227  -195  -110  23  151  237  299  348  382  425  509  636  786  931  1050  1131  1174  1201  1251  1365  1552  1744  1854  1833  1687  1487  1347  1334  1436  1585  1689  1684  1560  1371  1194  1059  948  852  769  693  598  450  260  87  -42  -138  -192  -184  -111  -5  81  125  137  130  109  77  50  34  21  7  -10  -36  -80  -154  -259  -382  -499  -606  -702  -773  -792  -754  -685  -620  -573  -547  -535  -528  -526  -537  -579  -648  -717  -754  -747  -716  -705  -739  -789  -812  -797  -763  -745  -749  -733  -679  -624  -596  -579  -555  -519  -476  -441  -427  -433  -447  -447  -408  -322  -225  -170  -162  -144  -66  67  205  298  353  398  440  464  441  345  198  60  -37  -108  -173  -247  -334  -427  -523  -633  -739  -779  -740  -696  -716  -782  -866  -970  -1079  -1153  -1174  -1138  -1041  -895  -711  -522  -329  58  826  1862  2940  3877  4430  4413  3864  2926  1764  604  -325  -878  -1016  -865  -668  -567  -540  -535  -537  -527  -500  -475  -470  -477  -468  -431  -391  -373  -373  -375  -373  -368  -371  -391  -413  -408  -375  -341  -312  -255  -134  19  131  175  201  266  371  473  534  557  564  571  572  558  536  538  601  743  917  1039  1075  1047  985  914  857  809  740  628  465  246  -10  -248  -389  -421  -399  -383  -412  -503  -622  -708  -738  -751  -779  -815  -836  -842  -851  -863  -862  -829  -760  -668  -581  -530  -515  -512  -501  -482  -471  -479  -492  -496  -499  -489  -450  -400  -364  -337  -294  -214  -107  -23  12  22  25  21  1  -46  -111  -156  -157  -110  -43  8  28  21  -11  -66  -122  -156  -165  -162  -154  -140  -126  -128  -154  -188  -196  -164  -93  6  101  173  247  351  504  684  813  834  773  690  634  602  562  476  337  187  90  62  73  94  111  103  29  -126  -316  -465  -543  -565  -561  -557  -564  -581  -606  -641  -685  -719  -675  -469  -53  579  1384  2225  2957  3514  3819  3733  3183  2285  1286  404  -213  -493  -489  -387  -366  -425  -447  -398  -317  -240  -189  -169  -158  -132  -87  -43  -42  -86  -112  -66  22  70  46  -5  -20  37  164  320  456  542  577  583  585  598  633  685  733  759  762  759  770  818  899  995  1089  1165  1215  1255  1291  1295  1247  1169  1108  1072  1039  1010  1008  1016  936  672  278  -53  -217  -282  -353  -467  -605  -742  -869  -969  -1019  -1016  -986  -958  -948  -966  -1023  -1103  -1167  -1192  -1186  -1159  -1107  -1026  -929  -856  -851  -903  -964  -1002  -1011  -998  -980  -967  -953  -922  -865  -800  -754  -726  -689  -641  -607  -599  -599  -578  -516  -408  -290  -244  -346  -588  -853  -1011  -1034  -972  -891  -832  -795  -754  -708  -685  -697  -724  -743  -762  -785  -785  -732  -654  -583  -513  -452  -425  -424  -428  -420  -397  -349  -278  -224  -233  -305  -419  -548  -649  -709  -757  -826  -916  -1011  -1105  -1205  -1296  -1354  -1378  -1388  -1393  -1381  -1367  -1385  -1446  -1522  -1554  -1488  -1345  -1136  -827  -432  45  656  1392  2140  2726  2990  2835  2268  1429  499  -373  -1002  -1218  -1123  -1000  -975  -1019  -1085  -1132  -1167  -1216  -1263  -1284  -1280  -1254  -1195  -1112  -1032  -971  -919  -869  -807  -721  -611  -495  -406  -365  -360  -363  -359  -350  -340  -321  -267  -149  24  191  287  311  314  347  440  599  804  992  1097  1120  1110  1097  1087  1075  1068  1068  1078  1094  1101  1043  867  612  387  244  144  26  -161  -423  -678  -831  -871  -854  -827  -811  -799  -773  -735  -731  -781  -836  -853  -842  -821  -786  -726  -652  -602  -599  -624  -636  -614  -573  -544  -534  -533  -532  -522  -514  -525  -559  -584  -574  -539  -506  -484  -456  -409  -351  -291  -242  -199  -143  -77  -24  5  20  31  46  62  72  72  71  81  109  145  180  203  208  205  224  295  406  503  563  606  646  692  759  861  993  1124  1211  1247  1255  1257  1273  1308  1351  1386  1410  1430  1446  1431  1340  1157  947  809  762  754  742  727  724  739  761  776  783  779  764  749  740  743  769  820  877  934  1051  1350  1918  2699  3535  4295  4882  5221  5269  5000  4432  3644  2756  1923  1325  1055  1023  1063  1124  1244  1377  1437  1430  1402  1379  1364  1357  1374  1415  1454  1461  1428  1373  1332  1330  1373  1454  1580  1763  1956  2065  2051  1973  1904  1866  1860  1911  2045  2218  2341  2379  2367  2354  2376  2444  2519  2535  2490  2441  2423  2423  2424  2424  2425  2427  2427  2422  2404  2368  2313  2229  2083  1866  1627  1415  1240  1107  1026  970  879  716  512  351  282  282  300  293  241  169  126  123  132  128  118  118  149  225  327  410  445  428  355  232  93  -19  -98  -149  -186  -226  -270  -311  -357  -403  -435  -445  -441  -432  -423  -414  -403  -392  -389  -413  -484  -610  -762  -882  -949  -993  -1042  -1099  -1153  -1200  -1251  -1305  -1345  -1362  -1365  -1366  -1375  -1396  -1419  -1435  -1440  -1439  -1435  -1431  -1433  -1451  -1490  -1539  -1578  -1581  -1541  -1483  -1442  -1420  -1400  -1383  -1390  -1450  -1590  -1796  -2016  -2215  -2367  -2446  -2466  -2496  -2595  -2739  -2846  -2882  -2874  -2856  -2836  -2812  -2793  -2793  -2805  -2820  -2835  -2828  -2748  -2533  -2094  -1330  -319  680  1434  1820  1797  1374  673  -90  -819  -1532  -2165  -2602  -2811  -2817  -2667  -2446  -2270  -2199  -2203  -2230  -2256  -2277  -2283  -2253  -2185  -2093  -1997  -1933  -1935  -1975  -2008  -2027  -2031  -1984  -1842  -1638  -1463  -1369  -1334  -1311  -1272  -1210  -1131  -1049  -981  -932  -897  -875  -863  -856  -841  -803  -730  -626  -506  -399  -323  -253  -183  -150  -189  -280  -368  -411  -416  -416  -449  -550  -733  -970  -1188  -1333  -1415  -1476  -1547  -1620  -1677  -1720  -1776  -1851  -1916  -1953  -1959  -1935  -1897  -1866  -1854  -1858  -1862  -1856  -1838  -1809  -1775  -1713  -1610  -1518  -1475  -1439  -1392  -1368  -1391  -1446  -1475  -1417  -1280  -1137  -1044  -997  -967  -940  -906  -870  -848  -849  -855  -821  -712  -563  -455  -428  -456  -497  -524  -533  -535  -539  -543  -529  -483  -423  -360  -279  -184  -87  3  69  103  128  163  210  267  330  384  419  451  515  609  700  777  849  908  938  943  936  931  940  970  1012  1032  990  868  665  424  233  145  135  159  202  250  280  272  229  185  186  235  300  350  373  362  315  278  369  695  1266  2021  2869  3714  4440  4917  4999  4577  3753  2814  1958  1277  852  651  570  579  688  855  980  986  875  716  601  563  567  578  591  630  713  823  921  990  1031  1042  1020  970  916  878  863  876  932  1026  1133  1248  1382  1523  1631  1679  1682  1679  1702  1765  1866  1983  2090  2172  2236  2294  2348  2391  2425  2448  2443  2409  2368  2325  2262  2166  2037  1889  1743  1591  1389  1136  906  747  629  525  449  411  380  323  249  187  155  142  120  62  -13  -65  -78  -67  -55  -49  -48  -43  -9  75  185  269  311  326  327  319  305  298  300  291  253  205  166  138  118  109  104  97  86  75  66  58  49  29  -9  -57  -91  -100  -92  -85  -98  -138  -188  -209  -179  -114  -56  -29  -33  -59  -92  -120  -129  -108  -42  61  157  208  218  213  215  226  235  233  216  183  132  58  -54  -201  -343  -442  -503  -546  -579  -602  -621  -642  -670  -708  -747  -784  -814  -840  -869  -898  -923  -962  -1045  -1155  -1196  -1068  -767  -305  338  1122  1917  2610  3165  3525  3512  2970  1995  849  -196  -855  -1009  -869  -720  -659  -637  -620  -619  -639  -666  -683  -699  -738  -814  -901  -954  -954  -929  -894  -834  -746  -658  -586  -524  -467  -423  -387  -350  -308  -258  -190  -107  -41  -12  -11  -13  24  135  284  393  427  416  403  419  480  569  650  715  768  790  763  722  703  702  679  599  458  308  213  186  181  134  -6  -232  -466  -650  -779  -853  -865  -828  -763  -699  -659  -647  -647  -637  -611  -580  -567  -594  -646  -680  -680  -676  -687  -685  -642  -556  -448  -348  -282  -255  -248  -249  -268  -326  -411  -472  -472  -415  -343  -316  -351  -419  -478  -503  -499  -478  -437  -361  -258  -172  -148  -203  -322  -452  -539  -567  -557  -531  -496  -457  -428  -416  -426  -461  -516  -569  -607  -631  -635  -595  -493  -353  -235  -177  -169  -182  -194  -198  -190  -169  -142  -118  -102  -106  -133  -167  -205  -254  -308  -342  -351  -352  -356  -377  -446  -574  -720  -814  -838  -826  -825  -864  -955  -1084  -1215  -1303  -1331  -1307  -1243  -1165  -1085  -939  -650  -218  355  1091  1906  2650  3202  3442  3260  2665  1814  870  -58  -812  -1227  -1280  -1077  -804  -657  -685  -778  -839  -863  -872  -874  -868  -859  -855  -858  -861  -848  -806  -744  -679  -613  -548  -501  -483  -483  -479  -446  -356  -224  -107  -38  -3  17  36  66  110  164  227  293  357  419  488  570  665  749  799  828  868  941  1034  1096  1079  976  820  670  559  476  399  329  279  256  221  109  -97  -327  -484  -531  -510  -491  -504  -535  -566  -591  -605  -608  -611  -620  -633  -643  -636  -606  -568  -533  -495  -432  -341  -250  -182  -142  -117  -94  -65  -25  13  42  65  81  85  81  75  71  68  62  60  90  176  292  380  420  434  453  487  520  520  482  428  382  354  340  329  320  315  311  302  290  280  269  244  210  202  238  289  315  306  277  249  227  200  163  131  119  141  212  321  429  516  586  641  681  709  731  743  738  709  670  636  605  581  567  561  560  544  466  290  69  -77  -101  -54  1  55  113  166  200  207  193  185  185  133  -61  -390  -669  -699  -441  54  761  1643  2648  3680  4590  5244  5461  5088  4277  3346  2463  1699  1089  576  117  -200  -267  -119  79  228  334  424  503  571  609  622  643  676  694  674  610  522  455  450  529  680  840  955  1037  1116  1194  1282  1405  1570  1731  1828  1853  1843  1829  1830  1856  1909  1971  2020  2040  2042  2048  2078  2126  2174  2213  2242  2261  2268  2260  2219  2125  1977  1805  1629  1457  1299  1174  1083  948  668  290  -9  -160  -224  -247  -244  -237  -232  -228  -251  -316  -398  -470  -524  -554  -563  -556  -522  -456  -370  -292  -260  -285  -334  -376  -410  -441  -470  -504  -534  -548  -549  -547  -540  -525  -502  -483  -482  -507  -551  -599  -642  -670  -678  -675  -687  -736  -815  -881  -918  -942  -962  -980  -997  -1010  -1015  -1010  -999  -995  -1017  -1057  -1090  -1114  -1144  -1183  -1225  -1275  -1334  -1384  -1410  -1415  -1412  -1400  -1374  -1346  -1337  -1350  -1370  -1381  -1385  -1402  -1451  -1522  -1588  -1640  -1701  -1788  -1883  -1954  -1987  -1971  -1867  -1656  -1406  -1221  -1136  -1116  -1140  -1212  -1319  -1423  -1504  -1586  -1679  -1768  -1840  -1891  -1907  -1877  -1816  -1753  -1699  -1654  -1626  -1617  -1619  -1624  -1625  -1621  -1613  -1610  -1625  -1674  -1751  -1801  -1704  -1322  -619  297  1286  2214  2963  3435  3526  3161  2401  1390  288  -691  -1340  -1610  -1581  -1347  -1051  -905  -1022  -1249  -1383  -1392  -1349  -1307  -1267  -1219  -1160  -1087  -1015  -967  -947  -932  -901  -837  -724  -577  -456  -401  -397  -410  -422  -428  -418  -371  -281  -162  -30  93  189  251  307  380  472  585  706  773  758  707  666  647  640  638  639  643  654  676  694  645  448  120  -205  -420  -538  -621  -692  -754  -835  -968  -1136  -1279  -1355  -1375  -1369  -1359  -1353  -1351  -1350  -1336  -1296  -1228  -1153  -1097  -1073  -1074  -1072  -1045  -996  -952  -920  -892  -864  -840  -811  -758  -680  -603  -540  -484  -441  -430  -448  -469  -476  -452  -398  -343  -314  -308  -304  -283  -238  -177  -113  -63  -16  40  82  74  16  -76  -180  -251  -257  -203  -125  -64  -36  -26  -29  -76  -193  -339  -414  -364  -243  -151  -126  -141  -158  -167  -171  -174  -173  -160  -120  -51  40  141  239  314  353  374  410  463  475  372  133  -183  -465  -628  -667  -641  -604  -572  -537  -492  -435  -372  -338  -356  -394  -417  -430  -435  -418  -374  -303  -167  124  635  1307  1987  2596  3168  3731  4190  4347  4048  3304  2270  1212  412  -28  -209  -240  -183  -123  -121  -146  -155  -140  -106  -65  -30  -5  12  18  19  41  110  207  279  292  256  204  172  177  217  265  295  307  332  401  495  576  634  683  744  836  954  1059  1122  1146  1148  1150  1171  1233  1337  1447  1518  1545  1550  1557  1564  1530  1402  1184  950  755  587  427  304  245  226  191  80  -113  -317  -447  -488  -481  -459  -439  -437  -477  -552  -615  -626  -611  -612  -622  -605  -547  -467  -397  -357  -342  -341  -343  -336  -307  -260  -211  -175  -155  -144  -140  -141  -146  -147  -125  -57  53  166  236  259  274  310  350  348  292  227  188  172  172  207  306  447  558  584  501  319  118  23  83  228  345  396  415  450  505  550  566  584  648  756  857  917  949  981  1030  1089  1126  1112  1047  964  911  903  908  890  849  800  753  706  639  537  426  354  337  350  367  378  391  409  423  404  310  142  -31  -139  -152  -50  149  401  767  1353  2124  2992  3834  4369  4358  3853  3067  2170  1267  500  0  -250  -357  -412  -456  -493  -533  -570  -593  -605  -611  -606  -579  -520  -444  -389  -374  -383  -397  -412  -419  -401  -342  -264  -209  -190  -180  -147  -83  -11  30  43  82  201  368  500  577  648  738  826  894  949  1005  1056  1079  1061  1004  909  787  700  711  816  922  910  774  600  433  276  132  -3  -136  -261  -411  -623  -876  -1104  -1252  -1311  -1301  -1255  -1212  -1190  -1191  -1212  -1250  -1297  -1343  -1382  -1405  -1390  -1320  -1215  -1113  -1036  -995  -983  -990  -1006  -1027  -1045  -1055  -1047  -1004  -932  -859  -808  -780  -770  -771  -774  -767  -737  -683  -619  -564  -520  -494  -493  -519  -582  -684  -783  -825  -783  -660  -509  -405  -370  -373  -382  -387  -394  -410  -431  -448  -457  -465  -475  -491  -514  -531  -530  -516  -499  -485  -477  -474  -472  -467  -442  -367  -242  -113  -29  13  45  81  118  142  150  146  135  115  69  -25  -161  -316  -504  -722  -909  -1016  -1043  -1013  -948  -869  -802  -765  -755  -756  -765  -787  -816  -841  -848  -790  -581  -181  385  1082  1849  2568  3163  3632  3880  3783  3413  2897  2219  1405  629  36  -291  -328  -193  -64  10  82  147  164  139  104  84  89  117  173  269  381  463  497  498  487  472  459  446  431  422  430  455  507  606  729  820  857  864  864  870  888  908  915  912  924  974  1067  1186  1327  1461  1523  1490  1409  1344  1318  1308  1293  1239  1091  835  553  346  235  166  78  -66  -300  -613  -902  -1069  -1112  -1095  -1072  -1079  -1115  -1145  -1155  -1167  -1210  -1286  -1369  -1434  -1468  -1467  -1439  -1396  -1350  -1295  -1228  -1157  -1088  -1022  -967  -934  -925  -937  -964  -1001  -1041  -1064  -1058  -1032  -989  -918  -840  -806  -843  -922  -990  -1025  -1019  -937  -753  -539  -437  -514  -691  -836  -889  -872  -819  -746  -660  -580  -524  -484  -436  -379  -334  -317  -320  -323  -321  -317  -317  -322  -323  -305  -259  -180  -82  1  51  75  81  80  110  221  422  635  772  808  778  719  664  621  561  436  262  113  27  -24  -83  -153  -207  -225  -225  -249  -324  -447  -583  -681  -720  -720  -706  -694  -687  -689  -729  -783  -710  -385  220  1114  2243  3409  4346  4858  4886  4470  3735  2863  1925  944  130  -302  -406  -353  -288  -328  -452  -528  -503  -418  -324  -265  -260  -300  -356  -396  -401  -368  -302  -216  -124  -44  11  47  72  95  125  162  200  248  350  545  781  944  988  955  902  859  849  910  1070  1283  1446  1513  1518  1512  1511  1508  1492  1474  1465  1448  1390  1296  1187  1063  925  790  663  521  330  87  -166  -359  -453  -484  -526  -616  -736  -858  -968  -1030  -1011  -927  -829  -762  -741  -756  -808  -887  -966  -1018  -1035  -1021  -988  -938  -867  -787  -731  -720  -753  -810  -841  -811  -741  -674  -627  -597  -578  -572  -584  -602  -612  -610  -596  -578  -566  -548  -508  -446  -392  -363  -355  -357  -374  -413  -464  -500  -494  -437  -350  -277  -245  -248  -263  -270  -265  -263  -267  -270  -268  -267  -261  -232  -162  -61  41  136  220  265  261  239  231  240  252  257  238  173  45  -144  -384  -632  -833  -954  -1003  -1008  -1010  -1030  -1063  -1089  -1116  -1167  -1236  -1288  -1302  -1281  -1246  -1229  -1256  -1347  -1487  -1572  -1480  -1157  -565  311  1378  2430  3267  3781  3925  3663  2999  2048  1007  90  -522  -764  -758  -700  -655  -593  -529  -491  -479  -484  -482  -445  -370  -265  -154  -78  -63  -96  -148  -188  -187  -114  36  206  322  366  363  343  329  343  402  508  626  712  767  820  884  959  1032  1078  1087  1115  1211  1313  1318  1240  1168  1152  1195  1274  1367  1451  1501  1484  1370  1172  931  678  449  276  141  11  -105  -179  -216  -241  -273  -322  -401  -514  -627  -694  -713  -708  -699  -692  -691  -713  -770  -840  -873  -837  -759  -692  -663  -661  -664  -659  -655  -671  -707  -738  -743  -719  -677  -638  -611  -579  -518  -413  -284  -195  -201  -307  -458  -563  -588  -571  -557  -553  -539  -496  -430  -370  -341  -349  -386  -430  -464  -480  -465  -421  -377  -350  -335  -330  -339  -361  -375  -357  -303  -205  -69  46  97  100  87  66  41  33  45  37  -34  -176  -344  -468  -518  -520  -528  -575  -657  -746  -827  -902  -969  -1015  -1036  -1041  -1043  -1040  -1020  -981  -933  -886  -852  -842  -871  -928  -911  -665  -102  762  1823  2888  3758  4283  4321  3828  2977  2027  1134  394  -109  -364  -407  -312  -185  -113  -115  -162  -220  -261  -279  -280  -259  -202  -115  -40  -12  -12  19  106  213  301  364  416  452  456  445  457  497  557  635  729  827  907  952  967  984  1034  1128  1247  1356  1429  1459  1460  1453  1462  1503  1564  1629  1696  1756  1764  1686  1560  1457  1394  1336  1272  1217  1120  888  531  193  -15  -113  -159  -182  -194  -217  -268  -351  -440  -493  -490  -438  -349  -250  -179  -158  -205  -328  -483  -593  -622  -586  -505  -405  -329  -301  -314  -351  -400  -444  -462  -439  -377  -302  -246  -228  -249  -300  -361  -410  -440  -448  -435  -413  -396  -379  -346  -297  -262  -258  -273  -329  -456  -601  -685  -696  -675  -657  -651  -647  -654  -683  -712  -709  -672  -611  -534  -431  -291  -155  -80  -90  -174  -289  -371  -384  -329  -231  -136  -80  -63  -65  -74  -94  -133  -184  -242  -320  -424  -535  -647  -768  -900  -1026  -1113  -1149  -1166  -1201  -1257  -1305  -1334  -1354  -1373  -1380  -1377  -1379  -1372  -1299  -1091  -692  -79  724  1640  2534  3267  3731  3770  3267  2298  1084  -85  -883  -1165  -1112  -1012  -1019  -1132  -1272  -1394  -1518  -1629  -1665  -1615  -1525  -1427  -1338  -1284  -1266  -1264  -1270  -1298  -1362  -1448  -1509  -1505  -1433  -1332  -1252  -1205  -1171  -1137  -1103  -1070  -1039  -1013  -998  -996  -993  -982  -958  -903  -811  -709  -630  -588  -573  -572  -573  -575  -584  -606  -624  -611  -554  -464  -369  -300  -285  -364  -579  -927  -1328  -1668  -1870  -1964  -2030  -2113  -2213  -2314  -2404  -2474  -2526  -2584  -2653  -2702  -2693  -2605  -2399  -1941  -1111  -97  683  1050  1162  1229  1318  1392  1430  1480  1587  1726  1827  1861  1855  1844  1838  1837  1838  1845  1862  1880  1895  1912  1924  1926  1923  1924  1919  1880  1796  1725  1762  1905  2048  2120  2142  2160  2180  2178  2131  2058  1988  1921  1853  1806  1801  1830  1873  1912  1950  2002  2071  2148  2216  2266  2305  2345  2400  2476  2556  2620  2658  2674  2676  2654  2579  2450  2300  2163  2037  1897  1723  1539  1402  1343  1339  1351  1364  1380  1401  1422  1437  1449  1470  1510  1562  1586  1511  1318  1106  1003  1124  1648  2634  3873  5092  6141  6914  7234  6940  6083  4879  3555  2394  1661  1324  1160  1076  1068  1073  1015  861  655  484  398  377  382  391  395  388  373  365  368  357  320  276  246  229  213  203  212  240  273  293  294  282  262  237  224  256  342  451  532  573  603  646  697  744  783  812  827  819  780  717  648  582  517  445  352  225  57  -122  -272  -410  -585  -815  -1079  -1342  -1574  -1745  -1835  -1864  -1894  -1967  -2078  -2188  -2258  -2281  -2277  -2250  -2191  -2119  -2082  -2117  -2214  -2335  -2449  -2547  -2630  -2698  -2750  -2785  -2809  -2821  -2821  -2818  -2839  -2903  -2998  -3083  -3127  -3126  -3099  -3070  -3053  -3049  -3043  -3016  -2963  -2905  -2876  -2882  -2901  -2912  -2921  -2940  -2966  -2981  -2973  -2919  -2797  -2635  -2508  -2454  -2446  -2450  -2454  -2464  -2492  -2532  -2561  -2555  -2505  -2419  -2312  -2200  -2097  -2016  -1960  -1930  -1916  -1889  -1814  -1687  -1553  -1451  -1381  -1328  -1285  -1265  -1282  -1328  -1370  -1380  -1369  -1370  -1416  -1523  -1663  -1768  -1813  -1825  -1831  -1828  -1805  -1756  -1693  -1645  -1627  -1615  -1593  -1577  -1602  -1667  -1735  -1764  -1731  -1640  -1418  -862  138  1419  2690  3717  4310  4340  3848  3011  1977  868  -74  -626  -793  -727  -629  -665  -802  -896  -893  -828  -746  -688  -665  -665  -674  -678  -654  -580  -471  -375  -325  -310  -275  -165  7  171  281  365  464  569  643  683  718  778  879  997  1089  1157  1250  1387  1538  1679  1796  1878  1929  1961  1980  1984  1974  1975  2010  2070  2122  2147  2132  2057  1903  1699  1519  1403  1307  1167  996  854  743  604  435  305  253  252  262  273  291  314  332  336  328  311  291  276  269  265  257  235  197  153  115  85  55  22  0  -1  8  15  -2  -61  -141  -202  -229  -236  -238  -235  -225  -212  -203  -205  -234  -285  -329  -348  -352  -353  -346  -322  -280  -236  -205  -197  -204  -216  -225  -226  -220  -211  -207  -210  -221  -234  -252  -269  -272  -245  -180  -87  6  84  146  208  282  372  456  491  452  368  289  243  225  209  156  51  -78  -182  -229  -234  -230  -247  -282  -296  -266  -221  -196  -191  -188  -178  -166  -171  -201  -215  -136  115  598  1326  2222  3141  4011  4769  5198  5091  4481  3532  2423  1390  661  276  136  153  234  288  296  288  283  283  287  289  285  275  258  244  239  241  239  232  232  275  389  540  648  680  670  657  652  652  650  647  650  673  732  828  944  1053  1125  1153  1154  1147  1140  1137  1149  1188  1256  1342  1439  1551  1663  1731  1702  1541  1295  1084  976  923  839  680  452  214  37  -83  -211  -357  -485  -585  -672  -748  -793  -802  -793  -775  -756  -742  -732  -723  -722  -757  -847  -950  -990  -956  -900  -858  -836  -829  -811  -763  -709  -696  -733  -782  -808  -807  -799  -793  -780  -743  -693  -669  -704  -786  -864  -894  -874  -825  -754  -662  -567  -491  -433  -368  -297  -258  -276  -342  -446  -563  -639  -641  -568  -438  -298  -206  -177  -190  -226  -269  -299  -312  -315  -314  -302  -260  -179  -84  -28  -24  -50  -84  -118  -155  -222  -354  -530  -692  -815  -908  -973  -1005  -1004  -993  -1020  -1091  -1154  -1163  -1116  -1046  -989  -956  -935  -940  -994  -1066  -1045  -782  -151  832  1976  3042  3853  4285  4264  3827  3110  2247  1342  563  92  -101  -179  -213  -229  -267  -332  -403  -455  -470  -463  -464  -470  -470  -466  -469  -479  -492  -504  -505  -482  -439  -386  -311  -191  -47  78  176  264  345  403  428  430  433  470  556  661  739  782  815  853  905  968  1027  1068  1097  1126  1163  1228  1336  1454  1498  1416  1260  1136  1088  1081  1059  957  722  415  176  45  -57  -204  -388  -548  -630  -638  -616  -597  -590  -589  -587  -582  -573  -560  -548  -545  -557  -579  -602  -620  -628  -619  -597  -569  -542  -523  -509  -480  -416  -320  -221  -160  -163  -230  -334  -433  -504  -544  -552  -535  -499  -446  -395  -388  -446  -552  -653  -710  -722  -682  -579  -453  -398  -467  -606  -713  -741  -700  -614  -509  -426  -388  -403  -491  -661  -850  -934  -845  -631  -412  -266  -207  -224  -272  -287  -247  -172  -76  44  169  258  304  332  349  336  251  43  -266  -550  -698  -725  -701  -665  -624  -588  -582  -627  -715  -819  -902  -931  -911  -881  -864  -860  -869  -915  -1021  -1147  -1153  -927  -493  101  894  1848  2816  3678  4301  4478  4105  3306  2332  1407  681  184  -211  -584  -780  -702  -537  -484  -528  -583  -604  -589  -562  -547  -549  -560  -572  -573  -541  -456  -339  -240  -175  -131  -103  -78  -34  22  66  85  87  87  99  136  193  242  256  266  330  463  623  752  839  922  1039  1179  1296  1361  1384  1379  1336  1242  1127  1043  1010  1006  1007  999  963  858  645  333  24  -172  -244  -265  -300  -358  -416  -486  -592  -715  -801  -823  -800  -757  -699  -634  -586  -566  -562  -546  -504  -465  -447  -432  -409  -396  -400  -416  -426  -417  -401  -393  -396  -400  -389  -355  -318  -306  -334  -388  -436  -461  -466  -460  -437  -397  -354  -334  -344  -367  -380  -377  -370  -368  -364  -357  -359  -377  -397  -406  -401  -389  -368  -322  -266  -235  -238  -261  -282  -286  -261  -204  -132  -73  -41  -24  -12  -7  -10  -20  -27  -18  16  76  139  187  241  330  433  494  495  473  446  374  209  -30  -266  -435  -521  -562  -608  -667  -711  -726  -727  -729  -738  -749  -751  -748  -748  -763  -805  -898  -1036  -1119  -965  -501  213  1164  2310  3423  4287  4822  4904  4421  3522  2479  1416  435  -261  -588  -664  -604  -492  -445  -486  -533  -542  -528  -508  -501  -526  -591  -657  -656  -567  -467  -442  -477  -511  -524  -526  -517  -479  -399  -285  -166  -76  -10  69  178  292  373  429  493  565  631  699  775  846  902  936  954  972  1000  1035  1076  1129  1188  1242  1286  1306  1258  1110  913  766  707  683  612  465  267  46  -182  -385  -513  -573  -616  -670  -725  -759  -767  -760  -751  -755  -795  -877  -970  -1029  -1026  -956  -844  -738  -659  -600  -563  -560  -564  -538  -492  -455  -437  -435  -441  -454  -475  -500  -521  -536  -544  -543  -539  -536  -536  -536  -533  -519  -496  -483  -476  -453  -420  -400  -395  -397  -402  -410  -419  -424  -426  -430  -440  -444  -425  -390  -367  -375  -415  -463  -494  -510  -514  -505  -485  -454  -408  -353  -300  -246  -180  -100  -2  127  269  384  466  526  543  508  457  419  397  378  331  231  98  -12  -66  -79  -100  -170  -283  -397  -477  -514  -526  -538  -561  -583  -599  -623  -677  -756  -827  -873  -899  -892  -790  -514  2  780  1744  2781  3769  4502  4743  4392  3553  2470  1402  512  -99  -408  -470  -370  -268  -303  -419  -498  -518  -508  -484  -435  -363  -293  -247  -226  -220  -222  -221  -195  -108  32  161  214  187  131  93  87  121  219  372  515  600  633  638  631  621  632  691  803  925  999  1003  974  966  990  1013  1022  1044  1116  1226  1324  1373  1357  1255  1070  870  729  655  593  472  257  -13  -262  -450  -582  -672  -732  -764  -770  -766  -765  -758  -725  -673  -633  -621  -625  -622  -600  -562  -524  -506  -518  -564  -631  -694  -738  -751  -726  -678  -636  -612  -603  -600  -602  -610  -617  -607  -570  -530  -514  -501  -473  -455  -475  -531  -608  -697  -806  -920  -996  -1006  -951  -851  -733  -629  -557  -518  -512  -537  -572  -591  -588  -565  -517  -435  -326  -249  -247  -283  -306  -317  -322  -289  -176  10  210  368  459  509  569  638  643  518  299  92  -49  -154  -242  -302  -330  -346  -354  -350  -342  -329  -317  -322  -328  -302  -254  -220  -243  -340  -479  -625  -737  -675  -280  453  1375  2289  3052  3618  4009  4171  3980  3391  2485  1469  631  127  -55  -58  -109  -295  -478  -532  -464  -345  -228  -138  -114  -212  -424  -656  -810  -856  -817  -699  -528  -353  -197  -59  30  44  0  -57  -100  -118  -101  -44  33  91  123  172  288  446  564  610  618  621  627  638  650  654  634  593  570  626  781  975  1120  1179  1157  1029  777  472  229  94  27  -21  -58  -93  -187  -409  -714  -961  -1068  -1059  -990  -904  -831  -792  -787  -814  -869  -932  -976  -992  -988  -961  -902  -824  -768  -750  -756  -765  -770  -772  -775  -775  -765  -735  -692  -643  -574  -475  -376  -317  -302  -306  -310  -309  -318  -362  -450  -543  -586  -579  -559  -549  -545  -538  -520  -499  -483  -477  -475  -475  -481  -493  -500  -488  -462  -439  -428  -422  -406  -364  -287  -183  -62  49  119  147  154  152  139  115  93  87  98  115  120  93  19  -81  -169  -220  -248  -278  -322  -370  -413  -451  -481  -500  -531  -593  -653  -682  -701  -705  -659  -585  -542  -553  -561  -391  137  1024  2092  3124  3916  4308  4251  3815  3120  2251  1296  479  30  -89  -67  -30  -78  -224  -349  -382  -372  -367  -376  -397  -416  -418  -399  -363  -321  -288  -272  -269  -279  -295  -301  -253  -110  92  259  337  356  357  348  343  372  424  468  498  526  574  654  742  796  818  851  927  1022  1086  1104  1099  1099  1115  1138  1149  1133  1097  1051  991  920  851  788  705  581  431  278  86  -186  -478  -683  -787  -832  -824  -768  -704  -665  -651  -647  -646  -645  -643  -643  -643  -644  -639  -620  -588  -562  -553  -549  -534  -506  -482  -466  -438  -395  -362  -351  -348  -349  -355  -363  -364  -354  -338  -324  -309  -291  -283  -299  -338  -385  -422  -447  -460  -460  -435  -376  -300  -240  -209  -207  -231  -290  -382  -477  -535  -537  -478  -356  -208  -105  -74  -90  -115  -128  -117  -74  -2  100  231  351  433  486  525  556  586  608  597  519  393  296  266  263  211  53  -194  -432  -564  -586  -554  -508  -450  -379  -315  -273  -248  -227  -198  -164  -154  -209  -326  -418  -357  -35  605  1473  2365  3197  3978  4613  4930  4789  4156  3157  2022  1035  462  308  334  385  429  373  148  -162  -375  -370  -223  -136  -194  -322  -432  -496  -511  -459  -310  -102  65  146  175  198  226  240  224  186  150  137  168  258  386  506  590  654  729  815  883  925  963  1029  1155  1334  1512  1644  1712  1721  1684  1612  1530  1475  1458  1466  1469  1425  1299  1110  884  610  311  84  -27  -92  -184  -307  -435  -551  -653  -759  -875  -951  -937  -847  -754  -707  -671  -610  -601  -728  -933  -1076  -1088  -1016  -934  -890  -891  -912  -939  -971  -996  -1001  -979  -935  -870  -788  -713  -678  -702  -775  -877  -973  -1026  -1026  -1000  -977  -961  -927  -858  -775  -718  -698  -701  -714  -741  -776  -804  -820  -839  -866  -876  -839  -766  -688  -622  -590  -595  -613  -623  -629  -630  -608  -530  -400  -268  -171  -113  -94  -105  -118  -104  -65  -22  15  60  119  172  186  153  97  38  -71  -303  -613  -855  -964  -996  -1017  -1040  -1053  -1037  -981  -915  -888  -921  -1000  -1093  -1171  -1226  -1235  -1125  -878  -639  -453  -62  722  1815  3022  4065  4623  4519  3815  2793  1758  878  257  -111  -370  -568  -663  -702  -731  -733  -715  -696  -684  -677  -669  -649  -613  -573  -546  -533  -518  -481  -424  -357  -279  -198  -141  -121  -123  -132  -138  -133  -103  -34  70  188  285  345  382  426  483  542  591  620  628  634  666  724  778  799  790  778  779  766  720  663  617  583  551  509  431  285  86  -95  -234  -378  -553  -723  -846  -909  -912  -880  -852  -837  -834  -855  -906  -976  -1037  -1065  -1054  -1011  -942  -861  -788  -728  -678  -651  -645  -642  -631  -612  -588  -563  -548  -548  -554  -549  -530  -512  -501  -484  -449  -417  -425  -460  -476  -452  -414  -375  -331  -282  -246  -227  -219  -214  -212  -210  -209  -221  -252  -293  -324  -346  -370  -392  -403  -398  -393  -398  -404  -398  -379  -350  -305  -238  -149  -60  0  39  86  140  196  263  323  344  322  278  235  194  117  -30  -224  -399  -506  -546  -547  -541  -543  -555  -573  -589  -596  -598  -609  -644  -693  -727  -726  -694  -644  -583  -482  -299  -9  466  1214  2154  3104  3929  4485  4558  4063  3189  2174  1176  402  -26  -250  -423  -521  -499  -399  -295  -234  -216  -213  -209  -204  -200  -196  -187  -171  -150  -137  -142  -133  -65  44  125  150  159  214  329  458  550  605  658  727  804  874  924  952  964  972  984  998  1002  1002  1037  1143  1302  1445  1535  1578  1590  1560  1457  1290  1134  1054  1038  1027  978  889  789  675  510  297  95  -66  -199  -314  -402  -451  -477  -525  -610  -697  -746  -754  -739  -722  -710  -706  -707  -713  -726  -740  -743  -734  -727  -731  -751  -784  -822  -853  -860  -827  -775  -758  -792  -835  -857  -860  -846  -807  -747  -687  -650  -635  -637  -658  -704  -747  -750  -714  -679  -667  -669  -679  -716  -805  -928  -1015  -1002  -878  -705  -581  -556  -611  -693  -753  -755  -677  -527  -359  -236  -177  -160  -164  -174  -168  -115  -4  119  200  228  231  213  150  31  -97  -179  -222  -271  -340  -406  -456  -494  -522  -559  -635  -726  -750  -657  -499  -378  -330  -322  -319  -328  -391  -518  -566  -317  280  1135  2152  3170  3973  4446  4564  4267  3560  2636  1712  906  339  91  65  61  -14  -111  -159  -159  -137  -112  -91  -78  -72  -70  -74  -87  -108  -121  -101  -31  66  141  175  183  181  177  178  191  213  237  282  394  584  779  900  937  935  937  965  1026  1101  1161  1202  1231  1249  1255  1266  1301  1360  1421  1449  1434  1399  1361  1307  1210  1047  844  656  508  383  256  112  -48  -216  -362  -464  -535  -593  -637  -661  -669  -669  -669  -672  -673  -664  -652  -647  -640  -620  -597  -574  -547  -520  -511  -534  -576  -611  -626  -626  -621  -622  -638  -667  -674  -629  -566  -544  -563  -581  -574  -542  -508  -494  -509  -540  -555  -532  -495  -491  -535  -607  -670  -711  -748  -785  -786  -716  -609  -526  -487  -475  -475  -477  -475  -470  -464  -461  -450  -415  -357  -304  -274  -246  -191  -118  -57  -11  30  65  85  101  125  157  186  212  246  266  222  80  -126  -308  -396  -406  -388  -386  -427  -526  -650  -744  -794  -828  -852  -838  -787  -735  -704  -690  -715  -789  -805  -584  -37  812  1863  2937  3874  4583  4947  4836  4226  3207  1977  852  84  -326  -520  -630  -731  -780  -711  -599  -557  -581  -609  -603  -553  -467  -369  -279  -215  -188  -188  -194  -187  -152  -95  -42  -14  -5  10  49  113  181  222  235  242  270  330  428  566  736  900  1007  1042  1033  997  937  886  895  972  1071  1155  1219  1256  1242  1162  1036  916  847  829  837  840  779  589  272  -79  -369  -554  -650  -698  -735  -777  -825  -864  -885  -893  -906  -932  -957  -951  -913  -869  -850  -854  -862  -869  -878  -873  -835  -762  -678  -608  -564  -541  -533  -555  -607  -653  -663  -643  -622  -620  -637  -671  -710  -737  -734  -703  -661  -631  -616  -602  -582  -557  -524  -483  -445  -421  -413  -416  -424  -435  -445  -451  -456  -464  -477  -497  -519  -543  -563  -572  -543  -445  -290  -142  -39  33  101  175  248  312  358  380  383  374  355  321  262  178  82  -8  -95  -191  -299  -397  -459  -489  -515  -554  -602  -640  -655  -640  -598  -543  -497  -478  -492  -562  -692  -818  -824  -592  -67  709  1674  2777  3887  4774  5236  5176  4610  3668  2552  1450  546  -53  -388  -530  -542  -497  -445  -404  -372  -353  -359  -397  -456  -508  -534  -532  -500  -434  -359  -309  -298  -306  -304  -266  -182  -67  41  114  172  263  364  397  342  260  208  204  247  333  435  516  559  569  567  585  630  683  730  776  826  880  925  942  926  901  891  897  889  815  641  389  142  -42  -207  -419  -653  -823  -903  -949  -1017  -1086  -1103  -1075  -1050  -1041  -1037  -1035  -1031  -1022  -1011  -995  -970  -938  -911  -903  -913  -932  -953  -965  -966  -964  -964  -958  -944  -922  -879  -803  -704  -611  -534  -473  -443  -448  -459  -458  -468  -523  -621  -708  -741  -731  -708  -684  -662  -635  -590  -534  -495  -481  -479  -474  -466  -459  -450  -438  -422  -399  -351  -260  -145  -54  3  60  138  223  295  353  405  438  448  454  478  518  555  565  523  403  202  -10  -147  -185  -170  -147  -130  -121  -127  -158  -212  -268  -301  -307  -302  -310  -344  -396  -447  -500  -574  -670  -722  -604  -266  239  884  1664  2539  3432  4239  4787  4860  4363  3427  2287  1137  209  -280  -337  -185  -57  -27  -49  -59  -25  35  91  119  118  100  84  75  65  57  62  92  135  168  175  165  165  198  281  387  467  512  556  612  646  646  649  698  778  840  878  924  990  1065  1155  1263  1355  1402  1410  1407  1403  1392  1362  1321  1293  1297  1327  1353  1350  1300  1175  960  692  435  233  75  -85  -274  -479  -654  -758  -794  -797  -788  -769  -738  -702  -674  -661  -667  -693  -732  -765  -782  -785  -785  -788  -789  -780  -755  -713  -667  -636  -622  -615  -614  -642  -709  -785  -831  -840  -831  -825  -837  -878  -934  -978  -999  -1008  -1011  -1006  -993  -979  -968  -955  -944  -940  -943  -948  -948  -938  -917  -897  -902  -930  -962  -988  -1006  -996  -915  -737  -522  -368  -303  -286  -279  -270  -255  -242  -259  -334  -448  -552  -631  -709  -789  -847  -876  -912  -994  -1108  -1194  -1231  -1251  -1278  -1303  -1316  -1327  -1369  -1469  -1602  -1703  -1722  -1654  -1520  -1362  -1206  -1005  -645  -61  706  1577  2424  3094  3506  3554  3107  2262  1231  155  -723  -1184  -1287  -1214  -1093  -1031  -1070  -1148  -1191  -1189  -1170  -1163  -1167  -1173  -1175  -1176  -1179  -1181  -1173  -1152  -1120  -1079  -1033  -988  -923  -812  -665  -529  -439  -399  -398  -417  -445  -461  -425  -302  -126  30  143  234  305  333  314  279  250  225  205  202  227  278  324  330  292  231  170  125  104  106  120  102  -39  -374  -826  -1205  -1395  -1428  -1400  -1379  -1404  -1491  -1609  -1695  -1732  -1751  -1770  -1765  -1698  -1574  -1435  -1324  -1260  -1235  -1227  -1216  -1208  -1223  -1282  -1380  -1482  -1554  -1577  -1553  -1514  -1488  -1465  -1399  -1270  -1118  -1003  -963  -982  -1003  -1009  -1020  -1028  -1021  -993  -948  -914  -898  -873  -836  -801  -774  -755  -746  -743  -732  -702  -663  -634  -618  -595  -553  -503  -466  -446  -409  -298  -111  77  209  302  391  479  590  771  999  1188  1297  1348  1356  1304  1186  1046  952  921  923  927  922  911  903  903  913  927  938  949  971  1011  1059  1114  1213  1396  1617  1768  1806  1788  1800  1908  2138  2521  3137  4020  5041  5956  6571  6858  6938  6917  6740  6252  5449  4556  3772  3088]
