reading_id,reading_time,wire_id,result_classification,heart_rate,heart_rate_alert,firmware_version,device_app_version,hardware_version,waveform_samples
6c464930-54db-11ed-8080-808080808080,Wed Oct 26 03:08:10 UTC 2022,810063c81d39,NSR,78,NONE,20001.171.50,2.10.0,Charge 5,[0  -21  -38  -49  -67  -116  -199  -276  -314  -318  -319  -346  -413  -510  -632  -787  -950  -1062  -1090  -1032  -874  -596  -217  155  392  468  454  419  401  439  572  770  937  1013  1022  1001  960  901  841  799  781  791  834  899  951  978  1037  1199  1480  1874  2339  2760  3022  3063  2819  2268  1496  652  -100  -644  -950  -1060  -985  -725  -395  -152  -7  138  309  428  455  436  433  461  500  531  548  559  582  658  826  1043  1200  1255  1253  1244  1241  1228  1179  1092  1018  1011  1044  1057  1042  1035  1072  1165  1284  1393  1487  1583  1672  1726  1738  1733  1746  1796  1872  1937  1969  1968  1943  1899  1830  1724  1594  1463  1329  1168  964  714  430  168  -11  -151  -359  -629  -838  -931  -971  -1026  -1103  -1189  -1274  -1354  -1435  -1535  -1639  -1703  -1708  -1675  -1622  -1538  -1431  -1363  -1375  -1435  -1502  -1569  -1647  -1740  -1826  -1867  -1840  -1765  -1675  -1593  -1533  -1494  -1464  -1438  -1414  -1378  -1327  -1278  -1244  -1216  -1165  -1071  -952  -832  -722  -637  -594  -594  -600  -570  -513  -480  -487  -503  -504  -492  -479  -465  -422  -321  -173  -32  52  99  159  248  344  434  512  561  570  548  522  527  556  566  536  478  414  359  301  224  138  70  28  7  0  -3  -12  -26  -35  -16  37  92  109  106  129  186  251  303  341  357  305  115  -207  -539  -752  -827  -828  -819  -826  -844  -859  -867  -867  -850  -804  -737  -692  -728  -860  -986  -941  -661  -192  372  921  1394  1774  1973  1833  1263  326  -696  -1432  -1747  -1787  -1702  -1552  -1395  -1296  -1266  -1270  -1273  -1267  -1256  -1246  -1242  -1240  -1222  -1154  -1016  -853  -735  -667  -609  -570  -578  -591  -539  -419  -278  -150  -45  38  108  175  240  303  376  490  630  732  766  759  742  741  790  920  1094  1231  1293  1313  1328  1363  1419  1487  1557  1625  1685  1718  1719  1692  1612  1439  1209  1021  899  772  587  382  233  154  103  60  25  -12  -78  -161  -220  -223  -182  -123  -64  -28  -49  -121  -181  -195  -181  -160  -147  -145  -142  -119  -66  -2  42  59  68  101  171  258  320  344  357  375  397  417  431  427  385  301  192  88  0  -78  -137  -152  -117  -64  -31  -23  -22  -19  -29  -70  -136  -198  -239  -260  -259  -238  -213  -194  -185  -189  -204  -238  -290  -329  -341  -367  -419  -453  -445  -416  -394  -405  -454  -511  -550  -565  -564  -560  -555  -544  -525  -505  -480  -420  -281  -83  92  190  212  187  158  149  150  133  84  21  -28  -51  -39  -6  7  -25  -115  -245  -368  -444  -473  -472  -455  -427  -408  -412  -422  -426  -428  -370  -204  32  398  1032  1863  2602  2972  2795  2009  798  -454  -1381  -1822  -1889  -1745  -1465  -1118  -774  -481  -293  -232  -246  -257  -247  -248  -262  -243  -156  -30  61  87  77  65  58  50  47  80  158  236  281  305  321  338  384  479  598  684  718  734  779  877  1006  1113  1165  1177  1185  1218  1293  1408  1528  1603  1625  1621  1617  1613  1597  1552  1469  1357  1245  1161  1118  1104  1064  920  632  271  -40  -263  -411  -490  -518  -528  -537  -544  -553  -576  -619  -667  -704  -729  -756  -792  -829  -855  -867  -870  -873  -881  -884  -865  -811  -746  -728  -780  -835  -771  -428  291  1282  2269  2949  3067  2510  1366  -205  -2077  -3939  -5282  -5765  -5339  -4197  -2809  -1668  -953  -544  -272  -84  15  51  65  78  83  72  37  -8  -38  -23  51  163  270  365  471  589  681  724  728  713  684  648  637  684  807  995  1214  1407  1523  1568  1591  1632  1712  1827  1949  2044  2083  2069  2039  2021  2017  2010  1984  1936  1881  1806  1673  1475  1257  1053  846  602  333  90  -96  -223  -289  -305  -301  -305  -323  -342  -339  -313  -296  -308  -320  -305  -281  -283  -319  -367  -399  -408  -403  -395  -389  -386  -376  -353  -318  -282  -263  -272  -311  -366  -408  -426  -425  -415  -410  -427  -478  -544  -592  -603  -586  -562  -545  -538  -539  -548  -569  -589  -570  -485  -367  -300  -328  -409  -477  -501  -487  -448  -397  -358  -345  -367  -429  -512  -576  -607  -611  -584  -519  -435  -377  -359  -358  -361  -381  -432  -509  -569  -570  -533  -496  -452  -403  -369  -357  -369  -400  -428  -442  -448  -454  -464  -466  -439  -363  -243  -132  -86  -114  -175  -220  -237  -250  -278  -302  -301  -276  -243  -221  -216  -222  -229  -223  -185  -111  -26  40  85  112  90  -19  -171  -245  -209  -147  -130  -160  -206  -240  -257  -265  -260  -234  -198  -175  -175  -190  -200  -188  -159  -128  -110  -105  -101  -95  -94  -106  -116  -104  -76  -63  -114  -241  -368  -431  -442  -427  -389  -328  -264  -215  -164  -76  37  133  188  201  175  134  105  100  104  76  4  -89  -169  -214  -227  -240  -281  -353  -430  -481  -497  -493  -480  -459  -424  -372  -326  -311  -356  -499  -649  -659  -556  -435  -231  189  853  1665  2405  2759  2515  1712  556  -633  -1489  -1869  -1936  -1812  -1521  -1196  -958  -805  -705  -636  -572  -497  -419  -369  -356  -359  -343  -295  -221  -136  -57  -5  13  -10  -84  -180  -232  -196  -84  56  187  284  334  341  324  298  274  262  279  338  426  508  572  643  756  892  992  1030  1033  1032  1038  1057  1088  1131  1179  1226  1272  1317  1348  1360  1356  1318  1222  1084  967  905  856  764  640  532  452  367  262  161  95  71  72  67  31  -35  -116  -188  -235  -251  -249  -243  -236  -216  -170  -92  -3  55  78  91  116  147  155  117  40  -48  -125  -182  -224  -250  -246  -201  -126  -44  20  55  56  1  -104  -216  -300  -351  -375  -380  -378  -373  -362  -350  -364  -435  -541  -620  -627  -568  -487  -430  -413  -408  -389  -359  -337  -328  -316  -284  -230  -162  -100  -65  -65  -89  -121  -150  -174  -195  -217  -240  -266  -299  -334  -363  -386  -400  -422  -478  -575  -679  -750  -776  -771  -746  -689  -599  -517  -472  -460  -502  -577  -505  -53  821  1910  2825  3169  2774  1775  505  -659  -1462  -1878  -2004  -1908  -1650  -1321  -1013  -800  -680  -599  -528  -470  -429  -402  -383  -371  -359  -335  -290  -234  -172  -93  -8  49  74  85  97  110  122  134  164  229  325  419  486  521  537  569  632  717  814  910  984  1037  1086  1133  1183  1252  1339  1417  1469  1495  1501  1486  1443  1375  1297  1219  1144  1046  873  625  385  223  125  39  -72  -220  -370  -467  -502  -499  -458  -368  -257  -202  -239  -342  -451  -510  -515  -501  -500  -512  -529  -547  -553  -506  -368  -178  -40  -2  -30  -77  -113  -133  -142  -132  -84  -1  79  131  152  132  87  63  70  84  88  86  91  122  174  223  246  246  238  242  277  352  424  460  485  527  574  629  716  818  881  881  833  721  483  117  -246  -465  -519  -498  -495  -537  -593  -641  -700  -783  -867  -898  -843  -729  -611  -524  -472  -453  -451  -452  -461  -485  -503  -461  -335  -198  -188  -352  -586  -702  -484  196  1231  2270  2889  2837  2156  1086  -53  -973  -1525  -1753  -1781  -1676  -1471  -1212  -933  -662  -433  -259  -144  -81  -54  -56  -80  -119  -161  -191  -190  -133  -21  102  180  211  229  249  262  263  269  286  312  346  415  549  718  858  952  1022  1077  1111  1117  1091  1047  1011  1019  1113  1318  1574  1751  1776  1675  1529  1422  1383  1384  1384  1344  1234  1053  835  599  359  171  81  64  51  2  -85  -201  -341  -484  -590  -643  -670  -690  -704  -704  -696  -695  -705  -721  -726  -719  -709  -700  -682  -633  -559  -504  -509  -582  -685  -769  -821  -859  -890  -911  -922  -924  -917  -891  -833  -745  -654  -591  -560  -549  -547  -545  -542  -544  -552  -558  -543  -493  -434  -412  -419  -422  -428  -428  -388  -318  -251  -214  -218  -230  -193  -101  0  63  84  102  133  150  110  0  -136  -234  -268  -271  -292  -362  -458  -530  -562  -577  -606  -657  -709  -723  -694  -652  -614  -572  -553  -612  -720  -717  -428  177  961  1668  2021  1884  1273  279  -853  -1758  -2191  -2161  -1858  -1521  -1272  -1092  -924  -734  -533  -355  -211  -90  4  50  46  24  5  -7  2  52  128  184  207  215  228  255  306  373  430  463  489  528  579  629  680  736  785  815  836  863  902  943  971  982  994  1042  1159  1313  1430  1479  1493  1505  1531  1570  1603  1599  1540  1443  1313  1142  944  743  544  338  132  -44  -165  -227  -238  -212  -177  -165  -189  -235  -292  -370  -462  -535  -575  -582  -538  -431  -302  -238  -286  -401  -498  -537  -531  -508  -472  -412  -343  -297  -286  -300  -335  -397  -467  -506  -505  -485  -461  -447  -449  -464  -488  -511  -525  -529  -534  -537  -523  -479  -422  -400  -444  -528  -605  -653  -671  -641  -546  -410  -294  -228  -200  -188  -182  -179  -175  -171  -169  -180  -214  -257  -285  -285  -282  -321  -430  -579  -685  -684  -563  -381  -238  -200  -264  -380  -502  -611  -711  -779  -771  -690  -563  -371  -118  181  595  1151  1680  1947  1802  1191  227  -784  -1540  -1937  -2061  -2010  -1825  -1538  -1178  -767  -369  -90  27  39  18  0  -8  -1  30  96  176  242  295  355  424  482  512  525  532  509  449  395  384  422  501  605  708  781  822  864  935  1041  1167  1286  1369  1410  1427  1447  1480  1512  1531  1561  1625  1710  1783  1820  1815  1765  1673  1565  1480  1417  1336  1219  1087  959  816  634  439  278  173  119  103  105  109  97  51  -45  -194  -377  -555  -694  -794  -863  -896  -903  -896  -882  -863  -845  -835  -836  -841  -846  -850  -858  -871  -887  -903  -925  -949  -954  -930  -889  -849  -818  -798  -787  -782  -764  -705  -599  -480  -386  -317  -265  -239  -264  -355  -480  -572  -597  -573  -522  -454  -381  -322  -267  -186  -91  -41  -69  -148  -200  -174  -100  -22  48  100  119  107  84  62  42  20  0  -7  -12  -51  -146  -258  -328  -331  -281  -213  -166  -155  -167  -187  -208  -235  -257  -247  -232  -265  -284  -129  295  962  1723  2338  2583  2352  1636  526  -695  -1646  -2118  -2169  -1978  -1714  -1463  -1206  -903  -592  -358  -233  -176  -138  -110  -96  -78  -36  23  87  137  160  161  143  131  149  190  236  283  328  362  375  375  382  425  522  649  752  808  835  858  877  882  884  909  972  1068  1170  1247  1299  1350  1401  1441  1465  1475  1471  1463  1461  1453  1397  1255  1066  906  788  642  428  196  15  -103  -201  -310  -421  -506  -559  -585  -583  -552  -506  -465  -454  -456  -433  -388  -349  -331  -329  -337  -356  -386  -419  -442  -427  -345  -208  -93  -78  -149  -226  -263  -268  -256  -229  -195  -165  -140  -113  -78  -43  -18  -8  -8  -21  -48  -70  -66  -37  -8  3  2  -3  -6  -4  3  14  25  45  84  136  183  213  226  228  217  185  142  110  114  161  235  304  349  368  370  363  358  363  400  481  585  660  679  647  577  490  388  242  16  -263  -508  -656  -716  -726  -695  -613  -504  -424  -412  -476  -595  -709  -723  -589  -394  -284  -270  -161  258  1009  1899  2594  2715  2043  645  -1151  -2827  -3856  -4042  -3611  -2930  -2260  -1725  -1356  -1095  -843  -573  -350  -239  -217  -204  -136  -12  113  197  240  257  268  289  317  338  352  379  426  485  540  584  628  675  720  769  829  885  930  969  1010  1058  1143  1316  1560  1770  1870  1881  1860  1839  1824  1813  1826  1890  2016  2183  2342  2446  2478  2431  2282  2044  1777  1530  1315  1123  930  689  383  53  -223  -421  -558  -650  -701  -722  -726  -727  -727  -729  -732  -734  -735  -726  -699  -654  -599  -544  -500  -469  -445  -421  -410  -417  -431  -435  -412  -356  -289  -241  -212  -178  -134  -96  -62  -22  -3  -59  -206  -384  -508  -550  -547  -533  -507  -460  -419  -429  -499  -584  -644  -682  -723  -770  -813  -848  -864  -840  -768  -660  -547  -471  -461  -529  -666  -816  -913  -939  -926  -909  -907  -919  -932  -931  -914  -891  -866  -840  -823  -817  -814  -794  -746  -681  -624  -576  -519  -461  -435  -442  -449  -433  -384  -310  -230  -171  -130  -92  -67  -98  -222  -411  -580  -672  -700  -700  -696  -686  -657  -611  -569  -554  -565  -584  -592  -584  -580  -590  -587  -559  -513  -387  -70  483  1196  1895  2328  2287  1775  926  -62  -944  -1565  -1884  -1861  -1520  -1034  -610  -355  -248  -201  -158  -114  -86  -77  -74  -65  -52  -40  -36  -38  -34  -10  44  115  169  193  208  239  300  382  455  496  508  506  499  491  494  531  614  720  801  835  846  874  936  1017  1103  1200  1327  1480  1622  1718  1766  1781  1771  1735  1686  1650  1629  1592  1496  1336  1142  917  638  328  52  -146  -286  -404  -517  -612  -673  -701  -707  -707  -717  -731  -734  -733  -747  -773  -791  -787  -758  -701  -617  -543  -525  -551  -569  -546  -493  -448  -429  -424  -423  -431  -444  -460  -484  -515  -538  -553  -571  -594  -598  -565  -503  -450  -433  -443  -462  -477  -478  -442  -352  -232  -146  -147  -234  -356  -445  -474  -463  -430  -392  -364  -367  -410  -488  -566  -613  -630  -630  -609  -557  -484  -422  -393  -385  -381  -391  -452  -570  -703  -768  -698  -530  -382  -318  -303  -291  -271  -250  -237  -226  -216  -203  -190  -188  -201  -198  -144  -49  34  77  78  39  -43  -147  -235  -291  -336  -383  -407  -381  -332  -299  -283  -271  -262  -255  -256  -275  -323  -391  -457  -513  -575  -627  -581  -351  53  561  1163  1844  2418  2643  2421  1759  750  -301  -1058  -1447  -1578  -1513  -1290  -1025  -820  -637  -405  -153  37  135  173  210  264  327  399  473  531  566  575  564  559  574  597  615  635  661  690  720  753  791  821  840  854  874  919  1002  1113  1220  1296  1346  1394  1444  1498  1564  1620  1642  1640  1638  1656  1704  1785  1870  1901  1845  1748  1674  1617  1525  1391  1260  1135  962  737  529  375  252  137  20  -96  -206  -301  -368  -392  -376  -337  -295  -267  -256  -258  -273  -304  -342  -368  -373  -366  -362  -379  -417  -457  -485  -502  -513  -531  -559  -574  -569  -576  -611  -648  -665  -668  -666  -657  -637  -611  -592  -582  -566  -536  -496  -458  -431  -426  -461  -548  -662  -743  -763  -740  -703  -680  -698  -769  -867  -938  -950  -913  -860  -823  -822  -851  -893  -924  -934  -922  -891  -854  -831  -843  -899  -993  -1092  -1138  -1103  -1025  -962  -938  -941  -964  -1005  -1034  -1008  -933  -862  -833  -838  -852  -869  -898  -940  -974  -981  -967  -949  -955  -1003  -1083  -1159  -1207  -1234  -1259  -1290  -1332  -1382  -1426  -1441  -1417  -1373  -1325  -1261  -1163  -1050  -992  -1059  -1240  -1422  -1438  -1146  -483  510  1672  2690  3184  2968  2178  1124  145  -477  -693  -723  -762  -745  -545  -179  241  591  795  871  879  864  857  873  905  936  956  964  947  903  854  834  853  900  958  1021  1078  1126  1188  1269  1333  1359  1364  1372  1391  1428  1476  1522  1569  1631  1696  1747  1777  1792  1813  1856  1920  1989  2042  2066  2067  2064  2077  2115  2160  2190  2199  2169  2071  1915  1757  1619  1462  1259  1030  823  670  563  481  420  387  376  372  362  344  318  275  214  147  92  60  51  52  49  22  -36  -112  -154  -109  1  97  135  128  103  78  60  39  3  -42  -76  -99  -129  -170  -212  -257  -313  -377  -432  -464  -472  -471  -473  -473  -448  -379  -293  -243  -254  -314  -389  -440  -457  -453  -442  -425  -402  -373  -342  -309  -288  -292  -308  -319  -321  -322  -324  -325  -316  -304  -309  -332  -343  -323  -288  -269  -280  -303  -319  -330  -344  -353  -328  -246  -147  -104  -116  -138  -157  -170  -162  -132  -94  -68  -65  -89  -143  -211  -259  -272  -265  -258  -272  -323  -395  -457  -498  -529  -558  -595  -642  -697  -757  -800  -806  -809  -837  -819  -652  -308  177  774  1372  1726  1653  1165  312  -771  -1735  -2289  -2465  -2382  -2088  -1684  -1308  -985  -695  -493  -415  -411  -418  -414  -406  -404  -393  -353  -290  -231  -190  -169  -162  -162  -162  -160  -156  -152  -148  -136  -107  -49  33  125  205  254  261  235  207  201  221  270  350  459  573  686  807  929  1029  1104  1184  1283  1389  1475  1504  1445  1310  1150  1023  951  921  884  787  623  431  244  39  -191  -394  -513  -556  -561  -553  -547  -559  -599  -652  -693  -709  -709  -695  -663  -620  -593  -607  -662  -718  -734  -716  -695  -680  -670  -661  -644  -611  -574  -560  -586  -632  -656  -628  -553  -470  -411  -386  -392  -424  -475  -529  -556  -535  -468  -369  -257  -161  -109  -112  -150  -192  -265  -447  -743  -976  -891  -378  482  1469  2272  2661  2541  1799  352  -1634  -3788  -5645  -6720  -6756  -5931  -4659  -3325  -2195  -1403  -945  -697  -502  -291  -84  84  209  286  308  279  241  237  284  367  455  529  589  645  692  716  710  698  739  884  1097  1273  1365  1411  1448  1474  1483  1499  1583  1777  2032  2238  2376  2515  2687  2853  2985  3094  3187  3263  3317  3346  3331  3230  3015  2729  2464  2240  1977  1652  1338  1060  765  463  243  132  66  6  -30  -31  -21  -30  -67  -106  -117  -104  -90  -86  -88  -90  -89  -78  -49  -4  35  54  56  51  43  32  16  0  -9  -13  -14  -14  -7  12  44  76  89  81  66  55  39  -2  -86  -190  -266  -281  -240  -168  -104  -81  -101  -157  -222  -271  -298  -311  -325  -348  -363  -332  -226  -84  13  30  -21  -116  -231  -339  -416  -455  -465  -443  -383  -305  -249  -230  -237  -254  -270  -273  -256  -226  -198  -187  -208  -275  -372  -451  -482  -460  -392  -299  -220  -181  -176  -186  -196  -207  -228  -263  -308  -361  -413  -443  -438  -410  -382  -355  -314  -253  -188  -148  -146  -183  -243  -297  -328  -334  -312  -251  -167  -100  -73  -83  -125  -198  -278  -332  -354  -361  -364  -359  -347  -331  -316  -311  -316  -308  -258  -161  -46  36  66  48  -21  -136  -258  -349  -394  -371  -289  -224  -230  -289  -353  -392  -404  -403  -394  -366  -315  -254  -211  -213  -252  -290  -300  -292  -287  -289  -282  -246  -184  -127  -107  -124  -150  -166  -174  -179  -168  -129  -74  -29  -7  -5  -42  -146  -300  -445  -534  -576  -596  -609  -612  -596  -562  -526  -515  -582  -765  -973  -1028  -889  -714  -610  -491  -220  283  1018  1771  2176  2039  1461  650  -182  -849  -1298  -1624  -1871  -1934  -1726  -1328  -920  -638  -483  -389  -321  -267  -223  -197  -196  -214  -238  -252  -259  -263  -266  -262  -241  -189  -114  -48  -7  14  34  65  111  166  222  275  312  332  342  348  350  353  376  437  526  603  637  640  654  715  816  910  967  998  1025  1055  1090  1133  1175  1198  1195  1147  1032  880  751  647  523  366  215  107  36  -23  -80  -130  -176  -221  -253  -266  -270  -277  -294  -310  -319  -326  -335  -338  -335  -333  -346  -384  -426  -428  -372  -303  -278  -294  -312  -315  -307  -297  -289  -287  -296  -315  -333  -345  -352  -355  -350  -340  -332  -329  -334  -350  -375  -398  -410  -405  -384  -360  -344  -341  -360  -399  -435  -450  -440  -408  -366  -334  -316  -306  -296  -290  -289  -287  -277  -261  -246  -244  -263  -311  -377  -422  -396  -275  -106  19  61  39  -26  -106  -159  -147  -61  72  207  305  338  294  212  151  134  143  154  165  179  198  219  229  198  99  -35  -134  -158  -129  -83  -54  -72  -148  -251  -326  -358  -375  -402  -445  -507  -577  -608  -517  -268  50  357  715  1235  1905  2529  2825  2608  1844  675  -507  -1296  -1649  -1718  -1552  -1249  -963  -723  -521  -387  -314  -264  -212  -156  -109  -83  -73  -61  -38  -1  47  99  137  151  144  115  70  27  5  23  99  234  387  506  570  601  629  653  673  713  799  928  1059  1151  1183  1171  1155  1179  1274  1432  1590  1678  1684  1640  1590  1562  1550  1541  1535  1527  1478  1338  1117  892  703  542  413  328  278  206  46  -188  -394  -516  -592  -662  -713  -737  -761  -811  -885  -955  -985  -951  -863  -761  -682  -636  -611  -598  -595  -597  -601  -596  -570  -521  -469  -442  -445  -460  -465  -441  -384  -317  -277  -271  -282  -290  -289  -279  -269  -271  -288  -308  -316  -328  -364  -419  -475  -516  -539  -544  -513  -431  -324  -247  -220  -229  -262  -320  -405  -502  -572  -565  -420  -65  535  1351  2241  2993  3354  3055  1942  96  -2188  -4388  -5848  -6190  -5548  -4302  -2863  -1652  -881  -423  -80  202  391  480  509  522  532  529  517  501  481  462  456  481  543  615  682  756  832  893  935  962  979  989  997  1006  1019  1043  1089  1158  1229  1275  1299  1326  1380  1466  1561  1644  1746  1911  2114  2270  2356  2422  2505  2585  2625  2611  2553  2430  2190  1827  1428  1081  790  496  175  -115  -314  -426  -493  -541  -576  -615  -662  -701  -707  -682  -644  -601  -558  -525  -509  -503  -497  -469  -396  -304  -264  -322  -448  -568  -638  -663  -658  -619  -537  -434  -346  -293  -275  -284  -307  -334  -350  -354  -361  -385  -432  -500  -566  -604  -612  -598  -568  -530  -505  -499  -504  -515  -540  -580  -618  -622  -570  -491  -431  -408  -407  -412  -415  -413  -402  -380  -350  -321  -300  -297  -319  -353  -381  -392  -394  -392  -386  -365  -321  -263  -218  -204  -208  -195  -150  -99  -72  -74  -99  -141  -205  -280  -332  -331  -275  -189  -111  -59  -28  -12  -13  -32  -59  -81  -93  -97  -98  -102  -115  -135  -149  -152  -152  -157  -164  -165  -151  -138  -147  -174  -206  -226  -221  -204  -201  -209  -206  -195  -191  -189  -166  -101  -12  55  79  80  76  68  49  30  26  37  46  36  -1  -49  -81  -83  -61  -26  7  35  62  95  126  129  86  -2  -122  -238  -306  -323  -318  -312  -308  -305  -306  -316  -340  -373  -404  -441  -479  -479  -365  -42  507  1206  1891  2299  2193  1562  602  -412  -1207  -1635  -1786  -1800  -1659  -1357  -1032  -788  -616  -471  -306  -132  -16  19  26  45  53  11  -65  -126  -125  -46  65  143  162  149  133  126  126  127  134  159  211  274  318  333  344  378  436  506  582  652  692  695  690  724  833  983  1098  1146  1168  1195  1209  1187  1148  1126  1139  1185  1230  1224  1138  992  854  771  733  681  552  342  122  -42  -138  -185  -206  -241  -325  -438  -525  -564  -575  -570  -518  -384  -201  -64  -12  -10  -23  -47  -101  -184  -266  -322  -352  -348  -313  -264  -204  -153  -133  -140  -153  -160  -159  -158  -159  -159  -152  -132  -109  -103  -115  -124  -114  -85  -55  -43  -50  -65  -77  -87  -118  -182  -267  -346  -394  -407  -390  -342  -277  -222  -196  -191  -182  -144  -74  0  49  67  69  69  74  77  53  -20  -120  -194  -222  -227  -231  -243  -265  -290  -306  -302  -283  -275  -286  -293  -287  -281  -302  -366  -455  -544  -629  -696  -698  -604  -466  -310  -54  419  1127  1851  2241  2079  1385  347  -731  -1560  -2011  -2156  -2107  -1876  -1492  -1088  -779  -571  -414  -268  -124  -6  37  5  -56  -125  -193  -237  -232  -167  -67  18  60  70  76  90  111  130  154  210  307  413  495  544  565  572  582  617  680  759  833  885  918  945  993  1098  1258  1406  1484  1519  1568  1638  1687  1692  1667  1625  1540  1395  1217  1053  912  765  585  370  135  -91  -270  -372  -404  -392  -358  -315  -285  -283  -321  -394  -470  -509  -499  -459  -416  -378  -349  -344  -374  -439  -522  -583  -595  -568  -524  -467  -393  -312  -252  -228  -231  -249  -271  -292  -309  -325  -343  -356  -369  -398  -426  -418  -354  -264  -198  -177  -182  -191  -191  -174  -142  -125  -141  -171  -189  -201  -219  -237  -240  -233  -236  -271  -352  -454  -529  -550  -529  -487  -438  -391  -354  -333  -325  -321  -311  -298  -282  -252  -205  -164  -155  -177  -210  -253  -316  -394  -476  -554  -619  -666  -686  -677  -640  -588  -541  -501  -468  -458  -476  -510  -558  -609  -621  -549  -349  23  529  1101  1676  2082  2069  1535  603  -473  -1388  -1902  -2047  -2002  -1828  -1520  -1151  -822  -598  -470  -383  -311  -273  -263  -249  -217  -186  -171  -166  -168  -178  -196  -197  -129  37  249  400  449  428  375  298  219  183  222  326  454  572  668  746  808  848  871  890  927  999  1109  1234  1344  1413  1443  1451  1467  1507  1569  1639  1701  1747  1768  1730  1584  1344  1097  900  737  590  459  337  206  56  -101  -233  -321  -367  -381  -376  -360  -341  -319  -289  -260  -277  -357  -447  -494  -485  -426  -339  -259  -204  -167  -134  -95  -60  -51  -74  -105  -118  -117  -124  -144  -170  -199  -231  -260  -273  -269  -257  -247  -245  -253  -275  -309  -330  -320  -294  -280  -299  -343  -398  -461  -514  -519  -488  -468  -473  -487  -497  -496  -472  -413  -334  -278  -272  -310  -364  -402  -415  -413  -406  -391  -355  -291  -216  -164  -142  -122  -94  -60  -18  20  40  44  45  46  28  -29  -119  -203  -266  -329  -397  -446  -459  -450  -441  -462  -533  -636  -713  -725  -658  -524  -357  -204  -119  -139  -275  -488  -628  -462  134  1053  1995  2600  2608  2011  1036  -32  -931  -1481  -1728  -1837  -1838  -1667  -1338  -945  -573  -282  -108  -38  -26  -32  -36  -30  1  62  131  161  141  117  128  163  196  217  236  263  296  322  348  394  461  527  580  632  687  731  756  780  837  932  1037  1130  1204  1252  1275  1303  1372  1468  1541  1577  1599  1623  1650  1678  1684  1643  1571  1500  1410  1253  1032  800  606  455  321  189  76  -14  -100  -202  -309  -387  -431  -467  -509  -549  -586  -623  -647  -624  -525  -370  -225  -132  -93  -91  -109  -144  -206  -301  -406  -483  -515  -518  -509  -498  -486  -478  -478  -484  -489  -476  -421  -326  -233  -182  -171  -179  -188  -194  -197  -196  -185  -164  -142  -151  -216  -321  -417  -468  -473  -450  -418  -392  -384  -389  -390  -385  -388  -407  -425  -406  -350  -298  -275  -270  -272  -273  -277  -293  -330  -384  -438  -464  -451  -405  -341  -283  -250  -246  -266  -307  -360  -388  -332  -181  12  267  694  1381  2305  3211  3630  3204  1893  -126  -2478  -4572  -5881  -6212  -5705  -4665  -3444  -2373  -1610  -1111  -803  -625  -493  -358  -244  -183  -165  -152  -122  -74  -15  36  67  90  131  195  260  308  346  391  441  484  518  542  552  560  594  663  748  818  861  902  997  1183  1417  1612  1733  1815  1889  1948  1981  2010  2070  2177  2299  2384  2413  2407  2369  2272  2120  1952  1790  1626  1442  1207  915  599  291  11  -217  -387  -526  -654  -742  -754  -693  -611  -557  -534  -509  -458  -389  -335  -298  -257  -207  -170  -157  -156  -159  -165  -184  -214  -256  -317  -408  -515  -597  -617  -565  -460  -355  -288  -265  -271  -281  -266  -212  -168  -190  -260  -331  -394  -440  -459  -471  -494  -514  -513  -488  -457  -420  -370  -318  -284  -279  -291  -303  -304  -297  -289  -278  -261  -240  -226  -224  -231  -245  -268  -292  -301  -290  -280  -298  -340  -379  -399  -405  -407  -402  -368  -291  -187  -93  -39  -39  -107  -240  -383  -457  -434  -349  -254  -181  -146  -151  -183  -208  -198  -155  -89  -19  26  27  -12  -73  -122  -146  -164  -193  -234  -265  -262  -230  -198  -185  -185  -188  -191  -196  -207  -219  -226  -224  -206  -160  -89  -22  18  27  -2  -60  -104  -118  -103  -69  -42  -40  -67  -108  -144  -163  -168  -172  -195  -244  -297  -338  -384  -435  -467  -475  -464  -450  -445  -451  -442  -385  -296  -278  -386  -525  -574  -434  -3  711  1589  2432  2922  2795  2082  1028  -65  -921  -1449  -1736  -1768  -1501  -1100  -783  -585  -426  -275  -166  -119  -108  -94  -54  5  61  96  108  108  108  117  137  175  240  319  376  396  394  387  378  367  358  360  381  425  487  548  599  644  704  782  862  927  984  1047  1117  1177  1222  1275  1372  1510  1633  1692  1680  1612  1522  1444  1385  1335  1299  1264  1196  1084  940  765  560  359  195  70  -24  -82  -105  -119  -155  -228  -324  -401  -428  -410  -372  -338  -321  -319  -321  -325  -330  -336  -338  -336  -331  -329  -324  -303  -264  -222  -188  -164  -150  -140  -134  -137  -160  -207  -257  -287  -314  -352  -370  -362  -351  -348  -355  -359  -340  -310  -292  -289  -291  -298  -312  -331  -345  -350  -348  -338  -315  -285  -259  -249  -262  -312  -392  -475  -527  -526  -482  -429  -390  -369  -364  -367  -372  -377  -386  -388  -364  -305  -231  -172  -136  -114  -100  -92  -73  -53  -55  -68  -71  -43  19  88  119  98  30  -72  -172  -235  -263  -283  -310  -343  -381  -428  -486  -541  -572  -566  -540  -527  -539  -571  -597  -555  -427  -291  -244  -310  -363  -147  509  1458  2315  2766  2685  2119  1272  393  -364  -989  -1511  -1832  -1818  -1478  -967  -501  -234  -150  -139  -138  -135  -133  -131  -126  -104  -54  10  61  93  115  130  138  146  159  171  162  133  124  164  234  300  348  390  445  514  570  616  690  807  935  1034  1095  1129  1150  1177  1235  1319  1395  1452  1499  1544  1583  1607  1606  1579  1532  1466  1362  1191  953  710  529  417  332  235  120  -3  -160  -379  -618  -792  -848  -797  -685  -570  -495  -474  -495  -534  -573  -602  -617  -612  -576  -517  -458  -413  -380  -368  -383  -402  -409  -409  -423  -459  -499  -514  -503  -478  -440  -396  -363  -356  -369  -376  -362  -345  -345  -362  -379  -378  -366  -358  -359  -368  -380  -397  -431  -495  -574  -629  -646  -643  -644  -654  -667  -671  -667  -664  -664  -665  -664  -652  -622  -574  -521  -477  -454  -450  -454  -458  -472  -508  -556  -591  -607  -618  -634  -649  -654  -648  -630  -597  -542  -466  -390  -339  -315  -307  -306  -305  -293  -272  -252  -234  -202  -145  -78  -30  -11  -7  -6  -12  -45  -113  -209  -325  -453  -562  -616  -611  -531  -300  186  976  1957  2821  3212  2891  1769  -67  -2291  -4407  -5924  -6517  -6178  -5147  -3798  -2526  -1542  -846  -411  -218  -184  -205  -219  -209  -164  -82  18  113  201  294  391  487  560  576  553  543  568  623  697  764  804  835  890  966  1030  1071  1117  1200  1321  1441  1533  1608  1700  1833  2010  2186  2321  2434  2566  2715  2853  2952  3000  3008  2987  2941  2884  2851  2858  2868  2781  2496  2046  1609  1298  1054  765  425  110  -118  -259  -329  -350  -350  -347  -347  -350  -361  -377  -390  -395  -393  -388  -380  -363  -343  -337  -358  -407  -470  -508  -503  -476  -445  -399  -336  -273  -220  -181  -155  -134  -120  -114  -113  -101  -70  -35  -24  -46  -82  -115  -147  -186  -217  -210  -157  -91  -37  11  76  169  278  369  404  377  316  249  189  137  105  98  112  129  138  157  210  307  422  496  505  476  434  405  401  413  429  439  432  398  339  291  280  286  290  294  316  376  462  539  585  596  551  421  242  102  38  16  1  -13  -26  -42  -62  -85  -109  -119  -95  -44  6  35  39  23  -7  -44  -69  -93  -139  -208  -278  -344  -421  -528  -655  -776  -871  -930  -956  -971  -991  -1023  -1064  -1109  -1142  -1157  -1165  -1184  -1224  -1280  -1330  -1368  -1405  -1403  -1288  -1033  -642  -97  582  1306  1877  2052  1737  993  -54  -1156  -2021  -2549  -2775  -2691  -2324  -1819  -1318  -901  -620  -482  -443  -461  -504  -544  -570  -578  -550  -463  -341  -242  -197  -189  -188  -166  -107  -34  16  44  75  125  192  260  308  334  361  426  550  697  804  844  848  858  904  975  1038  1078  1116  1174  1246  1307  1357  1413  1478  1538  1577  1595  1597  1584  1533  1417  1248  1079  945  834  693  470  205  6  -88  -138  -187  -222  -215  -162  -97  -76  -122  -215  -318  -393  -432  -459  -481  -487  -476  -450  -416  -383  -357  -343  -336  -327  -305  -277  -257  -253  -256  -249  -222  -181  -158  -191  -281  -368  -378  -305  -189  -96  -91  -154  -207  -215  -204  -200  -211  -234  -262  -284  -305  -337  -382  -425  -449  -447  -418  -361  -291  -245  -249  -309  -394  -456  -456  -390  -284  -193  -147  -135  -139  -151  -162  -162  -143  -110  -74  -38  -2  25  40  45  44  42  45  57  74  88  95  100  104  105  90  32  -87  -236  -341  -373  -357  -323  -287  -264  -277  -337  -421  -490  -526  -526  -472  -358  -242  -205  -258  -314  -212  199  907  1655  2107  2080  1593  752  -292  -1278  -1919  -2127  -1982  -1592  -1115  -737  -532  -456  -431  -395  -304  -162  -24  56  81  86  113  185  265  297  299  329  387  429  442  440  435  439  451  469  492  527  576  644  718  766  777  775  799  879  1013  1144  1208  1210  1232  1309  1380  1404  1405  1412  1429  1443  1449  1454  1464  1463  1423  1333  1224  1138  1059  907  629  304  77  -24  -100  -209  -309  -358  -387  -452  -563  -685  -788  -862  -914  -943  -941  -919  -891  -862  -836  -819  -813  -817  -827  -843  -862  -875  -883  -884  -874  -841  -788  -737  -698  -672  -657  -651  -651  -654  -657  -652  -622  -559  -471  -389  -344  -352  -410  -489  -547  -565  -556  -528  -484  -438  -406  -396  -409  -446  -495  -530  -523  -468  -389  -332  -321  -346  -381  -400  -393  -372  -354  -338  -323  -313  -313  -320  -330  -340  -347  -352  -350  -341  -341  -381  -477  -579  -607  -557  -494  -450  -403  -338  -270  -215  -188  -200  -242  -285  -320  -366  -431  -497  -543  -562  -562  -556  -558  -573  -589  -574  -527  -481  -457  -461  -480  -482  -440  -361  -213  121  702  1390  1964  2225  2020  1318  283  -770  -1541  -1906  -1950  -1812  -1566  -1213  -781  -407  -214  -158  -124  -68  -19  0  10  44  119  216  308  394  475  532  546  528  505  493  491  504  542  606  682  747  786  804  832  897  984  1052  1084  1102  1136  1198  1287  1389  1479  1536  1559  1568  1579  1599  1622  1655  1704  1761  1800  1806  1786  1746  1686  1606  1512  1422  1337  1225  1047  799  516  243  39  -59  -75  -62  -54  -61  -86  -122  -162  -206  -250  -286  -304  -299  -276  -238  -173  -76  30  105  130  111  59  -8  -61  -88  -96  -96  -96  -89  -73  -41  7  62  98  110  110  109  110  105  86  58  42  38  35  24  3  -25  -54  -75  -90  -106  -126  -156  -189  -213  -224  -240  -276  -314  -316  -269  -198  -131  -95  -104  -162  -242  -299  -297  -235  -145  -79  -70  -128  -233  -337  -386  -367  -309  -244  -190  -147  -122  -118  -133  -154  -154  -120  -69  -28  0  19  29  12  -53  -159  -265  -336  -367  -374  -381  -403  -438  -472  -499  -517  -532  -548  -558  -563  -585  -647  -711  -698  -630  -631  -708  -709  -441  183  1043  1887  2426  2440  1939  1108  159  -682  -1247  -1533  -1646  -1659  -1604  -1488  -1275  -952  -624  -424  -371  -388  -407  -410  -404  -396  -389  -376  -347  -302  -251  -212  -186  -163  -142  -133  -136  -142  -140  -113  -48  34  92  124  182  296  411  435  366  287  271  340  478  650  812  936  1037  1135  1220  1279  1314  1338  1358  1376  1391  1390  1340  1216  1053  924  847  775  658  485  275  68  -91  -200  -305  -426  -533  -600  -624  -618  -615  -650  -722  -801  -855  -872  -868  -855  -832  -796  -748  -700  -664  -643  -630  -622  -613  -598  -579  -564  -561  -573  -592  -607  -616  -628  -643  -655  -658  -651  -642  -635  -631  -627  -618  -594  -558  -528  -516  -526  -552  -580  -598  -606  -611  -613  -607  -592  -574  -560  -543  -509  -484  -529  -617  -580  -246  443  1419  2486  3312  3530  2931  1508  -573  -2910  -4907  -6051  -6190  -5512  -4324  -2974  -1850  -1171  -820  -546  -257  -17  125  197  239  265  283  319  396  496  574  606  608  598  593  608  653  716  772  821  873  933  1007  1099  1199  1282  1332  1373  1471  1664  1898  2066  2131  2139  2147  2178  2253  2394  2586  2780  2925  3000  3017  3012  3013  3019  2995  2888  2674  2387  2079  1782  1517  1272  1005  700  398  161  2  -134  -304  -490  -635  -699  -657  -500  -291  -141  -89  -96  -118  -147  -177  -193  -187  -166  -145  -134  -134  -147  -184  -249  -314  -347  -347  -328  -294  -252  -214  -185  -157  -145  -174  -236  -284  -270  -182  -59  27  48  20  -34  -105  -172  -209  -209  -188  -167  -151  -137  -128  -126  -129  -133  -136  -138  -138  -137  -142  -157  -180  -200  -208  -204  -195  -190  -193  -197  -191  -168  -119  -56  -8  8  0  -30  -75  -124  -165  -186  -177  -137  -81  -37  -16  -11  -13  -19  -37  -72  -112  -141  -153  -154  -165  -198  -235  -242  -219  -199  -209  -240  -269  -270  -242  -210  -187  -167  -142  -114  -93  -82  -90  -126  -194  -268  -311  -304  -247  -169  -115  -116  -175  -258  -316  -330  -322  -315  -311  -299  -272  -234  -197  -172  -161  -162  -192  -268  -368  -435  -435  -378  -302  -252  -246  -277  -335  -409  -469  -494  -474  -407  -314  -237  -198  -189  -196  -207  -222  -243  -259  -250  -211  -168  -155  -182  -222  -251  -266  -290  -362  -504  -671  -785  -823  -823  -826  -844  -855  -830  -773  -725  -708  -716  -734  -757  -784  -758  -545  -26  779  1645  2239  2332  1878  1007  -25  -957  -1624  -2009  -2149  -2052  -1747  -1325  -933  -702  -632  -625  -598  -523  -413  -309  -244  -216  -209  -212  -215  -203  -161  -96  -39  -9  -1  -5  -19  -37  -45  -23  41  134  221  286  342  394  429  440  435  424  426  469  569  697  798  850  864  857  852  892  1008  1161  1265  1297  1299  1300  1299  1300  1313  1330  1298  1150  886  623  477  442  405  277  84  -67  -130  -150  -190  -256  -319  -364  -399  -443  -493  -533  -550  -547  -525  -477  -411  -352  -316  -299  -296  -302  -308  -309  -297  -264  -216  -181  -181  -224  -291  -345  -367  -348  -288  -207  -146  -123  -143  -212  -319  -424  -484  -500  -495  -483  -460  -426  -409  -431  -478  -519  -538  -539  -533  -523  -510  -495  -479  -469  -466  -465  -462  -456  -440  -408  -366  -332  -314  -294  -252  -188  -131  -105  -124  -194  -290  -357  -359  -298  -213  -152  -132  -136  -149  -166  -182  -194  -204  -218  -239  -260  -273  -280  -296  -333  -382  -427  -458  -473  -478  -477  -461  -437  -441  -463  -394  -112  431  1172  1896  2354  2390  1987  1219  218  -776  -1506  -1907  -2040  -1884  -1463  -957  -528  -237  -89  -51  -66  -94  -123  -139  -122  -56  53  169  245  275  285  290  290  284  281  301  362  444  497  493  454  421  410  416  451  537  660  767  825  842  847  876  956  1075  1197  1297  1373  1421  1449  1479  1520  1553  1566  1567  1565  1554  1528  1499  1481  1462  1384  1199  936  700  557  453  294  77  -113  -215  -252  -285  -336  -383  -404  -407  -404  -403  -398  -387  -375  -378  -393  -406  -400  -375  -336  -287  -237  -202  -191  -184  -159  -124  -96  -75  -60  -52  -61  -110  -204  -311  -375  -359  -260  -124  -23  14  5  -50  -162  -296  -396  -447  -482  -510  -501  -450  -382  -325  -293  -281  -268  -246  -220  -202  -196  -200  -202  -196  -186  -184  -190  -199  -205  -206  -205  -207  -211  -212  -191  -141  -81  -29  14  46  48  17  -30  -74  -96  -102  -113  -143  -187  -223  -244  -259  -284  -323  -362  -383  -386  -381  -382  -400  -431  -442  -386  -264  -150  -92  35  406  1030  1740  2222  2174  1573  627  -394  -1216  -1680  -1856  -1890  -1810  -1572  -1212  -847  -576  -414  -304  -186  -58  47  116  153  165  154  122  79  47  45  78  136  192  226  253  306  396  489  542  547  520  480  439  404  386  414  514  660  778  821  800  744  684  650  682  804  981  1132  1214  1247  1268  1295  1336  1398  1478  1531  1489  1302  1025  801  693  622  464  194  -77  -238  -309  -380  -477  -554  -586  -595  -610  -634  -648  -634  -591  -550  -542  -556  -554  -515  -462  -447  -487  -539  -565  -568  -563  -545  -501  -438  -385  -364  -386  -453  -546  -628  -668  -640  -534  -381  -246  -164  -138  -161  -233  -341  -445  -494  -476  -421  -365  -311  -256  -214  -190  -182  -208  -298  -433  -549  -594  -558  -467  -363  -290  -263  -264  -276  -287  -283  -241  -170  -114  -98  -103  -97  -65  -17  22  47  74  109  141  157  154  137  119  98  55  1  -37  -57  -71  -99  -136  -170  -196  -221  -252  -301  -359  -405  -430  -438  -435  -423  -415  -452  -532  -577  -540  -440  -237  132  690  1415  2124  2477  2306  1695  769  -312  -1262  -1851  -2079  -2033  -1772  -1401  -1046  -739  -454  -208  -52  5  10  8  22  54  99  161  237  320  390  413  368  280  199  161  179  254  358  444  490  511  532  573  627  671  706  760  850  957  1046  1103  1142  1193  1269  1352  1417  1452  1462  1462  1464  1466  1467  1472  1487  1521  1575  1629  1656  1619  1489  1291  1092  918  752  594  456  309  116  -127  -383  -592  -723  -780  -763  -671  -527  -394  -324  -316  -348  -411  -488  -548  -573  -567  -528  -458  -383  -336  -337  -390  -480  -578  -649  -674  -646  -573  -481  -404  -365  -364  -384  -413  -443  -473  -503  -522  -501  -426  -332  -273  -272  -307  -353  -398  -449  -518  -598  -663  -694  -697  -681  -652  -614  -575  -543  -525  -516  -501  -477  -448  -418  -397  -414  -517  -688  -800  -726  -403  232  1153  2136  2881  3132  2730  1683  129  -1774  -3780  -5450  -6363  -6337  -5433  -3949  -2368  -1117  -339  46  172  169  138  124  139  180  228  258  265  270  296  348  412  468  504  515  505  472  424  384  391  493  693  909  1042  1064  1009  924  869  928  1172  1539  1855  2013  2050  2060  2107  2191  2285  2385  2498  2617  2719  2779  2788  2746  2661  2545  2414  2277  2149  2025  1836  1520  1123  762  491  275  68  -129  -292  -407  -474  -505  -513  -512  -509  -511  -522  -540  -555  -551  -513  -439  -354  -288  -268  -310  -403  -499  -555  -563  -529  -462  -382  -323  -303  -316  -347  -381  -403  -412  -411  -397  -360  -309  -266  -241  -234  -242  -252  -255  -257  -283  -357  -466  -566  -630  -662  -677  -674  -642  -573  -491  -431  -411  -413  -419  -422  -421  -422  -430  -439  -441  -442  -457  -492  -531  -558  -569  -562  -556  -563  -566  -554  -538  -528  -529  -530  -512  -487  -483  -514  -561  -587  -567  -511  -474  -491  -527  -555  -586  -622  -649  -646  -601  -526  -448  -388  -357  -351  -356  -363  -379  -416  -462  -496  -510  -514  -510  -478  -407  -316  -248  -224  -258  -355  -476  -549  -540  -490  -448  -410  -333  -211  -87  -15  -18  -70  -122  -151  -164  -171  -175  -174  -157  -113  -58  -24  -29  -58  -86  -99  -102  -101  -81  -14  91  186  239  256  259  255  236  190  134  109  138  197  232  206  117  -16  -162  -274  -328  -322  -265  -173  -79  -21  -22  -87  -197  -301  -365  -386  -375  -346  -333  -350  -352  -262  1  489  1162  1891  2506  2837  2764  2268  1429  436  -469  -1145  -1521  -1534  -1276  -971  -727  -529  -349  -177  -41  37  85  132  174  200  209  205  197  196  210  235  251  250  246  263  301  331  339  344  363  403  458  515  563  611  659  683  673  651  645  665  709  768  834  906  982  1058  1118  1154  1169  1180  1216  1300  1397  1439  1421  1395  1390  1397  1394  1361  1273  1123  939  755  590  429  221  -58  -339  -517  -572  -550  -489  -412  -350  -325  -344  -415  -532  -658  -760  -834  -886  -921  -937  -937  -940  -978  -1063  -1155  -1210  -1236  -1240  -1198  -1112  -1013  -932  -897  -916  -957  -992  -1022  -1050  -1071  -1077  -1072  -1069  -1081  -1098  -1093  -1060  -1019  -993  -995  -1006  -996  -973  -961  -962  -965  -966  -966  -970  -980  -993  -1013  -1040  -1061  -1061  -1045  -1026  -1008  -988  -964  -934  -915  -931  -987  -1029  -980  -847  -720  -660  -659  -702  -781  -873  -936  -936  -872  -773  -687  -635  -598  -550  -501  -472  -474  -492  -503  -499  -505  -543  -616  -706  -789  -844  -866  -864  -857  -852  -858  -892  -971  -1069  -1140  -1161  -1149  -1133  -1123  -1122  -1134  -1150  -1127  -1000  -702  -201  491  1324  2105  2542  2467  1908  1008  18  -777  -1267  -1546  -1681  -1642  -1462  -1205  -889  -586  -397  -313  -255  -177  -65  55  141  174  172  163  156  153  153  154  159  179  229  316  413  476  492  486  487  502  522  540  584  722  987  1299  1521  1602  1594  1571  1583  1654  1763  1854  1890  1891  1920  2020  2161  2271  2339  2408  2489  2540  2530  2476  2419  2358  2248  2069  1871  1715  1614  1548  1478  1319  994  532]
